# Output from CTFFind version 4.1.9, run on 2019-11-03 19:02:22
# Input file: stack16_bm3d_averaged_1_2.25_0_2500_half.mrc ; Number of micrographs: 1
# Pixel size: 3.000 Angstroms ; acceleration voltage: 300.0 keV ; spherical aberration: 0.00 mm ; amplitude contrast: 0.07
# Box size: 512 pixels ; min. res.: 30.0 Angstroms ; max. res.: 5.0 Angstroms ; min. def.: 5000.0 um; max. def. 50000.0 um; num. frames averaged: 1
# 6 lines per micrograph: #1 - spatial frequency (1/Angstroms); #2 - 1D rotational average of spectrum (assuming no astigmatism); #3 - 1D rotational average of spectrum; #4 - CTF fit; #5 - cross-correlation between spectrum and CTF fit; #6 - 2sigma of expected cross correlation of noise
0.000000 0.000651 0.001302 0.001953 0.002604 0.003255 0.003906 0.004557 0.005208 0.005859 0.006510 0.007161 0.007812 0.008464 0.009115 0.009766 0.010417 0.011068 0.011719 0.012370 0.013021 0.013672 0.014323 0.014974 0.015625 0.016276 0.016927 0.017578 0.018229 0.018880 0.019531 0.020182 0.020833 0.021484 0.022135 0.022786 0.023438 0.024089 0.024740 0.025391 0.026042 0.026693 0.027344 0.027995 0.028646 0.029297 0.029948 0.030599 0.031250 0.031901 0.032552 0.033203 0.033854 0.034505 0.035156 0.035807 0.036458 0.037109 0.037760 0.038411 0.039062 0.039714 0.040365 0.041016 0.041667 0.042318 0.042969 0.043620 0.044271 0.044922 0.045573 0.046224 0.046875 0.047526 0.048177 0.048828 0.049479 0.050130 0.050781 0.051432 0.052083 0.052734 0.053385 0.054036 0.054688 0.055339 0.055990 0.056641 0.057292 0.057943 0.058594 0.059245 0.059896 0.060547 0.061198 0.061849 0.062500 0.063151 0.063802 0.064453 0.065104 0.065755 0.066406 0.067057 0.067708 0.068359 0.069010 0.069661 0.070312 0.070964 0.071615 0.072266 0.072917 0.073568 0.074219 0.074870 0.075521 0.076172 0.076823 0.077474 0.078125 0.078776 0.079427 0.080078 0.080729 0.081380 0.082031 0.082682 0.083333 0.083984 0.084635 0.085286 0.085938 0.086589 0.087240 0.087891 0.088542 0.089193 0.089844 0.090495 0.091146 0.091797 0.092448 0.093099 0.093750 0.094401 0.095052 0.095703 0.096354 0.097005 0.097656 0.098307 0.098958 0.099609 0.100260 0.100911 0.101562 0.102214 0.102865 0.103516 0.104167 0.104818 0.105469 0.106120 0.106771 0.107422 0.108073 0.108724 0.109375 0.110026 0.110677 0.111328 0.111979 0.112630 0.113281 0.113932 0.114583 0.115234 0.115885 0.116536 0.117188 0.117839 0.118490 0.119141 0.119792 0.120443 0.121094 0.121745 0.122396 0.123047 0.123698 0.124349 0.125000 0.125651 0.126302 0.126953 0.127604 0.128255 0.128906 0.129557 0.130208 0.130859 0.131510 0.132161 0.132812 0.133464 0.134115 0.134766 0.135417 0.136068 0.136719 0.137370 0.138021 0.138672 0.139323 0.139974 0.140625 0.141276 0.141927 0.142578 0.143229 0.143880 0.144531 0.145182 0.145833 0.146484 0.147135 0.147786 0.148438 0.149089 0.149740 0.150391 0.151042 0.151693 0.152344 0.152995 0.153646 0.154297 0.154948 0.155599 0.156250 0.156901 0.157552 0.158203 0.158854 0.159505 0.160156 0.160807 0.161458 0.162109 0.162760 0.163411 0.164062 0.164714 0.165365 0.166016 0.166667 0.167318 0.167969 0.168620 0.169271 0.169922 0.170573 0.171224 0.171875 0.172526 0.173177 0.173828 0.174479 0.175130 0.175781 0.176432 0.177083 0.177734 0.178385 0.179036 0.179688 0.180339 0.180990 0.181641 0.182292 0.182943 0.183594 0.184245 0.184896 0.185547 0.186198 0.186849 0.187500 0.188151 0.188802 0.189453 0.190104 0.190755 0.191406 0.192057 0.192708 0.193359 0.194010 0.194661 0.195312 0.195964 0.196615 0.197266 0.197917 0.198568 0.199219 0.199870 0.200521 0.201172 0.201823 0.202474 0.203125 0.203776 0.204427 0.205078 0.205729 0.206380 0.207031 0.207682 0.208333 0.208984 0.209635 0.210286 0.210938 0.211589 0.212240 0.212891 0.213542 0.214193 0.214844 0.215495 0.216146 0.216797 0.217448 0.218099 0.218750 0.219401 0.220052 0.220703 0.221354 0.222005 0.222656 0.223307 0.223958 0.224609 0.225260 0.225911 0.226562 0.227214 0.227865 0.228516 0.229167 0.229818 0.230469 0.231120 0.231771 0.232422 0.233073 0.233724 0.234375 0.235026 0.235677
       0.35033        0.35033        0.35033        0.35033        0.35033        0.35033        0.35033        0.35033        0.35033        0.35033        0.35033        0.35033        0.35033        0.35033        0.35033        0.35033        0.35033        0.35033        0.35033        0.35033        0.35033        0.35033        0.35033        0.35033        0.35033        0.35033        0.35033        0.35033        0.35033        0.35033        0.35033        0.35033        0.35033        0.35033        0.35033        0.35033        0.35033        0.35033        0.35033        0.35033        0.35033        0.35033        0.35033        0.35033        0.35033        0.35033        0.35033        0.35033        0.35033        0.35033        0.35033        0.48736        0.68876        0.45844       -0.10435       -0.40745       -0.56000       -0.65020       -0.72891       -0.74469       -0.87041       -0.91167       -0.74756       -0.92203       -0.86810       -1.01848       -1.08597       -0.97453       -0.94247       -0.86732       -0.82558       -0.72814       -0.62409       -0.48969       -0.41146       -0.21828       -0.10702       -0.01794        0.19701        0.24400        0.31639        0.38827        0.43235        0.51082        0.58509        0.61253        0.58873        0.50515        0.56041        0.49245        0.40441        0.33924        0.20772        0.18164        0.10404       -0.03936       -0.10693       -0.07210        0.02890       -0.00938        0.03287        0.03532        0.20179        0.22091        0.39526        0.46426        0.57614        0.71405        0.78188        0.74223        0.70074        0.68531        0.59362        0.52762        0.38951        0.29606        0.20367        0.17241        0.08560        0.04251        0.02557        0.06382        0.09591        0.28930        0.40738        0.50677        0.58512        0.63811        0.71031        0.66235        0.66492        0.67429        0.60564        0.49744        0.30320        0.25860        0.21983        0.12946        0.04920        0.10362        0.11509        0.26273        0.36489        0.42794        0.51592        0.56509        0.65266        0.59970        0.55774        0.51873        0.37414        0.20710        0.22969        0.17509        0.14834        0.13789        0.21951        0.26745        0.36708        0.44779        0.43585        0.54690        0.52696        0.47506        0.46901        0.38783        0.33121        0.25956        0.21147        0.23188        0.21265        0.22337        0.31589        0.45321        0.48021        0.48498        0.55218        0.51186        0.44940        0.40733        0.30558        0.24895        0.24617        0.24377        0.26545        0.29052        0.33824        0.44124        0.50509        0.51053        0.46368        0.39943        0.37252        0.35736        0.23771        0.23749        0.26479        0.30249        0.36500        0.37086        0.41000        0.44080        0.46707        0.38770        0.35968        0.32412        0.33178        0.28636        0.27197        0.30717        0.35350        0.41164        0.42922        0.40474        0.39264        0.41217        0.36376        0.30646        0.30624        0.30706        0.31321        0.37409        0.38406        0.41567        0.35385        0.37019        0.39403        0.35840        0.31579        0.28627        0.29329        0.33770        0.35180        0.34596        0.35828        0.39736        0.35572        0.36807        0.30464        0.30822        0.27868        0.28256        0.30793        0.33971        0.39733        0.37002        0.36297        0.32285        0.28837        0.27389        0.30948        0.29570        0.33314        0.37118        0.40026        0.34706        0.33009        0.30806        0.30920        0.30415        0.27987        0.32884        0.34955        0.33650        0.33558        0.31210        0.34874        0.33690        0.30680        0.32728        0.33053        0.35171        0.35696        0.32401        0.33851        0.31196        0.31445        0.31043        0.33347        0.40695        0.34413        0.36611        0.31670        0.32812        0.30551        0.30580        0.29150        0.31653        0.31088        0.34472        0.36290        0.30651        0.33466        0.32314        0.29925        0.31497        0.31429        0.32581        0.36195        0.37077        0.33454        0.31448        0.29005        0.25755        0.32221        0.34921        0.30984        0.31885        0.29126        0.29485        0.33265        0.32764        0.31072        0.35088        0.34360        0.32301        0.25308        0.29752        0.29981        0.31952        0.33871        0.31851        0.37335        0.36761        0.27544        0.29303        0.29000        0.28522        0.31539        0.27584        0.25287        0.26260        0.28580        0.29241        0.28139        0.28519        0.27745        0.32569        0.32607        0.30897        0.25867        0.26324        0.24608        0.24067        0.24309        0.32262        0.35764        0.24975        0.25754        0.31405        0.23717        0.25028        0.32615        0.28599        0.15428        0.19242        0.24695        0.30632        0.29921        0.14382       -0.03534       -0.48078       -0.71049
3.048680 3.010660 2.972885 2.935355 2.898071 2.861032 2.824237 2.787689 2.751385 2.715326 2.679513 2.643945 2.608621 2.573543 2.538711 2.504123 2.469781 2.435683 2.401831 2.368225 2.334863 2.301746 2.268875 2.236249 2.203868 2.171732 2.139841 2.108196 2.076795 2.045640 2.014730 1.984065 1.953645 1.923471 1.893542 1.863857 1.834418 1.805225 1.776276 1.747573 1.719114 1.690901 1.662933 1.635210 1.607733 1.580500 1.553513 1.526771 1.500274 1.474022 1.448016 1.505174 1.669739 1.602844 0.958092 0.668145 0.471033 0.418465 0.320396 0.261753 0.184346 0.001878 0.192870 0.066279 -0.028707 -0.071683 -0.210606 -0.159747 -0.089559 -0.095132 -0.086420 0.008859 0.035892 0.218649 0.147869 0.352726 0.436303 0.471298 0.691236 0.690412 0.702134 0.828809 0.806982 0.826753 0.913831 0.899840 0.926230 0.738073 0.838704 0.833991 0.625111 0.602638 0.451513 0.435342 0.362730 0.213272 0.117704 0.096922 0.215437 0.135144 0.204713 0.111471 0.291025 0.277286 0.444899 0.407819 0.587060 0.645619 0.758162 0.719768 0.652376 0.643627 0.522130 0.495075 0.331230 0.300011 0.124412 0.157462 0.009354 -0.006234 -0.041749 -0.043748 -0.004762 0.045196 0.265348 0.313354 0.386631 0.376692 0.470935 0.507016 0.474798 0.507471 0.379637 0.399900 0.155901 0.082466 0.081812 -0.014167 -0.132695 -0.041930 -0.116921 0.012412 0.137548 0.172170 0.251110 0.282277 0.373404 0.452738 0.355396 0.394033 0.291961 0.123037 0.056351 0.066259 0.036258 0.024263 0.014262 0.115155 0.130617 0.278069 0.230692 0.294749 0.361640 0.268016 0.255354 0.227376 0.134180 0.079264 0.025427 0.035996 0.024520 -0.005264 0.033320 0.176011 0.215488 0.253066 0.278728 0.237393 0.234186 0.146460 0.112505 -0.006807 -0.002345 -0.011234 0.011864 0.008135 0.035463 0.104759 0.185013 0.214452 0.217527 0.133133 0.109050 0.072169 0.046505 -0.074506 -0.006764 0.017454 0.047948 0.063288 0.085558 0.154034 0.109307 0.168997 0.058912 0.044158 0.044739 0.034142 0.003936 -0.001323 0.022721 0.075590 0.119500 0.131255 0.064036 0.111418 0.106433 0.005831 0.018024 0.008459 0.005695 0.039897 0.072558 0.092268 0.083791 0.050781 0.080154 0.074123 0.042665 0.004143 -0.011588 0.001621 0.060206 0.036691 0.047402 0.057844 0.089065 0.080812 0.040781 0.016298 0.007033 -0.015891 -0.005652 0.016003 0.059525 0.116590 0.061962 0.068787 0.019606 -0.015512 -0.000146 0.021732 0.020206 0.039141 0.099748 0.071985 0.016712 0.047247 -0.006319 0.037500 -0.009808 -0.014926 0.056570 0.052820 0.023376 0.033089 0.000830 0.058212 0.018862 0.003618 0.026877 0.030745 0.053386 0.031648 0.034758 0.021798 -0.008039 0.014711 0.007142 0.037920 0.092424 0.041312 0.008935 0.004511 0.017948 -0.020060 0.001817 -0.014859 0.014954 -0.024933 0.059948 0.036370 0.011767 0.048376 -0.012288 0.002510 0.017858 -0.007209 0.034011 0.071437 0.066469 0.025837 0.018432 -0.020125 -0.009389 0.013222 0.048012 0.000370 0.047386 -0.016410 -0.021062 0.037594 0.036299 0.015669 0.051180 0.039821 0.042791 -0.058082 0.009810 0.025798 0.016824 0.030695 0.048805 0.082871 0.066523 -0.007383 0.014750 -0.004983 -0.003060 0.032675 -0.036931 -0.030227 -0.033629 -0.027249 -0.004550 -0.032084 -0.000117 -0.090128 -0.014270 -0.008248 -0.034420 -0.093977 -0.044366 -0.108330 -0.060643 -0.081213 0.018961 0.060734 -0.094937 -0.041424 0.076099 0.001414 -0.052797 0.063655 0.082601 -0.006941 0.010825 0.080338 0.275420 0.270388 0.088737 -0.026938 -0.626764
0.072396 0.073046 0.074995 0.078243 0.082790 0.088632 0.095768 0.104196 0.113911 0.124908 0.137181 0.150721 0.165518 0.181559 0.198830 0.217311 0.236981 0.257813 0.279778 0.302839 0.326956 0.352082 0.378163 0.405139 0.432942 0.461495 0.490714 0.520504 0.550762 0.581373 0.612214 0.643148 0.674029 0.704700 0.734992 0.764723 0.793703 0.821727 0.848583 0.874047 0.897886 0.919859 0.939716 0.957204 0.972063 0.984033 0.992850 0.998257 0.999996 0.997820 0.991491 0.980785 0.965494 0.945433 0.920440 0.890383 0.855162 0.814715 0.769021 0.718106 0.662044 0.600962 0.535047 0.464544 0.389761 0.311073 0.228920 0.143811 0.056322 0.032905 0.123163 0.213685 0.303647 0.392173 0.478347 0.561215 0.639799 0.713110 0.780156 0.839960 0.891573 0.934092 0.966675 0.988564 0.999094 0.997720 0.984030 0.957764 0.918828 0.867311 0.803497 0.727873 0.641139 0.544207 0.438208 0.324478 0.204559 0.080177 0.046772 0.174251 0.300106 0.422105 0.537974 0.645440 0.742283 0.826379 0.895754 0.948639 0.983518 0.999183 0.994775 0.969830 0.924315 0.858654 0.773748 0.670980 0.552217 0.419786 0.276446 0.125346 0.030040 0.185980 0.338569 0.483831 0.617815 0.736714 0.836978 0.915432 0.969388 0.996752 0.996119 0.966855 0.909156 0.824088 0.713602 0.580512 0.428459 0.261826 0.085631 0.094602 0.273017 0.443602 0.600402 0.737726 0.850372 0.933836 0.984516 0.999892 0.978671 0.920897 0.828017 0.702884 0.549715 0.373983 0.182248 0.018056 0.218902 0.411980 0.589035 0.742240 0.864549 0.950052 0.994287 0.994512 0.949904 0.861678 0.733123 0.569530 0.378027 0.167300 0.052761 0.271514 0.478062 0.661811 0.813021 0.923349 0.986355 0.997913 0.956536 0.863556 0.723163 0.542290 0.330325 0.098669 0.139829 0.371582 0.583018 0.761399 0.895610 0.976899 0.999501 0.961105 0.863129 0.710764 0.512791 0.281137 0.030217 0.223924 0.464618 0.675666 0.842462 0.953037 0.998983 0.976165 0.885163 0.731391 0.524878 0.279698 0.013086 0.255739 0.506924 0.721465 0.882675 0.977535 0.997833 0.940952 0.810269 0.615080 0.370050 0.094194 0.190526 0.460920 0.694461 0.871185 0.975472 0.997508 0.934317 0.790230 0.576737 0.311687 0.017906 0.278717 0.551472 0.775243 0.928879 0.997275 0.972969 0.857078 0.659449 0.397962 0.097045 0.214518 0.506309 0.749232 0.918475 0.996132 0.973224 0.850875 0.640484 0.362833 0.046167 0.276590 0.571208 0.805791 0.954311 0.999603 0.935496 0.767808 0.514020 0.201620 0.134735 0.456987 0.727978 0.915774 0.997551 0.962513 0.813500 0.567006 0.251556 0.095451 0.432065 0.716850 0.914012 0.998039 0.957160 0.795195 0.531458 0.198684 0.160897 0.500793 0.776272 0.950318 0.998736 0.913736 0.705378 0.400649 0.040174 0.327023 0.650161 0.883716 0.993977 0.964104 0.796930 0.515023 0.157909 0.223291 0.573081 0.839646 0.982661 0.979570 0.829398 0.553405 0.192354 0.199285 0.561436 0.837623 0.983883 0.975980 0.813689 0.521376 0.144641 0.256562 0.617359 0.878446 0.995982 0.949185 0.744317 0.414210 0.013339 0.390983 0.729809 0.944373 0.996487 0.875614 0.601320 0.220466 0.200496 0.586987 0.869455 0.996075 0.942506 0.716918 0.359185 0.065839 0.479840 0.805407 0.980611 0.971039 0.776913 0.433739 0.006241 0.423649 0.772315 0.970861 0.978935 0.793329 0.449352 0.014509 0.424417 0.778611 0.975258 0.972787 0.770054 0.407380 0.041053 0.482070 0.822773 0.990220 0.947366 0.701674 0.304369 0.159808 0.590409
1.000000 1.000000 1.000000 1.000000 1.000000 1.000000 1.000000 1.000000 1.000000 1.000000 1.000000 1.000000 1.000000 1.000000 1.000000 1.000000 1.000000 1.000000 1.000000 1.000000 1.000000 1.000000 1.000000 1.000000 1.000000 1.000000 1.000000 1.000000 1.000000 1.000000 1.000000 1.000000 1.000000 1.000000 1.000000 1.000000 1.000000 1.000000 1.000000 1.000000 1.000000 1.000000 1.000000 1.000000 1.000000 1.000000 1.000000 1.000000 1.000000 1.000000 1.000000 1.000000 0.936280 0.936280 0.936280 0.936280 0.936280 0.936280 0.936280 0.936280 0.936280 0.936280 0.936280 0.936280 0.936280 0.936280 0.936280 0.936280 0.936280 0.936280 0.936280 0.936280 0.936280 0.936280 0.936280 0.936280 0.936280 0.936280 0.936280 0.936280 0.936280 0.936280 0.936280 0.936280 0.936280 0.929148 0.930512 0.933234 0.934214 0.934187 0.933785 0.933516 0.933737 0.934910 0.936710 0.953256 0.955259 0.955752 0.956982 0.955727 0.958663 0.957094 0.957129 0.967776 0.966706 0.967318 0.960424 0.961870 0.961012 0.960117 0.960819 0.961072 0.959299 0.957298 0.956045 0.955170 0.954829 0.956542 0.956968 0.956959 0.957483 0.957336 0.957074 0.953776 0.952291 0.953703 0.955596 0.954827 0.960628 0.958945 0.962199 0.963023 0.961666 0.961561 0.961777 0.961985 0.957065 0.952628 0.948510 0.936830 0.926452 0.920785 0.923631 0.926895 0.925884 0.921372 0.920281 0.917873 0.913495 0.912839 0.913028 0.914391 0.909593 0.906020 0.891697 0.891267 0.894845 0.895651 0.892962 0.884731 0.880702 0.881637 0.884573 0.882674 0.879969 0.896730 0.892416 0.895452 0.898792 0.901704 0.905549 0.895202 0.888845 0.884698 0.881389 0.877996 0.879565 0.875788 0.878587 0.869739 0.858941 0.852846 0.854712 0.861821 0.869660 0.875122 0.873442 0.873872 0.873144 0.859837 0.861197 0.845452 0.846391 0.852437 0.858387 0.857640 0.855679 0.857007 0.855323 0.853741 0.855721 0.851638 0.847208 0.838145 0.836210 0.839859 0.854564 0.855366 0.838140 0.832606 0.828641 0.832433 0.836854 0.834157 0.835437 0.830431 0.831924 0.826265 0.817765 0.820503 0.825980 0.818050 0.825814 0.827571 0.832508 0.831798 0.831160 0.827443 0.826493 0.831022 0.806738 0.818440 0.822379 0.806588 0.810739 0.802752 0.796893 0.797414 0.795193 0.768284 0.774984 0.737356 0.708001 0.717708 0.722969 0.708411 0.694419 0.694508 0.696526 0.669050 0.656032 0.638648 0.635239 0.641262 0.642091 0.647213 0.647422 0.640189 0.627817 0.597413 0.614931 0.612765 0.574189 0.581238 0.574245 0.569236 0.562759 0.539025 0.541075 0.546361 0.551189 0.518819 0.505333 0.518377 0.487012 0.489004 0.489563 0.486477 0.481749 0.487125 0.472785 0.483946 0.522022 0.470667 0.453861 0.468834 0.485303 0.495527 0.503922 0.493406 0.453576 0.501339 0.467727 0.478945 0.495602 0.488956 0.466802 0.475665 0.468855 0.497290 0.483395 0.473681 0.499556 0.469074 0.459848 0.461058 0.456281 0.450040 0.434293 0.427447 0.404553 0.410291 0.382986 0.340909 0.356944 0.366569 0.356285 0.348901 0.322164 0.325547 0.289688 0.259459 0.247180 0.241994 0.207551 0.169832 0.177404 0.176538 0.156790 0.124717 0.120786 0.082721 0.076826 0.099341 0.105473 0.109904 0.103562 0.126162 0.126162 0.126162 0.126162 0.126162 0.126162 0.126162 0.126162 0.126162 0.126162 0.126162 0.126162 0.126162 0.126162 0.150539 0.150539 0.150539 0.150539 0.150539 0.150539 0.150539 0.150539 0.150539 0.150539 0.150539 0.150539
0.000000 0.000000 0.000000 0.000000 0.000000 0.000000 0.000000 0.000000 0.000000 0.000000 0.000000 0.000000 0.000000 0.000000 0.000000 0.000000 0.000000 0.000000 0.000000 0.000000 0.000000 0.000000 0.000000 0.000000 0.000000 7.000000 4.000000 0.000000 0.000000 0.000000 0.000000 0.000000 0.000000 0.000000 0.000000 0.000000 0.000000 0.000000 0.000000 0.000000 0.000000 0.000000 0.000000 0.000000 0.000000 0.000000 0.000000 0.000000 0.000000 0.000000 0.000000 0.000000 0.209657 0.209657 0.209657 0.209657 0.209657 0.209657 0.209657 0.209657 0.209657 0.209657 0.209657 0.209657 0.209657 0.209657 0.209657 0.209657 0.209657 0.209657 0.209657 0.209657 0.209657 0.209657 0.209657 0.209657 0.209657 0.209657 0.209657 0.209657 0.209657 0.209657 0.209657 0.209657 0.209657 0.244339 0.244339 0.244339 0.244339 0.244339 0.244339 0.244339 0.244339 0.244339 0.244339 0.244339 0.244339 0.244339 0.244339 0.244339 0.244339 0.244339 0.244339 0.244339 0.244339 0.244339 0.244339 0.244339 0.244339 0.244339 0.260378 0.260378 0.260378 0.260378 0.260378 0.260378 0.260378 0.260378 0.260378 0.260378 0.260378 0.260378 0.260378 0.260378 0.260378 0.260378 0.260378 0.260378 0.260378 0.260378 0.269680 0.269680 0.269680 0.269680 0.269680 0.269680 0.269680 0.269680 0.269680 0.269680 0.269680 0.269680 0.269680 0.269680 0.269680 0.269680 0.269680 0.269680 0.269680 0.269680 0.269680 0.269680 0.269680 0.269680 0.269680 0.269680 0.269680 0.269680 0.269680 0.269680 0.269680 0.269680 0.269680 0.280056 0.280056 0.280056 0.280056 0.280056 0.280056 0.280056 0.280056 0.280056 0.280056 0.280056 0.280056 0.280056 0.280056 0.280056 0.280056 0.280056 0.280056 0.280056 0.280056 0.280056 0.280056 0.280056 0.280056 0.280056 0.280056 0.280056 0.274721 0.274721 0.274721 0.274721 0.274721 0.274721 0.274721 0.274721 0.274721 0.274721 0.274721 0.274721 0.274721 0.285714 0.285714 0.285714 0.285714 0.285714 0.285714 0.285714 0.285714 0.285714 0.285714 0.285714 0.280056 0.280056 0.280056 0.280056 0.280056 0.280056 0.280056 0.280056 0.280056 0.280056 0.280056 0.274721 0.274721 0.274721 0.274721 0.274721 0.274721 0.274721 0.274721 0.274721 0.274721 0.274721 0.280056 0.280056 0.280056 0.280056 0.280056 0.280056 0.280056 0.280056 0.280056 0.280056 0.285714 0.285714 0.285714 0.285714 0.285714 0.285714 0.285714 0.285714 0.285714 0.269680 0.269680 0.269680 0.269680 0.269680 0.269680 0.269680 0.269680 0.269680 0.269680 0.274721 0.274721 0.274721 0.274721 0.274721 0.274721 0.274721 0.274721 0.274721 0.285714 0.285714 0.285714 0.285714 0.285714 0.285714 0.285714 0.285714 0.264906 0.264906 0.264906 0.264906 0.264906 0.264906 0.264906 0.264906 0.264906 0.274721 0.274721 0.274721 0.274721 0.274721 0.274721 0.274721 0.274721 0.269680 0.269680 0.269680 0.269680 0.269680 0.269680 0.269680 0.269680 0.269680 0.269680 0.269680 0.269680 0.269680 0.269680 0.269680 0.269680 0.280056 0.280056 0.280056 0.280056 0.280056 0.280056 0.280056 0.260378 0.260378 0.260378 0.260378 0.260378 0.260378 0.260378 0.260378 0.269680 0.269680 0.269680 0.269680 0.269680 0.269680 0.269680 0.264906 0.264906 0.264906 0.264906 0.264906 0.264906 0.264906 0.264906 0.264906 0.264906 0.264906 0.264906 0.264906 0.264906 0.260378 0.260378 0.260378 0.260378 0.260378 0.260378 0.260378 0.260378 0.260378 0.260378 0.260378 0.260378
