# Output from CTFFind version 4.1.9, run on 2019-11-02 17:50:07
# Input file: stack6_bm3d_averaged_1_1.25_0_3000_half.mrc ; Number of micrographs: 1
# Pixel size: 3.000 Angstroms ; acceleration voltage: 300.0 keV ; spherical aberration: 0.00 mm ; amplitude contrast: 0.07
# Box size: 512 pixels ; min. res.: 30.0 Angstroms ; max. res.: 5.0 Angstroms ; min. def.: 5000.0 um; max. def. 50000.0 um; num. frames averaged: 1
# 6 lines per micrograph: #1 - spatial frequency (1/Angstroms); #2 - 1D rotational average of spectrum (assuming no astigmatism); #3 - 1D rotational average of spectrum; #4 - CTF fit; #5 - cross-correlation between spectrum and CTF fit; #6 - 2sigma of expected cross correlation of noise
0.000000 0.000651 0.001302 0.001953 0.002604 0.003255 0.003906 0.004557 0.005208 0.005859 0.006510 0.007161 0.007812 0.008464 0.009115 0.009766 0.010417 0.011068 0.011719 0.012370 0.013021 0.013672 0.014323 0.014974 0.015625 0.016276 0.016927 0.017578 0.018229 0.018880 0.019531 0.020182 0.020833 0.021484 0.022135 0.022786 0.023438 0.024089 0.024740 0.025391 0.026042 0.026693 0.027344 0.027995 0.028646 0.029297 0.029948 0.030599 0.031250 0.031901 0.032552 0.033203 0.033854 0.034505 0.035156 0.035807 0.036458 0.037109 0.037760 0.038411 0.039062 0.039714 0.040365 0.041016 0.041667 0.042318 0.042969 0.043620 0.044271 0.044922 0.045573 0.046224 0.046875 0.047526 0.048177 0.048828 0.049479 0.050130 0.050781 0.051432 0.052083 0.052734 0.053385 0.054036 0.054688 0.055339 0.055990 0.056641 0.057292 0.057943 0.058594 0.059245 0.059896 0.060547 0.061198 0.061849 0.062500 0.063151 0.063802 0.064453 0.065104 0.065755 0.066406 0.067057 0.067708 0.068359 0.069010 0.069661 0.070312 0.070964 0.071615 0.072266 0.072917 0.073568 0.074219 0.074870 0.075521 0.076172 0.076823 0.077474 0.078125 0.078776 0.079427 0.080078 0.080729 0.081380 0.082031 0.082682 0.083333 0.083984 0.084635 0.085286 0.085938 0.086589 0.087240 0.087891 0.088542 0.089193 0.089844 0.090495 0.091146 0.091797 0.092448 0.093099 0.093750 0.094401 0.095052 0.095703 0.096354 0.097005 0.097656 0.098307 0.098958 0.099609 0.100260 0.100911 0.101562 0.102214 0.102865 0.103516 0.104167 0.104818 0.105469 0.106120 0.106771 0.107422 0.108073 0.108724 0.109375 0.110026 0.110677 0.111328 0.111979 0.112630 0.113281 0.113932 0.114583 0.115234 0.115885 0.116536 0.117188 0.117839 0.118490 0.119141 0.119792 0.120443 0.121094 0.121745 0.122396 0.123047 0.123698 0.124349 0.125000 0.125651 0.126302 0.126953 0.127604 0.128255 0.128906 0.129557 0.130208 0.130859 0.131510 0.132161 0.132812 0.133464 0.134115 0.134766 0.135417 0.136068 0.136719 0.137370 0.138021 0.138672 0.139323 0.139974 0.140625 0.141276 0.141927 0.142578 0.143229 0.143880 0.144531 0.145182 0.145833 0.146484 0.147135 0.147786 0.148438 0.149089 0.149740 0.150391 0.151042 0.151693 0.152344 0.152995 0.153646 0.154297 0.154948 0.155599 0.156250 0.156901 0.157552 0.158203 0.158854 0.159505 0.160156 0.160807 0.161458 0.162109 0.162760 0.163411 0.164062 0.164714 0.165365 0.166016 0.166667 0.167318 0.167969 0.168620 0.169271 0.169922 0.170573 0.171224 0.171875 0.172526 0.173177 0.173828 0.174479 0.175130 0.175781 0.176432 0.177083 0.177734 0.178385 0.179036 0.179688 0.180339 0.180990 0.181641 0.182292 0.182943 0.183594 0.184245 0.184896 0.185547 0.186198 0.186849 0.187500 0.188151 0.188802 0.189453 0.190104 0.190755 0.191406 0.192057 0.192708 0.193359 0.194010 0.194661 0.195312 0.195964 0.196615 0.197266 0.197917 0.198568 0.199219 0.199870 0.200521 0.201172 0.201823 0.202474 0.203125 0.203776 0.204427 0.205078 0.205729 0.206380 0.207031 0.207682 0.208333 0.208984 0.209635 0.210286 0.210938 0.211589 0.212240 0.212891 0.213542 0.214193 0.214844 0.215495 0.216146 0.216797 0.217448 0.218099 0.218750 0.219401 0.220052 0.220703 0.221354 0.222005 0.222656 0.223307 0.223958 0.224609 0.225260 0.225911 0.226562 0.227214 0.227865 0.228516 0.229167 0.229818 0.230469 0.231120 0.231771 0.232422 0.233073 0.233724 0.234375 0.235026 0.235677
       0.31199        0.31199        0.31199        0.31199        0.31199        0.31199        0.31199        0.31199        0.31199        0.31199        0.31199        0.31199        0.31199        0.31199        0.31199        0.31199        0.31199        0.31199        0.31199        0.31199        0.31199        0.31199        0.31199        0.31199        0.31199        0.31199        0.31199        0.31199        0.31199        0.31199        0.31199        0.31199        0.31199        0.31199        0.31199        0.31199        0.31199        0.31199        0.31199        0.31199        0.31199        0.31199        0.31199        0.31199        0.31199        0.31199        0.31199        0.31199        0.31199        0.31199        0.31199        0.63709        0.81752        0.41530        0.31239        0.19078       -0.10457        0.11378        0.00031        0.03472        0.11791        0.33911        0.42728        0.40859        0.22706       -0.00887        0.04817        0.07413       -0.16659       -0.17620       -0.08799       -0.10775       -0.29354       -0.18671       -0.30298       -0.25631       -0.28178       -0.40170       -0.47388       -0.47506       -0.41963       -0.34022       -0.43621       -0.36632       -0.40953       -0.35061       -0.27303       -0.19844       -0.19355       -0.13342       -0.09246        0.03806        0.08355        0.25044        0.28501        0.37471        0.40316        0.51581        0.58805        0.60739        0.74177        0.69831        0.73895        0.65092        0.66492        0.69801        0.63387        0.61783        0.60974        0.43726        0.39669        0.35773        0.32820        0.22611        0.13658        0.06176        0.05753       -0.00143       -0.07874       -0.03181       -0.03059       -0.06900        0.06549        0.16648        0.25656        0.31884        0.33979        0.43066        0.54385        0.58774        0.54032        0.66912        0.56377        0.54052        0.60040        0.63717        0.53026        0.46025        0.40493        0.37904        0.25368        0.21495        0.13361        0.11705        0.05735        0.06330        0.10849        0.16464        0.15196        0.18024        0.22056        0.24068        0.33327        0.45334        0.49442        0.49690        0.52449        0.57964        0.57239        0.52322        0.42163        0.38543        0.36549        0.26808        0.24636        0.21836        0.20823        0.20577        0.18250        0.15768        0.12308        0.18816        0.24581        0.34719        0.38212        0.40728        0.46151        0.53538        0.47669        0.48469        0.42510        0.40284        0.38203        0.36373        0.28945        0.26020        0.20542        0.23857        0.22003        0.19590        0.21644        0.22496        0.24520        0.30195        0.40128        0.39914        0.37440        0.39157        0.45437        0.48119        0.43124        0.35734        0.32597        0.28386        0.26281        0.24640        0.21307        0.28363        0.29590        0.29408        0.31505        0.30692        0.34473        0.37397        0.37176        0.37276        0.35468        0.31993        0.33496        0.32105        0.30026        0.28771        0.27209        0.21628        0.27083        0.27491        0.30322        0.32108        0.34138        0.37237        0.33635        0.31574        0.35753        0.37037        0.26760        0.29784        0.30797        0.24411        0.21241        0.26189        0.27410        0.27909        0.29967        0.30523        0.33367        0.33449        0.35984        0.32881        0.32553        0.31017        0.29273        0.26805        0.24369        0.25546        0.26079        0.27695        0.30199        0.29357        0.29499        0.31685        0.33309        0.26636        0.30788        0.26715        0.26111        0.27318        0.26330        0.25735        0.26404        0.31220        0.28450        0.31720        0.28966        0.27840        0.31225        0.31029        0.33433        0.31465        0.29847        0.25388        0.26189        0.27535        0.26410        0.30983        0.31782        0.33746        0.32407        0.30776        0.25868        0.28836        0.21736        0.20093        0.25134        0.26952        0.25645        0.28979        0.31348        0.29297        0.35254        0.30674        0.26508        0.23001        0.23752        0.28932        0.30510        0.30528        0.26945        0.27768        0.24972        0.31554        0.27990        0.25037        0.27343        0.25510        0.29221        0.25233        0.28794        0.32532        0.28583        0.20758        0.22685        0.27497        0.32265        0.26966        0.26424        0.24237        0.28385        0.29111        0.38091        0.30051        0.28590        0.26498        0.26296        0.22385        0.18390        0.25335        0.22022        0.20320        0.18899        0.19295        0.23616        0.22489        0.24339        0.19908        0.24447        0.22854        0.20525        0.18491        0.15923        0.19860        0.23657        0.15849        0.08218        0.20055        0.18914        0.13923        0.24498        0.15318        0.24193        0.19223       -0.11887       -0.52439       -0.96705
2.852778 2.824679 2.796724 2.768913 2.741248 2.713727 2.686350 2.659118 2.632031 2.605089 2.578291 2.551637 2.525129 2.498765 2.472546 2.446471 2.420541 2.394756 2.369115 2.343619 2.318267 2.293061 2.267998 2.243081 2.218308 2.193680 2.169196 2.144858 2.120663 2.096614 2.072709 2.048948 2.025333 2.001862 1.978535 1.955354 1.932316 1.909424 1.886676 1.864073 1.841614 1.819301 1.797131 1.775107 1.753227 1.731492 1.709901 1.688455 1.667154 1.645997 1.624985 1.923576 2.272740 1.694880 1.741675 1.382664 0.944864 1.201865 1.026487 1.076621 1.030930 1.495448 1.519930 1.549441 1.279462 0.949123 0.825243 1.013778 0.719402 0.496356 0.586720 0.680054 0.420656 0.491408 0.326768 0.368013 0.253682 0.164932 -0.034972 0.005183 0.033300 0.077741 0.043848 0.079438 -0.039987 0.027369 0.111199 0.228702 0.287007 0.211802 0.322999 0.551875 0.447466 0.728101 0.796149 0.884281 0.908035 1.114003 1.136398 1.172071 1.328869 1.229937 1.363290 1.196787 1.109729 1.294705 1.141511 1.055280 1.125047 0.889779 0.737546 0.675863 0.671077 0.467267 0.398770 0.263544 0.226575 0.090112 -0.010377 0.087712 0.025877 -0.064324 0.114512 0.257752 0.306980 0.462996 0.484994 0.557125 0.715934 0.811821 0.656809 0.948917 0.800713 0.658532 0.765690 0.791748 0.706715 0.636797 0.443933 0.498410 0.286312 0.194137 0.140700 0.005711 -0.019017 -0.099673 -0.014342 0.014441 0.099790 -0.050956 0.250031 0.097030 0.208564 0.372341 0.432958 0.527366 0.436499 0.568529 0.651666 0.503651 0.384214 0.331890 0.319847 0.141675 0.129913 0.020704 0.091930 0.030566 0.000981 -0.028308 -0.126438 -0.016864 0.016390 0.103604 0.291364 0.202682 0.347845 0.370299 0.426563 0.411954 0.392981 0.329630 0.223862 0.304109 0.162755 0.158875 0.011645 0.054185 0.069761 -0.021986 -0.007031 0.013736 0.061394 0.076263 0.215165 0.303300 0.240629 0.209499 0.373415 0.396499 0.352555 0.244743 0.175058 0.152009 0.083431 0.074918 0.020559 0.019465 0.134908 0.050319 0.187786 0.083924 0.136499 0.223115 0.212757 0.228953 0.198846 0.192563 0.121746 0.165355 0.122463 0.101424 0.114921 -0.003788 0.026392 0.085183 0.049179 0.153005 0.112048 0.209730 0.193386 0.135726 0.120707 0.225557 0.125183 0.071404 0.092184 0.060577 -0.002911 -0.021790 0.048565 0.074984 0.034049 0.112146 0.109738 0.121727 0.131755 0.175933 0.127018 0.085909 0.100975 0.082300 0.011095 0.009891 0.034649 0.005846 0.069848 0.106949 0.062455 0.056873 0.132078 0.104629 0.013993 0.117849 0.014627 0.027096 0.049202 0.017349 0.005494 0.061192 0.082827 0.023972 0.103893 0.068535 0.026469 0.118494 0.075045 0.090592 0.091347 0.033327 -0.009750 -0.001059 0.048925 0.008386 0.063294 0.098272 0.095283 0.063244 0.131636 -0.010971 0.049646 -0.089587 -0.024361 -0.024884 0.017489 0.017700 0.037308 0.085473 0.063700 0.111162 0.003757 -0.014842 -0.076146 -0.081543 0.070211 0.028959 0.052630 -0.023029 -0.009285 -0.045130 0.051230 0.012006 -0.065179 -0.009633 -0.072648 0.027999 -0.040048 0.023943 0.058805 -0.019652 -0.086239 -0.061559 0.079223 0.055164 -0.005042 0.002604 -0.053658 0.092569 0.070157 0.178251 0.053202 0.030513 0.023714 0.082674 -0.052967 -0.034986 0.055052 0.004947 -0.041391 -0.038092 -0.047548 0.082321 -0.063416 0.083283 -0.003518 0.090746 -0.012506 0.042572 -0.070923 -0.047102 -0.048124 0.086418 -0.024992 -0.224181 0.281293 0.269489 0.196005 0.417790 0.199622 0.309555 0.305092 -0.164087 -1.349172
0.072396 0.072834 0.074148 0.076339 0.079404 0.083344 0.088159 0.093845 0.100403 0.107830 0.116124 0.125281 0.135298 0.146170 0.157892 0.170458 0.183860 0.198088 0.213134 0.228985 0.245626 0.263044 0.281219 0.300132 0.319760 0.340079 0.361059 0.382670 0.404876 0.427641 0.450922 0.474674 0.498847 0.523386 0.548233 0.573326 0.598596 0.623971 0.649372 0.674718 0.699919 0.724883 0.749512 0.773701 0.797342 0.820321 0.842520 0.863817 0.884083 0.903187 0.920994 0.937366 0.952162 0.965239 0.976453 0.985659 0.992713 0.997469 0.999787 0.999527 0.996556 0.990743 0.981966 0.970111 0.955072 0.936754 0.915074 0.889966 0.861374 0.829264 0.793618 0.754437 0.711746 0.665592 0.616047 0.563209 0.507202 0.448179 0.386323 0.321844 0.254986 0.186022 0.115255 0.043020 0.030320 0.104370 0.178710 0.252892 0.326444 0.398874 0.469671 0.538305 0.604239 0.666925 0.725814 0.780358 0.830017 0.874263 0.912589 0.944513 0.969583 0.987389 0.997564 0.999795 0.993827 0.979472 0.956611 0.925205 0.885297 0.837019 0.780592 0.716335 0.644660 0.566081 0.481207 0.390743 0.295490 0.196336 0.094252 0.009713 0.114447 0.218777 0.321490 0.421340 0.517067 0.607412 0.691132 0.767023 0.833935 0.890795 0.936622 0.970552 0.991850 0.999936 0.994395 0.974996 0.941705 0.894693 0.834346 0.761270 0.676290 0.580449 0.475004 0.361408 0.241303 0.116495 0.011065 0.139316 0.266109 0.389248 0.506531 0.615780 0.714894 0.801888 0.874936 0.932414 0.972944 0.995428 0.999088 0.983491 0.948578 0.894678 0.822519 0.733234 0.628346 0.509761 0.379735 0.240843 0.095933 0.051928 0.199515 0.343510 0.480584 0.607466 0.721033 0.818385 0.896931 0.954458 0.989212 0.999952 0.986005 0.947308 0.884430 0.798585 0.691620 0.565996 0.424739 0.271381 0.109881 0.055472 0.220163 0.379580 0.529136 0.664406 0.781268 0.876031 0.945563 0.987411 0.999892 0.982183 0.934366 0.857468 0.753458 0.625212 0.476458 0.311682 0.136002 0.044977 0.225335 0.399033 0.560105 0.702884 0.822193 0.913555 0.973372 0.999082 0.989291 0.943856 0.863936 0.751989 0.611724 0.447994 0.266661 0.074385 0.121596 0.313740 0.494481 0.656541 0.793228 0.898717 0.968331 0.998758 0.988235 0.936669 0.845690 0.718639 0.560467 0.377575 0.177578 0.031000 0.239076 0.437395 0.616952 0.769405 0.887473 0.965311 0.998825 0.985909 0.926607 0.823170 0.680011 0.503553 0.301967 0.084824 0.137346 0.353553 0.552893 0.725096 0.861084 0.953456 0.996934 0.988691 0.928563 0.819140 0.665689 0.475951 0.259781 0.028662 0.204879 0.427952 0.628008 0.793559 0.914857 0.984510 0.997950 0.953789 0.853970 0.703746 0.511442 0.288052 0.046627 0.198460 0.432346 0.640598 0.810112 0.929953 0.992111 0.992072 0.929188 0.806823 0.632225 0.416150 0.172251 0.083757 0.335094 0.564997 0.757865 0.900328 0.982209 0.997312 0.943933 0.825082 0.648391 0.425682 0.172220 0.094290 0.354913 0.590835 0.784719 0.922021 0.992120 0.989191 0.912753 0.767820 0.564652 0.318092 0.046520 0.229454 0.488571 0.710538 0.877657 0.976273 0.997942 0.940227 0.807021 0.608371 0.359793 0.081118 0.205048 0.475128 0.706534 0.879562 0.979138 0.996175 0.928487 0.781114 0.566047 0.301318 0.009570 0.283856 0.553093 0.774050 0.926586 0.996418 0.976525 0.867937 0.679809 0.428736 0.137368 0.167570 0.457706 0.705649 0.887616 0.985758 0.989993 0.899125 0.721143 0.472615 0.177239 0.136346 0.437311 0.695643 0.885190
1.000000 1.000000 1.000000 1.000000 1.000000 1.000000 1.000000 1.000000 1.000000 1.000000 1.000000 1.000000 1.000000 1.000000 1.000000 1.000000 1.000000 1.000000 1.000000 1.000000 1.000000 1.000000 1.000000 1.000000 1.000000 1.000000 1.000000 1.000000 1.000000 1.000000 1.000000 1.000000 1.000000 1.000000 1.000000 1.000000 1.000000 1.000000 1.000000 1.000000 1.000000 1.000000 1.000000 1.000000 1.000000 1.000000 1.000000 1.000000 1.000000 1.000000 1.000000 1.000000 0.836041 0.836041 0.836041 0.836041 0.836041 0.836041 0.836041 0.813678 0.813678 0.813678 0.813678 0.813678 0.813678 0.813678 0.813678 0.813678 0.813678 0.813678 0.813678 0.813678 0.813678 0.813678 0.813678 0.813678 0.813678 0.813678 0.813678 0.813678 0.813678 0.813678 0.813678 0.813678 0.813678 0.813678 0.813678 0.813678 0.813678 0.813678 0.813678 0.813678 0.813678 0.813678 0.813678 0.813678 0.813678 0.813678 0.813678 0.813678 0.813678 0.813678 0.813678 0.954505 0.955132 0.947510 0.946405 0.944681 0.941421 0.937025 0.936567 0.937918 0.938128 0.938763 0.940178 0.941228 0.942924 0.944000 0.944874 0.945713 0.953779 0.957414 0.957048 0.956644 0.952223 0.958917 0.956949 0.956789 0.957547 0.957835 0.958543 0.958431 0.958269 0.957742 0.956573 0.957277 0.957126 0.956410 0.955393 0.953113 0.953091 0.952647 0.952771 0.953723 0.954415 0.955049 0.955558 0.955523 0.955700 0.955686 0.955592 0.950640 0.950666 0.944085 0.944714 0.945867 0.945553 0.944524 0.943118 0.943173 0.943047 0.942968 0.942778 0.942998 0.925186 0.924828 0.924855 0.925389 0.918915 0.908732 0.902333 0.896296 0.897212 0.901076 0.905748 0.905914 0.902505 0.901697 0.884629 0.888432 0.874869 0.871254 0.860785 0.870980 0.872347 0.873487 0.868553 0.867892 0.866637 0.864239 0.853625 0.857785 0.858706 0.855000 0.851589 0.849275 0.846721 0.848467 0.853154 0.849821 0.843855 0.841018 0.830156 0.820152 0.818897 0.821402 0.829833 0.841982 0.842061 0.841150 0.833731 0.829614 0.822594 0.815894 0.813953 0.815823 0.813257 0.817096 0.816953 0.824509 0.814456 0.809924 0.814964 0.826454 0.832228 0.834771 0.837012 0.834860 0.831974 0.808941 0.809671 0.810672 0.765115 0.765449 0.751668 0.751587 0.744307 0.741012 0.738187 0.736576 0.730289 0.715846 0.728343 0.732119 0.707693 0.714687 0.709318 0.698929 0.677219 0.677985 0.691804 0.700604 0.699581 0.705033 0.694144 0.693228 0.704235 0.705011 0.712026 0.706372 0.702213 0.695438 0.699980 0.691751 0.684690 0.679192 0.678536 0.679177 0.675119 0.660276 0.668271 0.661226 0.655983 0.644837 0.604200 0.579108 0.561491 0.554495 0.535886 0.506824 0.521959 0.530314 0.515105 0.504934 0.483678 0.439530 0.423709 0.421834 0.399117 0.392075 0.371604 0.328024 0.327676 0.323681 0.330813 0.314496 0.309358 0.296127 0.242150 0.242542 0.204318 0.218701 0.242049 0.232803 0.214194 0.208171 0.226547 0.229949 0.237941 0.236187 0.251164 0.208288 0.151092 0.176533 0.173509 0.184866 0.169144 0.140874 0.167324 0.168045 0.180130 0.183767 0.140134 0.109584 0.086952 0.070483 0.078366 0.101369 0.114453 0.105777 0.087780 -0.003784 0.028153 0.053345 0.053345 0.053345 0.053345 0.053345 0.053345 0.053345 0.053345 0.053345 0.053345 0.053345 -0.005740 -0.005740 -0.005740 -0.005740 -0.005740 -0.005740 -0.005740 -0.005740 -0.005740 -0.005740 -0.005740 -0.005740 -0.005740 -0.005740 -0.005740 -0.005740 -0.005740 -0.005740 -0.005740
0.000000 0.000000 0.000000 0.000000 0.000000 0.000000 0.000000 0.000000 0.000000 0.000000 0.000000 0.000000 0.000000 0.000000 0.000000 0.000000 0.000000 0.000000 0.000000 0.000000 0.000000 0.000000 0.000000 0.000000 0.000000 0.000000 0.000000 0.000000 0.000000 0.000000 0.000000 0.000000 0.000000 0.000000 0.000000 0.000000 0.000000 0.000000 0.000000 0.000000 0.000000 0.000000 0.000000 0.000000 0.000000 0.000000 0.000000 0.000000 0.000000 0.000000 0.000000 0.000000 0.173422 0.173422 0.173422 0.173422 0.173422 0.173422 0.173422 0.191565 0.191565 0.191565 0.191565 0.191565 0.191565 0.191565 0.191565 0.191565 0.191565 0.191565 0.191565 0.191565 0.191565 0.191565 0.191565 0.191565 0.191565 0.191565 0.191565 0.191565 0.191565 0.191565 0.191565 0.191565 0.191565 0.191565 0.191565 0.191565 0.191565 0.191565 0.191565 0.191565 0.191565 0.191565 0.191565 0.191565 0.191565 0.191565 0.191565 0.191565 0.191565 0.191565 0.191565 0.219529 0.219529 0.219529 0.219529 0.219529 0.219529 0.219529 0.219529 0.219529 0.219529 0.219529 0.219529 0.219529 0.219529 0.219529 0.219529 0.219529 0.219529 0.219529 0.219529 0.219529 0.219529 0.219529 0.219529 0.219529 0.219529 0.219529 0.219529 0.219529 0.219529 0.219529 0.237356 0.237356 0.237356 0.237356 0.237356 0.237356 0.237356 0.237356 0.237356 0.237356 0.237356 0.237356 0.237356 0.237356 0.237356 0.237356 0.237356 0.237356 0.237356 0.237356 0.237356 0.237356 0.237356 0.237356 0.244339 0.244339 0.244339 0.244339 0.244339 0.244339 0.244339 0.244339 0.244339 0.244339 0.244339 0.244339 0.244339 0.244339 0.244339 0.244339 0.244339 0.244339 0.244339 0.244339 0.244339 0.248069 0.248069 0.248069 0.248069 0.248069 0.248069 0.248069 0.248069 0.248069 0.248069 0.248069 0.248069 0.248069 0.248069 0.248069 0.248069 0.248069 0.248069 0.248069 0.248069 0.248069 0.248069 0.248069 0.248069 0.248069 0.248069 0.248069 0.248069 0.248069 0.248069 0.248069 0.248069 0.248069 0.248069 0.248069 0.248069 0.248069 0.256074 0.256074 0.256074 0.256074 0.256074 0.256074 0.256074 0.256074 0.256074 0.256074 0.256074 0.256074 0.256074 0.256074 0.256074 0.256074 0.256074 0.256074 0.256074 0.256074 0.256074 0.256074 0.256074 0.256074 0.256074 0.256074 0.256074 0.256074 0.256074 0.256074 0.256074 0.256074 0.256074 0.256074 0.256074 0.256074 0.256074 0.256074 0.256074 0.256074 0.256074 0.256074 0.256074 0.256074 0.256074 0.260378 0.260378 0.260378 0.260378 0.260378 0.260378 0.260378 0.260378 0.260378 0.260378 0.260378 0.260378 0.260378 0.256074 0.256074 0.256074 0.256074 0.256074 0.256074 0.256074 0.256074 0.256074 0.256074 0.256074 0.256074 0.256074 0.260378 0.260378 0.260378 0.260378 0.260378 0.260378 0.260378 0.260378 0.260378 0.260378 0.260378 0.260378 0.251976 0.251976 0.251976 0.251976 0.251976 0.251976 0.251976 0.251976 0.251976 0.251976 0.251976 0.251976 0.256074 0.256074 0.256074 0.256074 0.256074 0.256074 0.256074 0.256074 0.256074 0.256074 0.256074 0.251976 0.251976 0.251976 0.251976 0.251976 0.251976 0.251976 0.251976 0.251976 0.251976 0.251976 0.248069 0.248069 0.248069 0.248069 0.248069 0.248069 0.248069 0.248069 0.248069 0.248069 0.248069 0.256074 0.256074 0.256074 0.256074 0.256074 0.256074 0.256074 0.256074 0.256074 0.256074 0.256074 0.256074 0.256074 0.256074 0.256074 0.256074 0.256074 0.256074 0.256074
