# Output from CTFFind version 4.1.9, run on 2019-11-03 20:03:29
# Input file: stack1_bm3d_averaged_1_5.5_0_250_half.mrc ; Number of micrographs: 1
# Pixel size: 3.000 Angstroms ; acceleration voltage: 300.0 keV ; spherical aberration: 0.00 mm ; amplitude contrast: 0.07
# Box size: 512 pixels ; min. res.: 30.0 Angstroms ; max. res.: 5.0 Angstroms ; min. def.: 5000.0 um; max. def. 50000.0 um; num. frames averaged: 1
# 6 lines per micrograph: #1 - spatial frequency (1/Angstroms); #2 - 1D rotational average of spectrum (assuming no astigmatism); #3 - 1D rotational average of spectrum; #4 - CTF fit; #5 - cross-correlation between spectrum and CTF fit; #6 - 2sigma of expected cross correlation of noise
0.000000 0.000651 0.001302 0.001953 0.002604 0.003255 0.003906 0.004557 0.005208 0.005859 0.006510 0.007161 0.007812 0.008464 0.009115 0.009766 0.010417 0.011068 0.011719 0.012370 0.013021 0.013672 0.014323 0.014974 0.015625 0.016276 0.016927 0.017578 0.018229 0.018880 0.019531 0.020182 0.020833 0.021484 0.022135 0.022786 0.023438 0.024089 0.024740 0.025391 0.026042 0.026693 0.027344 0.027995 0.028646 0.029297 0.029948 0.030599 0.031250 0.031901 0.032552 0.033203 0.033854 0.034505 0.035156 0.035807 0.036458 0.037109 0.037760 0.038411 0.039062 0.039714 0.040365 0.041016 0.041667 0.042318 0.042969 0.043620 0.044271 0.044922 0.045573 0.046224 0.046875 0.047526 0.048177 0.048828 0.049479 0.050130 0.050781 0.051432 0.052083 0.052734 0.053385 0.054036 0.054688 0.055339 0.055990 0.056641 0.057292 0.057943 0.058594 0.059245 0.059896 0.060547 0.061198 0.061849 0.062500 0.063151 0.063802 0.064453 0.065104 0.065755 0.066406 0.067057 0.067708 0.068359 0.069010 0.069661 0.070312 0.070964 0.071615 0.072266 0.072917 0.073568 0.074219 0.074870 0.075521 0.076172 0.076823 0.077474 0.078125 0.078776 0.079427 0.080078 0.080729 0.081380 0.082031 0.082682 0.083333 0.083984 0.084635 0.085286 0.085938 0.086589 0.087240 0.087891 0.088542 0.089193 0.089844 0.090495 0.091146 0.091797 0.092448 0.093099 0.093750 0.094401 0.095052 0.095703 0.096354 0.097005 0.097656 0.098307 0.098958 0.099609 0.100260 0.100911 0.101562 0.102214 0.102865 0.103516 0.104167 0.104818 0.105469 0.106120 0.106771 0.107422 0.108073 0.108724 0.109375 0.110026 0.110677 0.111328 0.111979 0.112630 0.113281 0.113932 0.114583 0.115234 0.115885 0.116536 0.117188 0.117839 0.118490 0.119141 0.119792 0.120443 0.121094 0.121745 0.122396 0.123047 0.123698 0.124349 0.125000 0.125651 0.126302 0.126953 0.127604 0.128255 0.128906 0.129557 0.130208 0.130859 0.131510 0.132161 0.132812 0.133464 0.134115 0.134766 0.135417 0.136068 0.136719 0.137370 0.138021 0.138672 0.139323 0.139974 0.140625 0.141276 0.141927 0.142578 0.143229 0.143880 0.144531 0.145182 0.145833 0.146484 0.147135 0.147786 0.148438 0.149089 0.149740 0.150391 0.151042 0.151693 0.152344 0.152995 0.153646 0.154297 0.154948 0.155599 0.156250 0.156901 0.157552 0.158203 0.158854 0.159505 0.160156 0.160807 0.161458 0.162109 0.162760 0.163411 0.164062 0.164714 0.165365 0.166016 0.166667 0.167318 0.167969 0.168620 0.169271 0.169922 0.170573 0.171224 0.171875 0.172526 0.173177 0.173828 0.174479 0.175130 0.175781 0.176432 0.177083 0.177734 0.178385 0.179036 0.179688 0.180339 0.180990 0.181641 0.182292 0.182943 0.183594 0.184245 0.184896 0.185547 0.186198 0.186849 0.187500 0.188151 0.188802 0.189453 0.190104 0.190755 0.191406 0.192057 0.192708 0.193359 0.194010 0.194661 0.195312 0.195964 0.196615 0.197266 0.197917 0.198568 0.199219 0.199870 0.200521 0.201172 0.201823 0.202474 0.203125 0.203776 0.204427 0.205078 0.205729 0.206380 0.207031 0.207682 0.208333 0.208984 0.209635 0.210286 0.210938 0.211589 0.212240 0.212891 0.213542 0.214193 0.214844 0.215495 0.216146 0.216797 0.217448 0.218099 0.218750 0.219401 0.220052 0.220703 0.221354 0.222005 0.222656 0.223307 0.223958 0.224609 0.225260 0.225911 0.226562 0.227214 0.227865 0.228516 0.229167 0.229818 0.230469 0.231120 0.231771 0.232422 0.233073 0.233724 0.234375 0.235026 0.235677
       0.34819        0.34819        0.34819        0.34819        0.34819        0.34819        0.34819        0.34819        0.34819        0.34819        0.34819        0.34819        0.34819        0.34819        0.34819        0.34819        0.34819        0.34819        0.34819        0.34819        0.34819        0.34819        0.34819        0.34819        0.34819        0.34819        0.34819        0.34819        0.34819        0.34819        0.34819        0.34819        0.34819        0.34819        0.34819        0.34819        0.34819        0.34819        0.34819        0.34819        0.34819        0.34819        0.34819        0.34819        0.34819        0.34819        0.34819        0.34819        0.34819        0.34819        0.34819        0.39057        0.57023        0.26358        0.11095       -0.01384       -0.27236       -0.10319       -0.17762       -0.21675        0.01313       -0.13812       -0.10590       -0.06047       -0.04372       -0.13199       -0.16006       -0.29049       -0.38194       -0.49238       -0.42955       -0.33001       -0.26458       -0.37745       -0.29031       -0.38019       -0.32589       -0.36737       -0.18862       -0.18725       -0.24663       -0.07736       -0.02704       -0.04699        0.07898        0.02722        0.20649        0.22755        0.33707        0.36199        0.43413        0.46962        0.53109        0.59494        0.64451        0.55220        0.51408        0.50634        0.47473        0.55997        0.47340        0.41781        0.40510        0.33351        0.28877        0.30900        0.32921        0.22560        0.19202        0.10092        0.13265        0.13782        0.16896        0.13396        0.20228        0.24955        0.30585        0.29740        0.34009        0.46086        0.40834        0.48173        0.62614        0.61054        0.54365        0.54817        0.58083        0.42109        0.48374        0.37291        0.31217        0.29003        0.25546        0.25281        0.18619        0.17385        0.14245        0.21659        0.25291        0.27810        0.34571        0.31923        0.41127        0.46698        0.46735        0.45313        0.48654        0.54112        0.48834        0.46451        0.41866        0.34496        0.33776        0.27899        0.30513        0.23976        0.22389        0.28081        0.23855        0.26129        0.32410        0.42255        0.41700        0.43637        0.41802        0.49743        0.49458        0.46955        0.44507        0.38656        0.38158        0.40218        0.39636        0.32635        0.28192        0.31667        0.29302        0.29793        0.29434        0.33350        0.36778        0.38996        0.45148        0.48171        0.39158        0.43384        0.42497        0.38557        0.31550        0.36584        0.31972        0.31299        0.33486        0.27436        0.25225        0.31666        0.33633        0.42954        0.42004        0.39980        0.39607        0.40028        0.36570        0.36678        0.32095        0.32325        0.33468        0.30760        0.30444        0.33803        0.35406        0.34471        0.35099        0.39396        0.39063        0.45748        0.40244        0.34264        0.35715        0.35097        0.33452        0.32700        0.33901        0.38062        0.34090        0.35507        0.34503        0.42206        0.37618        0.35367        0.36447        0.37601        0.36536        0.33452        0.33009        0.30679        0.33843        0.33193        0.30734        0.32181        0.35289        0.35403        0.33690        0.33610        0.30512        0.30232        0.28385        0.32195        0.32448        0.35232        0.32997        0.33549        0.37012        0.33299        0.33255        0.32311        0.29037        0.33734        0.31113        0.32194        0.33008        0.32336        0.31826        0.30130        0.34162        0.36596        0.33817        0.32484        0.30902        0.32808        0.29815        0.34620        0.32440        0.27189        0.32840        0.29979        0.34311        0.33770        0.38478        0.32828        0.31519        0.26531        0.32862        0.37197        0.34813        0.31457        0.32399        0.32102        0.32371        0.30289        0.31726        0.30938        0.30889        0.28039        0.28769        0.31405        0.29473        0.29836        0.31135        0.25358        0.31435        0.34797        0.36339        0.34190        0.31109        0.31738        0.27718        0.30576        0.29701        0.31603        0.33350        0.27956        0.27334        0.31983        0.35193        0.34114        0.27953        0.27383        0.32101        0.28955        0.30574        0.34620        0.35057        0.28508        0.25904        0.30818        0.32987        0.28232        0.23849        0.26189        0.26455        0.31033        0.34250        0.29675        0.34635        0.28430        0.26688        0.30093        0.29087        0.21768        0.26594        0.30707        0.25582        0.21446        0.23425        0.30553        0.41634        0.30332        0.24396        0.17228        0.23814        0.25836        0.26190        0.39421        0.22340        0.14900        0.28356        0.32408        0.29225        0.18310        0.04209       -0.58357       -1.08532
2.755287 2.726804 2.698472 2.670290 2.642260 2.614381 2.586652 2.559075 2.531648 2.504373 2.477248 2.450274 2.423452 2.396780 2.370259 2.343889 2.317670 2.291602 2.265684 2.239918 2.214303 2.188838 2.163525 2.138362 2.113351 2.088490 2.063780 2.039221 2.014813 1.990556 1.966450 1.942495 1.918691 1.895038 1.871535 1.848184 1.824984 1.801934 1.779035 1.756288 1.733691 1.711245 1.688950 1.666806 1.644813 1.622971 1.601280 1.579740 1.558351 1.537112 1.516025 1.463209 1.952639 1.484605 1.005229 0.814462 0.018501 0.661369 0.178467 0.356687 0.683831 0.421184 0.313448 0.538122 0.460835 0.379922 0.247281 0.023609 -0.226802 -0.416177 -0.397797 -0.334258 0.148693 -0.395470 -0.163482 -0.314888 -0.224034 -0.398471 -0.029495 -0.070160 -0.180582 0.068712 0.249244 0.083575 0.341842 0.240929 0.634718 0.505561 0.822010 0.773451 0.877560 1.109555 0.984643 1.261530 1.305705 1.144358 1.001826 1.015066 0.971090 0.992227 0.971649 0.804172 0.689040 0.632485 0.547837 0.476342 0.549995 0.382732 0.293593 0.111957 0.065494 0.116565 0.172577 0.082885 0.128247 0.270050 0.355411 0.365533 0.452680 0.487378 0.621341 0.432888 0.866908 0.975072 0.760260 0.717527 0.834637 0.549094 0.523144 0.500775 0.227652 0.255096 0.074441 0.200765 -0.037490 -0.014235 -0.112774 -0.096432 0.148595 0.039720 0.162409 0.226118 0.264919 0.398526 0.458545 0.408853 0.417004 0.536318 0.489495 0.379673 0.354985 0.215003 0.179809 0.081208 0.009889 0.022140 -0.127901 -0.003500 0.010875 -0.099915 -0.044026 0.172440 0.342009 0.219446 0.317022 0.176628 0.499548 0.378242 0.320764 0.301465 0.169537 0.113227 0.349582 0.027195 0.045221 -0.025234 0.062491 -0.034305 0.066348 -0.038103 0.160632 0.001538 0.223814 0.363000 0.231189 0.190057 0.225519 0.178685 0.069633 0.083267 0.084838 -0.027853 0.006766 0.049566 -0.149528 -0.105013 -0.003168 0.103933 0.294258 0.132178 0.176782 0.124512 0.159644 0.067791 0.070871 -0.039561 0.030006 0.004966 -0.049502 0.003701 0.043266 0.069701 0.011073 0.061064 0.126214 0.146416 0.297739 0.034024 0.041222 0.058266 -0.004048 0.017852 -0.015607 0.060522 0.116364 -0.018830 0.038312 0.052129 0.160032 0.060605 0.041515 0.092228 0.048726 0.073341 -0.017938 0.017907 -0.043630 0.013709 -0.010054 -0.024118 -0.033278 0.057682 0.016459 0.019625 -0.012357 -0.080649 -0.037797 -0.100227 -0.011828 -0.002924 0.043496 -0.021919 0.008880 0.088964 -0.034196 -0.009380 -0.070733 -0.102533 -0.002660 -0.084154 -0.017196 -0.014083 -0.030570 -0.050445 -0.084884 0.025392 0.113712 -0.018267 -0.042810 -0.030396 -0.059842 -0.042022 0.023123 -0.027121 -0.102385 0.002651 -0.081579 0.036064 0.022021 0.119806 0.008951 -0.062420 -0.126599 0.036066 0.123696 -0.025390 -0.004782 -0.015502 -0.020926 0.016617 -0.069368 -0.004841 -0.000435 -0.035009 -0.077289 -0.089498 0.010600 -0.053639 -0.014651 -0.092572 -0.134351 0.055569 0.089634 0.115154 0.025067 0.054211 -0.038501 -0.055698 -0.020504 0.022717 0.013475 0.069702 -0.084968 -0.070611 0.044243 0.087951 0.073225 -0.077079 -0.054384 -0.021143 -0.043165 -0.082731 0.087831 0.025102 -0.066120 -0.118047 -0.052278 0.051188 -0.098439 -0.143888 -0.123844 -0.016824 0.000003 0.009161 -0.081671 0.080917 0.026749 -0.058777 -0.032007 -0.070095 -0.174480 -0.032370 0.056527 -0.066077 -0.104110 -0.072249 -0.049616 0.386034 0.004046 0.049120 -0.278299 0.005931 0.059785 -0.010259 0.342742 -0.009037 0.289442 0.623820 0.706212 0.372555 0.283496 0.088976 -2.054643
0.072396 0.072904 0.074429 0.076969 0.080525 0.085096 0.090679 0.097274 0.104879 0.113489 0.123103 0.133715 0.145321 0.157913 0.171483 0.186022 0.201519 0.217961 0.235331 0.253613 0.272785 0.292824 0.313703 0.335391 0.357856 0.381057 0.404953 0.429496 0.454633 0.480308 0.506456 0.533010 0.559893 0.587025 0.614317 0.641675 0.668997 0.696176 0.723097 0.749636 0.775665 0.801047 0.825640 0.849296 0.871857 0.893165 0.913051 0.931347 0.947876 0.962462 0.974924 0.985081 0.992753 0.997759 0.999923 0.999071 0.995037 0.987662 0.976795 0.962298 0.944046 0.921930 0.895857 0.865756 0.831579 0.793300 0.750922 0.704476 0.654025 0.599665 0.541527 0.479780 0.414629 0.346322 0.275146 0.201429 0.125539 0.047889 0.031070 0.110849 0.190919 0.270718 0.349651 0.427095 0.502402 0.574908 0.643933 0.708791 0.768797 0.823272 0.871554 0.913007 0.947026 0.973052 0.990577 0.999156 0.998419 0.988075 0.967926 0.937875 0.897933 0.848227 0.789004 0.720640 0.643640 0.558640 0.466408 0.367843 0.263965 0.155916 0.044944 0.067603 0.180297 0.291640 0.400088 0.504069 0.602008 0.692352 0.773593 0.844301 0.903148 0.948938 0.980635 0.997389 0.998565 0.983759 0.952829 0.905902 0.843392 0.766007 0.674752 0.570925 0.456106 0.332147 0.201143 0.065405 0.072578 0.210174 0.344667 0.473301 0.593341 0.702135 0.797174 0.876155 0.937046 0.978144 0.998129 0.996119 0.971705 0.924988 0.856600 0.767713 0.660035 0.535793 0.397701 0.248909 0.092943 0.066368 0.224988 0.378768 0.523553 0.655306 0.770214 0.864818 0.936115 0.981675 0.999734 0.989271 0.950074 0.882780 0.788892 0.670766 0.531576 0.375243 0.206346 0.029996 0.148309 0.322847 0.487855 0.637730 0.767211 0.871590 0.946886 0.990020 0.998960 0.972829 0.911986 0.818062 0.693939 0.543698 0.372510 0.186469 0.007599 0.202374 0.390324 0.563988 0.716273 0.840772 0.932034 0.985835 0.999394 0.971542 0.902826 0.795556 0.653749 0.483034 0.290438 0.084133 0.126894 0.333230 0.525443 0.694529 0.832337 0.931994 0.988267 0.997871 0.959691 0.874915 0.747039 0.581782 0.386853 0.171644 0.053215 0.276355 0.486234 0.671752 0.822837 0.931028 0.989974 0.995849 0.947638 0.847281 0.699656 0.512390 0.295519 0.060974 0.178041 0.407780 0.614747 0.786505 0.912442 0.984467 0.997576 0.950244 0.844622 0.686511 0.485104 0.252502 0.003029 0.247621 0.483369 0.688772 0.850062 0.956113 0.999239 0.975818 0.886649 0.737011 0.536440 0.298162 0.038291 0.225238 0.473878 0.689798 0.857172 0.963375 1.000000 0.963584 0.855997 0.684444 0.461054 0.202108 0.073120 0.343746 0.588850 0.789127 0.928428 0.995119 0.983126 0.892566 0.729886 0.507508 0.242946 0.042492 0.325395 0.582153 0.790935 0.933595 0.997302 0.975779 0.870006 0.688310 0.445810 0.163246 0.134724 0.421656 0.671644 0.861695 0.973893 0.997173 0.928502 0.773351 0.545377 0.265334 0.040745 0.343914 0.615035 0.827585 0.960328 0.999495 0.940327 0.787751 0.556103 0.267896 0.048273 0.360506 0.636805 0.848372 0.972673 0.995928 0.914758 0.736766 0.479972 0.171106 0.157083 0.469256 0.731267 0.913954 0.996465 0.968744 0.832890 0.603184 0.304718 0.029213 0.360775 0.651833 0.868376 0.984563 0.985918 0.871277 0.653199 0.356750 0.016752 0.326218 0.630638 0.859079 0.982896 0.985936 0.866793 0.639284 0.331016 0.019826 0.369113 0.672291 0.890100 0.993740 0.968826 0.817540 0.558673 0.225465 0.138511 0.484990 0.767399
1.000000 1.000000 1.000000 1.000000 1.000000 1.000000 1.000000 1.000000 1.000000 1.000000 1.000000 1.000000 1.000000 1.000000 1.000000 1.000000 1.000000 1.000000 1.000000 1.000000 1.000000 1.000000 1.000000 1.000000 1.000000 1.000000 1.000000 1.000000 1.000000 1.000000 1.000000 1.000000 1.000000 1.000000 1.000000 1.000000 1.000000 1.000000 1.000000 1.000000 1.000000 1.000000 1.000000 1.000000 1.000000 1.000000 1.000000 1.000000 1.000000 1.000000 1.000000 1.000000 0.824649 0.824649 0.824649 0.813814 0.813814 0.813814 0.813814 0.813814 0.813814 0.813814 0.813814 0.813814 0.813814 0.813814 0.813814 0.813814 0.813814 0.813814 0.813814 0.813814 0.813814 0.813814 0.813814 0.813814 0.813814 0.813814 0.813814 0.813814 0.813814 0.813814 0.813814 0.813814 0.813814 0.813814 0.813814 0.813814 0.813814 0.813814 0.813814 0.813814 0.813814 0.813814 0.813814 0.813814 0.827213 0.833819 0.837080 0.840416 0.842324 0.838697 0.837580 0.836648 0.836344 0.837478 0.846642 0.871841 0.889169 0.896720 0.910666 0.914837 0.919153 0.921286 0.928309 0.928149 0.959936 0.955242 0.952307 0.953463 0.951735 0.946838 0.945528 0.943756 0.952890 0.947490 0.944750 0.941761 0.940543 0.936339 0.936436 0.936149 0.933063 0.933535 0.934175 0.934160 0.933524 0.932224 0.931597 0.920606 0.920289 0.919495 0.922216 0.898086 0.893325 0.883064 0.882474 0.884775 0.879992 0.879116 0.870845 0.872263 0.873372 0.867427 0.857647 0.852994 0.847998 0.840203 0.837260 0.835653 0.838947 0.836858 0.838493 0.831276 0.818766 0.806557 0.795047 0.793833 0.780487 0.774579 0.778400 0.779220 0.782221 0.778769 0.777029 0.767394 0.761043 0.747717 0.745563 0.747581 0.757990 0.761215 0.761754 0.760910 0.744752 0.723282 0.702586 0.699039 0.699606 0.667045 0.652794 0.655887 0.658955 0.665030 0.677564 0.671989 0.661625 0.633133 0.608742 0.584205 0.598043 0.614039 0.600022 0.604615 0.583170 0.623103 0.626123 0.645593 0.659880 0.667357 0.662384 0.637622 0.594165 0.595626 0.593435 0.591557 0.587968 0.578857 0.581244 0.601202 0.568668 0.561434 0.551822 0.544599 0.549154 0.562319 0.563581 0.564707 0.542412 0.510021 0.476483 0.473833 0.412997 0.376376 0.366403 0.367673 0.343158 0.339418 0.358415 0.355705 0.349175 0.353841 0.362514 0.329588 0.332559 0.326570 0.303360 0.294919 0.316904 0.325629 0.330015 0.313161 0.282277 0.298660 0.262518 0.281334 0.252817 0.224759 0.225631 0.228903 0.234906 0.262221 0.252373 0.236256 0.207283 0.164791 0.186361 0.200894 0.244428 0.226600 0.210795 0.206647 0.181983 0.155629 0.157994 0.116484 0.074386 0.058827 0.045502 0.045129 0.038115 0.043332 0.019427 0.025477 0.016202 0.054058 0.037175 0.018167 -0.001252 0.033248 0.016305 -0.003433 0.010996 -0.024286 -0.065435 -0.075303 -0.083154 -0.059015 -0.053160 -0.040230 -0.075917 -0.095271 -0.114715 -0.124294 -0.133586 -0.131976 -0.129847 -0.132890 -0.150865 -0.125951 -0.125173 -0.130073 -0.173803 -0.207666 -0.178308 -0.177310 -0.184577 -0.186900 -0.164923 -0.166358 -0.170634 -0.147535 -0.150162 -0.143369 -0.126569 -0.175070 -0.211922 -0.219172 -0.212385 -0.204130 -0.160169 -0.137657 -0.123014 -0.110387 -0.136112 -0.136112 -0.136112 -0.136112 -0.130538 -0.130538 -0.130538 -0.130538 -0.130538 -0.130538 -0.130538 -0.130538 -0.130538 -0.157778 -0.157778 -0.157778 -0.157778 -0.157778 -0.157778 -0.157778 -0.157778 -0.157778 -0.157778 -0.157778 -0.157778 -0.157778 -0.157778 -0.157778 -0.157778
0.000000 0.000000 0.000000 0.000000 0.000000 0.000000 0.000000 0.000000 0.000000 0.000000 0.000000 0.000000 0.000000 0.000000 0.000000 0.000000 0.000000 0.000000 0.000000 0.000000 0.000000 0.000000 0.000000 0.000000 0.000000 0.000000 0.000000 0.000000 0.000000 0.000000 0.000000 0.000000 0.000000 0.000000 0.000000 0.000000 0.000000 0.000000 0.000000 0.000000 0.000000 0.000000 0.000000 0.000000 0.000000 0.000000 0.000000 0.000000 0.000000 0.000000 0.000000 0.000000 0.180334 0.180334 0.180334 0.199007 0.199007 0.199007 0.199007 0.199007 0.199007 0.199007 0.199007 0.199007 0.199007 0.199007 0.199007 0.199007 0.199007 0.199007 0.199007 0.199007 0.199007 0.199007 0.199007 0.199007 0.199007 0.199007 0.199007 0.199007 0.199007 0.199007 0.199007 0.199007 0.199007 0.199007 0.199007 0.199007 0.199007 0.199007 0.199007 0.199007 0.199007 0.199007 0.199007 0.199007 0.230940 0.230940 0.230940 0.230940 0.230940 0.230940 0.230940 0.230940 0.230940 0.230940 0.230940 0.230940 0.230940 0.230940 0.230940 0.230940 0.230940 0.230940 0.230940 0.230940 0.230940 0.230940 0.230940 0.230940 0.230940 0.230940 0.230940 0.230940 0.244339 0.244339 0.244339 0.244339 0.244339 0.244339 0.244339 0.244339 0.244339 0.244339 0.244339 0.244339 0.244339 0.244339 0.244339 0.244339 0.244339 0.244339 0.244339 0.244339 0.244339 0.244339 0.244339 0.251976 0.251976 0.251976 0.251976 0.251976 0.251976 0.251976 0.251976 0.251976 0.251976 0.251976 0.251976 0.251976 0.251976 0.251976 0.251976 0.251976 0.251976 0.251976 0.251976 0.264906 0.264906 0.264906 0.264906 0.264906 0.264906 0.264906 0.264906 0.264906 0.264906 0.264906 0.264906 0.264906 0.264906 0.264906 0.264906 0.264906 0.264906 0.264906 0.264906 0.264906 0.264906 0.264906 0.264906 0.264906 0.264906 0.264906 0.264906 0.264906 0.264906 0.264906 0.264906 0.264906 0.264906 0.264906 0.264906 0.264906 0.264906 0.264906 0.264906 0.264906 0.264906 0.264906 0.264906 0.264906 0.264906 0.264906 0.264906 0.264906 0.264906 0.264906 0.264906 0.264906 0.264906 0.264906 0.264906 0.264906 0.264906 0.264906 0.264906 0.264906 0.264906 0.264906 0.264906 0.264906 0.264906 0.264906 0.264906 0.264906 0.264906 0.264906 0.264906 0.264906 0.264906 0.264906 0.260378 0.260378 0.260378 0.260378 0.260378 0.260378 0.260378 0.260378 0.260378 0.260378 0.260378 0.260378 0.260378 0.264906 0.264906 0.264906 0.264906 0.264906 0.264906 0.264906 0.264906 0.264906 0.264906 0.264906 0.264906 0.269680 0.269680 0.269680 0.269680 0.269680 0.269680 0.269680 0.269680 0.269680 0.269680 0.269680 0.264906 0.264906 0.264906 0.264906 0.264906 0.264906 0.264906 0.264906 0.264906 0.264906 0.264906 0.269680 0.269680 0.269680 0.269680 0.269680 0.269680 0.269680 0.269680 0.269680 0.269680 0.264906 0.264906 0.264906 0.264906 0.264906 0.264906 0.264906 0.264906 0.264906 0.264906 0.260378 0.260378 0.260378 0.260378 0.260378 0.260378 0.260378 0.260378 0.260378 0.260378 0.256074 0.256074 0.256074 0.256074 0.256074 0.256074 0.256074 0.256074 0.256074 0.256074 0.260378 0.260378 0.260378 0.260378 0.260378 0.260378 0.260378 0.260378 0.260378 0.256074 0.256074 0.256074 0.256074 0.256074 0.256074 0.256074 0.256074 0.256074 0.251976 0.251976 0.251976 0.251976 0.251976 0.251976 0.251976 0.251976 0.251976 0.251976 0.251976 0.251976 0.251976 0.251976 0.251976 0.251976
