# Output from CTFFind version 4.1.9, run on 2019-11-03 20:10:00
# Input file: stack16_bm3d_averaged_1_7.0_0_2500_half.mrc ; Number of micrographs: 1
# Pixel size: 3.000 Angstroms ; acceleration voltage: 300.0 keV ; spherical aberration: 0.00 mm ; amplitude contrast: 0.07
# Box size: 512 pixels ; min. res.: 30.0 Angstroms ; max. res.: 5.0 Angstroms ; min. def.: 5000.0 um; max. def. 50000.0 um; num. frames averaged: 1
# 6 lines per micrograph: #1 - spatial frequency (1/Angstroms); #2 - 1D rotational average of spectrum (assuming no astigmatism); #3 - 1D rotational average of spectrum; #4 - CTF fit; #5 - cross-correlation between spectrum and CTF fit; #6 - 2sigma of expected cross correlation of noise
0.000000 0.000651 0.001302 0.001953 0.002604 0.003255 0.003906 0.004557 0.005208 0.005859 0.006510 0.007161 0.007812 0.008464 0.009115 0.009766 0.010417 0.011068 0.011719 0.012370 0.013021 0.013672 0.014323 0.014974 0.015625 0.016276 0.016927 0.017578 0.018229 0.018880 0.019531 0.020182 0.020833 0.021484 0.022135 0.022786 0.023438 0.024089 0.024740 0.025391 0.026042 0.026693 0.027344 0.027995 0.028646 0.029297 0.029948 0.030599 0.031250 0.031901 0.032552 0.033203 0.033854 0.034505 0.035156 0.035807 0.036458 0.037109 0.037760 0.038411 0.039062 0.039714 0.040365 0.041016 0.041667 0.042318 0.042969 0.043620 0.044271 0.044922 0.045573 0.046224 0.046875 0.047526 0.048177 0.048828 0.049479 0.050130 0.050781 0.051432 0.052083 0.052734 0.053385 0.054036 0.054688 0.055339 0.055990 0.056641 0.057292 0.057943 0.058594 0.059245 0.059896 0.060547 0.061198 0.061849 0.062500 0.063151 0.063802 0.064453 0.065104 0.065755 0.066406 0.067057 0.067708 0.068359 0.069010 0.069661 0.070312 0.070964 0.071615 0.072266 0.072917 0.073568 0.074219 0.074870 0.075521 0.076172 0.076823 0.077474 0.078125 0.078776 0.079427 0.080078 0.080729 0.081380 0.082031 0.082682 0.083333 0.083984 0.084635 0.085286 0.085938 0.086589 0.087240 0.087891 0.088542 0.089193 0.089844 0.090495 0.091146 0.091797 0.092448 0.093099 0.093750 0.094401 0.095052 0.095703 0.096354 0.097005 0.097656 0.098307 0.098958 0.099609 0.100260 0.100911 0.101562 0.102214 0.102865 0.103516 0.104167 0.104818 0.105469 0.106120 0.106771 0.107422 0.108073 0.108724 0.109375 0.110026 0.110677 0.111328 0.111979 0.112630 0.113281 0.113932 0.114583 0.115234 0.115885 0.116536 0.117188 0.117839 0.118490 0.119141 0.119792 0.120443 0.121094 0.121745 0.122396 0.123047 0.123698 0.124349 0.125000 0.125651 0.126302 0.126953 0.127604 0.128255 0.128906 0.129557 0.130208 0.130859 0.131510 0.132161 0.132812 0.133464 0.134115 0.134766 0.135417 0.136068 0.136719 0.137370 0.138021 0.138672 0.139323 0.139974 0.140625 0.141276 0.141927 0.142578 0.143229 0.143880 0.144531 0.145182 0.145833 0.146484 0.147135 0.147786 0.148438 0.149089 0.149740 0.150391 0.151042 0.151693 0.152344 0.152995 0.153646 0.154297 0.154948 0.155599 0.156250 0.156901 0.157552 0.158203 0.158854 0.159505 0.160156 0.160807 0.161458 0.162109 0.162760 0.163411 0.164062 0.164714 0.165365 0.166016 0.166667 0.167318 0.167969 0.168620 0.169271 0.169922 0.170573 0.171224 0.171875 0.172526 0.173177 0.173828 0.174479 0.175130 0.175781 0.176432 0.177083 0.177734 0.178385 0.179036 0.179688 0.180339 0.180990 0.181641 0.182292 0.182943 0.183594 0.184245 0.184896 0.185547 0.186198 0.186849 0.187500 0.188151 0.188802 0.189453 0.190104 0.190755 0.191406 0.192057 0.192708 0.193359 0.194010 0.194661 0.195312 0.195964 0.196615 0.197266 0.197917 0.198568 0.199219 0.199870 0.200521 0.201172 0.201823 0.202474 0.203125 0.203776 0.204427 0.205078 0.205729 0.206380 0.207031 0.207682 0.208333 0.208984 0.209635 0.210286 0.210938 0.211589 0.212240 0.212891 0.213542 0.214193 0.214844 0.215495 0.216146 0.216797 0.217448 0.218099 0.218750 0.219401 0.220052 0.220703 0.221354 0.222005 0.222656 0.223307 0.223958 0.224609 0.225260 0.225911 0.226562 0.227214 0.227865 0.228516 0.229167 0.229818 0.230469 0.231120 0.231771 0.232422 0.233073 0.233724 0.234375 0.235026 0.235677
       0.35524        0.35524        0.35524        0.35524        0.35524        0.35524        0.35524        0.35524        0.35524        0.35524        0.35524        0.35524        0.35524        0.35524        0.35524        0.35524        0.35524        0.35524        0.35524        0.35524        0.35524        0.35524        0.35524        0.35524        0.35524        0.35524        0.35524        0.35524        0.35524        0.35525        0.35524        0.35524        0.35524        0.35524        0.35524        0.35524        0.35525        0.35524        0.35524        0.35524        0.35524        0.35524        0.35524        0.35525        0.35524        0.35524        0.35525        0.35524        0.35525        0.35524        0.35524        0.43308        0.55832        0.34482       -0.21601       -0.44811       -0.53907       -0.64143       -0.70968       -0.71457       -0.80733       -0.88295       -0.67339       -0.82655       -0.81182       -0.95287       -0.99219       -0.87341       -0.83228       -0.79196       -0.70174       -0.63340       -0.54327       -0.45030       -0.38654       -0.15894       -0.05741        0.04757        0.26761        0.26322        0.32195        0.37449        0.40708        0.52947        0.54174        0.57736        0.53538        0.47756        0.50866        0.53482        0.45863        0.33740        0.22332        0.18878        0.11715        0.02208        0.00568       -0.00366        0.06694        0.03370        0.08527        0.05765        0.17509        0.20326        0.41284        0.46398        0.55073        0.65929        0.68622        0.71346        0.64134        0.61397        0.54921        0.44526        0.39363        0.28686        0.22548        0.22286        0.11161        0.12376        0.12544        0.09655        0.10428        0.30959        0.42286        0.53016        0.53637        0.56957        0.60829        0.58924        0.57234        0.58653        0.57100        0.47217        0.31517        0.27356        0.26547        0.16339        0.10036        0.17972        0.22227        0.29419        0.35877        0.43281        0.47834        0.53466        0.60466        0.54922        0.50789        0.51060        0.36078        0.28896        0.26992        0.18468        0.21302        0.24850        0.28601        0.29125        0.33637        0.43568        0.46979        0.50153        0.45672        0.44468        0.49240        0.40190        0.33396        0.29389        0.26980        0.24134        0.23299        0.24497        0.34539        0.45435        0.43960        0.49135        0.55694        0.45531        0.41775        0.36085        0.32383        0.28176        0.28922        0.27662        0.29586        0.36356        0.37014        0.44576        0.47531        0.44603        0.46825        0.38463        0.38401        0.35794        0.28082        0.26194        0.26037        0.34387        0.38603        0.36878        0.39437        0.43680        0.44845        0.38754        0.34326        0.32845        0.35842        0.32287        0.29085        0.29550        0.36498        0.38178        0.39999        0.39213        0.39864        0.42656        0.41285        0.33127        0.29604        0.31905        0.34715        0.39031        0.36686        0.40819        0.35173        0.37561        0.39746        0.34667        0.36010        0.32803        0.30898        0.34305        0.35237        0.33665        0.36750        0.38299        0.33451        0.35504        0.32905        0.32311        0.30664        0.32774        0.33055        0.33293        0.37239        0.38110        0.36529        0.31519        0.30818        0.29304        0.33755        0.32151        0.32138        0.37732        0.36208        0.34646        0.32327        0.31189        0.31214        0.28370        0.32527        0.33973        0.35182        0.37785        0.36021        0.32415        0.34443        0.36230        0.34293        0.36056        0.35255        0.32142        0.33918        0.29771        0.32532        0.30603        0.32156        0.29130        0.32681        0.35511        0.33319        0.36171        0.32024        0.34141        0.36168        0.34739        0.32610        0.33521        0.37278        0.35132        0.35551        0.33694        0.31707        0.32747        0.32130        0.33210        0.33090        0.36889        0.33640        0.33841        0.30212        0.29858        0.27696        0.28105        0.36661        0.31655        0.33771        0.30034        0.26935        0.27932        0.36865        0.31233        0.29036        0.32826        0.32308        0.29912        0.26417        0.30475        0.27412        0.30667        0.31250        0.34768        0.34051        0.32608        0.32102        0.27246        0.28731        0.28590        0.28881        0.30509        0.36464        0.30548        0.21220        0.30896        0.30417        0.33968        0.26905        0.29917        0.29038        0.33376        0.28834        0.27692        0.27778        0.25219        0.31248        0.33783        0.32836        0.25985        0.31793        0.26961        0.24275        0.22686        0.32982        0.25748        0.16144        0.11605        0.20198        0.34874        0.26379        0.19115        0.14032       -0.40690       -0.53435
3.231384 3.190251 3.149385 3.108787 3.068456 3.028392 2.988595 2.949067 2.909805 2.870811 2.832084 2.793625 2.755433 2.717509 2.679852 2.642462 2.605340 2.568485 2.531898 2.495578 2.459525 2.423740 2.388222 2.352972 2.317989 2.283274 2.248826 2.214645 2.180732 2.147086 2.113707 2.080596 2.047753 2.015176 1.982868 1.950826 1.919052 1.887546 1.856306 1.825335 1.794630 1.764193 1.734024 1.704122 1.674487 1.645120 1.616020 1.587187 1.558622 1.530325 1.502294 1.538094 1.608455 1.549323 0.842646 0.599910 0.461366 0.391757 0.294816 0.222620 0.190944 -0.047901 0.211604 0.078286 -0.026853 -0.104946 -0.236389 -0.142052 -0.050171 -0.093777 -0.070706 0.038316 0.038797 0.232844 0.109781 0.358330 0.464101 0.498239 0.773826 0.682943 0.698130 0.822357 0.795156 0.844323 0.922578 0.851772 0.885279 0.724753 0.784249 0.844244 0.689524 0.604845 0.433526 0.427841 0.327379 0.192364 0.187438 0.113491 0.207943 0.119335 0.206929 0.104390 0.214172 0.227136 0.434480 0.398619 0.566831 0.605331 0.625854 0.714244 0.600505 0.570696 0.456641 0.407040 0.283075 0.259233 0.089018 0.148289 -0.031229 0.035616 -0.031005 -0.045550 -0.061139 0.021400 0.258709 0.288147 0.352573 0.290611 0.375549 0.385310 0.405348 0.387303 0.352191 0.321167 0.116953 0.070123 0.060293 -0.024136 -0.154454 -0.057873 -0.065266 0.033190 0.071523 0.145350 0.207762 0.219883 0.311925 0.399367 0.277771 0.359145 0.224401 0.141636 0.064071 0.033239 -0.000128 0.052531 0.068585 0.092373 0.117769 0.167852 0.237136 0.301932 0.265008 0.205494 0.249566 0.223994 0.108585 0.054311 0.054641 0.024169 0.004756 -0.026559 0.028814 0.166726 0.194360 0.187041 0.301075 0.176130 0.192533 0.070801 0.062926 0.013451 -0.007199 -0.005063 -0.012006 0.045422 0.072905 0.100382 0.155707 0.138799 0.222129 0.137359 0.076298 0.098454 0.040794 -0.048585 -0.018211 0.028124 0.068731 0.072144 0.064687 0.150312 0.109826 0.155430 0.036246 0.046510 0.044562 0.044708 0.027203 -0.020766 0.039963 0.050965 0.091517 0.099692 0.084331 0.112423 0.123523 0.079461 0.010970 -0.010836 0.021216 0.074615 0.074393 0.087516 0.083572 0.053693 0.102227 0.065992 0.041491 0.075876 -0.011555 0.011440 0.066108 0.040187 0.044376 0.073171 0.078255 0.048288 0.066601 0.017447 0.018845 0.010149 0.055313 0.014559 0.039716 0.073945 0.077831 0.044836 -0.005332 -0.002647 -0.019578 0.044201 0.001029 0.012126 0.072013 0.046329 0.003575 0.012152 -0.017632 0.005478 -0.039759 0.008044 0.017465 0.045090 0.046216 0.029224 -0.003856 0.005513 0.037647 0.008719 0.035433 0.008774 -0.013544 0.015740 -0.045302 -0.030285 -0.055040 -0.012118 -0.068411 0.005693 0.009138 -0.006687 -0.014590 -0.003519 -0.001308 0.027750 0.012106 -0.012554 0.010510 0.025277 0.033273 0.028173 0.004887 0.010653 0.007994 -0.007984 0.015919 -0.006464 0.095212 0.034547 0.026380 0.004575 -0.008825 -0.028263 0.003055 0.077123 -0.003565 0.054406 -0.023124 -0.023837 -0.023391 0.093554 0.002505 -0.024398 0.063247 0.053883 0.006029 0.001652 0.015619 0.003693 0.043577 0.037245 0.093122 0.050099 0.050888 0.044523 -0.007200 0.019679 -0.001784 -0.002673 0.017395 0.089249 -0.008775 -0.084610 0.038639 0.000904 0.076975 -0.049988 -0.009279 -0.005359 0.018484 -0.005536 -0.028342 -0.014238 -0.067488 0.046549 0.040909 0.051073 -0.115468 0.029772 0.020905 -0.011858 -0.073255 0.101984 0.025934 -0.050412 -0.117816 0.165374 0.345245 0.208240 0.130317 0.141655 -0.512945
0.072396 0.073047 0.074998 0.078249 0.082799 0.088647 0.095790 0.104225 0.113949 0.124957 0.137240 0.150793 0.165603 0.181659 0.198945 0.217443 0.237130 0.257981 0.279965 0.303046 0.327183 0.352330 0.378432 0.405430 0.433254 0.461829 0.491068 0.520879 0.551155 0.581785 0.612641 0.643590 0.674484 0.705165 0.735463 0.765198 0.794177 0.822196 0.849042 0.874491 0.898309 0.920255 0.940078 0.957525 0.972336 0.984248 0.993001 0.998334 0.999991 0.997724 0.991294 0.980478 0.965069 0.944881 0.919753 0.889554 0.854183 0.813581 0.767727 0.716648 0.660420 0.599173 0.533094 0.462430 0.387493 0.308658 0.226371 0.141141 0.053547 0.035765 0.126085 0.216644 0.306614 0.395118 0.481235 0.564010 0.642464 0.715604 0.782439 0.841990 0.893308 0.935492 0.967702 0.989180 0.999265 0.997418 0.983229 0.956445 0.916981 0.864931 0.800589 0.724451 0.637226 0.539838 0.433427 0.319342 0.199133 0.074539 0.052538 0.180049 0.305835 0.427656 0.543235 0.650298 0.746624 0.830092 0.898736 0.950793 0.984762 0.999446 0.994006 0.967998 0.921412 0.854695 0.768775 0.665065 0.545456 0.412304 0.268393 0.116897 0.038690 0.194619 0.346974 0.491770 0.625055 0.743032 0.842162 0.919291 0.971759 0.997508 0.995174 0.964169 0.904744 0.818019 0.705999 0.571558 0.418387 0.250921 0.074221 0.106158 0.284331 0.454281 0.610050 0.745969 0.856864 0.938282 0.986681 0.999617 0.975881 0.915614 0.820358 0.693070 0.538061 0.360896 0.168214 0.032492 0.233152 0.425435 0.601096 0.752338 0.872180 0.954799 0.995847 0.992715 0.944727 0.853258 0.721758 0.555672 0.362267 0.150350 0.070099 0.288387 0.493605 0.675190 0.823481 0.930260 0.989249 0.996521 0.950810 0.853685 0.709577 0.525642 0.311467 0.078620 0.159950 0.390601 0.599786 0.774856 0.904858 0.981262 0.998581 0.954818 0.851727 0.694837 0.493241 0.259131 0.007131 0.246595 0.485352 0.693021 0.855171 0.960110 0.999788 0.970491 0.873249 0.713933 0.502997 0.254881 0.012920 0.281031 0.529593 0.739736 0.895048 0.982919 0.995644 0.931183 0.793516 0.592519 0.343364 0.065458 0.219001 0.486771 0.715470 0.885469 0.981666 0.994900 0.922935 0.770874 0.550933 0.281587 0.013891 0.309375 0.578167 0.795440 0.940564 0.999174 0.964694 0.839200 0.633474 0.366233 0.062535 0.248479 0.536346 0.772261 0.932037 0.998654 0.964221 0.831040 0.611662 0.327863 0.008616 0.312775 0.602114 0.827974 0.965179 0.997738 0.920855 0.741775 0.479296 0.161974 0.174876 0.493015 0.755638 0.931679 0.999605 0.950210 0.788038 0.531200 0.209552 0.138644 0.471156 0.746920 0.931144 0.999841 0.943123 0.766818 0.492128 0.153284 0.206557 0.540728 0.805108 0.964016 0.995194 0.893125 0.670198 0.355455 0.008979 0.373392 0.687217 0.906088 0.998245 0.949346 0.764935 0.470126 0.106415 0.273952 0.615423 0.867250 0.991154 0.967354 0.797978 0.507248 0.138294 0.253034 0.606515 0.866842 0.992384 0.962079 0.779238 0.471571 0.087273 0.312290 0.662308 0.905048 0.999538 0.928739 0.702918 0.358511 0.047426 0.446513 0.770477 0.962919 0.989337 0.843621 0.549737 0.158134 0.262628 0.637772 0.899561 0.999722 0.918626 0.669490 0.296610 0.132157 0.537548 0.843529 0.991642 0.952480 0.731879 0.370514 0.063206 0.485874 0.815035 0.985367 0.961950 0.747784 0.383959 0.057831 0.489146 0.822425 0.988879 0.952977 0.720448 0.337894 0.116127 0.546993 0.863643 0.997993 0.919916 0.644428 0.229314 0.236563 0.652091
1.000000 1.000000 1.000000 1.000000 1.000000 1.000000 1.000000 1.000000 1.000000 1.000000 1.000000 1.000000 1.000000 1.000000 1.000000 1.000000 1.000000 1.000000 1.000000 1.000000 1.000000 1.000000 1.000000 1.000000 1.000000 1.000000 1.000000 1.000000 1.000000 1.000000 1.000000 1.000000 1.000000 1.000000 1.000000 1.000000 1.000000 1.000000 1.000000 1.000000 1.000000 1.000000 1.000000 1.000000 1.000000 1.000000 1.000000 1.000000 1.000000 1.000000 1.000000 1.000000 0.922997 0.922997 0.922997 0.922997 0.922997 0.922997 0.922997 0.922997 0.922997 0.922997 0.922997 0.922997 0.922997 0.922997 0.922997 0.922997 0.922997 0.922997 0.922997 0.922997 0.922997 0.922997 0.922997 0.922997 0.922997 0.922997 0.922997 0.922997 0.922997 0.922997 0.922997 0.922997 0.922997 0.913175 0.911298 0.912446 0.910978 0.909554 0.908963 0.908567 0.909605 0.911202 0.913285 0.934939 0.938039 0.939284 0.940617 0.941996 0.944289 0.942116 0.949654 0.956150 0.955068 0.956194 0.949975 0.951414 0.950736 0.949982 0.951340 0.951497 0.949778 0.947735 0.946018 0.945438 0.945202 0.948862 0.949355 0.949498 0.950095 0.950036 0.950752 0.951342 0.949449 0.951696 0.943743 0.942412 0.947686 0.945573 0.946929 0.946887 0.947576 0.948372 0.948693 0.948967 0.945693 0.945214 0.944235 0.937502 0.930259 0.930499 0.932631 0.935417 0.932807 0.930233 0.931535 0.933296 0.932385 0.935749 0.923748 0.918726 0.891717 0.877570 0.868437 0.868733 0.872969 0.875753 0.873449 0.867269 0.858529 0.854474 0.853934 0.850068 0.841500 0.856956 0.851188 0.847567 0.851206 0.854522 0.860033 0.858292 0.853940 0.848844 0.843691 0.833200 0.834498 0.836455 0.840930 0.823109 0.811657 0.828394 0.820967 0.812228 0.820485 0.822531 0.819861 0.818511 0.818910 0.816442 0.810025 0.802302 0.806223 0.815338 0.816407 0.806549 0.804172 0.802364 0.801804 0.796416 0.801953 0.804044 0.800455 0.795091 0.813103 0.781543 0.802070 0.803358 0.785643 0.770113 0.758832 0.767986 0.777623 0.776265 0.770279 0.777619 0.777594 0.769565 0.745559 0.736570 0.744166 0.742546 0.732258 0.719371 0.726144 0.722535 0.719956 0.717654 0.721006 0.722654 0.700419 0.714532 0.719211 0.710810 0.723571 0.726274 0.717211 0.720593 0.724896 0.728110 0.728771 0.697268 0.700201 0.648549 0.638507 0.596354 0.593012 0.587762 0.531795 0.536890 0.517791 0.503345 0.503930 0.472263 0.521910 0.427577 0.416107 0.441912 0.370501 0.331913 0.349822 0.351169 0.362998 0.365809 0.361011 0.363877 0.348284 0.323610 0.300315 0.327767 0.343642 0.317048 0.318570 0.296015 0.281090 0.232804 0.248622 0.252642 0.283961 0.286951 0.269522 0.290640 0.333993 0.273116 0.255781 0.233847 0.259811 0.268540 0.263902 0.253038 0.268811 0.211333 0.215261 0.236384 0.238854 0.280291 0.306559 0.329550 0.326913 0.331376 0.360920 0.315019 0.325389 0.329924 0.320640 0.346394 0.349740 0.356097 0.350435 0.382188 0.379986 0.386529 0.387515 0.400910 0.438335 0.414692 0.392682 0.357760 0.368703 0.366382 0.374318 0.317410 0.292332 0.291592 0.257136 0.213790 0.215583 0.215883 0.170861 0.163258 0.145781 0.113019 0.111518 0.119743 0.149054 0.119861 0.136018 0.138274 0.138274 0.138274 0.138274 0.138274 0.138274 0.138274 0.138274 0.138274 0.138274 0.138274 0.138274 0.138274 0.138274 0.160118 0.160118 0.160118 0.160118 0.160118 0.160118 0.160118 0.160118 0.160118 0.160118 0.160118 0.160118
0.000000 0.000000 0.000000 0.000000 0.000000 0.000000 0.000000 0.000000 0.000000 0.000000 0.000000 0.000000 0.000000 0.000000 0.000000 0.000000 0.000000 0.000000 0.000000 0.000000 0.000000 0.000000 0.000000 0.000000 0.000000 0.000000 0.000000 0.000000 0.000000 0.000000 0.000000 0.000000 0.000000 0.000000 0.000000 0.000000 0.000000 0.000000 0.000000 0.000000 0.000000 0.000000 0.000000 0.000000 0.000000 0.000000 0.000000 0.000000 0.000000 0.000000 0.000000 0.000000 0.209657 0.209657 0.209657 0.209657 0.209657 0.209657 0.209657 0.209657 0.209657 0.209657 0.209657 0.209657 0.209657 0.209657 0.209657 0.209657 0.209657 0.209657 0.209657 0.209657 0.209657 0.209657 0.209657 0.209657 0.209657 0.209657 0.209657 0.209657 0.209657 0.209657 0.209657 0.209657 0.209657 0.244339 0.244339 0.244339 0.244339 0.244339 0.244339 0.244339 0.244339 0.244339 0.244339 0.244339 0.244339 0.244339 0.244339 0.244339 0.244339 0.244339 0.244339 0.244339 0.244339 0.244339 0.244339 0.244339 0.244339 0.244339 0.260378 0.260378 0.260378 0.260378 0.260378 0.260378 0.260378 0.260378 0.260378 0.260378 0.260378 0.260378 0.260378 0.260378 0.260378 0.260378 0.260378 0.260378 0.260378 0.260378 0.269680 0.269680 0.269680 0.269680 0.269680 0.269680 0.269680 0.269680 0.269680 0.269680 0.269680 0.269680 0.269680 0.269680 0.269680 0.269680 0.269680 0.269680 0.269680 0.269680 0.269680 0.269680 0.269680 0.269680 0.269680 0.269680 0.269680 0.269680 0.269680 0.269680 0.269680 0.269680 0.269680 0.280056 0.280056 0.280056 0.280056 0.280056 0.280056 0.280056 0.280056 0.280056 0.280056 0.280056 0.280056 0.280056 0.280056 0.280056 0.280056 0.280056 0.280056 0.280056 0.280056 0.280056 0.280056 0.280056 0.280056 0.280056 0.280056 0.280056 0.274721 0.274721 0.274721 0.274721 0.274721 0.274721 0.274721 0.274721 0.274721 0.274721 0.274721 0.274721 0.274721 0.285714 0.285714 0.285714 0.285714 0.285714 0.285714 0.285714 0.285714 0.285714 0.285714 0.285714 0.280056 0.280056 0.280056 0.280056 0.280056 0.280056 0.280056 0.280056 0.280056 0.280056 0.280056 0.274721 0.274721 0.274721 0.274721 0.274721 0.274721 0.274721 0.274721 0.274721 0.274721 0.274721 0.280056 0.280056 0.280056 0.280056 0.280056 0.280056 0.280056 0.280056 0.280056 0.280056 0.285714 0.285714 0.285714 0.285714 0.285714 0.285714 0.285714 0.285714 0.285714 0.269680 0.269680 0.269680 0.269680 0.269680 0.269680 0.269680 0.269680 0.269680 0.269680 0.274721 0.274721 0.274721 0.274721 0.274721 0.274721 0.274721 0.274721 0.274721 0.285714 0.285714 0.285714 0.285714 0.285714 0.285714 0.285714 0.285714 0.264906 0.264906 0.264906 0.264906 0.264906 0.264906 0.264906 0.264906 0.264906 0.274721 0.274721 0.274721 0.274721 0.274721 0.274721 0.274721 0.274721 0.269680 0.269680 0.269680 0.269680 0.269680 0.269680 0.269680 0.269680 0.269680 0.269680 0.269680 0.269680 0.269680 0.269680 0.269680 0.269680 0.280056 0.280056 0.280056 0.280056 0.280056 0.280056 0.280056 0.260378 0.260378 0.260378 0.260378 0.260378 0.260378 0.260378 0.260378 0.269680 0.269680 0.269680 0.269680 0.269680 0.269680 0.269680 0.264906 0.264906 0.264906 0.264906 0.264906 0.264906 0.264906 0.264906 0.264906 0.264906 0.264906 0.264906 0.264906 0.264906 0.260378 0.260378 0.260378 0.260378 0.260378 0.260378 0.260378 0.260378 0.260378 0.260378 0.260378 0.260378
