# Output from CTFFind version 4.1.9, run on 2019-11-03 19:00:59
# Input file: stack6_bm3d_averaged_1_2.25_0_250_half.mrc ; Number of micrographs: 1
# Pixel size: 3.000 Angstroms ; acceleration voltage: 300.0 keV ; spherical aberration: 0.00 mm ; amplitude contrast: 0.07
# Box size: 512 pixels ; min. res.: 30.0 Angstroms ; max. res.: 5.0 Angstroms ; min. def.: 5000.0 um; max. def. 50000.0 um; num. frames averaged: 1
# 6 lines per micrograph: #1 - spatial frequency (1/Angstroms); #2 - 1D rotational average of spectrum (assuming no astigmatism); #3 - 1D rotational average of spectrum; #4 - CTF fit; #5 - cross-correlation between spectrum and CTF fit; #6 - 2sigma of expected cross correlation of noise
0.000000 0.000651 0.001302 0.001953 0.002604 0.003255 0.003906 0.004557 0.005208 0.005859 0.006510 0.007161 0.007812 0.008464 0.009115 0.009766 0.010417 0.011068 0.011719 0.012370 0.013021 0.013672 0.014323 0.014974 0.015625 0.016276 0.016927 0.017578 0.018229 0.018880 0.019531 0.020182 0.020833 0.021484 0.022135 0.022786 0.023438 0.024089 0.024740 0.025391 0.026042 0.026693 0.027344 0.027995 0.028646 0.029297 0.029948 0.030599 0.031250 0.031901 0.032552 0.033203 0.033854 0.034505 0.035156 0.035807 0.036458 0.037109 0.037760 0.038411 0.039062 0.039714 0.040365 0.041016 0.041667 0.042318 0.042969 0.043620 0.044271 0.044922 0.045573 0.046224 0.046875 0.047526 0.048177 0.048828 0.049479 0.050130 0.050781 0.051432 0.052083 0.052734 0.053385 0.054036 0.054688 0.055339 0.055990 0.056641 0.057292 0.057943 0.058594 0.059245 0.059896 0.060547 0.061198 0.061849 0.062500 0.063151 0.063802 0.064453 0.065104 0.065755 0.066406 0.067057 0.067708 0.068359 0.069010 0.069661 0.070312 0.070964 0.071615 0.072266 0.072917 0.073568 0.074219 0.074870 0.075521 0.076172 0.076823 0.077474 0.078125 0.078776 0.079427 0.080078 0.080729 0.081380 0.082031 0.082682 0.083333 0.083984 0.084635 0.085286 0.085938 0.086589 0.087240 0.087891 0.088542 0.089193 0.089844 0.090495 0.091146 0.091797 0.092448 0.093099 0.093750 0.094401 0.095052 0.095703 0.096354 0.097005 0.097656 0.098307 0.098958 0.099609 0.100260 0.100911 0.101562 0.102214 0.102865 0.103516 0.104167 0.104818 0.105469 0.106120 0.106771 0.107422 0.108073 0.108724 0.109375 0.110026 0.110677 0.111328 0.111979 0.112630 0.113281 0.113932 0.114583 0.115234 0.115885 0.116536 0.117188 0.117839 0.118490 0.119141 0.119792 0.120443 0.121094 0.121745 0.122396 0.123047 0.123698 0.124349 0.125000 0.125651 0.126302 0.126953 0.127604 0.128255 0.128906 0.129557 0.130208 0.130859 0.131510 0.132161 0.132812 0.133464 0.134115 0.134766 0.135417 0.136068 0.136719 0.137370 0.138021 0.138672 0.139323 0.139974 0.140625 0.141276 0.141927 0.142578 0.143229 0.143880 0.144531 0.145182 0.145833 0.146484 0.147135 0.147786 0.148438 0.149089 0.149740 0.150391 0.151042 0.151693 0.152344 0.152995 0.153646 0.154297 0.154948 0.155599 0.156250 0.156901 0.157552 0.158203 0.158854 0.159505 0.160156 0.160807 0.161458 0.162109 0.162760 0.163411 0.164062 0.164714 0.165365 0.166016 0.166667 0.167318 0.167969 0.168620 0.169271 0.169922 0.170573 0.171224 0.171875 0.172526 0.173177 0.173828 0.174479 0.175130 0.175781 0.176432 0.177083 0.177734 0.178385 0.179036 0.179688 0.180339 0.180990 0.181641 0.182292 0.182943 0.183594 0.184245 0.184896 0.185547 0.186198 0.186849 0.187500 0.188151 0.188802 0.189453 0.190104 0.190755 0.191406 0.192057 0.192708 0.193359 0.194010 0.194661 0.195312 0.195964 0.196615 0.197266 0.197917 0.198568 0.199219 0.199870 0.200521 0.201172 0.201823 0.202474 0.203125 0.203776 0.204427 0.205078 0.205729 0.206380 0.207031 0.207682 0.208333 0.208984 0.209635 0.210286 0.210938 0.211589 0.212240 0.212891 0.213542 0.214193 0.214844 0.215495 0.216146 0.216797 0.217448 0.218099 0.218750 0.219401 0.220052 0.220703 0.221354 0.222005 0.222656 0.223307 0.223958 0.224609 0.225260 0.225911 0.226562 0.227214 0.227865 0.228516 0.229167 0.229818 0.230469 0.231120 0.231771 0.232422 0.233073 0.233724 0.234375 0.235026 0.235677
       0.30616        0.30616        0.30616        0.30616        0.30616        0.30616        0.30616        0.30616        0.30616        0.30616        0.30616        0.30616        0.30616        0.30616        0.30616        0.30616        0.30616        0.30616        0.30616        0.30616        0.30616        0.30616        0.30616        0.30616        0.30616        0.30616        0.30616        0.30616        0.30616        0.30616        0.30616        0.30616        0.30616        0.30616        0.30616        0.30616        0.30616        0.30616        0.30616        0.30616        0.30616        0.30616        0.30616        0.30616        0.30616        0.30616        0.30616        0.30616        0.30616        0.30616        0.30616        0.62332        0.78929        0.39891        0.28206        0.16805       -0.11352        0.12086        0.02253        0.03395        0.11442        0.35127        0.41202        0.37418        0.21584       -0.02120        0.03535        0.06858       -0.17611       -0.17995       -0.08413       -0.11352       -0.29107       -0.18579       -0.30488       -0.26203       -0.28868       -0.39537       -0.45885       -0.45962       -0.40620       -0.33765       -0.41888       -0.33097       -0.40047       -0.34520       -0.27560       -0.20290       -0.18360       -0.10642       -0.05923        0.04005        0.07478        0.23799        0.30559        0.37165        0.39556        0.51879        0.57801        0.61203        0.70522        0.68121        0.74433        0.64102        0.66243        0.67284        0.62276        0.61475        0.62021        0.40971        0.38795        0.36167        0.32768        0.20569        0.12262        0.05571        0.06819        0.01346       -0.07794       -0.00604       -0.03967       -0.07772        0.05794        0.16530        0.26551        0.31731        0.31867        0.40682        0.51933        0.55758        0.52070        0.66569        0.55310        0.53079        0.59277        0.60993        0.54022        0.48738        0.41979        0.37275        0.22303        0.18628        0.12171        0.12918        0.09204        0.04602        0.07904        0.15300        0.12604        0.16036        0.21643        0.24240        0.33231        0.45053        0.46559        0.46942        0.50546        0.57000        0.54565        0.52225        0.41234        0.40179        0.35908        0.28133        0.24058        0.20695        0.16954        0.18451        0.18126        0.16598        0.13741        0.20502        0.25251        0.34478        0.38818        0.40471        0.46908        0.50638        0.44415        0.47072        0.41902        0.40830        0.39924        0.36363        0.28341        0.26324        0.18485        0.20975        0.21858        0.19410        0.21184        0.21129        0.24945        0.32132        0.40272        0.39478        0.37426        0.38593        0.44420        0.43904        0.41926        0.34520        0.31913        0.27824        0.28856        0.25905        0.22682        0.28113        0.28770        0.28415        0.29507        0.32600        0.32333        0.37359        0.35135        0.34485        0.36758        0.33264        0.31973        0.30562        0.28307        0.28277        0.26190        0.22038        0.26986        0.25766        0.29872        0.31029        0.34925        0.36943        0.32979        0.31499        0.35281        0.35320        0.26029        0.28917        0.29377        0.24859        0.22288        0.28031        0.28062        0.26641        0.30464        0.30435        0.32184        0.32978        0.34654        0.29431        0.30454        0.31684        0.27840        0.26459        0.25001        0.23806        0.25074        0.28456        0.28999        0.28427        0.29097        0.32032        0.33504        0.26910        0.30224        0.27369        0.25320        0.25128        0.25503        0.24870        0.24487        0.29352        0.26185        0.29669        0.27944        0.28067        0.31587        0.27753        0.30542        0.31303        0.28822        0.24882        0.26106        0.24870        0.24636        0.30730        0.30754        0.33883        0.31666        0.31766        0.26951        0.30316        0.23270        0.20218        0.27740        0.26412        0.25956        0.26725        0.30960        0.30423        0.36699        0.29287        0.21601        0.22196        0.24451        0.29017        0.31141        0.28833        0.25912        0.28356        0.27683        0.30054        0.28176        0.26099        0.27309        0.24220        0.27802        0.24007        0.25947        0.33098        0.29296        0.23485        0.27392        0.28193        0.28895        0.20578        0.26489        0.26250        0.28993        0.28284        0.34477        0.26073        0.25524        0.26130        0.22142        0.20859        0.19223        0.23294        0.19958        0.19240        0.17651        0.21091        0.27513        0.23787        0.23904        0.21341        0.22385        0.22785        0.24171        0.17533        0.15486        0.16338        0.23852        0.17714        0.06235        0.22761        0.19036        0.07625        0.16960        0.12793        0.08441        0.13144       -0.12032       -0.54585       -0.91819
2.801707 2.774352 2.747137 2.720062 2.693127 2.666331 2.639675 2.613159 2.586782 2.560546 2.534449 2.508491 2.482674 2.456996 2.431458 2.406060 2.380801 2.355683 2.330704 2.305864 2.281165 2.256605 2.232185 2.207905 2.183764 2.159763 2.135902 2.112181 2.088599 2.065157 2.041855 2.018693 1.995670 1.972787 1.950044 1.927441 1.904977 1.882653 1.860469 1.838424 1.816520 1.794755 1.773129 1.751644 1.730298 1.709092 1.688026 1.667100 1.646313 1.625666 1.605159 1.911427 2.236290 1.673829 1.681023 1.343272 0.893248 1.180839 1.047592 1.073448 0.992988 1.520144 1.496543 1.501355 1.249012 0.918670 0.784127 1.004272 0.696131 0.449595 0.585042 0.655104 0.401763 0.465446 0.304959 0.329061 0.218520 0.167280 -0.057087 -0.003729 0.021296 0.055386 0.034432 0.126667 -0.052139 0.009392 0.095788 0.209030 0.255889 0.258612 0.335952 0.577633 0.427564 0.690833 0.850745 0.885703 0.891560 1.145773 1.136856 1.206783 1.309378 1.199356 1.406282 1.180501 1.136522 1.307165 1.126539 1.071801 1.180365 0.855999 0.731423 0.684277 0.690462 0.452955 0.390919 0.248258 0.220159 0.133988 -0.020142 0.129526 -0.001882 -0.057698 0.097863 0.250843 0.342257 0.467309 0.484809 0.532992 0.714828 0.774628 0.639402 0.974673 0.821028 0.661201 0.768096 0.788199 0.727121 0.707603 0.470181 0.542217 0.243522 0.180186 0.113396 -0.000538 0.035932 -0.085263 -0.054259 0.013903 0.050466 -0.060352 0.236151 0.130751 0.200213 0.401551 0.434357 0.502040 0.400611 0.590023 0.629110 0.492900 0.407480 0.339600 0.321061 0.171620 0.123238 0.024157 0.048606 -0.024740 0.007260 -0.032902 -0.102865 0.002787 0.015484 0.143093 0.282712 0.227547 0.373572 0.368079 0.388673 0.396542 0.424271 0.353699 0.249501 0.338859 0.160403 0.192108 -0.003432 0.047346 0.033913 0.012210 -0.015253 0.011182 0.063047 0.117180 0.242725 0.321850 0.239384 0.226937 0.369929 0.341989 0.339312 0.222813 0.157884 0.133803 0.102451 0.091356 0.030836 0.018116 0.140331 0.038644 0.123504 0.098848 0.128460 0.216817 0.208531 0.182194 0.186391 0.228678 0.140740 0.136029 0.101230 0.084762 0.118903 -0.035937 0.054051 0.084802 0.027695 0.148310 0.120775 0.210731 0.211030 0.131652 0.135374 0.227772 0.124429 0.053921 0.105998 0.058734 0.022190 0.004575 0.097794 0.065551 0.037144 0.148458 0.104722 0.132016 0.145588 0.150790 0.120614 0.084184 0.126968 0.057210 0.051678 0.010640 0.015358 0.015461 0.081234 0.090640 0.071159 0.071256 0.109065 0.122915 0.003207 0.101185 0.032498 -0.012441 0.010282 -0.002142 -0.019772 0.026630 0.053663 -0.036914 0.076926 0.048253 0.010043 0.082246 0.004390 0.053961 0.076118 -0.015266 -0.019138 -0.028836 -0.013771 -0.046309 0.061337 0.061882 0.083080 0.027577 0.138819 -0.032282 0.061949 -0.098104 -0.065665 0.016346 -0.031277 0.007994 -0.037435 0.090511 0.044457 0.103528 -0.032593 -0.126771 -0.078127 -0.083271 0.053111 0.026149 0.005840 -0.037712 -0.020457 -0.017782 0.030913 -0.007030 -0.059650 0.005800 -0.127863 0.020466 -0.076262 -0.008111 0.080865 -0.021410 -0.049597 0.030474 0.034404 0.006123 -0.090099 0.044022 -0.026343 0.098927 0.078650 0.140942 0.009219 0.027301 0.036624 0.016571 -0.053579 0.002924 0.039037 -0.011035 -0.029548 -0.041646 0.015379 0.152003 0.038703 0.123792 0.005657 0.124331 0.051046 0.148027 -0.043912 -0.006150 -0.049787 0.195413 0.047365 -0.030492 0.325513 0.304091 0.114628 0.263473 0.209145 0.112662 0.278542 -0.168977 -1.316198
0.072396 0.072835 0.074150 0.076341 0.079408 0.083351 0.088168 0.093858 0.100420 0.107852 0.116150 0.125313 0.135336 0.146215 0.157944 0.170518 0.183927 0.198165 0.213219 0.229079 0.245731 0.263158 0.281344 0.300268 0.319907 0.340237 0.361229 0.382851 0.405070 0.427846 0.451139 0.474902 0.499086 0.523636 0.548494 0.573596 0.598876 0.624259 0.649668 0.675020 0.700227 0.725195 0.749826 0.774016 0.797656 0.820633 0.842827 0.864116 0.884372 0.903464 0.921256 0.937609 0.952384 0.965436 0.976622 0.985796 0.992814 0.997531 0.999805 0.999498 0.996475 0.990607 0.981770 0.969851 0.954744 0.936355 0.914601 0.889414 0.860741 0.828547 0.792814 0.753545 0.710765 0.664521 0.614885 0.561957 0.505861 0.446752 0.384811 0.320253 0.253320 0.184286 0.113456 0.041166 0.032219 0.106304 0.180669 0.254863 0.328414 0.400829 0.471595 0.540183 0.606053 0.668659 0.727449 0.781875 0.831398 0.875491 0.913644 0.945376 0.970239 0.987820 0.997756 0.999733 0.993500 0.978869 0.955725 0.924030 0.883832 0.835264 0.778552 0.714016 0.642075 0.563244 0.478136 0.387463 0.292027 0.192720 0.090519 0.013526 0.118298 0.222622 0.325282 0.425031 0.520607 0.610748 0.694215 0.769802 0.836362 0.892822 0.938207 0.971654 0.992437 0.999978 0.993872 0.973894 0.940018 0.892424 0.831509 0.757886 0.672392 0.576082 0.470219 0.356268 0.235881 0.110871 0.016805 0.145075 0.271789 0.394748 0.511745 0.620606 0.719230 0.805638 0.878010 0.934732 0.974437 0.996040 0.998779 0.982237 0.946374 0.891538 0.818480 0.728350 0.622696 0.503440 0.372861 0.233548 0.088365 0.059607 0.207134 0.350894 0.487554 0.613848 0.726658 0.823096 0.900587 0.956941 0.990426 0.999830 0.984513 0.944446 0.880233 0.793125 0.685008 0.558375 0.416287 0.262307 0.100417 0.065072 0.229635 0.388649 0.537532 0.671868 0.787553 0.880922 0.948879 0.989010 0.999682 0.980123 0.930474 0.851821 0.746189 0.616513 0.466577 0.300910 0.124673 0.056500 0.236670 0.409788 0.569903 0.711360 0.829022 0.918456 0.976124 0.999538 0.987379 0.939591 0.857421 0.743414 0.601362 0.436199 0.253849 0.061024 0.134994 0.326652 0.506387 0.666944 0.801672 0.904819 0.971789 0.999371 0.985915 0.931450 0.837730 0.708220 0.547983 0.363528 0.162548 0.046369 0.254105 0.451405 0.629286 0.779464 0.894746 0.969405 0.999482 0.983028 0.920253 0.813577 0.667577 0.488825 0.285624 0.067640 0.154530 0.369876 0.567509 0.737228 0.870057 0.958746 0.998193 0.985774 0.921545 0.808315 0.651569 0.459236 0.241336 0.009470 0.223770 0.445479 0.643162 0.805434 0.922719 0.987829 0.996453 0.947473 0.843119 0.688918 0.493451 0.267917 0.025530 0.219253 0.451553 0.657007 0.822652 0.937771 0.994631 0.989041 0.920704 0.793335 0.614520 0.395311 0.149594 0.106768 0.356930 0.584175 0.773046 0.910409 0.986418 0.995260 0.935656 0.811054 0.629504 0.403186 0.147654 0.119194 0.378371 0.611115 0.800294 0.931668 0.995029 0.985038 0.901733 0.750655 0.542546 0.292651 0.019649 0.255702 0.512145 0.729550 0.890537 0.981904 0.995763 0.930291 0.790011 0.585558 0.332951 0.052390 0.233311 0.500567 0.726976 0.893214 0.984736 0.993123 0.916915 0.761894 0.540729 0.272024 0.021187 0.313383 0.578754 0.793489 0.937969 0.998596 0.969167 0.851577 0.655820 0.399226 0.105001 0.199809 0.486776 0.728762 0.902484 0.990844 0.984669 0.883759 0.697088 0.442100 0.143179 0.170636 0.468418 0.720418 0.901052
1.000000 1.000000 1.000000 1.000000 1.000000 1.000000 1.000000 1.000000 1.000000 1.000000 1.000000 1.000000 1.000000 1.000000 1.000000 1.000000 1.000000 1.000000 1.000000 1.000000 1.000000 1.000000 1.000000 1.000000 1.000000 1.000000 1.000000 1.000000 1.000000 1.000000 1.000000 1.000000 1.000000 1.000000 1.000000 1.000000 1.000000 1.000000 1.000000 1.000000 1.000000 1.000000 1.000000 1.000000 1.000000 1.000000 1.000000 1.000000 1.000000 1.000000 1.000000 1.000000 0.833156 0.833156 0.833156 0.833156 0.833156 0.833156 0.833156 0.810633 0.810633 0.810633 0.810633 0.810633 0.810633 0.810633 0.810633 0.810633 0.810633 0.810633 0.810633 0.810633 0.810633 0.810633 0.810633 0.810633 0.810633 0.810633 0.810633 0.810633 0.810633 0.810633 0.810633 0.810633 0.810633 0.810633 0.810633 0.810633 0.810633 0.810633 0.810633 0.810633 0.810633 0.810633 0.810633 0.810633 0.810633 0.810633 0.810633 0.810633 0.810633 0.810633 0.810633 0.950475 0.951205 0.951470 0.950439 0.948829 0.945374 0.941194 0.940718 0.943181 0.943402 0.943814 0.944735 0.945320 0.946923 0.947922 0.949108 0.949907 0.958019 0.961725 0.961444 0.961153 0.959869 0.969471 0.968867 0.966600 0.967071 0.967246 0.967225 0.967110 0.966998 0.966532 0.965933 0.966437 0.966315 0.965757 0.964966 0.963088 0.963157 0.962511 0.962549 0.963398 0.964070 0.964692 0.965095 0.965040 0.965139 0.963741 0.963006 0.952196 0.950100 0.947941 0.947695 0.948769 0.948470 0.947617 0.946275 0.946340 0.946252 0.946212 0.946063 0.946253 0.931633 0.931809 0.931391 0.932210 0.925453 0.914933 0.908093 0.904902 0.906432 0.910269 0.914468 0.913693 0.908636 0.905197 0.894098 0.886773 0.872765 0.870075 0.861715 0.869048 0.869844 0.871148 0.870094 0.869928 0.868747 0.866493 0.851114 0.855644 0.849323 0.843950 0.839902 0.837757 0.836954 0.839209 0.842638 0.835152 0.823337 0.824467 0.810271 0.791689 0.789956 0.793928 0.803578 0.816843 0.812425 0.812215 0.799752 0.795720 0.783808 0.776027 0.777622 0.780380 0.778603 0.786654 0.792643 0.791586 0.778595 0.774378 0.776076 0.790057 0.800366 0.802892 0.801799 0.798516 0.800464 0.788940 0.789406 0.790758 0.761814 0.764550 0.765112 0.763411 0.761336 0.752850 0.747930 0.750247 0.747717 0.713967 0.725281 0.732631 0.718582 0.724972 0.711918 0.702993 0.669746 0.672816 0.676011 0.683623 0.686271 0.684923 0.673004 0.683665 0.694198 0.687139 0.693594 0.683885 0.677016 0.673438 0.679634 0.680387 0.661967 0.672253 0.672303 0.660681 0.656278 0.641065 0.656199 0.644181 0.620817 0.617171 0.579554 0.554016 0.546959 0.533417 0.516198 0.502205 0.512332 0.520052 0.510232 0.507974 0.482312 0.436236 0.435566 0.435747 0.425678 0.406978 0.390062 0.357093 0.388410 0.386231 0.383331 0.354309 0.343013 0.331615 0.255255 0.235676 0.206512 0.211848 0.208134 0.201604 0.186260 0.180664 0.203545 0.214903 0.239166 0.237531 0.263678 0.233322 0.203331 0.218049 0.214771 0.216217 0.200217 0.160521 0.194080 0.188852 0.203160 0.209276 0.163845 0.131741 0.095069 0.096074 0.097883 0.122534 0.152925 0.143870 0.120853 0.020978 0.052801 0.079122 0.079122 0.079122 0.079122 0.079122 0.079122 0.079122 0.079122 0.079122 0.079122 0.079122 0.021265 0.021265 0.021265 0.021265 0.021265 0.021265 0.021265 0.021265 0.021265 0.021265 0.021265 0.021265 0.021265 0.021265 0.021265 0.021265 0.021265 0.021265 0.021265
0.000000 0.000000 0.000000 0.000000 0.000000 0.000000 0.000000 0.000000 0.000000 0.000000 0.000000 0.000000 0.000000 0.000000 0.000000 0.000000 0.000000 0.000000 0.000000 0.000000 0.000000 0.000000 0.000000 0.000000 0.000000 0.000000 0.000000 0.000000 0.000000 0.000000 0.000000 0.000000 0.000000 0.000000 0.000000 0.000000 0.000000 0.000000 0.000000 0.000000 0.000000 0.000000 0.000000 0.000000 0.000000 0.000000 0.000000 0.000000 0.000000 0.000000 0.000000 0.000000 0.173422 0.173422 0.173422 0.173422 0.173422 0.173422 0.173422 0.191565 0.191565 0.191565 0.191565 0.191565 0.191565 0.191565 0.191565 0.191565 0.191565 0.191565 0.191565 0.191565 0.191565 0.191565 0.191565 0.191565 0.191565 0.191565 0.191565 0.191565 0.191565 0.191565 0.191565 0.191565 0.191565 0.191565 0.191565 0.191565 0.191565 0.191565 0.191565 0.191565 0.191565 0.191565 0.191565 0.191565 0.191565 0.191565 0.191565 0.191565 0.191565 0.191565 0.191565 0.219529 0.219529 0.219529 0.219529 0.219529 0.219529 0.219529 0.219529 0.219529 0.219529 0.219529 0.219529 0.219529 0.219529 0.219529 0.219529 0.219529 0.219529 0.219529 0.219529 0.219529 0.219529 0.219529 0.219529 0.219529 0.219529 0.219529 0.219529 0.219529 0.219529 0.219529 0.237356 0.237356 0.237356 0.237356 0.237356 0.237356 0.237356 0.237356 0.237356 0.237356 0.237356 0.237356 0.237356 0.237356 0.237356 0.237356 0.237356 0.237356 0.237356 0.237356 0.237356 0.237356 0.237356 0.237356 0.244339 0.244339 0.244339 0.244339 0.244339 0.244339 0.244339 0.244339 0.244339 0.244339 0.244339 0.244339 0.244339 0.244339 0.244339 0.244339 0.244339 0.244339 0.244339 0.244339 0.244339 0.248069 0.248069 0.248069 0.248069 0.248069 0.248069 0.248069 0.248069 0.248069 0.248069 0.248069 0.248069 0.248069 0.248069 0.248069 0.248069 0.248069 0.248069 0.248069 0.248069 0.248069 0.248069 0.248069 0.248069 0.248069 0.248069 0.248069 0.248069 0.248069 0.248069 0.248069 0.248069 0.248069 0.248069 0.248069 0.248069 0.248069 0.256074 0.256074 0.256074 0.256074 0.256074 0.256074 0.256074 0.256074 0.256074 0.256074 0.256074 0.256074 0.256074 0.256074 0.256074 0.256074 0.256074 0.256074 0.256074 0.256074 0.256074 0.256074 0.256074 0.256074 0.256074 0.256074 0.256074 0.256074 0.256074 0.256074 0.256074 0.256074 0.256074 0.256074 0.256074 0.256074 0.256074 0.256074 0.256074 0.256074 0.256074 0.256074 0.256074 0.256074 0.256074 0.260378 0.260378 0.260378 0.260378 0.260378 0.260378 0.260378 0.260378 0.260378 0.260378 0.260378 0.260378 0.260378 0.256074 0.256074 0.256074 0.256074 0.256074 0.256074 0.256074 0.256074 0.256074 0.256074 0.256074 0.256074 0.256074 0.260378 0.260378 0.260378 0.260378 0.260378 0.260378 0.260378 0.260378 0.260378 0.260378 0.260378 0.260378 0.251976 0.251976 0.251976 0.251976 0.251976 0.251976 0.251976 0.251976 0.251976 0.251976 0.251976 0.251976 0.256074 0.256074 0.256074 0.256074 0.256074 0.256074 0.256074 0.256074 0.256074 0.256074 0.256074 0.251976 0.251976 0.251976 0.251976 0.251976 0.251976 0.251976 0.251976 0.251976 0.251976 0.251976 0.248069 0.248069 0.248069 0.248069 0.248069 0.248069 0.248069 0.248069 0.248069 0.248069 0.248069 0.256074 0.256074 0.256074 0.256074 0.256074 0.256074 0.256074 0.256074 0.256074 0.256074 0.256074 0.256074 0.256074 0.256074 0.256074 0.256074 0.256074 0.256074 0.256074
