# Output from CTFFind version 4.1.9, run on 2019-11-03 19:26:19
# Input file: stack16_bm3d_averaged_1_3.75_0_750_half.mrc ; Number of micrographs: 1
# Pixel size: 3.000 Angstroms ; acceleration voltage: 300.0 keV ; spherical aberration: 0.00 mm ; amplitude contrast: 0.07
# Box size: 512 pixels ; min. res.: 30.0 Angstroms ; max. res.: 5.0 Angstroms ; min. def.: 5000.0 um; max. def. 50000.0 um; num. frames averaged: 1
# 6 lines per micrograph: #1 - spatial frequency (1/Angstroms); #2 - 1D rotational average of spectrum (assuming no astigmatism); #3 - 1D rotational average of spectrum; #4 - CTF fit; #5 - cross-correlation between spectrum and CTF fit; #6 - 2sigma of expected cross correlation of noise
0.000000 0.000651 0.001302 0.001953 0.002604 0.003255 0.003906 0.004557 0.005208 0.005859 0.006510 0.007161 0.007812 0.008464 0.009115 0.009766 0.010417 0.011068 0.011719 0.012370 0.013021 0.013672 0.014323 0.014974 0.015625 0.016276 0.016927 0.017578 0.018229 0.018880 0.019531 0.020182 0.020833 0.021484 0.022135 0.022786 0.023438 0.024089 0.024740 0.025391 0.026042 0.026693 0.027344 0.027995 0.028646 0.029297 0.029948 0.030599 0.031250 0.031901 0.032552 0.033203 0.033854 0.034505 0.035156 0.035807 0.036458 0.037109 0.037760 0.038411 0.039062 0.039714 0.040365 0.041016 0.041667 0.042318 0.042969 0.043620 0.044271 0.044922 0.045573 0.046224 0.046875 0.047526 0.048177 0.048828 0.049479 0.050130 0.050781 0.051432 0.052083 0.052734 0.053385 0.054036 0.054688 0.055339 0.055990 0.056641 0.057292 0.057943 0.058594 0.059245 0.059896 0.060547 0.061198 0.061849 0.062500 0.063151 0.063802 0.064453 0.065104 0.065755 0.066406 0.067057 0.067708 0.068359 0.069010 0.069661 0.070312 0.070964 0.071615 0.072266 0.072917 0.073568 0.074219 0.074870 0.075521 0.076172 0.076823 0.077474 0.078125 0.078776 0.079427 0.080078 0.080729 0.081380 0.082031 0.082682 0.083333 0.083984 0.084635 0.085286 0.085938 0.086589 0.087240 0.087891 0.088542 0.089193 0.089844 0.090495 0.091146 0.091797 0.092448 0.093099 0.093750 0.094401 0.095052 0.095703 0.096354 0.097005 0.097656 0.098307 0.098958 0.099609 0.100260 0.100911 0.101562 0.102214 0.102865 0.103516 0.104167 0.104818 0.105469 0.106120 0.106771 0.107422 0.108073 0.108724 0.109375 0.110026 0.110677 0.111328 0.111979 0.112630 0.113281 0.113932 0.114583 0.115234 0.115885 0.116536 0.117188 0.117839 0.118490 0.119141 0.119792 0.120443 0.121094 0.121745 0.122396 0.123047 0.123698 0.124349 0.125000 0.125651 0.126302 0.126953 0.127604 0.128255 0.128906 0.129557 0.130208 0.130859 0.131510 0.132161 0.132812 0.133464 0.134115 0.134766 0.135417 0.136068 0.136719 0.137370 0.138021 0.138672 0.139323 0.139974 0.140625 0.141276 0.141927 0.142578 0.143229 0.143880 0.144531 0.145182 0.145833 0.146484 0.147135 0.147786 0.148438 0.149089 0.149740 0.150391 0.151042 0.151693 0.152344 0.152995 0.153646 0.154297 0.154948 0.155599 0.156250 0.156901 0.157552 0.158203 0.158854 0.159505 0.160156 0.160807 0.161458 0.162109 0.162760 0.163411 0.164062 0.164714 0.165365 0.166016 0.166667 0.167318 0.167969 0.168620 0.169271 0.169922 0.170573 0.171224 0.171875 0.172526 0.173177 0.173828 0.174479 0.175130 0.175781 0.176432 0.177083 0.177734 0.178385 0.179036 0.179688 0.180339 0.180990 0.181641 0.182292 0.182943 0.183594 0.184245 0.184896 0.185547 0.186198 0.186849 0.187500 0.188151 0.188802 0.189453 0.190104 0.190755 0.191406 0.192057 0.192708 0.193359 0.194010 0.194661 0.195312 0.195964 0.196615 0.197266 0.197917 0.198568 0.199219 0.199870 0.200521 0.201172 0.201823 0.202474 0.203125 0.203776 0.204427 0.205078 0.205729 0.206380 0.207031 0.207682 0.208333 0.208984 0.209635 0.210286 0.210938 0.211589 0.212240 0.212891 0.213542 0.214193 0.214844 0.215495 0.216146 0.216797 0.217448 0.218099 0.218750 0.219401 0.220052 0.220703 0.221354 0.222005 0.222656 0.223307 0.223958 0.224609 0.225260 0.225911 0.226562 0.227214 0.227865 0.228516 0.229167 0.229818 0.230469 0.231120 0.231771 0.232422 0.233073 0.233724 0.234375 0.235026 0.235677
       0.33390        0.33390        0.33390        0.33390        0.33390        0.33390        0.33390        0.33390        0.33390        0.33390        0.33390        0.33390        0.33390        0.33390        0.33390        0.33390        0.33390        0.33390        0.33390        0.33390        0.33390        0.33390        0.33390        0.33390        0.33390        0.33390        0.33390        0.33390        0.33390        0.33390        0.33390        0.33390        0.33390        0.33390        0.33390        0.33390        0.33390        0.33390        0.33390        0.33390        0.33390        0.33390        0.33390        0.33390        0.33390        0.33390        0.33390        0.33390        0.33390        0.33390        0.33390        0.42591        0.57872        0.36671       -0.17734       -0.45034       -0.56137       -0.65685       -0.73063       -0.75314       -0.86675       -0.91813       -0.71969       -0.88742       -0.85345       -1.00341       -1.04389       -0.93089       -0.88756       -0.82433       -0.76177       -0.67780       -0.59245       -0.50044       -0.42429       -0.20439       -0.09216       -0.00118        0.22945        0.24014        0.30282        0.36891        0.39614        0.49732        0.54726        0.57938        0.54521        0.48279        0.51988        0.49768        0.41950        0.31926        0.18398        0.16851        0.10505       -0.03851       -0.05496       -0.05430        0.02702       -0.01218        0.04359        0.02789        0.14243        0.18806        0.40500        0.46272        0.56060        0.66372        0.71201        0.72523        0.65364        0.63035        0.53459        0.44706        0.37939        0.26232        0.20299        0.18767        0.07481        0.05491        0.03631        0.05817        0.08127        0.29197        0.40961        0.50845        0.55191        0.59049        0.63536        0.60543        0.60953        0.60030        0.57029        0.47160        0.28328        0.24909        0.21215        0.11535        0.06177        0.11450        0.13542        0.26342        0.35265        0.40815        0.48049        0.54527        0.61675        0.56502        0.51764        0.49815        0.36054        0.22428        0.21991        0.15531        0.13231        0.18036        0.22873        0.26288        0.31456        0.41804        0.43209        0.51441        0.46545        0.45849        0.47007        0.37436        0.31850        0.26994        0.22084        0.20388        0.21895        0.23013        0.31692        0.42376        0.42047        0.48683        0.54421        0.46307        0.42633        0.35933        0.29590        0.24158        0.23877        0.26650        0.27864        0.30209        0.32590        0.40923        0.46761        0.44728        0.45204        0.34952        0.36519        0.35050        0.22236        0.22755        0.24044        0.28493        0.34928        0.36824        0.39708        0.43889        0.43651        0.36829        0.34886        0.30875        0.32603        0.28742        0.27110        0.26935        0.32025        0.36648        0.37698        0.40058        0.37488        0.39973        0.36667        0.28676        0.27764        0.29933        0.32854        0.35693        0.34903        0.41137        0.34337        0.37209        0.37671        0.32098        0.33643        0.28580        0.29203        0.33949        0.32053        0.32158        0.33072        0.35074        0.31496        0.33594        0.29245        0.30776        0.27484        0.28865        0.29072        0.34060        0.37799        0.35505        0.33900        0.29068        0.27214        0.27576        0.31092        0.27942        0.30329        0.35829        0.37681        0.33404        0.30619        0.30561        0.29654        0.27644        0.27927        0.28160        0.31930        0.33765        0.30890        0.27762        0.32969        0.30298        0.29314        0.33667        0.32911        0.31562        0.33426        0.29800        0.32150        0.27416        0.29556        0.29832        0.31278        0.39593        0.32440        0.34064        0.30302        0.30220        0.30430        0.31686        0.28615        0.28194        0.31196        0.30902        0.32895        0.30517        0.30909        0.29068        0.29241        0.30836        0.33228        0.31792        0.33290        0.33426        0.29712        0.27362        0.28334        0.25930        0.33303        0.32269        0.33866        0.29655        0.27124        0.29639        0.33317        0.31173        0.29147        0.27602        0.30679        0.28510        0.24774        0.30413        0.27945        0.28263        0.31067        0.29849        0.33614        0.35607        0.29258        0.25177        0.24632        0.25835        0.27454        0.27098        0.29285        0.26747        0.23515        0.28190        0.28485        0.27307        0.23703        0.32046        0.29773        0.27336        0.25047        0.24348        0.27004        0.23429        0.27549        0.31789        0.35394        0.27443        0.26473        0.24956        0.25273        0.20241        0.30876        0.22678        0.20359        0.15366        0.23195        0.25518        0.22087        0.04225        0.11775       -0.49382       -0.91850
2.977963 2.940994 2.904262 2.867767 2.831510 2.795490 2.759708 2.724164 2.688856 2.653787 2.618955 2.584360 2.550003 2.515884 2.482002 2.448358 2.414951 2.381781 2.348849 2.316155 2.283698 2.251479 2.219497 2.187753 2.156246 2.124977 2.093945 2.063151 2.032594 2.002275 1.972194 1.942349 1.912743 1.883374 1.854242 1.825348 1.796692 1.768273 1.740091 1.712147 1.684441 1.656972 1.629740 1.602747 1.575990 1.549471 1.523190 1.497146 1.471340 1.445771 1.420440 1.456042 1.568696 1.510971 0.856800 0.579951 0.428156 0.362466 0.274635 0.189364 0.137899 -0.066886 0.173601 0.034849 -0.056416 -0.129426 -0.250793 -0.170501 -0.088296 -0.095959 -0.100926 0.023343 0.015911 0.200747 0.097108 0.333762 0.446134 0.460086 0.734259 0.682740 0.673862 0.825662 0.794707 0.816652 0.916284 0.871377 0.902905 0.733065 0.816542 0.839548 0.660283 0.595243 0.444365 0.415990 0.373562 0.177114 0.166258 0.115531 0.216277 0.121450 0.216696 0.104284 0.247401 0.241295 0.475593 0.422938 0.606514 0.637923 0.688102 0.739297 0.658187 0.635120 0.485246 0.440207 0.321829 0.293306 0.120561 0.184841 -0.005099 0.022712 -0.039127 -0.036233 -0.015934 0.050877 0.301673 0.327427 0.406254 0.356551 0.443494 0.480744 0.461513 0.455597 0.386961 0.386201 0.152819 0.110027 0.071413 0.010720 -0.142270 -0.030236 -0.084260 0.042672 0.129024 0.183107 0.269392 0.266386 0.357981 0.466241 0.346987 0.403521 0.295409 0.147604 0.061213 0.071409 0.018289 0.034158 0.074318 0.112820 0.127692 0.231277 0.257569 0.300042 0.349302 0.255318 0.276665 0.242934 0.119720 0.104833 0.036946 0.038776 0.012430 0.021116 0.051617 0.174547 0.202002 0.197608 0.327094 0.213948 0.244345 0.110202 0.095564 -0.010272 -0.006313 0.003700 0.024232 0.038205 0.036741 0.090558 0.165796 0.173438 0.214558 0.114415 0.080144 0.103206 0.032619 -0.086540 -0.016163 0.009085 0.038137 0.055223 0.099326 0.162059 0.129682 0.161249 0.050881 0.064450 0.038891 0.046360 0.012405 -0.008911 0.017392 0.047145 0.085760 0.112327 0.104624 0.102254 0.117582 0.050389 -0.006104 0.006226 0.016358 0.075786 0.054189 0.098929 0.118028 0.052241 0.094929 0.062907 0.036848 0.052873 -0.028869 0.028015 0.061537 0.026629 0.030063 0.098475 0.033645 0.051959 0.029641 0.009065 0.025214 -0.027388 0.005868 0.006499 0.059780 0.098609 0.064302 0.037468 -0.014724 -0.018806 -0.008106 0.019374 -0.007653 0.017344 0.077952 0.076897 0.000365 0.028093 -0.004302 0.004268 -0.020061 -0.020307 -0.007908 0.040229 -0.002561 0.010133 -0.007336 0.020608 -0.009382 0.006716 0.032962 0.026275 0.039257 -0.020590 0.008087 0.008251 -0.044111 -0.004413 -0.003709 0.034088 0.098449 0.009808 0.023062 0.007533 0.013742 -0.013389 0.035180 -0.016355 -0.010911 0.009918 0.030613 0.025882 0.009598 0.050884 -0.032954 0.000313 0.015688 0.035259 0.036108 0.051649 0.019952 0.019467 0.003247 -0.021390 -0.005202 0.040826 0.040957 0.045741 0.007723 -0.013581 0.000730 0.053250 0.014667 0.022370 -0.014018 0.008403 -0.015268 -0.037383 0.003905 0.002972 -0.016380 0.030320 0.017091 0.072647 0.062820 0.020875 -0.011669 -0.040619 -0.010301 0.006382 -0.039782 0.034204 -0.029731 -0.075560 0.018658 -0.002314 -0.080384 -0.060690 0.021574 -0.022989 -0.054154 -0.067514 -0.045711 -0.016243 -0.064148 -0.000011 0.029184 0.084203 -0.032009 0.004284 0.074833 0.032838 -0.050252 0.162386 0.077651 0.114508 0.048626 0.230364 0.228826 0.231265 -0.079071 0.113633 -0.848635
0.072396 0.073047 0.075001 0.078256 0.082813 0.088668 0.095820 0.104267 0.114003 0.125024 0.137324 0.150894 0.165723 0.181800 0.199108 0.217629 0.237340 0.258217 0.280227 0.303336 0.327502 0.352678 0.378810 0.405838 0.433692 0.462297 0.491565 0.521404 0.551707 0.582362 0.613241 0.644211 0.675122 0.705816 0.736124 0.765863 0.794841 0.822853 0.849686 0.875113 0.898902 0.920809 0.940585 0.957974 0.972716 0.984549 0.993211 0.998440 0.999981 0.997585 0.991014 0.980044 0.964469 0.944103 0.918785 0.888384 0.852804 0.811983 0.765905 0.714596 0.658136 0.596656 0.530346 0.459457 0.384303 0.305264 0.222788 0.137389 0.049649 0.039780 0.130187 0.220796 0.310776 0.399245 0.485281 0.567924 0.646192 0.719091 0.785626 0.844820 0.895723 0.937435 0.969117 0.990016 0.999476 0.996961 0.982071 0.954561 0.914354 0.861557 0.796474 0.719616 0.631704 0.533679 0.426695 0.312115 0.191505 0.066618 0.060631 0.188180 0.313859 0.435423 0.550586 0.657074 0.752666 0.835245 0.902853 0.953743 0.986426 0.999730 0.992838 0.965336 0.917246 0.849051 0.761715 0.656688 0.535903 0.401750 0.257054 0.105018 0.050832 0.206725 0.358728 0.502847 0.635132 0.751793 0.849311 0.924563 0.974929 0.998400 0.993673 0.960226 0.898382 0.809340 0.695185 0.558869 0.404158 0.235555 0.058183 0.122357 0.300152 0.469164 0.623446 0.757351 0.865755 0.944271 0.989448 0.998945 0.971679 0.907919 0.809351 0.679070 0.521524 0.342401 0.148450 0.052751 0.253076 0.444168 0.617799 0.766222 0.882545 0.961073 0.997619 0.989763 0.937041 0.841051 0.705466 0.535949 0.339963 0.126478 0.094408 0.311927 0.515164 0.693606 0.837709 0.939432 0.992734 0.993969 0.942187 0.839291 0.690045 0.501921 0.284784 0.050415 0.188087 0.417027 0.622891 0.793173 0.917152 0.986625 0.996495 0.945217 0.835015 0.671889 0.465364 0.228006 0.025291 0.278202 0.514011 0.716726 0.872180 0.969085 0.999904 0.961518 0.855598 0.688653 0.471726 0.219751 0.049415 0.316213 0.560791 0.764493 0.911317 0.989244 0.991297 0.916256 0.768944 0.560044 0.305426 0.025022 0.258665 0.522358 0.743903 0.904189 0.988856 0.989683 0.905488 0.742450 0.513797 0.238854 0.058506 0.351874 0.614625 0.822363 0.955250 0.999982 0.951252 0.812485 0.595774 0.320965 0.013961 0.295643 0.577390 0.802952 0.949060 0.999999 0.949430 0.801311 0.569789 0.277999 0.044123 0.362818 0.644024 0.857048 0.977986 0.992548 0.897890 0.703255 0.429260 0.105874 0.230735 0.542194 0.792297 0.951288 0.999528 0.930082 0.749890 0.479292 0.149926 0.198831 0.524503 0.786674 0.952084 0.998985 0.920180 0.724316 0.435181 0.089015 0.269894 0.594788 0.842564 0.979580 0.986385 0.860705 0.618162 0.290593 0.077938 0.436932 0.736349 0.933639 0.999931 0.924483 0.716645 0.404995 0.033658 0.343792 0.671976 0.901879 0.998309 0.945498 0.749940 0.439929 0.061723 0.327166 0.666626 0.903277 0.999012 0.937361 0.726615 0.399051 0.006276 0.388712 0.721559 0.937082 0.998606 0.894472 0.640546 0.278147 0.132404 0.521626 0.822626 0.982714 0.972822 0.793136 0.473666 0.069602 0.348006 0.704599 0.935464 0.997703 0.878483 0.598034 0.206609 0.224212 0.614444 0.890544 0.999419 0.918954 0.662871 0.278824 0.160120 0.569179 0.868172 0.997410 0.929912 0.677429 0.288860 0.158819 0.575586 0.876464 0.998948 0.916376 0.644120 0.237224 0.220340 0.632780 0.912526 0.999023 0.872207 0.557603 0.121688 0.341789 0.731788
1.000000 1.000000 1.000000 1.000000 1.000000 1.000000 1.000000 1.000000 1.000000 1.000000 1.000000 1.000000 1.000000 1.000000 1.000000 1.000000 1.000000 1.000000 1.000000 1.000000 1.000000 1.000000 1.000000 1.000000 1.000000 1.000000 1.000000 1.000000 1.000000 1.000000 1.000000 1.000000 1.000000 1.000000 1.000000 1.000000 1.000000 1.000000 1.000000 1.000000 1.000000 1.000000 1.000000 1.000000 1.000000 1.000000 1.000000 1.000000 1.000000 1.000000 1.000000 1.000000 0.934381 0.934381 0.934381 0.934381 0.934381 0.934381 0.934381 0.934381 0.934381 0.934381 0.934381 0.934381 0.934381 0.934381 0.934381 0.934381 0.934381 0.934381 0.934381 0.934381 0.934381 0.934381 0.934381 0.934381 0.934381 0.934381 0.934381 0.934381 0.934381 0.934381 0.934381 0.934381 0.934381 0.922577 0.920574 0.923394 0.924364 0.924266 0.923801 0.923527 0.923824 0.925283 0.927092 0.948450 0.950717 0.951310 0.952463 0.952527 0.955192 0.953523 0.958184 0.968866 0.968202 0.969103 0.963483 0.964305 0.963942 0.963379 0.965234 0.964927 0.963659 0.962154 0.961007 0.960690 0.960473 0.962017 0.962465 0.962753 0.963112 0.963080 0.962985 0.960590 0.958346 0.960763 0.960150 0.959080 0.964572 0.963250 0.965237 0.965234 0.965919 0.966721 0.966938 0.967112 0.961545 0.960202 0.958451 0.944524 0.938962 0.934833 0.937632 0.940732 0.938720 0.933876 0.931895 0.934220 0.925862 0.925384 0.918948 0.918990 0.905097 0.898914 0.888772 0.890089 0.891627 0.891741 0.889121 0.878119 0.868092 0.865671 0.868872 0.862718 0.859222 0.875357 0.870648 0.872779 0.876034 0.878455 0.884067 0.873485 0.868198 0.864200 0.859760 0.858899 0.860995 0.864342 0.866636 0.861875 0.853897 0.857641 0.851871 0.854732 0.860209 0.858488 0.852979 0.850160 0.850504 0.851525 0.847033 0.852645 0.840675 0.837022 0.836470 0.829537 0.827764 0.819532 0.819146 0.820179 0.823672 0.812747 0.819625 0.795013 0.803872 0.797553 0.804654 0.801547 0.800618 0.801761 0.783168 0.776315 0.773357 0.783448 0.792389 0.768340 0.765760 0.761783 0.747404 0.750941 0.758475 0.751856 0.748306 0.736815 0.746072 0.745242 0.748295 0.743590 0.723256 0.723233 0.733392 0.740584 0.714252 0.705799 0.700653 0.702107 0.703185 0.661646 0.655021 0.641977 0.632911 0.636972 0.623413 0.596736 0.602203 0.603279 0.580418 0.582571 0.574815 0.526722 0.517213 0.504981 0.509288 0.508650 0.533487 0.535314 0.519082 0.535497 0.540518 0.539398 0.553383 0.434537 0.441285 0.424260 0.444199 0.453911 0.452397 0.427984 0.437784 0.434961 0.441787 0.442943 0.436307 0.453298 0.438782 0.435722 0.450419 0.431896 0.423607 0.436029 0.452507 0.457961 0.446966 0.443453 0.446787 0.449790 0.390874 0.388731 0.420450 0.397084 0.375262 0.370303 0.393480 0.374138 0.408757 0.400854 0.407555 0.418456 0.376000 0.392311 0.377782 0.405999 0.426506 0.417490 0.399725 0.389130 0.403255 0.356407 0.365479 0.391194 0.369641 0.442064 0.386798 0.380666 0.299298 0.345862 0.309125 0.320262 0.307786 0.248100 0.240308 0.222199 0.218530 0.199827 0.204271 0.188389 0.161532 0.118905 0.121658 0.100478 0.119510 0.131446 0.098783 0.096070 0.096070 0.096070 0.096070 0.076106 0.076106 0.076106 0.076106 0.076106 0.076106 0.076106 0.076106 0.076106 0.076106 0.076106 0.076106 0.076106 0.076106 -0.021151 -0.021151 -0.021151 -0.021151 -0.021151 -0.021151 -0.021151 -0.021151 -0.021151 -0.021151 -0.021151 -0.021151
0.000000 0.000000 0.000000 0.000000 0.000000 0.000000 0.000000 0.000000 0.000000 0.000000 0.000000 0.000000 0.000000 0.000000 0.000000 0.000000 0.000000 0.000000 0.000000 0.000000 0.000000 0.000000 0.000000 0.000000 0.000000 0.000000 0.000000 0.000000 0.000000 0.000000 0.000000 0.000000 0.000000 0.000000 0.000000 0.000000 0.000000 0.000000 0.000000 0.000000 0.000000 0.000000 0.000000 0.000000 0.000000 0.000000 0.000000 0.000000 0.000000 0.000000 0.000000 0.000000 0.209657 0.209657 0.209657 0.209657 0.209657 0.209657 0.209657 0.209657 0.209657 0.209657 0.209657 0.209657 0.209657 0.209657 0.209657 0.209657 0.209657 0.209657 0.209657 0.209657 0.209657 0.209657 0.209657 0.209657 0.209657 0.209657 0.209657 0.209657 0.209657 0.209657 0.209657 0.209657 0.209657 0.244339 0.244339 0.244339 0.244339 0.244339 0.244339 0.244339 0.244339 0.244339 0.244339 0.244339 0.244339 0.244339 0.244339 0.244339 0.244339 0.244339 0.244339 0.244339 0.244339 0.244339 0.244339 0.244339 0.244339 0.244339 0.260378 0.260378 0.260378 0.260378 0.260378 0.260378 0.260378 0.260378 0.260378 0.260378 0.260378 0.260378 0.260378 0.260378 0.260378 0.260378 0.260378 0.260378 0.260378 0.260378 0.269680 0.269680 0.269680 0.269680 0.269680 0.269680 0.269680 0.269680 0.269680 0.269680 0.269680 0.269680 0.269680 0.269680 0.269680 0.269680 0.269680 0.269680 0.269680 0.269680 0.269680 0.269680 0.269680 0.269680 0.269680 0.269680 0.269680 0.269680 0.269680 0.269680 0.269680 0.269680 0.269680 0.280056 0.280056 0.280056 0.280056 0.280056 0.280056 0.280056 0.280056 0.280056 0.280056 0.280056 0.280056 0.280056 0.280056 0.280056 0.280056 0.280056 0.280056 0.280056 0.280056 0.280056 0.280056 0.280056 0.280056 0.280056 0.280056 0.280056 0.285714 0.285714 0.285714 0.285714 0.285714 0.285714 0.285714 0.285714 0.285714 0.285714 0.285714 0.285714 0.274721 0.274721 0.274721 0.274721 0.274721 0.274721 0.274721 0.274721 0.274721 0.274721 0.274721 0.274721 0.280056 0.280056 0.280056 0.280056 0.280056 0.280056 0.280056 0.280056 0.280056 0.280056 0.280056 0.285714 0.285714 0.285714 0.285714 0.285714 0.285714 0.285714 0.285714 0.285714 0.285714 0.269680 0.269680 0.269680 0.269680 0.269680 0.269680 0.269680 0.269680 0.269680 0.269680 0.269680 0.285714 0.285714 0.285714 0.285714 0.285714 0.285714 0.285714 0.285714 0.285714 0.280056 0.280056 0.280056 0.280056 0.280056 0.280056 0.280056 0.280056 0.280056 0.274721 0.274721 0.274721 0.274721 0.274721 0.274721 0.274721 0.274721 0.274721 0.269680 0.269680 0.269680 0.269680 0.269680 0.269680 0.269680 0.269680 0.269680 0.280056 0.280056 0.280056 0.280056 0.280056 0.280056 0.280056 0.280056 0.260378 0.260378 0.260378 0.260378 0.260378 0.260378 0.260378 0.260378 0.260378 0.269680 0.269680 0.269680 0.269680 0.269680 0.269680 0.269680 0.269680 0.285714 0.285714 0.285714 0.285714 0.285714 0.285714 0.285714 0.264906 0.264906 0.264906 0.264906 0.264906 0.264906 0.264906 0.264906 0.274721 0.274721 0.274721 0.274721 0.274721 0.274721 0.274721 0.256074 0.256074 0.256074 0.256074 0.256074 0.256074 0.256074 0.256074 0.264906 0.264906 0.264906 0.264906 0.264906 0.264906 0.264906 0.264906 0.264906 0.264906 0.264906 0.264906 0.264906 0.264906 0.280056 0.280056 0.280056 0.280056 0.280056 0.280056 0.280056 0.280056 0.280056 0.280056 0.280056 0.280056
