# Output from CTFFind version 4.1.9, run on 2019-11-03 19:34:37
# Input file: stack11_bm3d_averaged_1_4.25_0_1250_half.mrc ; Number of micrographs: 1
# Pixel size: 3.000 Angstroms ; acceleration voltage: 300.0 keV ; spherical aberration: 0.00 mm ; amplitude contrast: 0.07
# Box size: 512 pixels ; min. res.: 30.0 Angstroms ; max. res.: 5.0 Angstroms ; min. def.: 5000.0 um; max. def. 50000.0 um; num. frames averaged: 1
# 6 lines per micrograph: #1 - spatial frequency (1/Angstroms); #2 - 1D rotational average of spectrum (assuming no astigmatism); #3 - 1D rotational average of spectrum; #4 - CTF fit; #5 - cross-correlation between spectrum and CTF fit; #6 - 2sigma of expected cross correlation of noise
0.000000 0.000651 0.001302 0.001953 0.002604 0.003255 0.003906 0.004557 0.005208 0.005859 0.006510 0.007161 0.007812 0.008464 0.009115 0.009766 0.010417 0.011068 0.011719 0.012370 0.013021 0.013672 0.014323 0.014974 0.015625 0.016276 0.016927 0.017578 0.018229 0.018880 0.019531 0.020182 0.020833 0.021484 0.022135 0.022786 0.023438 0.024089 0.024740 0.025391 0.026042 0.026693 0.027344 0.027995 0.028646 0.029297 0.029948 0.030599 0.031250 0.031901 0.032552 0.033203 0.033854 0.034505 0.035156 0.035807 0.036458 0.037109 0.037760 0.038411 0.039062 0.039714 0.040365 0.041016 0.041667 0.042318 0.042969 0.043620 0.044271 0.044922 0.045573 0.046224 0.046875 0.047526 0.048177 0.048828 0.049479 0.050130 0.050781 0.051432 0.052083 0.052734 0.053385 0.054036 0.054688 0.055339 0.055990 0.056641 0.057292 0.057943 0.058594 0.059245 0.059896 0.060547 0.061198 0.061849 0.062500 0.063151 0.063802 0.064453 0.065104 0.065755 0.066406 0.067057 0.067708 0.068359 0.069010 0.069661 0.070312 0.070964 0.071615 0.072266 0.072917 0.073568 0.074219 0.074870 0.075521 0.076172 0.076823 0.077474 0.078125 0.078776 0.079427 0.080078 0.080729 0.081380 0.082031 0.082682 0.083333 0.083984 0.084635 0.085286 0.085938 0.086589 0.087240 0.087891 0.088542 0.089193 0.089844 0.090495 0.091146 0.091797 0.092448 0.093099 0.093750 0.094401 0.095052 0.095703 0.096354 0.097005 0.097656 0.098307 0.098958 0.099609 0.100260 0.100911 0.101562 0.102214 0.102865 0.103516 0.104167 0.104818 0.105469 0.106120 0.106771 0.107422 0.108073 0.108724 0.109375 0.110026 0.110677 0.111328 0.111979 0.112630 0.113281 0.113932 0.114583 0.115234 0.115885 0.116536 0.117188 0.117839 0.118490 0.119141 0.119792 0.120443 0.121094 0.121745 0.122396 0.123047 0.123698 0.124349 0.125000 0.125651 0.126302 0.126953 0.127604 0.128255 0.128906 0.129557 0.130208 0.130859 0.131510 0.132161 0.132812 0.133464 0.134115 0.134766 0.135417 0.136068 0.136719 0.137370 0.138021 0.138672 0.139323 0.139974 0.140625 0.141276 0.141927 0.142578 0.143229 0.143880 0.144531 0.145182 0.145833 0.146484 0.147135 0.147786 0.148438 0.149089 0.149740 0.150391 0.151042 0.151693 0.152344 0.152995 0.153646 0.154297 0.154948 0.155599 0.156250 0.156901 0.157552 0.158203 0.158854 0.159505 0.160156 0.160807 0.161458 0.162109 0.162760 0.163411 0.164062 0.164714 0.165365 0.166016 0.166667 0.167318 0.167969 0.168620 0.169271 0.169922 0.170573 0.171224 0.171875 0.172526 0.173177 0.173828 0.174479 0.175130 0.175781 0.176432 0.177083 0.177734 0.178385 0.179036 0.179688 0.180339 0.180990 0.181641 0.182292 0.182943 0.183594 0.184245 0.184896 0.185547 0.186198 0.186849 0.187500 0.188151 0.188802 0.189453 0.190104 0.190755 0.191406 0.192057 0.192708 0.193359 0.194010 0.194661 0.195312 0.195964 0.196615 0.197266 0.197917 0.198568 0.199219 0.199870 0.200521 0.201172 0.201823 0.202474 0.203125 0.203776 0.204427 0.205078 0.205729 0.206380 0.207031 0.207682 0.208333 0.208984 0.209635 0.210286 0.210938 0.211589 0.212240 0.212891 0.213542 0.214193 0.214844 0.215495 0.216146 0.216797 0.217448 0.218099 0.218750 0.219401 0.220052 0.220703 0.221354 0.222005 0.222656 0.223307 0.223958 0.224609 0.225260 0.225911 0.226562 0.227214 0.227865 0.228516 0.229167 0.229818 0.230469 0.231120 0.231771 0.232422 0.233073 0.233724 0.234375 0.235026 0.235677
       0.33401        0.33401        0.33401        0.33401        0.33401        0.33401        0.33401        0.33401        0.33401        0.33401        0.33401        0.33401        0.33401        0.33401        0.33401        0.33401        0.33401        0.33401        0.33401        0.33401        0.33401        0.33401        0.33401        0.33401        0.33401        0.33401        0.33401        0.33401        0.33401        0.33401        0.33401        0.33401        0.33401        0.33401        0.33401        0.33401        0.33401        0.33401        0.33401        0.33401        0.33401        0.33401        0.33401        0.33401        0.33401        0.33401        0.33401        0.33401        0.33401        0.33401        0.33401        0.69163        0.86032        0.53218        0.10250       -0.03682       -0.40134       -0.18571       -0.28946       -0.11297       -0.05888       -0.11081       -0.05523       -0.17944       -0.21344       -0.22788       -0.31472       -0.32649       -0.45652       -0.36773       -0.43705       -0.43064       -0.40458       -0.43038       -0.47609       -0.52463       -0.56581       -0.57424       -0.54609       -0.37492       -0.34826       -0.30811       -0.28644       -0.19302       -0.18445        0.04726        0.12346        0.15417        0.25097        0.37701        0.45317        0.51738        0.58396        0.58180        0.57303        0.69387        0.80544        0.71245        0.73787        0.63209        0.56709        0.48317        0.42442        0.50821        0.39101        0.24728        0.10300        0.08933        0.06705       -0.03218        0.01460        0.03022       -0.01637        0.01512        0.00797        0.23491        0.26422        0.29187        0.42715        0.44975        0.40878        0.57745        0.62576        0.65580        0.73453        0.68068        0.64995        0.67091        0.56510        0.47008        0.41757        0.29810        0.24269        0.16990        0.12711        0.05255        0.04388        0.04598        0.08651        0.14326        0.22993        0.28061        0.40462        0.45508        0.48553        0.58353        0.61350        0.63742        0.62073        0.56084        0.45453        0.46605        0.37269        0.25581        0.19898        0.15575        0.15624        0.14268        0.13289        0.15930        0.29380        0.30452        0.38454        0.42111        0.42996        0.49617        0.55321        0.55265        0.49023        0.45172        0.40253        0.35287        0.32356        0.28852        0.23542        0.23134        0.21951        0.23640        0.21379        0.29984        0.35818        0.38671        0.43874        0.45411        0.47221        0.42168        0.39919        0.40448        0.36046        0.30594        0.26858        0.25303        0.25231        0.22072        0.26894        0.27010        0.34010        0.37335        0.40765        0.47516        0.41677        0.42883        0.43148        0.40428        0.34324        0.31960        0.28935        0.30421        0.26555        0.30364        0.29859        0.31804        0.32669        0.34800        0.31873        0.39965        0.41640        0.37929        0.34449        0.37106        0.30583        0.28779        0.28770        0.31475        0.29496        0.30632        0.32319        0.33656        0.34022        0.36702        0.36967        0.39199        0.37369        0.32495        0.33192        0.29102        0.27439        0.31923        0.31179        0.32177        0.32872        0.32610        0.36583        0.32719        0.32645        0.32023        0.32874        0.29518        0.30473        0.27009        0.29714        0.31474        0.29689        0.31802        0.33979        0.34481        0.28033        0.31624        0.28547        0.30106        0.27760        0.23694        0.29095        0.29345        0.34035        0.33037        0.32903        0.32120        0.33981        0.30016        0.33812        0.32091        0.29767        0.27429        0.32083        0.30702        0.35211        0.32485        0.33106        0.33801        0.29211        0.27385        0.30695        0.24473        0.22180        0.32499        0.31699        0.33561        0.32787        0.34159        0.31421        0.34210        0.33926        0.26314        0.24345        0.30499        0.29939        0.30510        0.32045        0.33747        0.33621        0.30246        0.28839        0.33526        0.31518        0.29145        0.27382        0.31953        0.34979        0.39274        0.32504        0.29315        0.27506        0.30762        0.26962        0.29071        0.26760        0.24423        0.30864        0.33116        0.34088        0.34091        0.30502        0.27689        0.28717        0.25718        0.25626        0.24552        0.31756        0.28427        0.22478        0.32292        0.31736        0.26077        0.27946        0.20521        0.21331        0.25370        0.18127        0.24807        0.30080        0.22960        0.21224        0.30760        0.32994        0.32690        0.32722        0.25267        0.21638        0.17934        0.21722        0.19005        0.18874        0.20393        0.24835        0.27781        0.25246        0.20017        0.11274        0.08917       -0.00265       -0.10325       -0.61780
2.706549 2.677931 2.649469 2.621163 2.593014 2.565020 2.537183 2.509502 2.481978 2.454609 2.427397 2.400341 2.373441 2.346697 2.320109 2.293678 2.267403 2.241284 2.215321 2.189514 2.163864 2.138370 2.113032 2.087850 2.062824 2.037955 2.013241 1.988684 1.964284 1.940039 1.915950 1.892018 1.868242 1.844622 1.821158 1.797851 1.774700 1.751704 1.728865 1.706183 1.683656 1.661286 1.639072 1.617014 1.595112 1.573366 1.551777 1.530344 1.509067 1.487946 1.466981 1.682222 2.099285 1.663396 1.165850 1.030902 0.438972 0.838443 0.561659 0.842816 0.799661 0.810889 0.756389 0.736439 0.587603 0.545878 0.495790 0.430180 0.239470 0.372613 0.204173 0.325129 0.226329 0.199035 0.169743 0.035673 0.022453 0.013692 -0.065952 0.126215 0.223805 0.187170 0.169146 0.332756 0.185436 0.507611 0.612412 0.607853 0.625768 0.870349 0.825277 0.935202 0.910403 1.008584 0.972161 1.069408 1.155233 1.043422 1.141431 0.913961 0.923590 0.787365 0.649811 0.791599 0.700166 0.477032 0.325304 0.249712 0.254102 0.147940 0.118122 0.154235 0.100423 0.132188 0.068559 0.257043 0.362625 0.344325 0.471227 0.547675 0.423731 0.578709 0.717365 0.683340 0.742031 0.704846 0.720792 0.663840 0.600787 0.516199 0.384112 0.278075 0.221242 0.081176 0.120276 -0.079759 -0.043572 -0.062058 -0.070353 -0.021537 0.141621 0.067342 0.245358 0.303740 0.341454 0.404843 0.505752 0.486908 0.484952 0.495589 0.310527 0.294267 0.282792 0.087174 0.043809 -0.058909 -0.010992 -0.056130 -0.087460 -0.089210 0.034203 0.075579 0.119755 0.203341 0.228528 0.253217 0.298775 0.430337 0.391258 0.269382 0.240947 0.216405 0.155262 0.137785 0.108535 0.002254 0.017304 0.056628 -0.002405 0.065110 0.146373 0.147081 0.238139 0.246916 0.287166 0.185865 0.215357 0.145179 0.179223 0.112835 0.049548 -0.005667 0.008328 -0.004401 -0.045710 0.054784 0.021623 0.128618 0.148846 0.184611 0.203396 0.167683 0.155849 0.178264 0.131050 0.061887 0.006732 0.054612 0.018515 -0.013320 0.031489 0.042219 0.058649 0.052378 0.061996 0.084254 0.129893 0.156698 0.058733 0.060580 0.057479 0.013696 -0.022940 0.014434 0.019133 0.005884 0.011943 0.038545 0.056716 0.055241 0.100837 0.057873 0.135415 0.060388 0.024138 0.038703 -0.032815 0.000329 0.044384 0.001053 0.040437 0.049934 0.020400 0.113624 0.035670 0.010364 0.050254 0.006641 0.015565 0.006783 -0.020460 0.035171 0.006187 0.006943 0.057829 0.058680 0.047816 0.030438 0.034446 0.037225 0.027226 -0.011843 -0.023005 0.033289 0.054397 0.085067 0.086899 0.066803 0.079813 0.109111 0.057688 0.115125 0.094033 0.033154 0.041000 0.097582 0.078121 0.113244 0.105999 0.060045 0.138623 0.064522 0.024008 0.098552 -0.023065 0.003240 0.110942 0.067690 0.135221 0.091506 0.098477 0.048419 0.109804 0.090376 -0.005288 -0.028374 0.062137 0.070739 0.042651 0.051605 0.099752 0.087911 0.010166 0.046625 0.071810 0.058689 0.041966 -0.017560 0.078296 0.093355 0.134750 0.017502 0.009311 -0.018230 0.031942 -0.029104 0.009664 -0.034082 -0.041208 0.012557 0.059490 0.008506 0.031476 -0.018838 -0.034839 -0.047342 -0.029696 -0.072471 -0.067993 0.014665 0.022926 -0.092795 0.033235 -0.014017 -0.065277 0.010188 -0.124849 -0.070457 -0.067593 -0.165752 -0.025912 0.033397 -0.032481 -0.137063 0.051920 0.112543 -0.019186 0.104039 -0.023874 0.234777 0.147484 0.229800 0.236515 0.209990 0.214697 0.281541 0.267272 0.286414 0.182623 0.198304 0.129170 -0.006897 -0.664262
0.072396 0.072899 0.074406 0.076919 0.080435 0.084955 0.090476 0.096998 0.104518 0.113033 0.122541 0.133036 0.144513 0.156967 0.170388 0.184769 0.200098 0.216362 0.233546 0.251633 0.270603 0.290433 0.311097 0.332565 0.354805 0.377779 0.401446 0.425761 0.450671 0.476122 0.502051 0.528393 0.555075 0.582016 0.609133 0.636334 0.663520 0.690585 0.717419 0.743902 0.769909 0.795308 0.819958 0.843717 0.866431 0.887944 0.908094 0.926715 0.943634 0.958679 0.971673 0.982437 0.990794 0.996567 0.999581 0.999663 0.996649 0.990378 0.980701 0.967477 0.950579 0.929893 0.905325 0.876795 0.844248 0.807651 0.766996 0.722304 0.673624 0.621039 0.564663 0.504649 0.441184 0.374495 0.304848 0.232549 0.157945 0.081423 0.003408 0.075632 0.155194 0.234741 0.313700 0.391472 0.467431 0.540929 0.611304 0.677885 0.739996 0.796966 0.848134 0.892861 0.930536 0.960584 0.982478 0.995749 0.999992 0.994877 0.980162 0.955693 0.921424 0.877415 0.823841 0.761002 0.689319 0.609344 0.521758 0.427369 0.327108 0.222029 0.113298 0.002179 0.109967 0.221710 0.331556 0.437976 0.539419 0.634340 0.721226 0.798618 0.865139 0.919524 0.960645 0.987540 0.999437 0.995779 0.976248 0.940780 0.889581 0.823144 0.742246 0.647957 0.541628 0.424890 0.299624 0.167949 0.032187 0.105178 0.241532 0.374192 0.500445 0.617617 0.723122 0.814533 0.889634 0.946486 0.983485 0.999410 0.993475 0.965365 0.915268 0.843892 0.752478 0.642784 0.517075 0.378083 0.228963 0.073226 0.085333 0.242724 0.394862 0.537668 0.667189 0.779706 0.871852 0.940722 0.983977 0.999934 0.987645 0.946956 0.878545 0.783934 0.665483 0.526343 0.370402 0.202177 0.026709 0.150590 0.324091 0.488126 0.637187 0.766099 0.870228 0.945650 0.989321 0.999214 0.974434 0.915292 0.823340 0.701359 0.553302 0.384196 0.199986 0.007343 0.186566 0.374339 0.548616 0.702383 0.829260 0.923777 0.981642 0.999948 0.977354 0.914185 0.812487 0.675992 0.510020 0.321296 0.117706 0.092017 0.298653 0.492902 0.665805 0.809165 0.915960 0.980711 0.999791 0.971660 0.897011 0.778804 0.622196 0.434357 0.224175 0.001861 0.221529 0.434635 0.626373 0.786523 0.906294 0.978840 0.999682 0.967028 0.881951 0.748417 0.573156 0.365362 0.136261 0.101485 0.334440 0.549171 0.733011 0.874845 0.965797 0.999840 0.974235 0.889796 0.750939 0.565517 0.344428 0.101019 0.149690 0.391911 0.610088 0.789895 0.919228 0.989039 0.994033 0.933122 0.809612 0.631102 0.409083 0.158250 0.104430 0.360838 0.592954 0.784126 0.920304 0.991120 0.990736 0.918385 0.778565 0.580845 0.339278 0.071461 0.202695 0.462445 0.687761 0.860910 0.967896 0.999646 0.952859 0.830405 0.641260 0.399923 0.125392 0.160302 0.433813 0.672406 0.855854 0.968204 0.999243 0.945498 0.810701 0.605638 0.347380 0.057948 0.237533 0.512967 0.743613 0.908335 0.991604 0.985044 0.888367 0.709591 0.464483 0.175264 0.131326 0.426480 0.682002 0.873040 0.980564 0.993344 0.909227 0.735556 0.488651 0.192384 0.124048 0.428957 0.691320 0.883976 0.986499 0.987466 0.885838 0.691295 0.423456 0.110004 0.216092 0.520007 0.768769 0.934900 0.999527 0.954647 0.804235 0.564058 0.260163 0.073850 0.400473 0.682487 0.887223 0.990443 0.979308 0.854122 0.628555 0.328320 0.011655 0.351191 0.649584 0.870510 0.986525 0.982590 0.858174 0.627601 0.318573 0.031019 0.377673 0.677639 0.892483 0.994098 0.968517 0.817992 0.561012 0.230212 0.131640
1.000000 1.000000 1.000000 1.000000 1.000000 1.000000 1.000000 1.000000 1.000000 1.000000 1.000000 1.000000 1.000000 1.000000 1.000000 1.000000 1.000000 1.000000 1.000000 1.000000 1.000000 1.000000 1.000000 1.000000 1.000000 1.000000 1.000000 1.000000 1.000000 1.000000 1.000000 1.000000 1.000000 1.000000 1.000000 1.000000 1.000000 1.000000 1.000000 1.000000 1.000000 1.000000 1.000000 1.000000 1.000000 1.000000 1.000000 1.000000 1.000000 1.000000 1.000000 1.000000 0.918132 0.918132 0.918132 0.909973 0.909973 0.909973 0.909973 0.909973 0.909973 0.909973 0.909973 0.909973 0.909973 0.909973 0.909973 0.909973 0.909973 0.909973 0.909973 0.909973 0.909973 0.909973 0.909973 0.909973 0.909973 0.909973 0.909973 0.909973 0.909973 0.909973 0.909973 0.909973 0.909973 0.909973 0.909973 0.909973 0.909973 0.909973 0.909973 0.909973 0.909973 0.909973 0.909973 0.909973 0.938691 0.940227 0.948400 0.948094 0.947460 0.945292 0.944112 0.943613 0.943496 0.943834 0.944572 0.945581 0.954423 0.955644 0.958505 0.960170 0.960912 0.961536 0.962154 0.962685 0.953503 0.953295 0.951927 0.951318 0.953843 0.953068 0.952966 0.953932 0.953798 0.954644 0.954531 0.953800 0.952675 0.951678 0.950711 0.950133 0.949911 0.950649 0.951069 0.952569 0.955908 0.956479 0.956603 0.956759 0.956857 0.958156 0.956997 0.956571 0.952541 0.952771 0.952329 0.952574 0.956103 0.956028 0.956582 0.957143 0.958719 0.959011 0.951811 0.949549 0.940282 0.938473 0.934169 0.928427 0.924160 0.926026 0.927498 0.928359 0.928902 0.924198 0.924159 0.921523 0.919499 0.922301 0.921479 0.921902 0.923283 0.921954 0.919376 0.918786 0.916386 0.907297 0.895006 0.894491 0.896674 0.901385 0.902957 0.901759 0.903127 0.890388 0.872013 0.858448 0.860317 0.864102 0.855549 0.853563 0.854232 0.855003 0.858615 0.851903 0.849738 0.845849 0.835392 0.825739 0.818288 0.813451 0.819219 0.815060 0.805474 0.804550 0.815026 0.807716 0.822167 0.827211 0.824363 0.823795 0.822051 0.817454 0.794576 0.793125 0.783715 0.765232 0.765629 0.764112 0.762370 0.758841 0.765662 0.753630 0.750054 0.734552 0.735331 0.738468 0.740445 0.738709 0.731269 0.734599 0.739116 0.720678 0.707107 0.694096 0.698673 0.705307 0.706938 0.703448 0.682731 0.647765 0.617366 0.637287 0.653302 0.614048 0.638536 0.650240 0.632460 0.630241 0.621568 0.625364 0.613165 0.616838 0.619708 0.623846 0.623660 0.640105 0.624321 0.617310 0.626930 0.626229 0.636435 0.632377 0.632805 0.605383 0.602483 0.626656 0.629962 0.615256 0.632209 0.619710 0.633649 0.668819 0.677017 0.650551 0.643937 0.621957 0.579513 0.574506 0.569165 0.581781 0.614668 0.592154 0.556165 0.532695 0.539614 0.559442 0.565935 0.568546 0.546497 0.548579 0.539148 0.513527 0.519777 0.534388 0.536143 0.524912 0.503249 0.509830 0.513079 0.537095 0.525977 0.485774 0.500126 0.496042 0.492224 0.438234 0.453807 0.435279 0.422417 0.375540 0.382672 0.395928 0.383453 0.323310 0.307000 0.306635 0.306398 0.307877 0.295714 0.270223 0.259842 0.246436 0.248356 0.237264 0.212671 0.208122 0.193049 0.182266 0.182149 0.140577 0.182128 0.243369 0.244590 0.244590 0.244590 0.244590 0.244590 0.244590 0.248266 0.248266 0.248266 0.248266 0.248266 0.248266 0.248266 0.248266 0.248266 0.271238 0.271238 0.271238 0.271238 0.271238 0.271238 0.271238 0.271238 0.271238 0.271238 0.271238 0.271238 0.271238 0.271238
0.000000 0.000000 0.000000 0.000000 0.000000 0.000000 0.000000 0.000000 0.000000 0.000000 0.000000 0.000000 0.000000 0.000000 0.000000 0.000000 0.000000 0.000000 0.000000 0.000000 0.000000 0.000000 0.000000 0.000000 0.000000 7.000000 4.000000 0.000000 0.000000 0.000000 0.000000 0.000000 0.000000 0.000000 0.000000 0.000000 0.000000 0.000000 0.000000 0.000000 0.000000 0.000000 0.000000 0.000000 0.000000 0.000000 0.000000 0.000000 0.000000 0.000000 0.000000 0.000000 0.180334 0.180334 0.180334 0.199007 0.199007 0.199007 0.199007 0.199007 0.199007 0.199007 0.199007 0.199007 0.199007 0.199007 0.199007 0.199007 0.199007 0.199007 0.199007 0.199007 0.199007 0.199007 0.199007 0.199007 0.199007 0.199007 0.199007 0.199007 0.199007 0.199007 0.199007 0.199007 0.199007 0.199007 0.199007 0.199007 0.199007 0.199007 0.199007 0.199007 0.199007 0.199007 0.199007 0.199007 0.225018 0.225018 0.225018 0.225018 0.225018 0.225018 0.225018 0.225018 0.225018 0.225018 0.225018 0.225018 0.225018 0.225018 0.225018 0.225018 0.225018 0.225018 0.225018 0.225018 0.225018 0.225018 0.225018 0.225018 0.225018 0.225018 0.225018 0.225018 0.225018 0.244339 0.244339 0.244339 0.244339 0.244339 0.244339 0.244339 0.244339 0.244339 0.244339 0.244339 0.244339 0.244339 0.244339 0.244339 0.244339 0.244339 0.244339 0.244339 0.244339 0.244339 0.244339 0.244339 0.251976 0.251976 0.251976 0.251976 0.251976 0.251976 0.251976 0.251976 0.251976 0.251976 0.251976 0.251976 0.251976 0.251976 0.251976 0.251976 0.251976 0.251976 0.251976 0.251976 0.264906 0.264906 0.264906 0.264906 0.264906 0.264906 0.264906 0.264906 0.264906 0.264906 0.264906 0.264906 0.264906 0.264906 0.264906 0.264906 0.264906 0.264906 0.264906 0.264906 0.264906 0.264906 0.264906 0.264906 0.264906 0.264906 0.264906 0.264906 0.264906 0.264906 0.264906 0.264906 0.264906 0.264906 0.264906 0.264906 0.264906 0.264906 0.264906 0.264906 0.264906 0.264906 0.264906 0.264906 0.264906 0.264906 0.264906 0.264906 0.264906 0.264906 0.264906 0.264906 0.264906 0.264906 0.264906 0.264906 0.264906 0.264906 0.264906 0.264906 0.264906 0.264906 0.256074 0.256074 0.256074 0.256074 0.256074 0.256074 0.256074 0.256074 0.256074 0.256074 0.256074 0.256074 0.256074 0.256074 0.269680 0.269680 0.269680 0.269680 0.269680 0.269680 0.269680 0.269680 0.269680 0.269680 0.269680 0.269680 0.264906 0.264906 0.264906 0.264906 0.264906 0.264906 0.264906 0.264906 0.264906 0.264906 0.264906 0.264906 0.269680 0.269680 0.269680 0.269680 0.269680 0.269680 0.269680 0.269680 0.269680 0.269680 0.269680 0.264906 0.264906 0.264906 0.264906 0.264906 0.264906 0.264906 0.264906 0.264906 0.264906 0.264906 0.256074 0.256074 0.256074 0.256074 0.256074 0.256074 0.256074 0.256074 0.256074 0.256074 0.256074 0.264906 0.264906 0.264906 0.264906 0.264906 0.264906 0.264906 0.264906 0.264906 0.264906 0.260378 0.260378 0.260378 0.260378 0.260378 0.260378 0.260378 0.260378 0.260378 0.260378 0.256074 0.256074 0.256074 0.256074 0.256074 0.256074 0.256074 0.256074 0.256074 0.256074 0.260378 0.260378 0.260378 0.260378 0.260378 0.260378 0.260378 0.260378 0.260378 0.256074 0.256074 0.256074 0.256074 0.256074 0.256074 0.256074 0.256074 0.256074 0.251976 0.251976 0.251976 0.251976 0.251976 0.251976 0.251976 0.251976 0.251976 0.251976 0.251976 0.251976 0.251976 0.251976
