# Output from CTFFind version 4.1.9, run on 2019-11-03 20:06:30
# Input file: stack16_bm3d_averaged_1_7.5_0_1000_half.mrc ; Number of micrographs: 1
# Pixel size: 3.000 Angstroms ; acceleration voltage: 300.0 keV ; spherical aberration: 0.00 mm ; amplitude contrast: 0.07
# Box size: 512 pixels ; min. res.: 30.0 Angstroms ; max. res.: 5.0 Angstroms ; min. def.: 5000.0 um; max. def. 50000.0 um; num. frames averaged: 1
# 6 lines per micrograph: #1 - spatial frequency (1/Angstroms); #2 - 1D rotational average of spectrum (assuming no astigmatism); #3 - 1D rotational average of spectrum; #4 - CTF fit; #5 - cross-correlation between spectrum and CTF fit; #6 - 2sigma of expected cross correlation of noise
0.000000 0.000651 0.001302 0.001953 0.002604 0.003255 0.003906 0.004557 0.005208 0.005859 0.006510 0.007161 0.007812 0.008464 0.009115 0.009766 0.010417 0.011068 0.011719 0.012370 0.013021 0.013672 0.014323 0.014974 0.015625 0.016276 0.016927 0.017578 0.018229 0.018880 0.019531 0.020182 0.020833 0.021484 0.022135 0.022786 0.023438 0.024089 0.024740 0.025391 0.026042 0.026693 0.027344 0.027995 0.028646 0.029297 0.029948 0.030599 0.031250 0.031901 0.032552 0.033203 0.033854 0.034505 0.035156 0.035807 0.036458 0.037109 0.037760 0.038411 0.039062 0.039714 0.040365 0.041016 0.041667 0.042318 0.042969 0.043620 0.044271 0.044922 0.045573 0.046224 0.046875 0.047526 0.048177 0.048828 0.049479 0.050130 0.050781 0.051432 0.052083 0.052734 0.053385 0.054036 0.054688 0.055339 0.055990 0.056641 0.057292 0.057943 0.058594 0.059245 0.059896 0.060547 0.061198 0.061849 0.062500 0.063151 0.063802 0.064453 0.065104 0.065755 0.066406 0.067057 0.067708 0.068359 0.069010 0.069661 0.070312 0.070964 0.071615 0.072266 0.072917 0.073568 0.074219 0.074870 0.075521 0.076172 0.076823 0.077474 0.078125 0.078776 0.079427 0.080078 0.080729 0.081380 0.082031 0.082682 0.083333 0.083984 0.084635 0.085286 0.085938 0.086589 0.087240 0.087891 0.088542 0.089193 0.089844 0.090495 0.091146 0.091797 0.092448 0.093099 0.093750 0.094401 0.095052 0.095703 0.096354 0.097005 0.097656 0.098307 0.098958 0.099609 0.100260 0.100911 0.101562 0.102214 0.102865 0.103516 0.104167 0.104818 0.105469 0.106120 0.106771 0.107422 0.108073 0.108724 0.109375 0.110026 0.110677 0.111328 0.111979 0.112630 0.113281 0.113932 0.114583 0.115234 0.115885 0.116536 0.117188 0.117839 0.118490 0.119141 0.119792 0.120443 0.121094 0.121745 0.122396 0.123047 0.123698 0.124349 0.125000 0.125651 0.126302 0.126953 0.127604 0.128255 0.128906 0.129557 0.130208 0.130859 0.131510 0.132161 0.132812 0.133464 0.134115 0.134766 0.135417 0.136068 0.136719 0.137370 0.138021 0.138672 0.139323 0.139974 0.140625 0.141276 0.141927 0.142578 0.143229 0.143880 0.144531 0.145182 0.145833 0.146484 0.147135 0.147786 0.148438 0.149089 0.149740 0.150391 0.151042 0.151693 0.152344 0.152995 0.153646 0.154297 0.154948 0.155599 0.156250 0.156901 0.157552 0.158203 0.158854 0.159505 0.160156 0.160807 0.161458 0.162109 0.162760 0.163411 0.164062 0.164714 0.165365 0.166016 0.166667 0.167318 0.167969 0.168620 0.169271 0.169922 0.170573 0.171224 0.171875 0.172526 0.173177 0.173828 0.174479 0.175130 0.175781 0.176432 0.177083 0.177734 0.178385 0.179036 0.179688 0.180339 0.180990 0.181641 0.182292 0.182943 0.183594 0.184245 0.184896 0.185547 0.186198 0.186849 0.187500 0.188151 0.188802 0.189453 0.190104 0.190755 0.191406 0.192057 0.192708 0.193359 0.194010 0.194661 0.195312 0.195964 0.196615 0.197266 0.197917 0.198568 0.199219 0.199870 0.200521 0.201172 0.201823 0.202474 0.203125 0.203776 0.204427 0.205078 0.205729 0.206380 0.207031 0.207682 0.208333 0.208984 0.209635 0.210286 0.210938 0.211589 0.212240 0.212891 0.213542 0.214193 0.214844 0.215495 0.216146 0.216797 0.217448 0.218099 0.218750 0.219401 0.220052 0.220703 0.221354 0.222005 0.222656 0.223307 0.223958 0.224609 0.225260 0.225911 0.226562 0.227214 0.227865 0.228516 0.229167 0.229818 0.230469 0.231120 0.231771 0.232422 0.233073 0.233724 0.234375 0.235026 0.235677
       0.36276        0.36276        0.36276        0.36276        0.36276        0.36276        0.36276        0.36276        0.36276        0.36276        0.36276        0.36276        0.36276        0.36276        0.36276        0.36276        0.36276        0.36276        0.36276        0.36276        0.36276        0.36276        0.36276        0.36276        0.36276        0.36276        0.36276        0.36276        0.36276        0.36276        0.36276        0.36276        0.36276        0.36276        0.36276        0.36276        0.36276        0.36276        0.36276        0.36276        0.36276        0.36276        0.36276        0.36276        0.36276        0.36276        0.36276        0.36276        0.36276        0.36276        0.36276        0.43938        0.56126        0.34774       -0.21500       -0.44241       -0.53173       -0.63589       -0.70248       -0.70572       -0.79708       -0.87512       -0.66377       -0.81501       -0.80236       -0.94022       -0.98099       -0.86238       -0.82194       -0.78333       -0.69012       -0.62239       -0.53144       -0.43965       -0.37666       -0.14950       -0.04895        0.05885        0.27685        0.26923        0.32929        0.37864        0.41315        0.53932        0.54741        0.58237        0.53903        0.48320        0.51345        0.54375        0.46843        0.34360        0.23227        0.19698        0.12329        0.03433        0.01741        0.00743        0.07748        0.04407        0.09525        0.06781        0.18608        0.21101        0.41796        0.46891        0.55313        0.66126        0.68675        0.71553        0.64726        0.61714        0.55880        0.45296        0.39928        0.29658        0.23330        0.23191        0.12015        0.13503        0.14062        0.10590        0.11128        0.31434        0.43027        0.53734        0.53999        0.56971        0.60985        0.59191        0.57364        0.59152        0.57582        0.47936        0.32379        0.28091        0.27567        0.17677        0.10901        0.18883        0.23600        0.30342        0.36424        0.43903        0.48451        0.53987        0.60859        0.55452        0.50946        0.51987        0.36766        0.30165        0.27880        0.19327        0.22771        0.26028        0.29642        0.29836        0.34697        0.44324        0.47620        0.50525        0.46149        0.45032        0.49889        0.40943        0.33861        0.30047        0.27874        0.24938        0.23716        0.25095        0.35331        0.46306        0.44733        0.49391        0.56002        0.46522        0.42520        0.36776        0.33521        0.29203        0.29643        0.28299        0.30339        0.37678        0.38307        0.45502        0.47955        0.45330        0.47669        0.39373        0.38951        0.36195        0.28945        0.26994        0.27013        0.35555        0.39123        0.37342        0.39831        0.44077        0.45559        0.39755        0.34791        0.33624        0.36624        0.33170        0.29946        0.30604        0.37401        0.39033        0.40961        0.39819        0.40709        0.43355        0.42005        0.33941        0.30263        0.32248        0.35234        0.40217        0.37583        0.41316        0.36010        0.38077        0.40302        0.35530        0.36523        0.33417        0.31768        0.34977        0.36129        0.34456        0.37914        0.39323        0.34146        0.36149        0.33742        0.32916        0.31694        0.33513        0.34218        0.33851        0.37935        0.38969        0.37542        0.32046        0.31610        0.30037        0.34517        0.33052        0.32772        0.38326        0.36732        0.35212        0.33021        0.31882        0.31475        0.29091        0.33421        0.34877        0.36418        0.38337        0.36819        0.33612        0.35411        0.37530        0.35273        0.36502        0.35875        0.32979        0.34490        0.30439        0.32967        0.31569        0.32789        0.29653        0.33565        0.36140        0.33837        0.37050        0.32932        0.35022        0.36805        0.35214        0.33337        0.34798        0.38302        0.35884        0.37150        0.34549        0.32413        0.33878        0.32797        0.34192        0.34027        0.37984        0.33694        0.33838        0.31058        0.31129        0.28609        0.29304        0.37416        0.32445        0.33382        0.30288        0.27584        0.28434        0.37356        0.31627        0.29836        0.34027        0.32920        0.30089        0.26534        0.30641        0.28245        0.31907        0.32153        0.35869        0.34846        0.33529        0.32974        0.27858        0.29825        0.30009        0.30163        0.31648        0.36760        0.31316        0.22584        0.31595        0.31971        0.35001        0.28588        0.30432        0.28196        0.33118        0.28779        0.27460        0.28788        0.25516        0.31716        0.33368        0.32049        0.27231        0.33840        0.28681        0.24780        0.24062        0.33130        0.25719        0.15722        0.11339        0.19917        0.35799        0.28928        0.20039        0.16994       -0.35849       -0.53252
3.272582 3.230765 3.189220 3.147948 3.106948 3.066221 3.025766 2.985584 2.945674 2.906036 2.866671 2.827579 2.788759 2.750212 2.711937 2.673934 2.636205 2.598747 2.561562 2.524649 2.488010 2.451642 2.415547 2.379724 2.344174 2.308897 2.273892 2.239159 2.204699 2.170511 2.136596 2.102953 2.069583 2.036485 2.003660 1.971107 1.938827 1.906819 1.875084 1.843621 1.812431 1.781513 1.750867 1.720495 1.690394 1.660566 1.631011 1.601728 1.572717 1.543979 1.515514 1.552301 1.616351 1.556846 0.844105 0.604976 0.466322 0.395762 0.298184 0.227664 0.197034 -0.046629 0.216630 0.084193 -0.023713 -0.099174 -0.234280 -0.139193 -0.045801 -0.093763 -0.067236 0.041081 0.043530 0.237097 0.111381 0.361280 0.465728 0.504099 0.779181 0.681946 0.702177 0.821142 0.795342 0.849587 0.923470 0.851721 0.883214 0.725709 0.781671 0.844854 0.693547 0.604962 0.431681 0.429476 0.321214 0.194965 0.189054 0.111794 0.207636 0.118882 0.205337 0.103889 0.213266 0.225499 0.429269 0.394271 0.560857 0.598847 0.613849 0.709877 0.596642 0.562071 0.454365 0.406408 0.277345 0.256269 0.084815 0.143625 -0.035379 0.033210 -0.030613 -0.048957 -0.067388 0.015791 0.251066 0.284364 0.344659 0.280812 0.367863 0.374146 0.395470 0.376892 0.348004 0.314587 0.111475 0.063111 0.057667 -0.028882 -0.154378 -0.066191 -0.065906 0.029803 0.066293 0.138494 0.199323 0.214242 0.306852 0.394673 0.267013 0.356716 0.217512 0.143379 0.061404 0.029601 -0.000546 0.054231 0.067468 0.087743 0.116988 0.165128 0.234311 0.297540 0.259467 0.201531 0.247227 0.221439 0.106555 0.047458 0.056445 0.021129 0.003930 -0.034925 0.028260 0.164589 0.197497 0.182850 0.290298 0.184392 0.193096 0.070218 0.062294 0.019662 -0.006137 -0.008856 -0.012563 0.047218 0.081710 0.104130 0.157185 0.137780 0.223546 0.141243 0.076653 0.098055 0.037721 -0.045524 -0.015046 0.030888 0.072927 0.070118 0.062740 0.148767 0.107075 0.156004 0.037437 0.043085 0.046327 0.043890 0.027730 -0.018660 0.040270 0.054883 0.092873 0.098368 0.083596 0.113762 0.121304 0.079606 0.009578 -0.013599 0.016153 0.073029 0.079971 0.085706 0.081310 0.054002 0.098164 0.065838 0.041104 0.070970 -0.008657 0.009876 0.068216 0.040547 0.044402 0.079376 0.082537 0.046717 0.067364 0.020122 0.018141 0.014695 0.056829 0.021048 0.036953 0.076830 0.079943 0.046550 -0.004562 -0.000836 -0.019170 0.047807 0.002288 0.011976 0.073797 0.042157 0.006711 0.014484 -0.018298 0.002387 -0.036172 0.011070 0.024607 0.051383 0.044599 0.033395 0.004390 0.007985 0.048655 0.012220 0.033429 0.010368 -0.009939 0.013165 -0.042317 -0.032310 -0.050916 -0.011823 -0.070716 0.008758 0.008024 -0.005714 -0.012069 -0.003991 -0.003610 0.027845 0.006860 -0.011847 0.015332 0.026691 0.027377 0.036167 0.000419 0.007035 0.011626 -0.009513 0.016203 -0.005064 0.097751 0.025887 0.018296 0.005040 -0.006821 -0.025465 0.006097 0.074356 0.001592 0.043031 -0.026231 -0.025196 -0.022621 0.088937 0.002812 -0.025966 0.073433 0.051928 0.000879 -0.002594 0.008864 0.007959 0.047318 0.040114 0.103975 0.043405 0.056930 0.044884 -0.006743 0.025280 0.004323 0.002019 0.025153 0.081291 -0.003044 -0.074432 0.033584 0.014068 0.079840 -0.039247 -0.007047 -0.017067 0.012576 -0.008510 -0.035913 -0.003975 -0.067781 0.050645 0.033429 0.046932 -0.102500 0.050852 0.036199 -0.007300 -0.055753 0.103939 0.024690 -0.053943 -0.139104 0.169818 0.359197 0.244398 0.133561 0.170248 -0.514090
0.072396 0.073047 0.074998 0.078249 0.082799 0.088647 0.095791 0.104227 0.113951 0.124958 0.137243 0.150795 0.165606 0.181663 0.198950 0.217448 0.237136 0.257987 0.279972 0.303054 0.327192 0.352339 0.378442 0.405441 0.433266 0.461841 0.491082 0.520893 0.551170 0.581800 0.612657 0.643606 0.674501 0.705182 0.735480 0.765215 0.794194 0.822214 0.849059 0.874508 0.898325 0.920269 0.940092 0.957537 0.972346 0.984257 0.993007 0.998337 0.999991 0.997720 0.991287 0.980467 0.965054 0.944861 0.919728 0.889523 0.854147 0.813539 0.767679 0.716594 0.660360 0.599106 0.533021 0.462351 0.387408 0.308568 0.226276 0.141041 0.053443 0.035872 0.126194 0.216754 0.306725 0.395227 0.481342 0.564114 0.642563 0.715697 0.782524 0.842065 0.893373 0.935544 0.967740 0.989202 0.999272 0.997406 0.983199 0.956396 0.916911 0.864842 0.800480 0.724323 0.637080 0.539675 0.433249 0.319150 0.198931 0.074328 0.052753 0.180265 0.306048 0.427863 0.543431 0.650479 0.746785 0.830230 0.898846 0.950873 0.984807 0.999455 0.993977 0.967929 0.921302 0.854546 0.768589 0.664844 0.545203 0.412024 0.268093 0.116581 0.039014 0.194941 0.347287 0.492065 0.625325 0.743266 0.842354 0.919433 0.971846 0.997534 0.995136 0.964067 0.904578 0.817790 0.705714 0.571223 0.418010 0.250514 0.073795 0.106588 0.284752 0.454677 0.610408 0.746274 0.857104 0.938445 0.986759 0.999603 0.975774 0.915413 0.820070 0.692701 0.537625 0.360407 0.167690 0.033031 0.233683 0.425935 0.601542 0.752711 0.872461 0.954971 0.995900 0.992643 0.944529 0.852940 0.721330 0.555153 0.361678 0.149719 0.070745 0.289013 0.494182 0.675685 0.823866 0.930512 0.989350 0.996462 0.950590 0.853310 0.709064 0.525017 0.310762 0.077871 0.160699 0.391307 0.600407 0.775351 0.905195 0.981416 0.998538 0.954575 0.851294 0.694238 0.492505 0.258307 0.006269 0.247440 0.486121 0.693662 0.855636 0.960363 0.999807 0.970267 0.872794 0.713273 0.502175 0.253951 0.013889 0.281970 0.530431 0.740407 0.895497 0.983106 0.995547 0.930805 0.792880 0.591669 0.342363 0.064384 0.220060 0.487727 0.716239 0.885986 0.981880 0.994785 0.922494 0.770137 0.549959 0.280459 0.015078 0.310510 0.579153 0.796177 0.940981 0.999224 0.964364 0.838513 0.632491 0.365044 0.061248 0.249739 0.537453 0.773102 0.932520 0.998722 0.963860 0.830280 0.610572 0.326547 0.007212 0.314119 0.603252 0.828779 0.965556 0.997639 0.920281 0.740782 0.477986 0.160490 0.176367 0.494342 0.756644 0.932242 0.999648 0.949718 0.787060 0.529845 0.207978 0.140249 0.472599 0.748012 0.931747 0.999869 0.942562 0.765730 0.490643 0.151584 0.208251 0.542197 0.806150 0.964485 0.995018 0.892317 0.668855 0.353753 0.010813 0.375104 0.688568 0.906879 0.998355 0.948747 0.763703 0.468425 0.104488 0.275830 0.616970 0.868232 0.991416 0.966845 0.796761 0.505498 0.136269 0.255023 0.608161 0.867881 0.992640 0.961500 0.777902 0.469679 0.085130 0.314348 0.663941 0.905978 0.999602 0.927911 0.701320 0.356409 0.049689 0.448553 0.771939 0.963540 0.988997 0.842366 0.547772 0.155798 0.264931 0.639621 0.900612 0.999777 0.917659 0.667663 0.294248 0.134622 0.539657 0.844879 0.991965 0.951701 0.730130 0.368125 0.065794 0.488153 0.816548 0.985812 0.961221 0.746008 0.381477 0.060527 0.491513 0.823976 0.989283 0.952137 0.718519 0.335264 0.118922 0.549354 0.865070 0.998170 0.918784 0.642214 0.226483 0.239401 0.654315
1.000000 1.000000 1.000000 1.000000 1.000000 1.000000 1.000000 1.000000 1.000000 1.000000 1.000000 1.000000 1.000000 1.000000 1.000000 1.000000 1.000000 1.000000 1.000000 1.000000 1.000000 1.000000 1.000000 1.000000 1.000000 1.000000 1.000000 1.000000 1.000000 1.000000 1.000000 1.000000 1.000000 1.000000 1.000000 1.000000 1.000000 1.000000 1.000000 1.000000 1.000000 1.000000 1.000000 1.000000 1.000000 1.000000 1.000000 1.000000 1.000000 1.000000 1.000000 1.000000 0.926942 0.926942 0.926942 0.926942 0.926942 0.926942 0.926942 0.926942 0.926942 0.926942 0.926942 0.926942 0.926942 0.926942 0.926942 0.926942 0.926942 0.926942 0.926942 0.926942 0.926942 0.926942 0.926942 0.926942 0.926942 0.926942 0.926942 0.926942 0.926942 0.926942 0.926942 0.926942 0.926942 0.913220 0.911336 0.912486 0.911025 0.909590 0.909001 0.908606 0.909645 0.911243 0.913324 0.934972 0.938073 0.939318 0.940648 0.942025 0.944315 0.942147 0.949697 0.956197 0.955122 0.956253 0.956368 0.956872 0.956219 0.955474 0.958046 0.957220 0.955594 0.953690 0.952097 0.951575 0.951356 0.954939 0.955373 0.955527 0.956069 0.955990 0.956708 0.957295 0.955318 0.957455 0.949484 0.948332 0.953778 0.951916 0.953488 0.953446 0.954146 0.954903 0.955181 0.955404 0.952193 0.951717 0.950789 0.944820 0.937631 0.937952 0.939604 0.941657 0.938651 0.936687 0.938346 0.939888 0.938965 0.942173 0.933721 0.929747 0.902893 0.888761 0.880503 0.880428 0.884666 0.887223 0.885140 0.880218 0.872641 0.869396 0.868161 0.865235 0.856461 0.859106 0.858983 0.854243 0.857556 0.860731 0.865988 0.864472 0.860491 0.855623 0.850178 0.838407 0.839188 0.840033 0.844313 0.825842 0.813145 0.829335 0.822805 0.815039 0.822994 0.824969 0.822522 0.821120 0.821393 0.819227 0.812457 0.804097 0.807922 0.817011 0.819088 0.809934 0.807460 0.807039 0.806598 0.801513 0.807075 0.809584 0.806099 0.798008 0.815385 0.786987 0.805749 0.807128 0.787846 0.772489 0.761134 0.769101 0.777528 0.770987 0.767920 0.778696 0.778707 0.772439 0.752413 0.735259 0.742953 0.741217 0.732007 0.720569 0.727270 0.720938 0.718962 0.716844 0.720602 0.720722 0.699197 0.712905 0.717955 0.713293 0.725469 0.728373 0.719447 0.722735 0.727253 0.728496 0.727900 0.702837 0.705923 0.639738 0.630715 0.597122 0.594086 0.587414 0.532554 0.537110 0.522253 0.508348 0.508688 0.471345 0.519502 0.423986 0.411179 0.434374 0.362981 0.338386 0.356822 0.358387 0.370926 0.367205 0.366136 0.371093 0.352282 0.323859 0.294400 0.321602 0.335670 0.317579 0.318709 0.290858 0.281482 0.228307 0.243698 0.247997 0.279251 0.281202 0.267163 0.286342 0.328845 0.266896 0.252702 0.230577 0.256988 0.260941 0.251778 0.241082 0.263360 0.201998 0.212838 0.228818 0.230699 0.282429 0.308572 0.322315 0.320243 0.328306 0.357564 0.313929 0.322015 0.328923 0.320232 0.348882 0.352095 0.362819 0.359876 0.393570 0.394787 0.402855 0.409516 0.432828 0.457526 0.432979 0.416582 0.372235 0.388327 0.380551 0.395604 0.341387 0.319783 0.319170 0.289074 0.242140 0.243344 0.242309 0.197672 0.195375 0.180007 0.148875 0.147637 0.156602 0.179701 0.151426 0.164064 0.168214 0.168214 0.168214 0.168214 0.168214 0.168214 0.168214 0.168214 0.168214 0.168214 0.168214 0.168214 0.168214 0.168214 0.189283 0.189283 0.189283 0.189283 0.189283 0.189283 0.189283 0.189283 0.189283 0.189283 0.189283 0.189283
0.000000 0.000000 0.000000 0.000000 0.000000 0.000000 0.000000 0.000000 0.000000 0.000000 0.000000 0.000000 0.000000 0.000000 0.000000 0.000000 0.000000 0.000000 0.000000 0.000000 0.000000 0.000000 0.000000 0.000000 0.000000 0.000000 0.000000 0.000000 0.000000 0.000000 0.000000 0.000000 0.000000 0.000000 0.000000 0.000000 0.000000 0.000000 0.000000 0.000000 0.000000 0.000000 0.000000 0.000000 0.000000 0.000000 0.000000 0.000000 0.000000 0.000000 0.000000 0.000000 0.209657 0.209657 0.209657 0.209657 0.209657 0.209657 0.209657 0.209657 0.209657 0.209657 0.209657 0.209657 0.209657 0.209657 0.209657 0.209657 0.209657 0.209657 0.209657 0.209657 0.209657 0.209657 0.209657 0.209657 0.209657 0.209657 0.209657 0.209657 0.209657 0.209657 0.209657 0.209657 0.209657 0.244339 0.244339 0.244339 0.244339 0.244339 0.244339 0.244339 0.244339 0.244339 0.244339 0.244339 0.244339 0.244339 0.244339 0.244339 0.244339 0.244339 0.244339 0.244339 0.244339 0.244339 0.244339 0.244339 0.244339 0.244339 0.260378 0.260378 0.260378 0.260378 0.260378 0.260378 0.260378 0.260378 0.260378 0.260378 0.260378 0.260378 0.260378 0.260378 0.260378 0.260378 0.260378 0.260378 0.260378 0.260378 0.269680 0.269680 0.269680 0.269680 0.269680 0.269680 0.269680 0.269680 0.269680 0.269680 0.269680 0.269680 0.269680 0.269680 0.269680 0.269680 0.269680 0.269680 0.269680 0.269680 0.269680 0.269680 0.269680 0.269680 0.269680 0.269680 0.269680 0.269680 0.269680 0.269680 0.269680 0.269680 0.269680 0.280056 0.280056 0.280056 0.280056 0.280056 0.280056 0.280056 0.280056 0.280056 0.280056 0.280056 0.280056 0.280056 0.280056 0.280056 0.280056 0.280056 0.280056 0.280056 0.280056 0.280056 0.280056 0.280056 0.280056 0.280056 0.280056 0.280056 0.274721 0.274721 0.274721 0.274721 0.274721 0.274721 0.274721 0.274721 0.274721 0.274721 0.274721 0.274721 0.274721 0.285714 0.285714 0.285714 0.285714 0.285714 0.285714 0.285714 0.285714 0.285714 0.285714 0.285714 0.280056 0.280056 0.280056 0.280056 0.280056 0.280056 0.280056 0.280056 0.280056 0.280056 0.280056 0.274721 0.274721 0.274721 0.274721 0.274721 0.274721 0.274721 0.274721 0.274721 0.274721 0.274721 0.280056 0.280056 0.280056 0.280056 0.280056 0.280056 0.280056 0.280056 0.280056 0.280056 0.285714 0.285714 0.285714 0.285714 0.285714 0.285714 0.285714 0.285714 0.285714 0.269680 0.269680 0.269680 0.269680 0.269680 0.269680 0.269680 0.269680 0.269680 0.269680 0.274721 0.274721 0.274721 0.274721 0.274721 0.274721 0.274721 0.274721 0.274721 0.285714 0.285714 0.285714 0.285714 0.285714 0.285714 0.285714 0.285714 0.264906 0.264906 0.264906 0.264906 0.264906 0.264906 0.264906 0.264906 0.264906 0.274721 0.274721 0.274721 0.274721 0.274721 0.274721 0.274721 0.274721 0.269680 0.269680 0.269680 0.269680 0.269680 0.269680 0.269680 0.269680 0.269680 0.269680 0.269680 0.269680 0.269680 0.269680 0.269680 0.269680 0.280056 0.280056 0.280056 0.280056 0.280056 0.280056 0.280056 0.260378 0.260378 0.260378 0.260378 0.260378 0.260378 0.260378 0.260378 0.269680 0.269680 0.269680 0.269680 0.269680 0.269680 0.269680 0.264906 0.264906 0.264906 0.264906 0.264906 0.264906 0.264906 0.264906 0.264906 0.264906 0.264906 0.264906 0.264906 0.264906 0.260378 0.260378 0.260378 0.260378 0.260378 0.260378 0.260378 0.260378 0.260378 0.260378 0.260378 0.260378
