# Output from CTFFind version 4.1.9, run on 2019-11-03 19:00:07
# Input file: stack1_bm3d_averaged_1_2.25_0_1000_half.mrc ; Number of micrographs: 1
# Pixel size: 3.000 Angstroms ; acceleration voltage: 300.0 keV ; spherical aberration: 0.00 mm ; amplitude contrast: 0.07
# Box size: 512 pixels ; min. res.: 30.0 Angstroms ; max. res.: 5.0 Angstroms ; min. def.: 5000.0 um; max. def. 50000.0 um; num. frames averaged: 1
# 6 lines per micrograph: #1 - spatial frequency (1/Angstroms); #2 - 1D rotational average of spectrum (assuming no astigmatism); #3 - 1D rotational average of spectrum; #4 - CTF fit; #5 - cross-correlation between spectrum and CTF fit; #6 - 2sigma of expected cross correlation of noise
0.000000 0.000651 0.001302 0.001953 0.002604 0.003255 0.003906 0.004557 0.005208 0.005859 0.006510 0.007161 0.007812 0.008464 0.009115 0.009766 0.010417 0.011068 0.011719 0.012370 0.013021 0.013672 0.014323 0.014974 0.015625 0.016276 0.016927 0.017578 0.018229 0.018880 0.019531 0.020182 0.020833 0.021484 0.022135 0.022786 0.023438 0.024089 0.024740 0.025391 0.026042 0.026693 0.027344 0.027995 0.028646 0.029297 0.029948 0.030599 0.031250 0.031901 0.032552 0.033203 0.033854 0.034505 0.035156 0.035807 0.036458 0.037109 0.037760 0.038411 0.039062 0.039714 0.040365 0.041016 0.041667 0.042318 0.042969 0.043620 0.044271 0.044922 0.045573 0.046224 0.046875 0.047526 0.048177 0.048828 0.049479 0.050130 0.050781 0.051432 0.052083 0.052734 0.053385 0.054036 0.054688 0.055339 0.055990 0.056641 0.057292 0.057943 0.058594 0.059245 0.059896 0.060547 0.061198 0.061849 0.062500 0.063151 0.063802 0.064453 0.065104 0.065755 0.066406 0.067057 0.067708 0.068359 0.069010 0.069661 0.070312 0.070964 0.071615 0.072266 0.072917 0.073568 0.074219 0.074870 0.075521 0.076172 0.076823 0.077474 0.078125 0.078776 0.079427 0.080078 0.080729 0.081380 0.082031 0.082682 0.083333 0.083984 0.084635 0.085286 0.085938 0.086589 0.087240 0.087891 0.088542 0.089193 0.089844 0.090495 0.091146 0.091797 0.092448 0.093099 0.093750 0.094401 0.095052 0.095703 0.096354 0.097005 0.097656 0.098307 0.098958 0.099609 0.100260 0.100911 0.101562 0.102214 0.102865 0.103516 0.104167 0.104818 0.105469 0.106120 0.106771 0.107422 0.108073 0.108724 0.109375 0.110026 0.110677 0.111328 0.111979 0.112630 0.113281 0.113932 0.114583 0.115234 0.115885 0.116536 0.117188 0.117839 0.118490 0.119141 0.119792 0.120443 0.121094 0.121745 0.122396 0.123047 0.123698 0.124349 0.125000 0.125651 0.126302 0.126953 0.127604 0.128255 0.128906 0.129557 0.130208 0.130859 0.131510 0.132161 0.132812 0.133464 0.134115 0.134766 0.135417 0.136068 0.136719 0.137370 0.138021 0.138672 0.139323 0.139974 0.140625 0.141276 0.141927 0.142578 0.143229 0.143880 0.144531 0.145182 0.145833 0.146484 0.147135 0.147786 0.148438 0.149089 0.149740 0.150391 0.151042 0.151693 0.152344 0.152995 0.153646 0.154297 0.154948 0.155599 0.156250 0.156901 0.157552 0.158203 0.158854 0.159505 0.160156 0.160807 0.161458 0.162109 0.162760 0.163411 0.164062 0.164714 0.165365 0.166016 0.166667 0.167318 0.167969 0.168620 0.169271 0.169922 0.170573 0.171224 0.171875 0.172526 0.173177 0.173828 0.174479 0.175130 0.175781 0.176432 0.177083 0.177734 0.178385 0.179036 0.179688 0.180339 0.180990 0.181641 0.182292 0.182943 0.183594 0.184245 0.184896 0.185547 0.186198 0.186849 0.187500 0.188151 0.188802 0.189453 0.190104 0.190755 0.191406 0.192057 0.192708 0.193359 0.194010 0.194661 0.195312 0.195964 0.196615 0.197266 0.197917 0.198568 0.199219 0.199870 0.200521 0.201172 0.201823 0.202474 0.203125 0.203776 0.204427 0.205078 0.205729 0.206380 0.207031 0.207682 0.208333 0.208984 0.209635 0.210286 0.210938 0.211589 0.212240 0.212891 0.213542 0.214193 0.214844 0.215495 0.216146 0.216797 0.217448 0.218099 0.218750 0.219401 0.220052 0.220703 0.221354 0.222005 0.222656 0.223307 0.223958 0.224609 0.225260 0.225911 0.226562 0.227214 0.227865 0.228516 0.229167 0.229818 0.230469 0.231120 0.231771 0.232422 0.233073 0.233724 0.234375 0.235026 0.235677
       0.33760        0.33760        0.33760        0.33760        0.33760        0.33760        0.33760        0.33760        0.33760        0.33760        0.33760        0.33760        0.33760        0.33760        0.33760        0.33760        0.33760        0.33760        0.33760        0.33760        0.33760        0.33760        0.33760        0.33760        0.33760        0.33760        0.33760        0.33760        0.33760        0.33760        0.33760        0.33760        0.33760        0.33760        0.33760        0.33760        0.33760        0.33760        0.33760        0.33760        0.33760        0.33760        0.33760        0.33760        0.33760        0.33760        0.33760        0.33760        0.33760        0.33760        0.33760        0.50349        0.72125        0.42258        0.19864       -0.06780       -0.24959       -0.06323       -0.12357       -0.06564        0.00193       -0.14694       -0.10708       -0.04044        0.00359       -0.14977       -0.22310       -0.33244       -0.46622       -0.57703       -0.52606       -0.46215       -0.37104       -0.55967       -0.45053       -0.61465       -0.50298       -0.47461       -0.40057       -0.37293       -0.32350       -0.23583       -0.16509       -0.13559        0.02993       -0.01365        0.11843        0.17675        0.32424        0.43011        0.48191        0.51475        0.55437        0.56334        0.70208        0.65498        0.68389        0.59250        0.56409        0.64946        0.52673        0.44866        0.41133        0.30511        0.25101        0.26937        0.25542        0.09924        0.08313        0.00789       -0.00269        0.02790       -0.01608        0.06897        0.09590        0.22331        0.28840        0.29221        0.40410        0.57347        0.55200        0.57437        0.67152        0.68760        0.63352        0.65199        0.64516        0.54037        0.56753        0.40020        0.36211        0.27300        0.18435        0.08512        0.14565        0.11366        0.11826        0.12822        0.20802        0.19110        0.31804        0.35368        0.40887        0.49965        0.55361        0.55091        0.55869        0.61008        0.53959        0.47793        0.48539        0.32771        0.26115        0.26165        0.24955        0.14953        0.15058        0.15767        0.22969        0.26654        0.34200        0.38820        0.41400        0.45292        0.44955        0.48378        0.44384        0.48133        0.44432        0.38763        0.36617        0.37451        0.34036        0.29631        0.21453        0.22258        0.22817        0.27615        0.26483        0.35573        0.38953        0.36389        0.41461        0.44974        0.44248        0.43462        0.44281        0.35997        0.33881        0.29025        0.25680        0.30181        0.26654        0.29977        0.31496        0.34877        0.33537        0.40452        0.39660        0.44031        0.40176        0.46069        0.41304        0.37335        0.28474        0.28168        0.28626        0.27910        0.27983        0.33973        0.36103        0.33442        0.36771        0.37636        0.35253        0.42157        0.40530        0.36928        0.35134        0.30216        0.30298        0.32332        0.31672        0.31698        0.30014        0.34128        0.36261        0.37962        0.34670        0.33474        0.33118        0.35583        0.32385        0.30193        0.32535        0.32358        0.33025        0.33356        0.34368        0.36936        0.33278        0.32589        0.34706        0.31941        0.27256        0.26222        0.27915        0.30853        0.31862        0.35971        0.29630        0.30884        0.33335        0.30074        0.32522        0.29294        0.28069        0.27758        0.28062        0.29208        0.34417        0.31861        0.33323        0.31917        0.34704        0.35306        0.31843        0.32547        0.33741        0.27259        0.29572        0.32047        0.28674        0.33036        0.32705        0.33239        0.32709        0.35660        0.34123        0.29253        0.24957        0.28512        0.34276        0.35634        0.35381        0.31246        0.30267        0.30308        0.31022        0.26691        0.29597        0.30785        0.33309        0.31064        0.28948        0.26603        0.34316        0.33518        0.34461        0.29670        0.30114        0.31321        0.39873        0.35448        0.33999        0.33054        0.30525        0.29315        0.31249        0.31814        0.29251        0.22796        0.26644        0.30842        0.30853        0.29965        0.27215        0.26078        0.23546        0.22742        0.29419        0.32032        0.30250        0.30804        0.31854        0.36112        0.24091        0.21326        0.25307        0.25109        0.27955        0.29296        0.33089        0.26116        0.29042        0.28087        0.23323        0.28627        0.28769        0.24419        0.20232        0.24926        0.24195        0.23862        0.30179        0.28643        0.36143        0.34255        0.28430        0.26683        0.19930        0.27188        0.30744        0.26026        0.18964        0.24523        0.26281        0.18488        0.23152        0.16206        0.09980       -0.49990       -0.80709
2.693771 2.665207 2.636798 2.608543 2.580444 2.552500 2.524710 2.497076 2.469596 2.442272 2.415102 2.388087 2.361228 2.334523 2.307973 2.281578 2.255338 2.229253 2.203323 2.177548 2.151928 2.126463 2.101153 2.075998 2.050997 2.026152 2.001461 1.976926 1.952546 1.928320 1.904249 1.880334 1.856573 1.832967 1.809517 1.786221 1.763080 1.740094 1.717263 1.694587 1.672066 1.649700 1.627489 1.605433 1.583532 1.561785 1.540194 1.518757 1.497476 1.476350 1.455378 1.517980 1.834615 1.499696 1.197781 0.943098 0.549181 0.913063 0.642913 0.847626 0.914201 0.594158 0.676647 0.782160 0.824637 0.614434 0.523010 0.361764 0.093933 0.050273 0.032425 0.043769 0.295458 -0.051104 0.059982 -0.126144 -0.031920 -0.016799 0.051626 0.067284 0.114335 0.182889 0.274404 0.243729 0.468183 0.391782 0.539827 0.533387 0.783234 0.794433 0.891165 0.953797 0.931992 0.964323 1.117380 0.955249 1.140531 0.937382 0.862566 1.006257 0.842343 0.765729 0.658831 0.568410 0.467813 0.428110 0.501278 0.256727 0.194100 0.165146 0.017040 0.186072 -0.022666 0.113237 0.164737 0.248482 0.337657 0.335311 0.440395 0.553115 0.688225 0.530216 0.733663 0.848258 0.626946 0.719523 0.686506 0.581487 0.524758 0.466341 0.316323 0.217341 0.121129 -0.022242 -0.020054 0.041704 -0.066914 -0.043892 0.073385 0.031535 0.095209 0.222621 0.232974 0.325226 0.428290 0.428905 0.458967 0.451173 0.461164 0.333201 0.340893 0.244466 0.052277 0.072780 0.023198 -0.039919 -0.095174 -0.085940 -0.024268 -0.017473 0.088380 0.143087 0.166966 0.249149 0.225200 0.248078 0.285008 0.232885 0.241623 0.214804 0.138558 0.121899 0.136301 0.037733 0.026786 -0.101853 -0.024502 0.006738 0.011334 0.019032 0.128816 0.094753 0.135651 0.200237 0.275757 0.167458 0.220724 0.124707 0.139361 0.044751 -0.019904 0.023059 0.010222 0.010530 0.017847 0.067986 0.069437 0.081415 0.164977 0.141513 0.174533 0.110930 0.211240 0.109437 0.026557 -0.021768 -0.022140 -0.014657 -0.039528 -0.012158 0.079364 0.076498 0.004848 0.119763 0.095192 0.084892 0.176584 0.095250 0.105652 0.068662 -0.014612 0.043618 0.030498 0.030874 0.046034 0.029724 0.067675 0.075143 0.090977 0.056772 0.055016 0.018419 0.097037 0.015833 0.017005 0.042525 0.025823 0.070234 0.057954 0.071240 0.080223 0.042900 0.029848 0.054337 0.014235 -0.045957 -0.023710 -0.007604 0.005632 0.027140 0.103698 -0.020944 0.055801 0.049041 0.005045 0.057188 0.015242 -0.004408 0.007611 0.021342 0.027240 0.086037 0.024364 0.084018 0.062079 0.110220 0.089309 0.080619 0.089801 0.066046 -0.001706 0.068075 0.061994 0.035018 0.105981 0.080545 0.032779 0.073014 0.097697 0.047305 0.027860 -0.062688 0.029420 0.108591 0.087596 0.077344 0.046229 0.011166 0.040897 0.038268 -0.037324 0.043740 0.037768 0.076888 0.062805 -0.032000 -0.010479 0.105178 0.040318 0.044325 0.006644 -0.015850 0.066761 0.127059 0.052990 0.023839 0.053588 0.009837 -0.036595 0.007935 0.006149 -0.037204 -0.108264 -0.039019 -0.014662 0.012341 -0.034770 -0.045862 -0.033937 -0.065626 -0.037906 -0.034021 0.054461 0.018894 0.029258 0.041881 0.097920 -0.071234 -0.073633 -0.043221 -0.047355 0.025607 0.001044 0.084734 -0.053449 0.008544 0.019623 -0.049638 0.032965 0.047027 -0.042066 -0.102918 -0.009782 0.003080 -0.027515 0.045518 0.032544 0.168529 0.086124 0.058457 0.031052 -0.034745 0.016932 0.073211 0.309197 0.230420 0.299563 0.283281 0.232674 0.260633 0.091836 0.124952 -0.947787
0.072396 0.072910 0.074452 0.077022 0.080620 0.085243 0.090891 0.097562 0.105255 0.113965 0.123689 0.134424 0.146162 0.158898 0.172623 0.187328 0.203000 0.219626 0.237191 0.255675 0.275057 0.295313 0.316416 0.338333 0.361030 0.384467 0.408600 0.433380 0.458752 0.484658 0.511032 0.537803 0.564893 0.592219 0.619689 0.647206 0.674666 0.701957 0.728961 0.755551 0.781594 0.806950 0.831473 0.855010 0.877400 0.898479 0.918077 0.936018 0.952124 0.966213 0.978103 0.987608 0.994545 0.998732 0.999989 0.998142 0.993024 0.984476 0.972348 0.956504 0.936821 0.913195 0.885540 0.853789 0.817902 0.777864 0.733687 0.685416 0.633126 0.576931 0.516977 0.453451 0.386580 0.316632 0.243917 0.168785 0.091632 0.012893 0.066955 0.147395 0.227875 0.307806 0.386568 0.463518 0.537985 0.609286 0.676725 0.739605 0.797229 0.848915 0.894002 0.931858 0.961890 0.983555 0.996372 0.999925 0.993882 0.977998 0.952128 0.916233 0.870390 0.814800 0.749789 0.675817 0.593475 0.503491 0.406729 0.304177 0.196952 0.086282 0.026495 0.139957 0.252602 0.362874 0.469180 0.569918 0.663495 0.748359 0.823028 0.886112 0.936351 0.972635 0.994041 0.999854 0.989594 0.963035 0.920230 0.861518 0.787541 0.699238 0.597856 0.484931 0.362282 0.231982 0.096335 0.042166 0.180870 0.317029 0.447842 0.570518 0.682336 0.780710 0.863254 0.927844 0.972685 0.996365 0.997907 0.976818 0.933118 0.867370 0.780689 0.674737 0.551716 0.414326 0.265720 0.109451 0.050621 0.210401 0.365676 0.512217 0.645899 0.762822 0.859436 0.932651 0.979958 0.999521 0.990262 0.951930 0.885138 0.791388 0.673055 0.533350 0.376252 0.206415 0.029037 0.150288 0.325736 0.491449 0.641725 0.771228 0.875188 0.949585 0.991331 0.998411 0.970002 0.906547 0.809788 0.682749 0.529674 0.355905 0.167722 0.027874 0.223402 0.411192 0.583676 0.733710 0.854879 0.941784 0.990315 0.997865 0.963495 0.888038 0.774121 0.626113 0.449996 0.253148 0.044059 0.168016 0.373461 0.562734 0.726816 0.857653 0.948584 0.994702 0.993149 0.943334 0.847028 0.708358 0.533673 0.331296 0.111154 0.115679 0.337532 0.542726 0.720203 0.860139 0.954513 0.997602 0.986373 0.920731 0.803617 0.640934 0.441303 0.215648 0.023367 0.262032 0.486355 0.682906 0.839619 0.946581 0.996687 0.986167 0.914916 0.786609 0.608573 0.391440 0.148546 0.104837 0.352451 0.578085 0.766646 0.905201 0.983905 0.996749 0.942087 0.822859 0.646521 0.424652 0.172245 0.093255 0.353138 0.588725 0.782751 0.920633 0.991634 0.989758 0.914325 0.770161 0.567374 0.320733 0.048645 0.228178 0.488272 0.711087 0.878640 0.977020 0.997605 0.937894 0.801872 0.599843 0.347735 0.065926 0.222362 0.492950 0.722735 0.891686 0.984656 0.992813 0.914568 0.755889 0.529960 0.256173 0.041449 0.336326 0.601673 0.812953 0.950192 0.999937 0.956675 0.823538 0.612209 0.342007 0.038214 0.270238 0.553473 0.783608 0.937512 0.999224 0.961713 0.827779 0.609998 0.329668 0.014811 0.302543 0.589597 0.816194 0.958032 0.999368 0.934877 0.770458 0.522834 0.217990 0.111465 0.429713 0.701632 0.896687 0.992446 0.977272 0.851873 0.629481 0.334609 0.000461 0.334710 0.631965 0.856220 0.980454 0.989091 0.880083 0.665449 0.370102 0.029108 0.316392 0.624111 0.855799 0.982085 0.986322 0.866933 0.637922 0.327393 0.025741 0.376539 0.679738 0.895602 0.995241 0.964610 0.806665 0.541304 0.203035 0.163369 0.508725 0.786007 0.956856 0.996969
1.000000 1.000000 1.000000 1.000000 1.000000 1.000000 1.000000 1.000000 1.000000 1.000000 1.000000 1.000000 1.000000 1.000000 1.000000 1.000000 1.000000 1.000000 1.000000 1.000000 1.000000 1.000000 1.000000 1.000000 1.000000 1.000000 1.000000 1.000000 1.000000 1.000000 1.000000 1.000000 1.000000 1.000000 1.000000 1.000000 1.000000 1.000000 1.000000 1.000000 1.000000 1.000000 1.000000 1.000000 1.000000 1.000000 1.000000 1.000000 1.000000 1.000000 1.000000 1.000000 0.912130 0.912130 0.901530 0.901530 0.901530 0.901530 0.901530 0.901530 0.901530 0.901530 0.901530 0.901530 0.901530 0.901530 0.901530 0.901530 0.901530 0.901530 0.901530 0.901530 0.901530 0.901530 0.901530 0.901530 0.901530 0.901530 0.901530 0.901530 0.901530 0.901530 0.901530 0.901530 0.901530 0.901530 0.901530 0.901530 0.901530 0.901530 0.901530 0.901530 0.901530 0.901530 0.901530 0.897580 0.902576 0.905150 0.903693 0.907285 0.907350 0.905239 0.904692 0.904329 0.904675 0.906125 0.916660 0.931176 0.938637 0.940934 0.946003 0.950283 0.952662 0.953421 0.957078 0.967095 0.964452 0.963984 0.964709 0.966243 0.968406 0.968620 0.970017 0.969157 0.969865 0.969981 0.969560 0.968962 0.968374 0.968485 0.968126 0.968010 0.969090 0.969573 0.969150 0.968789 0.968933 0.966893 0.965498 0.960790 0.963439 0.964797 0.964695 0.963358 0.960969 0.964749 0.965070 0.964825 0.964825 0.964489 0.964822 0.950403 0.944997 0.945111 0.938504 0.937435 0.934456 0.933295 0.932474 0.933387 0.934146 0.935376 0.931195 0.919794 0.909461 0.891827 0.913800 0.905565 0.887094 0.866433 0.864278 0.859913 0.859775 0.853074 0.844281 0.840233 0.837264 0.839626 0.845222 0.850395 0.847486 0.838926 0.841432 0.835001 0.798304 0.787969 0.776835 0.769245 0.768315 0.769753 0.765629 0.760958 0.769584 0.760814 0.757060 0.748689 0.736875 0.715483 0.705278 0.711356 0.719054 0.732021 0.725856 0.698377 0.647224 0.663460 0.684052 0.687382 0.689596 0.687102 0.679880 0.683872 0.685974 0.681867 0.678979 0.679861 0.679630 0.687697 0.690051 0.676195 0.671387 0.662215 0.648487 0.624028 0.636458 0.646012 0.624006 0.619638 0.610496 0.605111 0.610816 0.612651 0.613355 0.587147 0.571343 0.565613 0.562159 0.566124 0.573420 0.574331 0.563467 0.584144 0.571076 0.596048 0.569592 0.564464 0.565078 0.575220 0.561506 0.557753 0.558186 0.557099 0.558581 0.576724 0.582813 0.568530 0.563279 0.557755 0.568508 0.555244 0.569980 0.600763 0.578833 0.529810 0.491485 0.488489 0.453750 0.446560 0.408441 0.384022 0.397977 0.378312 0.370897 0.354209 0.348442 0.315401 0.276755 0.259132 0.253677 0.268924 0.295013 0.291034 0.285401 0.316625 0.356627 0.359428 0.349889 0.321484 0.290731 0.242898 0.226928 0.236296 0.197129 0.201005 0.187541 0.190507 0.190980 0.143436 0.185373 0.094514 0.077328 0.079238 0.103035 0.082869 0.079899 0.079625 0.045394 0.050131 0.050934 0.019263 0.013254 0.027376 0.000005 0.002261 0.017190 0.025413 0.023698 -0.009837 -0.006637 -0.006475 -0.001577 -0.013661 -0.015605 0.024936 0.065695 0.070109 0.076487 0.074931 0.066736 0.068235 0.066505 0.027731 0.008931 -0.034652 -0.059720 -0.059720 -0.042346 -0.042346 -0.042346 -0.042346 -0.042346 -0.042346 -0.042346 -0.042346 -0.042346 -0.043718 -0.043718 -0.043718 -0.043718 -0.043718 -0.043718 -0.043718 -0.043718 -0.043718 -0.033840 -0.033840 -0.033840 -0.033840 -0.033840 -0.033840 -0.033840 -0.033840 -0.033840
0.000000 0.000000 0.000000 0.000000 0.000000 0.000000 0.000000 0.000000 0.000000 0.000000 0.000000 0.000000 0.000000 0.000000 0.000000 0.000000 0.000000 0.000000 0.000000 0.000000 0.000000 0.000000 0.000000 0.000000 0.000000 0.000000 0.000000 0.000000 0.000000 0.000000 0.000000 0.000000 0.000000 0.000000 0.000000 0.000000 0.000000 0.000000 0.000000 0.000000 0.000000 0.000000 0.000000 0.000000 0.000000 0.000000 0.000000 0.000000 0.000000 0.000000 0.000000 0.000000 0.181818 0.181818 0.199007 0.199007 0.199007 0.199007 0.199007 0.199007 0.199007 0.199007 0.199007 0.199007 0.199007 0.199007 0.199007 0.199007 0.199007 0.199007 0.199007 0.199007 0.199007 0.199007 0.199007 0.199007 0.199007 0.199007 0.199007 0.199007 0.199007 0.199007 0.199007 0.199007 0.199007 0.199007 0.199007 0.199007 0.199007 0.199007 0.199007 0.199007 0.199007 0.199007 0.199007 0.230940 0.230940 0.230940 0.230940 0.230940 0.230940 0.230940 0.230940 0.230940 0.230940 0.230940 0.230940 0.230940 0.230940 0.230940 0.230940 0.230940 0.230940 0.230940 0.230940 0.230940 0.230940 0.230940 0.230940 0.230940 0.230940 0.230940 0.230940 0.244339 0.244339 0.244339 0.244339 0.244339 0.244339 0.244339 0.244339 0.244339 0.244339 0.244339 0.244339 0.244339 0.244339 0.244339 0.244339 0.244339 0.244339 0.244339 0.244339 0.244339 0.244339 0.244339 0.251976 0.251976 0.251976 0.251976 0.251976 0.251976 0.251976 0.251976 0.251976 0.251976 0.251976 0.251976 0.251976 0.251976 0.251976 0.251976 0.251976 0.251976 0.251976 0.251976 0.264906 0.264906 0.264906 0.264906 0.264906 0.264906 0.264906 0.264906 0.264906 0.264906 0.264906 0.264906 0.264906 0.264906 0.264906 0.264906 0.264906 0.264906 0.264906 0.264906 0.264906 0.264906 0.264906 0.264906 0.264906 0.264906 0.264906 0.264906 0.264906 0.264906 0.264906 0.264906 0.264906 0.264906 0.264906 0.264906 0.264906 0.264906 0.264906 0.264906 0.264906 0.264906 0.264906 0.264906 0.264906 0.264906 0.264906 0.264906 0.264906 0.264906 0.264906 0.264906 0.264906 0.264906 0.264906 0.264906 0.264906 0.264906 0.264906 0.264906 0.264906 0.264906 0.264906 0.264906 0.264906 0.264906 0.264906 0.264906 0.264906 0.264906 0.264906 0.264906 0.264906 0.264906 0.264906 0.269680 0.269680 0.269680 0.269680 0.269680 0.269680 0.269680 0.269680 0.269680 0.269680 0.269680 0.269680 0.264906 0.264906 0.264906 0.264906 0.264906 0.264906 0.264906 0.264906 0.264906 0.264906 0.264906 0.264906 0.269680 0.269680 0.269680 0.269680 0.269680 0.269680 0.269680 0.269680 0.269680 0.269680 0.269680 0.264906 0.264906 0.264906 0.264906 0.264906 0.264906 0.264906 0.264906 0.264906 0.264906 0.264906 0.256074 0.256074 0.256074 0.256074 0.256074 0.256074 0.256074 0.256074 0.256074 0.256074 0.256074 0.264906 0.264906 0.264906 0.264906 0.264906 0.264906 0.264906 0.264906 0.264906 0.264906 0.269680 0.269680 0.269680 0.269680 0.269680 0.269680 0.269680 0.269680 0.269680 0.256074 0.256074 0.256074 0.256074 0.256074 0.256074 0.256074 0.256074 0.256074 0.256074 0.260378 0.260378 0.260378 0.260378 0.260378 0.260378 0.260378 0.260378 0.260378 0.256074 0.256074 0.256074 0.256074 0.256074 0.256074 0.256074 0.256074 0.256074 0.251976 0.251976 0.251976 0.251976 0.251976 0.251976 0.251976 0.251976 0.251976 0.264906 0.264906 0.264906 0.264906 0.264906 0.264906 0.264906 0.264906 0.264906
