# Output from CTFFind version 4.1.9, run on 2019-11-03 20:04:20
# Input file: stack16_bm3d_averaged_1_7.5_0_250_half.mrc ; Number of micrographs: 1
# Pixel size: 3.000 Angstroms ; acceleration voltage: 300.0 keV ; spherical aberration: 0.00 mm ; amplitude contrast: 0.07
# Box size: 512 pixels ; min. res.: 30.0 Angstroms ; max. res.: 5.0 Angstroms ; min. def.: 5000.0 um; max. def. 50000.0 um; num. frames averaged: 1
# 6 lines per micrograph: #1 - spatial frequency (1/Angstroms); #2 - 1D rotational average of spectrum (assuming no astigmatism); #3 - 1D rotational average of spectrum; #4 - CTF fit; #5 - cross-correlation between spectrum and CTF fit; #6 - 2sigma of expected cross correlation of noise
0.000000 0.000651 0.001302 0.001953 0.002604 0.003255 0.003906 0.004557 0.005208 0.005859 0.006510 0.007161 0.007812 0.008464 0.009115 0.009766 0.010417 0.011068 0.011719 0.012370 0.013021 0.013672 0.014323 0.014974 0.015625 0.016276 0.016927 0.017578 0.018229 0.018880 0.019531 0.020182 0.020833 0.021484 0.022135 0.022786 0.023438 0.024089 0.024740 0.025391 0.026042 0.026693 0.027344 0.027995 0.028646 0.029297 0.029948 0.030599 0.031250 0.031901 0.032552 0.033203 0.033854 0.034505 0.035156 0.035807 0.036458 0.037109 0.037760 0.038411 0.039062 0.039714 0.040365 0.041016 0.041667 0.042318 0.042969 0.043620 0.044271 0.044922 0.045573 0.046224 0.046875 0.047526 0.048177 0.048828 0.049479 0.050130 0.050781 0.051432 0.052083 0.052734 0.053385 0.054036 0.054688 0.055339 0.055990 0.056641 0.057292 0.057943 0.058594 0.059245 0.059896 0.060547 0.061198 0.061849 0.062500 0.063151 0.063802 0.064453 0.065104 0.065755 0.066406 0.067057 0.067708 0.068359 0.069010 0.069661 0.070312 0.070964 0.071615 0.072266 0.072917 0.073568 0.074219 0.074870 0.075521 0.076172 0.076823 0.077474 0.078125 0.078776 0.079427 0.080078 0.080729 0.081380 0.082031 0.082682 0.083333 0.083984 0.084635 0.085286 0.085938 0.086589 0.087240 0.087891 0.088542 0.089193 0.089844 0.090495 0.091146 0.091797 0.092448 0.093099 0.093750 0.094401 0.095052 0.095703 0.096354 0.097005 0.097656 0.098307 0.098958 0.099609 0.100260 0.100911 0.101562 0.102214 0.102865 0.103516 0.104167 0.104818 0.105469 0.106120 0.106771 0.107422 0.108073 0.108724 0.109375 0.110026 0.110677 0.111328 0.111979 0.112630 0.113281 0.113932 0.114583 0.115234 0.115885 0.116536 0.117188 0.117839 0.118490 0.119141 0.119792 0.120443 0.121094 0.121745 0.122396 0.123047 0.123698 0.124349 0.125000 0.125651 0.126302 0.126953 0.127604 0.128255 0.128906 0.129557 0.130208 0.130859 0.131510 0.132161 0.132812 0.133464 0.134115 0.134766 0.135417 0.136068 0.136719 0.137370 0.138021 0.138672 0.139323 0.139974 0.140625 0.141276 0.141927 0.142578 0.143229 0.143880 0.144531 0.145182 0.145833 0.146484 0.147135 0.147786 0.148438 0.149089 0.149740 0.150391 0.151042 0.151693 0.152344 0.152995 0.153646 0.154297 0.154948 0.155599 0.156250 0.156901 0.157552 0.158203 0.158854 0.159505 0.160156 0.160807 0.161458 0.162109 0.162760 0.163411 0.164062 0.164714 0.165365 0.166016 0.166667 0.167318 0.167969 0.168620 0.169271 0.169922 0.170573 0.171224 0.171875 0.172526 0.173177 0.173828 0.174479 0.175130 0.175781 0.176432 0.177083 0.177734 0.178385 0.179036 0.179688 0.180339 0.180990 0.181641 0.182292 0.182943 0.183594 0.184245 0.184896 0.185547 0.186198 0.186849 0.187500 0.188151 0.188802 0.189453 0.190104 0.190755 0.191406 0.192057 0.192708 0.193359 0.194010 0.194661 0.195312 0.195964 0.196615 0.197266 0.197917 0.198568 0.199219 0.199870 0.200521 0.201172 0.201823 0.202474 0.203125 0.203776 0.204427 0.205078 0.205729 0.206380 0.207031 0.207682 0.208333 0.208984 0.209635 0.210286 0.210938 0.211589 0.212240 0.212891 0.213542 0.214193 0.214844 0.215495 0.216146 0.216797 0.217448 0.218099 0.218750 0.219401 0.220052 0.220703 0.221354 0.222005 0.222656 0.223307 0.223958 0.224609 0.225260 0.225911 0.226562 0.227214 0.227865 0.228516 0.229167 0.229818 0.230469 0.231120 0.231771 0.232422 0.233073 0.233724 0.234375 0.235026 0.235677
       0.36317        0.36317        0.36317        0.36317        0.36317        0.36317        0.36317        0.36317        0.36317        0.36317        0.36317        0.36317        0.36317        0.36317        0.36317        0.36317        0.36317        0.36317        0.36317        0.36317        0.36317        0.36317        0.36317        0.36317        0.36317        0.36317        0.36317        0.36317        0.36317        0.36317        0.36317        0.36317        0.36317        0.36317        0.36317        0.36317        0.36317        0.36317        0.36317        0.36317        0.36317        0.36317        0.36317        0.36317        0.36317        0.36317        0.36317        0.36317        0.36317        0.36317        0.36318        0.43974        0.56141        0.34784       -0.21492       -0.44206       -0.53132       -0.63560       -0.70207       -0.70522       -0.79652       -0.87469       -0.66324       -0.81439       -0.80184       -0.93948       -0.98034       -0.86179       -0.82138       -0.78284       -0.68947       -0.62176       -0.53078       -0.43907       -0.37615       -0.14896       -0.04846        0.05950        0.27736        0.26958        0.32971        0.37888        0.41350        0.53987        0.54776        0.58262        0.53921        0.48353        0.51376        0.54427        0.46897        0.34394        0.23279        0.19751        0.12368        0.03504        0.01805        0.00804        0.07808        0.04465        0.09577        0.06844        0.18671        0.21141        0.41822        0.46919        0.55323        0.66137        0.68679        0.71567        0.64760        0.61726        0.55932        0.45341        0.39956        0.29712        0.23377        0.23241        0.12064        0.13566        0.14144        0.10645        0.11165        0.31459        0.43067        0.53777        0.54020        0.56970        0.60996        0.59207        0.57376        0.59176        0.57612        0.47983        0.32421        0.28127        0.27622        0.17752        0.10945        0.18931        0.23675        0.30402        0.36452        0.43936        0.48484        0.54014        0.60883        0.55483        0.50951        0.52042        0.36808        0.30231        0.27929        0.19373        0.22852        0.26090        0.29698        0.29872        0.34761        0.44366        0.47657        0.50542        0.46171        0.45065        0.49926        0.40983        0.33884        0.30084        0.27920        0.24984        0.23746        0.25129        0.35374        0.46351        0.44776        0.49412        0.56022        0.46585        0.42562        0.36822        0.33590        0.29268        0.29689        0.28332        0.30374        0.37748        0.38379        0.45554        0.47979        0.45367        0.47716        0.39427        0.38980        0.36219        0.28987        0.27033        0.27066        0.35616        0.39154        0.37373        0.39850        0.44092        0.45591        0.39813        0.34825        0.33665        0.36666        0.33224        0.29994        0.30668        0.37448        0.39076        0.41015        0.39858        0.40752        0.43390        0.42040        0.33987        0.30299        0.32260        0.35265        0.40286        0.37639        0.41347        0.36057        0.38102        0.40333        0.35576        0.36544        0.33449        0.31824        0.35020        0.36181        0.34507        0.37981        0.39386        0.34191        0.36186        0.33794        0.32948        0.31754        0.33548        0.34277        0.33878        0.37971        0.39017        0.37598        0.32072        0.31655        0.30077        0.34555        0.33096        0.32807        0.38358        0.36765        0.35245        0.33059        0.31925        0.31491        0.29132        0.33475        0.34928        0.36489        0.38363        0.36857        0.33676        0.35469        0.37602        0.35319        0.36527        0.35909        0.33025        0.34513        0.30479        0.32998        0.31624        0.32825        0.29680        0.33617        0.36178        0.33869        0.37105        0.32982        0.35069        0.36825        0.35240        0.33362        0.34869        0.38363        0.35922        0.37246        0.34591        0.32458        0.33942        0.32840        0.34250        0.34075        0.38040        0.33694        0.33846        0.31108        0.31200        0.28656        0.29382        0.37468        0.32487        0.33351        0.30306        0.27626        0.28467        0.37380        0.31658        0.29880        0.34084        0.32951        0.30098        0.26535        0.30655        0.28312        0.31971        0.32215        0.35928        0.34899        0.33587        0.33018        0.27896        0.29884        0.30102        0.30239        0.31706        0.36769        0.31349        0.22645        0.31618        0.32055        0.35044        0.28683        0.30469        0.28149        0.33096        0.28769        0.27448        0.28844        0.25526        0.31734        0.33335        0.32014        0.27294        0.33941        0.28772        0.24829        0.24134        0.33155        0.25698        0.15686        0.11316        0.19907        0.35847        0.29075        0.20131        0.17200       -0.35623       -0.53353
3.275015 3.233158 3.191573 3.150262 3.109223 3.068457 3.027963 2.987742 2.947794 2.908120 2.868717 2.829588 2.790731 2.752147 2.713836 2.675797 2.638032 2.600539 2.563319 2.526371 2.489697 2.453295 2.417166 2.381310 2.345727 2.310416 2.275378 2.240613 2.206121 2.171902 2.137955 2.104281 2.070880 2.037751 2.004896 1.972313 1.940003 1.907966 1.876201 1.844710 1.813491 1.782545 1.751871 1.721471 1.691343 1.661488 1.631906 1.602596 1.573560 1.544796 1.516305 1.553154 1.616845 1.557231 0.844245 0.605300 0.466624 0.395992 0.298382 0.227991 0.197382 -0.046577 0.216911 0.084519 -0.023542 -0.098804 -0.234148 -0.139034 -0.045577 -0.093770 -0.067011 0.041248 0.043812 0.237345 0.111430 0.361456 0.465852 0.504465 0.779507 0.681884 0.702465 0.821095 0.795374 0.849952 0.923534 0.851718 0.883094 0.725828 0.781564 0.844924 0.693793 0.604977 0.431562 0.429633 0.320950 0.195137 0.189138 0.111672 0.207643 0.118859 0.205233 0.103879 0.213267 0.225368 0.428957 0.394032 0.560520 0.598451 0.613187 0.709679 0.596475 0.561535 0.454183 0.406410 0.276999 0.256089 0.084614 0.143346 -0.035593 0.033067 -0.030604 -0.049164 -0.067754 0.015468 0.250586 0.284195 0.344222 0.280238 0.367458 0.373582 0.394960 0.376268 0.347795 0.314296 0.111144 0.062625 0.057539 -0.029211 -0.154371 -0.066681 -0.066008 0.029673 0.066035 0.138075 0.198829 0.213906 0.306570 0.394453 0.266367 0.356600 0.217159 0.143463 0.061204 0.029340 -0.000525 0.054271 0.067394 0.087459 0.116896 0.165044 0.234148 0.297329 0.259059 0.201297 0.247123 0.221291 0.106383 0.047044 0.056534 0.020875 0.003951 -0.035353 0.028207 0.164454 0.197621 0.182619 0.290069 0.184458 0.193137 0.070243 0.062332 0.020037 -0.005975 -0.009065 -0.012648 0.047209 0.082231 0.104338 0.157293 0.137880 0.222775 0.141484 0.076708 0.098016 0.037553 -0.045420 -0.014899 0.031019 0.073139 0.070046 0.062673 0.148672 0.112002 0.153093 0.037653 0.042936 0.046405 0.043940 0.027742 -0.018433 0.040288 0.055085 0.092949 0.098415 0.083473 0.113788 0.121116 0.079626 0.009496 -0.013750 0.015785 0.072944 0.080320 0.085661 0.081198 0.053998 0.097820 0.065848 0.041022 0.070536 -0.008463 0.009832 0.068352 0.040516 0.044467 0.077052 0.084216 0.046630 0.067384 0.020291 0.018091 0.014885 0.056804 0.021353 0.036736 0.076937 0.080053 0.046638 -0.004567 -0.000716 -0.019139 0.047947 0.002326 0.011975 0.073871 0.042060 0.006933 0.014682 -0.018197 0.002224 -0.035871 0.011353 0.025084 0.051835 0.044503 0.033591 0.004969 0.008174 0.049340 0.012376 0.033412 0.010572 -0.009708 0.012984 -0.042023 -0.032333 -0.050554 -0.011819 -0.070749 0.009033 0.007982 -0.005532 -0.011940 -0.003881 -0.003743 0.027673 0.006634 -0.011934 0.015578 0.026908 0.026934 0.036677 0.000102 0.006920 0.011772 -0.009495 0.016221 -0.005065 0.097818 0.025368 0.017912 0.004971 -0.006679 -0.025391 0.006326 0.074277 0.001779 0.042267 -0.026430 -0.025284 -0.022637 0.088608 0.002871 -0.026083 0.073641 0.051829 0.000602 -0.003015 0.008584 0.008442 0.047411 0.040396 0.104580 0.043273 0.057358 0.044940 -0.006543 0.025541 0.005014 0.002485 0.025615 0.080963 -0.002695 -0.074009 0.033299 0.014899 0.080040 -0.038395 -0.006585 -0.017491 0.012272 -0.008542 -0.036044 -0.003199 -0.067726 0.050905 0.033121 0.046809 -0.101681 0.052009 0.036929 -0.006769 -0.055014 0.104436 0.024414 -0.054266 -0.140513 0.170100 0.359846 0.246946 0.134031 0.172257 -0.515243
0.072396 0.073047 0.074998 0.078249 0.082800 0.088648 0.095791 0.104227 0.113951 0.124959 0.137243 0.150796 0.165608 0.181664 0.198951 0.217450 0.237138 0.257989 0.279974 0.303056 0.327194 0.352342 0.378446 0.405444 0.433270 0.461845 0.491086 0.520897 0.551175 0.581805 0.612662 0.643612 0.674506 0.705188 0.735486 0.765221 0.794200 0.822219 0.849065 0.874513 0.898330 0.920274 0.940096 0.957541 0.972349 0.984259 0.993009 0.998338 0.999991 0.997719 0.991284 0.980463 0.965048 0.944854 0.919719 0.889513 0.854135 0.813525 0.767663 0.716576 0.660340 0.599085 0.532997 0.462325 0.387380 0.308539 0.226245 0.141009 0.053410 0.035906 0.126230 0.216790 0.306761 0.395263 0.481377 0.564148 0.642595 0.715727 0.782551 0.842090 0.893394 0.935561 0.967753 0.989210 0.999273 0.997402 0.983189 0.956380 0.916889 0.864813 0.800445 0.724281 0.637032 0.539622 0.433191 0.319088 0.198865 0.074260 0.052823 0.180335 0.306118 0.427930 0.543495 0.650538 0.746838 0.830275 0.898882 0.950899 0.984822 0.999458 0.993967 0.967906 0.921267 0.854498 0.768529 0.664772 0.545121 0.411933 0.267994 0.116479 0.039118 0.195046 0.347389 0.492161 0.625412 0.743343 0.842416 0.919479 0.971874 0.997542 0.995124 0.964034 0.904524 0.817716 0.705621 0.571113 0.417888 0.250381 0.073656 0.106728 0.284890 0.454807 0.610525 0.746373 0.857182 0.938498 0.986784 0.999599 0.975739 0.915348 0.819975 0.692581 0.537483 0.360248 0.167519 0.033206 0.233855 0.426098 0.601689 0.752832 0.872551 0.955028 0.995918 0.992619 0.944465 0.852836 0.721190 0.554983 0.361486 0.149513 0.070955 0.289218 0.494369 0.675847 0.823992 0.930594 0.989383 0.996443 0.950517 0.853189 0.708898 0.524814 0.310532 0.077628 0.160942 0.391537 0.600608 0.775513 0.905304 0.981466 0.998523 0.954496 0.851153 0.694041 0.492266 0.258040 0.005988 0.247713 0.486371 0.693869 0.855787 0.960445 0.999812 0.970195 0.872645 0.713058 0.501907 0.253649 0.014206 0.282276 0.530704 0.740625 0.895643 0.983167 0.995516 0.930681 0.792673 0.591392 0.342037 0.064036 0.220404 0.488039 0.716492 0.886154 0.981949 0.994747 0.922350 0.769899 0.549643 0.280093 0.015463 0.310880 0.579474 0.796417 0.941116 0.999239 0.964257 0.838291 0.632172 0.364653 0.060830 0.250149 0.537813 0.773375 0.932677 0.998744 0.963743 0.830031 0.610215 0.326121 0.006758 0.314553 0.603621 0.829040 0.965679 0.997606 0.920094 0.740456 0.477561 0.160005 0.176852 0.494773 0.756973 0.932424 0.999661 0.949558 0.786742 0.529405 0.207463 0.140774 0.473066 0.748369 0.931943 0.999878 0.942380 0.765374 0.490158 0.151034 0.208804 0.542674 0.806488 0.964637 0.994959 0.892053 0.668418 0.353197 0.011408 0.375663 0.689005 0.907136 0.998390 0.948552 0.763301 0.467872 0.103862 0.276439 0.617474 0.868552 0.991500 0.966678 0.796364 0.504925 0.135612 0.255672 0.608696 0.868216 0.992723 0.961311 0.777468 0.469066 0.084430 0.315018 0.664472 0.906282 0.999623 0.927641 0.700804 0.355725 0.050428 0.449214 0.772414 0.963741 0.988884 0.841954 0.547134 0.155037 0.265674 0.640219 0.900953 0.999793 0.917343 0.667066 0.293483 0.135423 0.540344 0.845315 0.992069 0.951447 0.729561 0.367344 0.066632 0.488892 0.817041 0.985956 0.960983 0.745429 0.380673 0.061402 0.492283 0.824482 0.989413 0.951861 0.717893 0.334409 0.119824 0.550126 0.865533 0.998226 0.918416 0.641495 0.225562 0.240327 0.655036
1.000000 1.000000 1.000000 1.000000 1.000000 1.000000 1.000000 1.000000 1.000000 1.000000 1.000000 1.000000 1.000000 1.000000 1.000000 1.000000 1.000000 1.000000 1.000000 1.000000 1.000000 1.000000 1.000000 1.000000 1.000000 1.000000 1.000000 1.000000 1.000000 1.000000 1.000000 1.000000 1.000000 1.000000 1.000000 1.000000 1.000000 1.000000 1.000000 1.000000 1.000000 1.000000 1.000000 1.000000 1.000000 1.000000 1.000000 1.000000 1.000000 1.000000 1.000000 1.000000 0.924158 0.924158 0.924158 0.924158 0.924158 0.924158 0.924158 0.924158 0.924158 0.924158 0.924158 0.924158 0.924158 0.924158 0.924158 0.924158 0.924158 0.924158 0.924158 0.924158 0.924158 0.924158 0.924158 0.924158 0.924158 0.924158 0.924158 0.924158 0.924158 0.924158 0.924158 0.924158 0.924158 0.913234 0.911348 0.912499 0.911040 0.909602 0.909013 0.908619 0.909657 0.911257 0.913337 0.934982 0.938084 0.939329 0.940657 0.942034 0.944323 0.942156 0.946044 0.952118 0.950980 0.952241 0.952446 0.952990 0.952327 0.951581 0.953972 0.953147 0.951462 0.949465 0.947790 0.947230 0.947001 0.950636 0.951112 0.951263 0.951844 0.951781 0.952498 0.953092 0.951192 0.953415 0.945483 0.944199 0.949518 0.947484 0.948905 0.948865 0.949557 0.950345 0.950654 0.950896 0.947643 0.947151 0.946165 0.940138 0.932932 0.933284 0.935085 0.937314 0.934443 0.932533 0.934044 0.935489 0.934370 0.937555 0.929079 0.925152 0.898410 0.884361 0.876249 0.876319 0.880722 0.883367 0.881220 0.876242 0.868640 0.865420 0.864331 0.865598 0.856919 0.859540 0.859498 0.854792 0.858099 0.861265 0.866505 0.864962 0.860971 0.856097 0.850670 0.838913 0.839723 0.841978 0.846194 0.828088 0.815597 0.831674 0.824830 0.816741 0.824553 0.826475 0.824158 0.822912 0.823124 0.820931 0.814260 0.805926 0.809688 0.818762 0.820980 0.811958 0.809458 0.809072 0.808659 0.803503 0.808979 0.811433 0.808005 0.800090 0.817648 0.789946 0.808600 0.810030 0.790880 0.775564 0.764123 0.771812 0.780158 0.772743 0.770426 0.781258 0.781231 0.775572 0.755170 0.736695 0.744351 0.742590 0.733448 0.722017 0.728745 0.722271 0.720235 0.718013 0.721667 0.720016 0.698542 0.711821 0.716678 0.712262 0.724799 0.728028 0.719103 0.722149 0.726307 0.727209 0.726322 0.701676 0.704946 0.638101 0.629299 0.596041 0.593171 0.586485 0.531521 0.535998 0.521350 0.507503 0.507787 0.469635 0.518119 0.422680 0.410286 0.433685 0.361692 0.337127 0.355718 0.357232 0.369969 0.367728 0.366646 0.371796 0.352670 0.324062 0.294711 0.321373 0.335488 0.318206 0.319334 0.291212 0.282114 0.228686 0.244079 0.248429 0.279615 0.281439 0.267495 0.286636 0.329177 0.267137 0.253051 0.230863 0.257310 0.261187 0.251829 0.241199 0.263435 0.202547 0.213596 0.229173 0.231044 0.282911 0.308667 0.321732 0.319723 0.328052 0.357333 0.313868 0.321877 0.328900 0.320210 0.348986 0.352196 0.363274 0.360474 0.393955 0.395511 0.403427 0.410234 0.434109 0.458553 0.433939 0.418159 0.373773 0.390304 0.382061 0.396861 0.342815 0.321803 0.321094 0.290706 0.243869 0.245029 0.244014 0.199344 0.197336 0.182065 0.150944 0.149757 0.158809 0.181644 0.153306 0.165683 0.169911 0.169911 0.169911 0.169911 0.169911 0.169911 0.169911 0.169911 0.169911 0.169911 0.169911 0.169911 0.169911 0.169911 0.190947 0.190947 0.190947 0.190947 0.190947 0.190947 0.190947 0.190947 0.190947 0.190947 0.190947 0.190947
0.000000 0.000000 0.000000 0.000000 0.000000 0.000000 0.000000 0.000000 0.000000 0.000000 0.000000 0.000000 0.000000 0.000000 0.000000 0.000000 0.000000 0.000000 0.000000 0.000000 0.000000 0.000000 0.000000 0.000000 0.000000 0.000000 0.000000 0.000000 0.000000 0.000000 0.000000 0.000000 0.000000 0.000000 0.000000 0.000000 0.000000 0.000000 0.000000 0.000000 0.000000 0.000000 0.000000 0.000000 0.000000 0.000000 0.000000 0.000000 0.000000 0.000000 0.000000 0.000000 0.209657 0.209657 0.209657 0.209657 0.209657 0.209657 0.209657 0.209657 0.209657 0.209657 0.209657 0.209657 0.209657 0.209657 0.209657 0.209657 0.209657 0.209657 0.209657 0.209657 0.209657 0.209657 0.209657 0.209657 0.209657 0.209657 0.209657 0.209657 0.209657 0.209657 0.209657 0.209657 0.209657 0.244339 0.244339 0.244339 0.244339 0.244339 0.244339 0.244339 0.244339 0.244339 0.244339 0.244339 0.244339 0.244339 0.244339 0.244339 0.244339 0.244339 0.244339 0.244339 0.244339 0.244339 0.244339 0.244339 0.244339 0.244339 0.260378 0.260378 0.260378 0.260378 0.260378 0.260378 0.260378 0.260378 0.260378 0.260378 0.260378 0.260378 0.260378 0.260378 0.260378 0.260378 0.260378 0.260378 0.260378 0.260378 0.269680 0.269680 0.269680 0.269680 0.269680 0.269680 0.269680 0.269680 0.269680 0.269680 0.269680 0.269680 0.269680 0.269680 0.269680 0.269680 0.269680 0.269680 0.269680 0.269680 0.269680 0.269680 0.269680 0.269680 0.269680 0.269680 0.269680 0.269680 0.269680 0.269680 0.269680 0.269680 0.269680 0.280056 0.280056 0.280056 0.280056 0.280056 0.280056 0.280056 0.280056 0.280056 0.280056 0.280056 0.280056 0.280056 0.280056 0.280056 0.280056 0.280056 0.280056 0.280056 0.280056 0.280056 0.280056 0.280056 0.280056 0.280056 0.280056 0.280056 0.274721 0.274721 0.274721 0.274721 0.274721 0.274721 0.274721 0.274721 0.274721 0.274721 0.274721 0.274721 0.274721 0.285714 0.285714 0.285714 0.285714 0.285714 0.285714 0.285714 0.285714 0.285714 0.285714 0.285714 0.280056 0.280056 0.280056 0.280056 0.280056 0.280056 0.280056 0.280056 0.280056 0.280056 0.280056 0.274721 0.274721 0.274721 0.274721 0.274721 0.274721 0.274721 0.274721 0.274721 0.274721 0.274721 0.280056 0.280056 0.280056 0.280056 0.280056 0.280056 0.280056 0.280056 0.280056 0.280056 0.285714 0.285714 0.285714 0.285714 0.285714 0.285714 0.285714 0.285714 0.285714 0.269680 0.269680 0.269680 0.269680 0.269680 0.269680 0.269680 0.269680 0.269680 0.269680 0.274721 0.274721 0.274721 0.274721 0.274721 0.274721 0.274721 0.274721 0.274721 0.285714 0.285714 0.285714 0.285714 0.285714 0.285714 0.285714 0.285714 0.264906 0.264906 0.264906 0.264906 0.264906 0.264906 0.264906 0.264906 0.264906 0.274721 0.274721 0.274721 0.274721 0.274721 0.274721 0.274721 0.274721 0.269680 0.269680 0.269680 0.269680 0.269680 0.269680 0.269680 0.269680 0.269680 0.269680 0.269680 0.269680 0.269680 0.269680 0.269680 0.269680 0.280056 0.280056 0.280056 0.280056 0.280056 0.280056 0.280056 0.260378 0.260378 0.260378 0.260378 0.260378 0.260378 0.260378 0.260378 0.269680 0.269680 0.269680 0.269680 0.269680 0.269680 0.269680 0.264906 0.264906 0.264906 0.264906 0.264906 0.264906 0.264906 0.264906 0.264906 0.264906 0.264906 0.264906 0.264906 0.264906 0.260378 0.260378 0.260378 0.260378 0.260378 0.260378 0.260378 0.260378 0.260378 0.260378 0.260378 0.260378
