# Output from CTFFind version 4.1.9, run on 2019-11-03 19:37:05
# Input file: stack1_bm3d_averaged_1_4.25_0_3000_half.mrc ; Number of micrographs: 1
# Pixel size: 3.000 Angstroms ; acceleration voltage: 300.0 keV ; spherical aberration: 0.00 mm ; amplitude contrast: 0.07
# Box size: 512 pixels ; min. res.: 30.0 Angstroms ; max. res.: 5.0 Angstroms ; min. def.: 5000.0 um; max. def. 50000.0 um; num. frames averaged: 1
# 6 lines per micrograph: #1 - spatial frequency (1/Angstroms); #2 - 1D rotational average of spectrum (assuming no astigmatism); #3 - 1D rotational average of spectrum; #4 - CTF fit; #5 - cross-correlation between spectrum and CTF fit; #6 - 2sigma of expected cross correlation of noise
0.000000 0.000651 0.001302 0.001953 0.002604 0.003255 0.003906 0.004557 0.005208 0.005859 0.006510 0.007161 0.007812 0.008464 0.009115 0.009766 0.010417 0.011068 0.011719 0.012370 0.013021 0.013672 0.014323 0.014974 0.015625 0.016276 0.016927 0.017578 0.018229 0.018880 0.019531 0.020182 0.020833 0.021484 0.022135 0.022786 0.023438 0.024089 0.024740 0.025391 0.026042 0.026693 0.027344 0.027995 0.028646 0.029297 0.029948 0.030599 0.031250 0.031901 0.032552 0.033203 0.033854 0.034505 0.035156 0.035807 0.036458 0.037109 0.037760 0.038411 0.039062 0.039714 0.040365 0.041016 0.041667 0.042318 0.042969 0.043620 0.044271 0.044922 0.045573 0.046224 0.046875 0.047526 0.048177 0.048828 0.049479 0.050130 0.050781 0.051432 0.052083 0.052734 0.053385 0.054036 0.054688 0.055339 0.055990 0.056641 0.057292 0.057943 0.058594 0.059245 0.059896 0.060547 0.061198 0.061849 0.062500 0.063151 0.063802 0.064453 0.065104 0.065755 0.066406 0.067057 0.067708 0.068359 0.069010 0.069661 0.070312 0.070964 0.071615 0.072266 0.072917 0.073568 0.074219 0.074870 0.075521 0.076172 0.076823 0.077474 0.078125 0.078776 0.079427 0.080078 0.080729 0.081380 0.082031 0.082682 0.083333 0.083984 0.084635 0.085286 0.085938 0.086589 0.087240 0.087891 0.088542 0.089193 0.089844 0.090495 0.091146 0.091797 0.092448 0.093099 0.093750 0.094401 0.095052 0.095703 0.096354 0.097005 0.097656 0.098307 0.098958 0.099609 0.100260 0.100911 0.101562 0.102214 0.102865 0.103516 0.104167 0.104818 0.105469 0.106120 0.106771 0.107422 0.108073 0.108724 0.109375 0.110026 0.110677 0.111328 0.111979 0.112630 0.113281 0.113932 0.114583 0.115234 0.115885 0.116536 0.117188 0.117839 0.118490 0.119141 0.119792 0.120443 0.121094 0.121745 0.122396 0.123047 0.123698 0.124349 0.125000 0.125651 0.126302 0.126953 0.127604 0.128255 0.128906 0.129557 0.130208 0.130859 0.131510 0.132161 0.132812 0.133464 0.134115 0.134766 0.135417 0.136068 0.136719 0.137370 0.138021 0.138672 0.139323 0.139974 0.140625 0.141276 0.141927 0.142578 0.143229 0.143880 0.144531 0.145182 0.145833 0.146484 0.147135 0.147786 0.148438 0.149089 0.149740 0.150391 0.151042 0.151693 0.152344 0.152995 0.153646 0.154297 0.154948 0.155599 0.156250 0.156901 0.157552 0.158203 0.158854 0.159505 0.160156 0.160807 0.161458 0.162109 0.162760 0.163411 0.164062 0.164714 0.165365 0.166016 0.166667 0.167318 0.167969 0.168620 0.169271 0.169922 0.170573 0.171224 0.171875 0.172526 0.173177 0.173828 0.174479 0.175130 0.175781 0.176432 0.177083 0.177734 0.178385 0.179036 0.179688 0.180339 0.180990 0.181641 0.182292 0.182943 0.183594 0.184245 0.184896 0.185547 0.186198 0.186849 0.187500 0.188151 0.188802 0.189453 0.190104 0.190755 0.191406 0.192057 0.192708 0.193359 0.194010 0.194661 0.195312 0.195964 0.196615 0.197266 0.197917 0.198568 0.199219 0.199870 0.200521 0.201172 0.201823 0.202474 0.203125 0.203776 0.204427 0.205078 0.205729 0.206380 0.207031 0.207682 0.208333 0.208984 0.209635 0.210286 0.210938 0.211589 0.212240 0.212891 0.213542 0.214193 0.214844 0.215495 0.216146 0.216797 0.217448 0.218099 0.218750 0.219401 0.220052 0.220703 0.221354 0.222005 0.222656 0.223307 0.223958 0.224609 0.225260 0.225911 0.226562 0.227214 0.227865 0.228516 0.229167 0.229818 0.230469 0.231120 0.231771 0.232422 0.233073 0.233724 0.234375 0.235026 0.235677
       0.34557        0.34557        0.34557        0.34557        0.34557        0.34557        0.34557        0.34557        0.34557        0.34557        0.34557        0.34557        0.34557        0.34557        0.34557        0.34557        0.34557        0.34557        0.34557        0.34557        0.34557        0.34557        0.34557        0.34557        0.34557        0.34557        0.34557        0.34557        0.34557        0.34557        0.34557        0.34557        0.34557        0.34557        0.34557        0.34557        0.34557        0.34557        0.34557        0.34557        0.34557        0.34557        0.34557        0.34557        0.34557        0.34557        0.34557        0.34557        0.34557        0.34557        0.34557        0.45006        0.65643        0.33626        0.16572       -0.03665       -0.26018       -0.07089       -0.15799       -0.15131        0.00779       -0.11492       -0.12364       -0.05001       -0.03615       -0.13597       -0.16238       -0.31055       -0.46341       -0.54725       -0.50901       -0.41966       -0.31579       -0.47461       -0.36871       -0.49085       -0.39870       -0.44000       -0.28619       -0.26922       -0.27965       -0.16148       -0.10222       -0.07158        0.06126        0.02371        0.18821        0.17486        0.31176        0.37670        0.49894        0.51772        0.55432        0.59641        0.72510        0.62261        0.59185        0.52184        0.51715        0.60227        0.49565        0.46905        0.40470        0.31055        0.27610        0.28917        0.25851        0.16017        0.16256        0.02764        0.09563        0.08965        0.07237        0.09616        0.13286        0.21214        0.28740        0.29018        0.32334        0.46845        0.48244        0.50278        0.64015        0.63293        0.58397        0.60229        0.59863        0.46828        0.47948        0.37426        0.34361        0.28693        0.22228        0.20841        0.17940        0.14182        0.19110        0.22374        0.23404        0.25782        0.32407        0.36597        0.38197        0.47399        0.50717        0.50419        0.48661        0.58172        0.49717        0.49273        0.47285        0.38308        0.32857        0.27473        0.29290        0.21688        0.22716        0.23921        0.21942        0.22734        0.30681        0.37002        0.41344        0.45319        0.44332        0.48581        0.45468        0.46312        0.40262        0.38914        0.35343        0.37543        0.37594        0.36879        0.26518        0.31620        0.26841        0.26949        0.28751        0.34559        0.37777        0.41683        0.43975        0.46857        0.43925        0.42100        0.45571        0.37569        0.35353        0.35855        0.31108        0.33544        0.28288        0.32086        0.31502        0.32688        0.36412        0.39072        0.41399        0.43718        0.39117        0.39843        0.37916        0.39549        0.29796        0.31575        0.30896        0.24921        0.33183        0.31728        0.33491        0.35054        0.36324        0.37473        0.37554        0.44692        0.38615        0.36100        0.35655        0.30629        0.29319        0.31501        0.31472        0.35065        0.33378        0.35231        0.33261        0.39464        0.36650        0.37869        0.40203        0.38535        0.34309        0.31681        0.34271        0.32108        0.34433        0.30741        0.35144        0.35206        0.34865        0.32389        0.34658        0.32586        0.28494        0.28991        0.28835        0.31322        0.33055        0.35696        0.33477        0.32269        0.33888        0.33399        0.31602        0.29257        0.32506        0.33717        0.31936        0.29860        0.32939        0.32848        0.33976        0.31578        0.33619        0.35180        0.33263        0.33523        0.30790        0.27016        0.30574        0.34017        0.32732        0.31914        0.35869        0.32660        0.29473        0.33604        0.32418        0.30717        0.29696        0.27654        0.33134        0.34982        0.35701        0.29555        0.28355        0.29060        0.26876        0.26394        0.32168        0.31459        0.30962        0.32036        0.30368        0.27888        0.34723        0.33681        0.33889        0.31758        0.30289        0.32803        0.37064        0.39824        0.30813        0.32937        0.33130        0.34745        0.29577        0.32400        0.32672        0.25223        0.32905        0.36397        0.32326        0.34002        0.30291        0.27860        0.26043        0.30037        0.30576        0.35746        0.32715        0.28418        0.23254        0.29861        0.31289        0.27365        0.26838        0.24284        0.29480        0.26942        0.31603        0.27762        0.30056        0.31401        0.24422        0.30041        0.26956        0.19354        0.20053        0.23929        0.19379        0.24448        0.23144        0.22506        0.35535        0.26244        0.29350        0.28882        0.19180        0.24235        0.33013        0.22704        0.13280        0.25862        0.19982        0.23505        0.32407        0.10570        0.07626       -0.38260       -0.58420
2.880339 2.849186 2.818203 2.787392 2.756750 2.726280 2.695980 2.665850 2.635891 2.606103 2.576485 2.547037 2.517760 2.488654 2.459718 2.430953 2.402359 2.373935 2.345681 2.317598 2.289685 2.261943 2.234372 2.206971 2.179741 2.152681 2.125792 2.099073 2.072525 2.046148 2.019941 1.993904 1.968039 1.942343 1.916818 1.891464 1.866281 1.841267 1.816425 1.791753 1.767251 1.742920 1.718760 1.694770 1.670951 1.647302 1.623824 1.600516 1.577379 1.554412 1.531616 1.537155 1.897681 1.697843 1.029759 1.104707 0.473921 0.929747 0.577516 0.741548 0.882038 0.690333 0.599609 0.780707 0.738518 0.604092 0.569064 0.349607 0.055644 0.003484 -0.017764 -0.038485 0.350003 -0.047336 0.070405 -0.051971 0.010555 -0.041966 0.121020 0.133647 0.100092 0.214550 0.311112 0.294832 0.462545 0.387528 0.639921 0.520824 0.768290 0.737722 0.921927 1.016007 0.939422 1.048533 1.133113 1.119465 1.024747 0.867221 0.867756 0.961062 0.815666 0.794706 0.661733 0.550911 0.479449 0.464979 0.452786 0.255474 0.308465 0.113790 0.089549 0.167726 0.079650 0.079675 0.154578 0.185185 0.321364 0.326041 0.374668 0.398380 0.594732 0.429760 0.670291 0.821602 0.604114 0.669380 0.672776 0.488421 0.411381 0.378067 0.248902 0.238565 0.063411 0.096612 -0.006303 -0.007242 -0.048431 0.029578 0.065756 0.048339 0.088418 0.203886 0.227478 0.238587 0.382205 0.335883 0.366274 0.403542 0.379119 0.326487 0.300307 0.254500 0.096766 0.061900 0.004674 -0.024366 -0.087698 -0.041417 -0.047366 -0.089282 -0.058971 0.065077 0.174798 0.192302 0.196429 0.237275 0.296842 0.208410 0.200243 0.205280 0.092612 0.074413 0.180039 0.080800 0.024094 -0.001091 0.043583 -0.060131 0.003451 0.003956 0.118187 0.102289 0.137273 0.202489 0.242199 0.097513 0.171281 0.161717 0.090178 0.051370 0.034475 0.043587 -0.017794 -0.006046 -0.010536 -0.004193 0.053456 0.060741 0.100873 0.162019 0.125307 0.062878 0.071583 0.112985 0.041339 -0.075735 0.002670 -0.050857 -0.073916 0.006947 -0.022242 0.051328 0.006009 0.039441 0.092532 0.132340 0.168245 0.044066 0.072113 0.070343 -0.065493 -0.001658 0.012021 0.015710 0.061757 0.054096 0.030801 0.060373 0.090119 0.085444 0.114748 0.140450 0.055336 0.047297 0.033584 0.033576 0.016993 0.064852 0.008721 0.074107 0.062755 0.010611 0.000659 0.051527 0.000782 -0.061599 -0.023804 -0.041246 -0.018119 0.036469 0.067176 0.022150 -0.004115 0.035358 0.022454 0.027874 -0.014212 0.022222 0.035640 0.021771 -0.012562 0.029862 0.022469 0.039369 0.021600 0.079679 0.057848 0.050658 0.046885 -0.000396 -0.072220 0.023806 0.051022 0.052634 0.011222 0.092396 0.017117 -0.033845 0.029212 0.004445 0.009293 -0.069875 -0.053008 0.071530 0.022475 0.020511 -0.053593 -0.043873 -0.039360 -0.107806 -0.037804 -0.030303 0.008493 -0.007252 -0.015043 -0.049185 -0.059782 0.020124 -0.024005 -0.084955 0.000071 -0.097757 -0.014739 0.032492 0.041105 -0.077518 -0.070739 -0.006492 -0.063101 -0.134921 -0.059057 -0.055131 -0.151427 -0.040842 0.034511 -0.067379 -0.070444 -0.059458 -0.091291 -0.095480 -0.013699 -0.085227 0.074779 -0.052101 -0.039913 -0.109510 -0.000753 -0.037798 -0.069618 -0.000086 -0.128079 0.076720 -0.047384 0.072033 -0.029236 0.011622 0.118774 -0.073569 0.107328 -0.016430 -0.107746 -0.050915 -0.034639 -0.057982 -0.092446 0.030142 -0.012716 0.190366 -0.025992 0.125009 0.046888 -0.057577 0.018653 0.155724 0.262435 0.060297 0.332733 0.304958 0.233257 0.447059 0.000292 0.107233 -0.763079
0.072396 0.072908 0.074445 0.077006 0.080589 0.085196 0.090823 0.097470 0.105134 0.113813 0.123502 0.134197 0.145893 0.158583 0.172259 0.186911 0.202527 0.219094 0.236597 0.255016 0.274331 0.294518 0.315549 0.337393 0.360016 0.383378 0.407435 0.432139 0.457437 0.483269 0.509572 0.536273 0.563298 0.590562 0.617975 0.645442 0.672859 0.700115 0.727093 0.753667 0.779707 0.805072 0.829619 0.853195 0.875641 0.896795 0.916486 0.934542 0.950786 0.965036 0.977110 0.986826 0.994000 0.998451 1.000000 0.998474 0.993704 0.985533 0.973811 0.958399 0.939176 0.916035 0.888886 0.857664 0.822325 0.782849 0.739248 0.691559 0.639856 0.584246 0.524869 0.461909 0.395584 0.326155 0.253925 0.179238 0.102480 0.024079 0.055496 0.135737 0.216099 0.296002 0.374835 0.451960 0.526714 0.598419 0.666384 0.729916 0.788322 0.840920 0.887049 0.926074 0.957400 0.980477 0.994814 0.999988 0.995653 0.981548 0.957511 0.923486 0.879526 0.825809 0.762635 0.690436 0.609777 0.521356 0.426006 0.324686 0.218482 0.108596 0.003665 0.116900 0.229630 0.340317 0.447384 0.549236 0.644285 0.730978 0.807821 0.873412 0.926466 0.965846 0.990588 0.999934 0.993352 0.970558 0.931540 0.876570 0.806214 0.721339 0.623112 0.512994 0.392728 0.264316 0.129999 0.007787 0.146440 0.283246 0.415428 0.540202 0.654837 0.756723 0.843427 0.912765 0.962860 0.992202 0.999700 0.984733 0.947179 0.887452 0.806510 0.705860 0.587544 0.454113 0.308585 0.154387 0.004718 0.164716 0.321440 0.470676 0.608279 0.730294 0.833073 0.913398 0.968590 0.996613 0.996160 0.966725 0.908655 0.823171 0.712369 0.579190 0.427364 0.261318 0.086067 0.092934 0.269946 0.439132 0.594751 0.731354 0.843992 0.928401 0.981187 0.999977 0.983544 0.931900 0.846340 0.729443 0.585026 0.418043 0.234438 0.040953 0.155110 0.346155 0.524585 0.683110 0.815055 0.914659 0.977345 0.999956 0.980941 0.920478 0.820523 0.684795 0.518668 0.328992 0.123835 0.087845 0.296568 0.492763 0.667208 0.811476 0.918362 0.982268 0.999529 0.968658 0.890486 0.768203 0.607270 0.415218 0.201332 0.023772 0.248656 0.461636 0.651387 0.807564 0.921388 0.986170 0.997744 0.954777 0.858929 0.714851 0.530017 0.314380 0.079873 0.160220 0.392008 0.601789 0.776878 0.906396 0.981982 0.998381 0.953853 0.850390 0.693697 0.492941 0.260263 0.010098 0.241709 0.478881 0.685768 0.848406 0.955485 0.999195 0.975843 0.886223 0.735692 0.533910 0.294296 0.033191 0.231243 0.480244 0.695803 0.861985 0.966142 0.999943 0.960100 0.848751 0.673438 0.446683 0.185159 0.091490 0.362077 0.605503 0.802415 0.936773 0.997225 0.978137 0.880190 0.710490 0.482144 0.213328 0.074103 0.356339 0.609595 0.812121 0.946120 0.999371 0.966432 0.849280 0.657316 0.406718 0.119156 0.180023 0.463979 0.706816 0.885939 0.984249 0.991837 0.907093 0.737046 0.496900 0.208783 0.100219 0.400568 0.663066 0.861751 0.976492 0.995143 0.914923 0.742911 0.495551 0.197203 0.122178 0.430011 0.694374 0.887376 0.988154 0.985235 0.877962 0.676802 0.402455 0.083864 0.244785 0.547680 0.791286 0.948115 0.999930 0.939979 0.774006 0.519864 0.205731 0.132903 0.457188 0.729366 0.917196 0.997875 0.960932 0.809722 0.561323 0.244744 0.102315 0.437912 0.720887 0.915968 0.998259 0.956550 0.795005 0.532942 0.202689 0.154276 0.492464 0.768164 0.945148 0.999539 0.923195 0.725077 0.430426 0.077669 0.286425 0.612930 0.857328 0.985683
1.000000 1.000000 1.000000 1.000000 1.000000 1.000000 1.000000 1.000000 1.000000 1.000000 1.000000 1.000000 1.000000 1.000000 1.000000 1.000000 1.000000 1.000000 1.000000 1.000000 1.000000 1.000000 1.000000 1.000000 1.000000 1.000000 1.000000 1.000000 1.000000 1.000000 1.000000 1.000000 1.000000 1.000000 1.000000 1.000000 1.000000 1.000000 1.000000 1.000000 1.000000 1.000000 1.000000 1.000000 1.000000 1.000000 1.000000 1.000000 1.000000 1.000000 1.000000 1.000000 0.873234 0.873234 0.873234 0.880350 0.880350 0.880350 0.880350 0.880350 0.880350 0.880350 0.880350 0.880350 0.880350 0.880350 0.880350 0.880350 0.880350 0.880350 0.880350 0.880350 0.880350 0.880350 0.880350 0.880350 0.880350 0.880350 0.880350 0.880350 0.880350 0.880350 0.880350 0.880350 0.880350 0.880350 0.880350 0.880350 0.880350 0.880350 0.880350 0.880350 0.880350 0.880350 0.880350 0.880350 0.887111 0.889905 0.891554 0.893373 0.894785 0.892141 0.891229 0.890659 0.890891 0.892183 0.902768 0.917708 0.931194 0.947854 0.955165 0.956828 0.960385 0.960339 0.966796 0.974761 0.973480 0.974117 0.974442 0.975764 0.959821 0.958126 0.952911 0.948100 0.977429 0.960073 0.957494 0.950002 0.943434 0.942155 0.941919 0.941708 0.942081 0.942796 0.943795 0.943661 0.942563 0.942156 0.939528 0.928490 0.924288 0.924115 0.924517 0.916823 0.900153 0.893846 0.891818 0.891155 0.890591 0.890845 0.891158 0.892212 0.889866 0.890361 0.868317 0.865110 0.863103 0.858902 0.857122 0.859462 0.859963 0.864193 0.862099 0.849520 0.826912 0.812619 0.798560 0.771774 0.756702 0.766381 0.768340 0.764520 0.763973 0.760475 0.757743 0.757875 0.752745 0.755476 0.753834 0.748890 0.737017 0.733573 0.718019 0.712716 0.707615 0.685107 0.712972 0.724793 0.724465 0.722606 0.722624 0.714668 0.722966 0.714080 0.706288 0.698259 0.690522 0.683920 0.672364 0.663087 0.678252 0.679581 0.661871 0.670472 0.695872 0.693006 0.696611 0.702424 0.709315 0.707165 0.699273 0.658481 0.646292 0.663628 0.660775 0.659018 0.659822 0.656999 0.654969 0.655577 0.654245 0.619455 0.595873 0.601544 0.608199 0.628417 0.645392 0.654603 0.618087 0.600154 0.548182 0.504348 0.521502 0.506414 0.496925 0.502212 0.483066 0.479242 0.483208 0.491434 0.491012 0.517261 0.513124 0.501786 0.495630 0.482720 0.485766 0.477992 0.447961 0.455492 0.430892 0.415061 0.433418 0.453984 0.426141 0.452888 0.478144 0.433770 0.433165 0.434997 0.391847 0.362588 0.337572 0.287991 0.286818 0.188087 0.170470 0.165376 0.185147 0.184626 0.141239 0.144876 0.160966 0.143390 0.102806 0.074350 0.052521 -0.013098 -0.024015 -0.018613 -0.025444 -0.040407 -0.066848 -0.075570 -0.039311 -0.032947 -0.045919 -0.025560 -0.055515 -0.054485 -0.057626 -0.100577 -0.121689 -0.150289 -0.150125 -0.205986 -0.192429 -0.193940 -0.182896 -0.231072 -0.238202 -0.223128 -0.202236 -0.237538 -0.254387 -0.265050 -0.252705 -0.256381 -0.226069 -0.208374 -0.206334 -0.211460 -0.225489 -0.196016 -0.198369 -0.223222 -0.209138 -0.222764 -0.216731 -0.196833 -0.183110 -0.156898 -0.117271 -0.091467 -0.097062 -0.105334 -0.130214 -0.097255 -0.094561 -0.103152 -0.122515 -0.155692 -0.166077 -0.166077 -0.166077 -0.166077 -0.166077 -0.161532 -0.161532 -0.161532 -0.161532 -0.161532 -0.161532 -0.161532 -0.161532 -0.161532 -0.087919 -0.087919 -0.087919 -0.087919 -0.087919 -0.087919 -0.087919 -0.087919 -0.087919 -0.087919 -0.087919 -0.087919 -0.087919 -0.087919 -0.087919 -0.087919 -0.087919
0.000000 0.000000 0.000000 0.000000 0.000000 0.000000 0.000000 0.000000 0.000000 0.000000 0.000000 0.000000 0.000000 0.000000 0.000000 0.000000 0.000000 0.000000 0.000000 0.000000 0.000000 0.000000 0.000000 0.000000 0.000000 0.000000 0.000000 0.000000 0.000000 0.000000 0.000000 0.000000 0.000000 0.000000 0.000000 0.000000 0.000000 0.000000 0.000000 0.000000 0.000000 0.000000 0.000000 0.000000 0.000000 0.000000 0.000000 0.000000 0.000000 0.000000 0.000000 0.000000 0.180334 0.180334 0.180334 0.199007 0.199007 0.199007 0.199007 0.199007 0.199007 0.199007 0.199007 0.199007 0.199007 0.199007 0.199007 0.199007 0.199007 0.199007 0.199007 0.199007 0.199007 0.199007 0.199007 0.199007 0.199007 0.199007 0.199007 0.199007 0.199007 0.199007 0.199007 0.199007 0.199007 0.199007 0.199007 0.199007 0.199007 0.199007 0.199007 0.199007 0.199007 0.199007 0.199007 0.199007 0.230940 0.230940 0.230940 0.230940 0.230940 0.230940 0.230940 0.230940 0.230940 0.230940 0.230940 0.230940 0.230940 0.230940 0.230940 0.230940 0.230940 0.230940 0.230940 0.230940 0.230940 0.230940 0.230940 0.230940 0.230940 0.230940 0.230940 0.230940 0.248069 0.248069 0.248069 0.248069 0.248069 0.248069 0.248069 0.248069 0.248069 0.248069 0.248069 0.248069 0.248069 0.248069 0.248069 0.248069 0.248069 0.248069 0.248069 0.248069 0.248069 0.248069 0.251976 0.251976 0.251976 0.251976 0.251976 0.251976 0.251976 0.251976 0.251976 0.251976 0.251976 0.251976 0.251976 0.251976 0.251976 0.251976 0.251976 0.251976 0.251976 0.251976 0.256074 0.256074 0.256074 0.256074 0.256074 0.256074 0.256074 0.256074 0.256074 0.256074 0.256074 0.256074 0.256074 0.256074 0.256074 0.256074 0.256074 0.256074 0.264906 0.264906 0.264906 0.264906 0.264906 0.264906 0.264906 0.264906 0.264906 0.264906 0.264906 0.264906 0.264906 0.264906 0.264906 0.264906 0.269680 0.269680 0.269680 0.269680 0.269680 0.269680 0.269680 0.269680 0.269680 0.269680 0.269680 0.269680 0.269680 0.269680 0.264906 0.264906 0.264906 0.264906 0.264906 0.264906 0.264906 0.264906 0.264906 0.264906 0.264906 0.264906 0.264906 0.264906 0.264906 0.264906 0.264906 0.264906 0.264906 0.264906 0.264906 0.264906 0.264906 0.264906 0.264906 0.264906 0.264906 0.260378 0.260378 0.260378 0.260378 0.260378 0.260378 0.260378 0.260378 0.260378 0.260378 0.260378 0.260378 0.260378 0.274721 0.274721 0.274721 0.274721 0.274721 0.274721 0.274721 0.274721 0.274721 0.274721 0.274721 0.260378 0.260378 0.260378 0.260378 0.260378 0.260378 0.260378 0.260378 0.260378 0.260378 0.260378 0.260378 0.264906 0.264906 0.264906 0.264906 0.264906 0.264906 0.264906 0.264906 0.264906 0.264906 0.264906 0.269680 0.269680 0.269680 0.269680 0.269680 0.269680 0.269680 0.269680 0.269680 0.269680 0.264906 0.264906 0.264906 0.264906 0.264906 0.264906 0.264906 0.264906 0.264906 0.264906 0.260378 0.260378 0.260378 0.260378 0.260378 0.260378 0.260378 0.260378 0.260378 0.260378 0.264906 0.264906 0.264906 0.264906 0.264906 0.264906 0.264906 0.264906 0.264906 0.251976 0.251976 0.251976 0.251976 0.251976 0.251976 0.251976 0.251976 0.251976 0.251976 0.256074 0.256074 0.256074 0.256074 0.256074 0.256074 0.256074 0.256074 0.256074 0.269680 0.269680 0.269680 0.269680 0.269680 0.269680 0.269680 0.269680 0.269680 0.269680 0.269680 0.269680 0.269680 0.269680 0.269680 0.269680 0.269680
