# Output from CTFFind version 4.1.9, run on 2019-11-03 20:06:32
# Input file: stack16_bm3d_averaged_1_7.0_0_1000_half.mrc ; Number of micrographs: 1
# Pixel size: 3.000 Angstroms ; acceleration voltage: 300.0 keV ; spherical aberration: 0.00 mm ; amplitude contrast: 0.07
# Box size: 512 pixels ; min. res.: 30.0 Angstroms ; max. res.: 5.0 Angstroms ; min. def.: 5000.0 um; max. def. 50000.0 um; num. frames averaged: 1
# 6 lines per micrograph: #1 - spatial frequency (1/Angstroms); #2 - 1D rotational average of spectrum (assuming no astigmatism); #3 - 1D rotational average of spectrum; #4 - CTF fit; #5 - cross-correlation between spectrum and CTF fit; #6 - 2sigma of expected cross correlation of noise
0.000000 0.000651 0.001302 0.001953 0.002604 0.003255 0.003906 0.004557 0.005208 0.005859 0.006510 0.007161 0.007812 0.008464 0.009115 0.009766 0.010417 0.011068 0.011719 0.012370 0.013021 0.013672 0.014323 0.014974 0.015625 0.016276 0.016927 0.017578 0.018229 0.018880 0.019531 0.020182 0.020833 0.021484 0.022135 0.022786 0.023438 0.024089 0.024740 0.025391 0.026042 0.026693 0.027344 0.027995 0.028646 0.029297 0.029948 0.030599 0.031250 0.031901 0.032552 0.033203 0.033854 0.034505 0.035156 0.035807 0.036458 0.037109 0.037760 0.038411 0.039062 0.039714 0.040365 0.041016 0.041667 0.042318 0.042969 0.043620 0.044271 0.044922 0.045573 0.046224 0.046875 0.047526 0.048177 0.048828 0.049479 0.050130 0.050781 0.051432 0.052083 0.052734 0.053385 0.054036 0.054688 0.055339 0.055990 0.056641 0.057292 0.057943 0.058594 0.059245 0.059896 0.060547 0.061198 0.061849 0.062500 0.063151 0.063802 0.064453 0.065104 0.065755 0.066406 0.067057 0.067708 0.068359 0.069010 0.069661 0.070312 0.070964 0.071615 0.072266 0.072917 0.073568 0.074219 0.074870 0.075521 0.076172 0.076823 0.077474 0.078125 0.078776 0.079427 0.080078 0.080729 0.081380 0.082031 0.082682 0.083333 0.083984 0.084635 0.085286 0.085938 0.086589 0.087240 0.087891 0.088542 0.089193 0.089844 0.090495 0.091146 0.091797 0.092448 0.093099 0.093750 0.094401 0.095052 0.095703 0.096354 0.097005 0.097656 0.098307 0.098958 0.099609 0.100260 0.100911 0.101562 0.102214 0.102865 0.103516 0.104167 0.104818 0.105469 0.106120 0.106771 0.107422 0.108073 0.108724 0.109375 0.110026 0.110677 0.111328 0.111979 0.112630 0.113281 0.113932 0.114583 0.115234 0.115885 0.116536 0.117188 0.117839 0.118490 0.119141 0.119792 0.120443 0.121094 0.121745 0.122396 0.123047 0.123698 0.124349 0.125000 0.125651 0.126302 0.126953 0.127604 0.128255 0.128906 0.129557 0.130208 0.130859 0.131510 0.132161 0.132812 0.133464 0.134115 0.134766 0.135417 0.136068 0.136719 0.137370 0.138021 0.138672 0.139323 0.139974 0.140625 0.141276 0.141927 0.142578 0.143229 0.143880 0.144531 0.145182 0.145833 0.146484 0.147135 0.147786 0.148438 0.149089 0.149740 0.150391 0.151042 0.151693 0.152344 0.152995 0.153646 0.154297 0.154948 0.155599 0.156250 0.156901 0.157552 0.158203 0.158854 0.159505 0.160156 0.160807 0.161458 0.162109 0.162760 0.163411 0.164062 0.164714 0.165365 0.166016 0.166667 0.167318 0.167969 0.168620 0.169271 0.169922 0.170573 0.171224 0.171875 0.172526 0.173177 0.173828 0.174479 0.175130 0.175781 0.176432 0.177083 0.177734 0.178385 0.179036 0.179688 0.180339 0.180990 0.181641 0.182292 0.182943 0.183594 0.184245 0.184896 0.185547 0.186198 0.186849 0.187500 0.188151 0.188802 0.189453 0.190104 0.190755 0.191406 0.192057 0.192708 0.193359 0.194010 0.194661 0.195312 0.195964 0.196615 0.197266 0.197917 0.198568 0.199219 0.199870 0.200521 0.201172 0.201823 0.202474 0.203125 0.203776 0.204427 0.205078 0.205729 0.206380 0.207031 0.207682 0.208333 0.208984 0.209635 0.210286 0.210938 0.211589 0.212240 0.212891 0.213542 0.214193 0.214844 0.215495 0.216146 0.216797 0.217448 0.218099 0.218750 0.219401 0.220052 0.220703 0.221354 0.222005 0.222656 0.223307 0.223958 0.224609 0.225260 0.225911 0.226562 0.227214 0.227865 0.228516 0.229167 0.229818 0.230469 0.231120 0.231771 0.232422 0.233073 0.233724 0.234375 0.235026 0.235677
       0.35592        0.35592        0.35592        0.35592        0.35592        0.35592        0.35592        0.35592        0.35592        0.35592        0.35592        0.35592        0.35592        0.35592        0.35592        0.35592        0.35592        0.35592        0.35592        0.35592        0.35592        0.35592        0.35592        0.35592        0.35592        0.35592        0.35592        0.35592        0.35592        0.35592        0.35592        0.35592        0.35592        0.35592        0.35592        0.35592        0.35592        0.35592        0.35592        0.35592        0.35592        0.35592        0.35592        0.35592        0.35592        0.35592        0.35592        0.35592        0.35592        0.35592        0.35592        0.43369        0.55861        0.34508       -0.21573       -0.44743       -0.53825       -0.64077       -0.70881       -0.71358       -0.80622       -0.88204       -0.67236       -0.82535       -0.81079       -0.95152       -0.99093       -0.87228       -0.83117       -0.79098       -0.70054       -0.63224       -0.54210       -0.44924       -0.38560       -0.15799       -0.05658        0.04863        0.26845        0.26380        0.32263        0.37493        0.40765        0.53031        0.54226        0.57777        0.53566        0.47808        0.50912        0.53561        0.45950        0.33799        0.22416        0.18962        0.11780        0.02323        0.00675       -0.00266        0.06792        0.03465        0.08616        0.05864        0.17608        0.20395        0.41328        0.46441        0.55094        0.65951        0.68631        0.71368        0.64184        0.61419        0.55000        0.44593        0.39410        0.28772        0.22625        0.22368        0.11242        0.12479        0.12677        0.09744        0.10493        0.31000        0.42349        0.53084        0.53668        0.56958        0.60846        0.58945        0.57249        0.58689        0.57148        0.47287        0.31585        0.27421        0.26633        0.16459        0.10116        0.18056        0.22350        0.29514        0.35920        0.43330        0.47879        0.53504        0.60503        0.54966        0.50798        0.51145        0.36145        0.29005        0.27074        0.18543        0.21434        0.24955        0.28693        0.29186        0.33738        0.43640        0.47038        0.50181        0.45707        0.44513        0.49300        0.40260        0.33443        0.29454        0.27063        0.24213        0.23347        0.24552        0.34612        0.45513        0.44029        0.49166        0.55731        0.45620        0.41832        0.36153        0.32488        0.28281        0.28995        0.27718        0.29646        0.36472        0.37120        0.44657        0.47568        0.44659        0.46892        0.38548        0.38450        0.35834        0.28152        0.26266        0.26121        0.34488        0.38657        0.36925        0.39476        0.43706        0.44900        0.38840        0.34369        0.32913        0.35911        0.32364        0.29163        0.29643        0.36576        0.38254        0.40088        0.39270        0.39932        0.42718        0.41348        0.33204        0.29657        0.31936        0.34763        0.39139        0.36763        0.40866        0.35243        0.37600        0.39799        0.34746        0.36057        0.32861        0.30978        0.34368        0.35316        0.33739        0.36856        0.38401        0.33518        0.35563        0.32979        0.32369        0.30758        0.32835        0.33154        0.33338        0.37296        0.38187        0.36622        0.31566        0.30893        0.29374        0.33828        0.32230        0.32196        0.37786        0.36252        0.34705        0.32386        0.31250        0.31242        0.28436        0.32612        0.34053        0.35288        0.37837        0.36095        0.32523        0.34534        0.36353        0.34377        0.36108        0.35314        0.32220        0.33970        0.29824        0.32578        0.30684        0.32212        0.29173        0.32760        0.35560        0.33380        0.36254        0.32105        0.34223        0.36220        0.34789        0.32668        0.33640        0.37366        0.35203        0.35693        0.33766        0.31767        0.32847        0.32191        0.33297        0.33163        0.36987        0.33643        0.33860        0.30295        0.29986        0.27776        0.28213        0.36726        0.31711        0.33728        0.30067        0.26992        0.27964        0.36918        0.31278        0.29108        0.32935        0.32371        0.29947        0.26428        0.30489        0.27467        0.30780        0.31335        0.34878        0.34124        0.32680        0.32176        0.27311        0.28826        0.28724        0.29001        0.30602        0.36510        0.30615        0.21313        0.30948        0.30557        0.34067        0.27053        0.29951        0.28963        0.33354        0.28815        0.27688        0.27871        0.25254        0.31308        0.33767        0.32783        0.26092        0.31984        0.27130        0.24331        0.22796        0.33009        0.25744        0.16094        0.11549        0.20191        0.34971        0.26545        0.19211        0.14370       -0.40248       -0.53394
3.236159 3.194952 3.154014 3.113343 3.072940 3.032805 2.992938 2.953339 2.914008 2.874945 2.836149 2.797622 2.759363 2.721371 2.683648 2.646192 2.609004 2.572085 2.535433 2.499049 2.462933 2.427085 2.391505 2.356193 2.321149 2.286372 2.251864 2.217624 2.183651 2.149947 2.116510 2.083341 2.050441 2.017808 1.985443 1.953346 1.921517 1.889956 1.858663 1.827638 1.796880 1.766391 1.736169 1.706216 1.676530 1.647113 1.617963 1.589081 1.560468 1.532122 1.504044 1.539980 1.609854 1.550579 0.843189 0.600599 0.461960 0.392242 0.295228 0.223179 0.191541 -0.047850 0.212106 0.078807 -0.026629 -0.104488 -0.236292 -0.141905 -0.049851 -0.093814 -0.070434 0.038566 0.039206 0.233297 0.109902 0.358756 0.464445 0.498968 0.774635 0.683158 0.698806 0.822667 0.795559 0.845170 0.923071 0.852136 0.885452 0.725215 0.784419 0.844687 0.690164 0.605185 0.433539 0.428257 0.327093 0.192696 0.187667 0.113380 0.208009 0.119339 0.206878 0.104418 0.214209 0.227069 0.434237 0.398416 0.566595 0.605098 0.625175 0.714296 0.600497 0.570196 0.456593 0.407191 0.282691 0.259096 0.088763 0.147959 -0.031572 0.035437 -0.030995 -0.045868 -0.061677 0.020894 0.258141 0.288035 0.352111 0.289856 0.375125 0.383961 0.405091 0.386533 0.352047 0.320825 0.116513 0.069478 0.060070 -0.024594 -0.154522 -0.058575 -0.065409 0.033056 0.071098 0.144752 0.207068 0.219402 0.311638 0.399116 0.276902 0.359129 0.223933 0.141831 0.063836 0.032835 -0.000149 0.052677 0.068490 0.091981 0.117718 0.167750 0.237004 0.301708 0.264525 0.205131 0.249439 0.223906 0.108414 0.053753 0.054808 0.023875 0.004737 -0.027274 0.028723 0.166621 0.194656 0.186775 0.294356 0.185012 0.192540 0.070732 0.062877 0.014038 -0.007026 -0.005385 -0.012248 0.045530 0.073633 0.100657 0.155885 0.138718 0.221670 0.137723 0.076380 0.098454 0.040530 -0.048421 -0.017969 0.028326 0.069106 0.072066 0.064558 0.150287 0.114990 0.152494 0.036411 0.046244 0.044762 0.044650 0.027275 -0.020556 0.040024 0.051311 0.091757 0.098761 0.085697 0.112573 0.123413 0.079612 0.010880 -0.011120 0.020805 0.074541 0.074951 0.087413 0.083465 0.053710 0.101823 0.066114 0.041462 0.075501 -0.011293 0.011325 0.066353 0.040196 0.044494 0.070813 0.080283 0.048150 0.066658 0.017671 0.018792 0.010493 0.055418 0.015029 0.039405 0.074125 0.078008 0.045017 -0.005339 -0.002493 -0.019518 0.044476 0.001113 0.012040 0.073147 0.044630 0.003897 0.012296 -0.017682 0.005222 -0.039483 0.008382 0.018037 0.045653 0.045859 0.029801 -0.003073 0.005707 0.038716 0.008977 0.035448 0.011606 -0.015850 0.015601 -0.045143 -0.030337 -0.054802 -0.012120 -0.068695 0.005942 0.008970 -0.006458 -0.012249 -0.005899 -0.001542 0.027599 0.011722 -0.012663 0.010916 0.025282 0.032760 0.028838 0.004434 0.010145 0.008254 -0.008168 0.015843 -0.006600 0.095469 0.033748 0.025854 0.004534 -0.008521 -0.028140 0.003288 0.076918 -0.003356 0.052584 -0.023325 -0.024071 -0.023523 0.093338 0.002587 -0.024615 0.067000 0.052715 0.005792 0.001229 0.015149 0.003886 0.044084 0.037654 0.094338 0.049624 0.051464 0.044666 -0.006909 0.020232 -0.001036 -0.001941 0.018141 0.088977 -0.008249 -0.084021 0.038260 0.002132 0.077579 -0.048927 -0.009229 -0.006216 0.018166 -0.005855 -0.028613 -0.013343 -0.067316 0.047189 0.040816 0.050733 -0.114378 0.031715 0.022524 -0.003254 -0.083716 0.102483 0.025798 -0.050847 -0.120243 0.165926 0.346711 0.210741 0.130863 0.144994 -0.513113
0.072396 0.073047 0.074998 0.078249 0.082800 0.088648 0.095791 0.104227 0.113951 0.124959 0.137244 0.150797 0.165608 0.181665 0.198952 0.217451 0.237139 0.257991 0.279975 0.303057 0.327196 0.352344 0.378447 0.405446 0.433272 0.461847 0.491088 0.520899 0.551177 0.581808 0.612665 0.643615 0.674509 0.705191 0.735489 0.765224 0.794203 0.822222 0.849068 0.874516 0.898333 0.920277 0.940098 0.957543 0.972351 0.984260 0.993010 0.998338 0.999991 0.997718 0.991283 0.980461 0.965046 0.944851 0.919715 0.889507 0.854128 0.813518 0.767655 0.716567 0.660330 0.599073 0.532984 0.462312 0.387366 0.308523 0.226228 0.140991 0.053392 0.035924 0.126248 0.216809 0.306779 0.395282 0.481396 0.564166 0.642612 0.715743 0.782566 0.842103 0.893405 0.935570 0.967759 0.989214 0.999275 0.997400 0.983184 0.956371 0.916877 0.864798 0.800426 0.724260 0.637007 0.539594 0.433160 0.319055 0.198831 0.074224 0.052860 0.180373 0.306154 0.427965 0.543528 0.650568 0.746866 0.830298 0.898901 0.950912 0.984830 0.999459 0.993962 0.967894 0.921248 0.854472 0.768496 0.664733 0.545078 0.411885 0.267943 0.116425 0.039174 0.195101 0.347442 0.492211 0.625458 0.743383 0.842449 0.919504 0.971889 0.997547 0.995118 0.964017 0.904495 0.817677 0.705572 0.571056 0.417824 0.250311 0.073583 0.106802 0.284962 0.454874 0.610586 0.746425 0.857222 0.938525 0.986797 0.999596 0.975720 0.915314 0.819926 0.692518 0.537408 0.360164 0.167429 0.033298 0.233946 0.426184 0.601765 0.752896 0.872600 0.955057 0.995927 0.992607 0.944430 0.852781 0.721118 0.554894 0.361385 0.149404 0.071067 0.289325 0.494469 0.675931 0.824057 0.930637 0.989400 0.996432 0.950480 0.853124 0.708810 0.524707 0.310412 0.077500 0.161070 0.391658 0.600715 0.775597 0.905361 0.981492 0.998516 0.954454 0.851079 0.693938 0.492142 0.257898 0.005841 0.247857 0.486503 0.693979 0.855867 0.960488 0.999815 0.970156 0.872568 0.712945 0.501767 0.253490 0.014371 0.282437 0.530848 0.740740 0.895719 0.983198 0.995499 0.930616 0.792563 0.591246 0.341866 0.063853 0.220586 0.488204 0.716623 0.886244 0.981986 0.994727 0.922275 0.769772 0.549477 0.279899 0.015665 0.311076 0.579642 0.796542 0.941187 0.999248 0.964200 0.838174 0.632003 0.364451 0.060609 0.250367 0.538003 0.773520 0.932759 0.998756 0.963681 0.829901 0.610028 0.325898 0.006518 0.314785 0.603815 0.829176 0.965744 0.997589 0.919996 0.740287 0.477336 0.159752 0.177107 0.495001 0.757145 0.932519 0.999668 0.949473 0.786575 0.529172 0.207194 0.141046 0.473315 0.748557 0.932046 0.999882 0.942283 0.765188 0.489901 0.150739 0.209091 0.542924 0.806666 0.964717 0.994929 0.891914 0.668188 0.352904 0.011725 0.375956 0.689237 0.907271 0.998408 0.948449 0.763089 0.467582 0.103532 0.276762 0.617738 0.868720 0.991545 0.966590 0.796154 0.504626 0.135264 0.256011 0.608978 0.868394 0.992766 0.961211 0.777240 0.468742 0.084062 0.315369 0.664751 0.906440 0.999633 0.927501 0.700526 0.355361 0.050817 0.449568 0.772666 0.963847 0.988824 0.841740 0.546795 0.154638 0.266071 0.640536 0.901132 0.999801 0.917176 0.666754 0.293074 0.135839 0.540703 0.845544 0.992124 0.951313 0.729259 0.366932 0.067073 0.489284 0.817301 0.986032 0.960858 0.745128 0.380243 0.061867 0.492688 0.824745 0.989482 0.951716 0.717558 0.333956 0.120301 0.550527 0.865778 0.998255 0.918220 0.641114 0.225079 0.240816 0.655416
1.000000 1.000000 1.000000 1.000000 1.000000 1.000000 1.000000 1.000000 1.000000 1.000000 1.000000 1.000000 1.000000 1.000000 1.000000 1.000000 1.000000 1.000000 1.000000 1.000000 1.000000 1.000000 1.000000 1.000000 1.000000 1.000000 1.000000 1.000000 1.000000 1.000000 1.000000 1.000000 1.000000 1.000000 1.000000 1.000000 1.000000 1.000000 1.000000 1.000000 1.000000 1.000000 1.000000 1.000000 1.000000 1.000000 1.000000 1.000000 1.000000 1.000000 1.000000 1.000000 0.923102 0.923102 0.923102 0.923102 0.923102 0.923102 0.923102 0.923102 0.923102 0.923102 0.923102 0.923102 0.923102 0.923102 0.923102 0.923102 0.923102 0.923102 0.923102 0.923102 0.923102 0.923102 0.923102 0.923102 0.923102 0.923102 0.923102 0.923102 0.923102 0.923102 0.923102 0.923102 0.923102 0.913242 0.911354 0.912506 0.911048 0.909609 0.909019 0.908625 0.909664 0.911264 0.913343 0.934988 0.938090 0.939334 0.940663 0.942039 0.944327 0.942161 0.949719 0.956220 0.955149 0.956282 0.950091 0.951515 0.950848 0.950103 0.951455 0.951599 0.949892 0.947861 0.946154 0.945580 0.945347 0.949003 0.949495 0.949644 0.950240 0.950184 0.950900 0.951497 0.949627 0.951883 0.943967 0.942633 0.947903 0.945804 0.947168 0.947128 0.947817 0.948618 0.948938 0.949211 0.945954 0.945465 0.944473 0.937842 0.930656 0.930924 0.933021 0.935756 0.933070 0.930525 0.931826 0.933585 0.932663 0.935999 0.927032 0.922703 0.896166 0.882312 0.873276 0.873477 0.877599 0.880285 0.878059 0.872203 0.863926 0.860381 0.859698 0.856085 0.847605 0.862794 0.857051 0.853207 0.856733 0.859972 0.865301 0.863464 0.859280 0.854396 0.849351 0.838744 0.839932 0.842961 0.847204 0.829616 0.818447 0.834965 0.827262 0.818160 0.825982 0.827902 0.825291 0.824067 0.824308 0.822120 0.815744 0.808164 0.812033 0.821014 0.822292 0.812796 0.810515 0.808806 0.808345 0.802779 0.808086 0.810120 0.806671 0.799220 0.816957 0.785620 0.805878 0.807232 0.789731 0.774254 0.762854 0.771162 0.780232 0.777423 0.772657 0.780395 0.780248 0.773164 0.748685 0.738092 0.745642 0.743918 0.733739 0.720935 0.727765 0.724023 0.721344 0.718882 0.722155 0.721251 0.698954 0.712464 0.716942 0.709027 0.722168 0.725321 0.716307 0.719340 0.723163 0.726460 0.727504 0.700317 0.703874 0.647375 0.634796 0.591314 0.587714 0.584950 0.528215 0.533288 0.514322 0.499833 0.500552 0.468399 0.518352 0.428978 0.414101 0.440009 0.367515 0.329684 0.347616 0.349097 0.361147 0.366531 0.362458 0.365683 0.349639 0.323954 0.299824 0.326566 0.342843 0.317180 0.318740 0.295597 0.281290 0.231221 0.246324 0.250707 0.283043 0.286229 0.270503 0.291946 0.332818 0.272587 0.256645 0.234615 0.260556 0.266663 0.260976 0.250210 0.267516 0.208491 0.213146 0.232096 0.234351 0.278459 0.307444 0.330611 0.326626 0.331238 0.360871 0.314856 0.325193 0.329900 0.320221 0.346402 0.349723 0.356462 0.350938 0.382641 0.375852 0.385032 0.386607 0.401830 0.438917 0.414938 0.392928 0.356277 0.367586 0.365327 0.374467 0.317029 0.293287 0.291975 0.257988 0.214583 0.216261 0.216506 0.171410 0.164265 0.146740 0.114501 0.113253 0.121399 0.149825 0.120572 0.136232 0.138923 0.138923 0.138923 0.138923 0.138923 0.138923 0.138923 0.138923 0.138923 0.138923 0.138923 0.138923 0.138923 0.138923 0.160491 0.160491 0.160491 0.160491 0.160491 0.160491 0.160491 0.160491 0.160491 0.160491 0.160491 0.160491
0.000000 0.000000 0.000000 0.000000 0.000000 0.000000 0.000000 0.000000 0.000000 0.000000 0.000000 0.000000 0.000000 0.000000 0.000000 0.000000 0.000000 0.000000 0.000000 0.000000 0.000000 0.000000 0.000000 0.000000 0.000000 0.000000 0.000000 0.000000 0.000000 0.000000 0.000000 0.000000 0.000000 0.000000 0.000000 0.000000 0.000000 0.000000 0.000000 0.000000 0.000000 0.000000 0.000000 0.000000 0.000000 0.000000 0.000000 0.000000 0.000000 0.000000 0.000000 0.000000 0.209657 0.209657 0.209657 0.209657 0.209657 0.209657 0.209657 0.209657 0.209657 0.209657 0.209657 0.209657 0.209657 0.209657 0.209657 0.209657 0.209657 0.209657 0.209657 0.209657 0.209657 0.209657 0.209657 0.209657 0.209657 0.209657 0.209657 0.209657 0.209657 0.209657 0.209657 0.209657 0.209657 0.244339 0.244339 0.244339 0.244339 0.244339 0.244339 0.244339 0.244339 0.244339 0.244339 0.244339 0.244339 0.244339 0.244339 0.244339 0.244339 0.244339 0.244339 0.244339 0.244339 0.244339 0.244339 0.244339 0.244339 0.244339 0.260378 0.260378 0.260378 0.260378 0.260378 0.260378 0.260378 0.260378 0.260378 0.260378 0.260378 0.260378 0.260378 0.260378 0.260378 0.260378 0.260378 0.260378 0.260378 0.260378 0.269680 0.269680 0.269680 0.269680 0.269680 0.269680 0.269680 0.269680 0.269680 0.269680 0.269680 0.269680 0.269680 0.269680 0.269680 0.269680 0.269680 0.269680 0.269680 0.269680 0.269680 0.269680 0.269680 0.269680 0.269680 0.269680 0.269680 0.269680 0.269680 0.269680 0.269680 0.269680 0.269680 0.280056 0.280056 0.280056 0.280056 0.280056 0.280056 0.280056 0.280056 0.280056 0.280056 0.280056 0.280056 0.280056 0.280056 0.280056 0.280056 0.280056 0.280056 0.280056 0.280056 0.280056 0.280056 0.280056 0.280056 0.280056 0.280056 0.280056 0.274721 0.274721 0.274721 0.274721 0.274721 0.274721 0.274721 0.274721 0.274721 0.274721 0.274721 0.274721 0.274721 0.285714 0.285714 0.285714 0.285714 0.285714 0.285714 0.285714 0.285714 0.285714 0.285714 0.285714 0.280056 0.280056 0.280056 0.280056 0.280056 0.280056 0.280056 0.280056 0.280056 0.280056 0.280056 0.274721 0.274721 0.274721 0.274721 0.274721 0.274721 0.274721 0.274721 0.274721 0.274721 0.274721 0.280056 0.280056 0.280056 0.280056 0.280056 0.280056 0.280056 0.280056 0.280056 0.280056 0.285714 0.285714 0.285714 0.285714 0.285714 0.285714 0.285714 0.285714 0.285714 0.269680 0.269680 0.269680 0.269680 0.269680 0.269680 0.269680 0.269680 0.269680 0.269680 0.274721 0.274721 0.274721 0.274721 0.274721 0.274721 0.274721 0.274721 0.274721 0.285714 0.285714 0.285714 0.285714 0.285714 0.285714 0.285714 0.285714 0.264906 0.264906 0.264906 0.264906 0.264906 0.264906 0.264906 0.264906 0.264906 0.274721 0.274721 0.274721 0.274721 0.274721 0.274721 0.274721 0.274721 0.269680 0.269680 0.269680 0.269680 0.269680 0.269680 0.269680 0.269680 0.269680 0.269680 0.269680 0.269680 0.269680 0.269680 0.269680 0.269680 0.280056 0.280056 0.280056 0.280056 0.280056 0.280056 0.280056 0.260378 0.260378 0.260378 0.260378 0.260378 0.260378 0.260378 0.260378 0.269680 0.269680 0.269680 0.269680 0.269680 0.269680 0.269680 0.264906 0.264906 0.264906 0.264906 0.264906 0.264906 0.264906 0.264906 0.264906 0.264906 0.264906 0.264906 0.264906 0.264906 0.260378 0.260378 0.260378 0.260378 0.260378 0.260378 0.260378 0.260378 0.260378 0.260378 0.260378 0.260378
