# Output from CTFFind version 4.1.9, run on 2019-11-03 20:06:33
# Input file: stack16_bm3d_averaged_1_5.5_0_1000_half.mrc ; Number of micrographs: 1
# Pixel size: 3.000 Angstroms ; acceleration voltage: 300.0 keV ; spherical aberration: 0.00 mm ; amplitude contrast: 0.07
# Box size: 512 pixels ; min. res.: 30.0 Angstroms ; max. res.: 5.0 Angstroms ; min. def.: 5000.0 um; max. def. 50000.0 um; num. frames averaged: 1
# 6 lines per micrograph: #1 - spatial frequency (1/Angstroms); #2 - 1D rotational average of spectrum (assuming no astigmatism); #3 - 1D rotational average of spectrum; #4 - CTF fit; #5 - cross-correlation between spectrum and CTF fit; #6 - 2sigma of expected cross correlation of noise
0.000000 0.000651 0.001302 0.001953 0.002604 0.003255 0.003906 0.004557 0.005208 0.005859 0.006510 0.007161 0.007812 0.008464 0.009115 0.009766 0.010417 0.011068 0.011719 0.012370 0.013021 0.013672 0.014323 0.014974 0.015625 0.016276 0.016927 0.017578 0.018229 0.018880 0.019531 0.020182 0.020833 0.021484 0.022135 0.022786 0.023438 0.024089 0.024740 0.025391 0.026042 0.026693 0.027344 0.027995 0.028646 0.029297 0.029948 0.030599 0.031250 0.031901 0.032552 0.033203 0.033854 0.034505 0.035156 0.035807 0.036458 0.037109 0.037760 0.038411 0.039062 0.039714 0.040365 0.041016 0.041667 0.042318 0.042969 0.043620 0.044271 0.044922 0.045573 0.046224 0.046875 0.047526 0.048177 0.048828 0.049479 0.050130 0.050781 0.051432 0.052083 0.052734 0.053385 0.054036 0.054688 0.055339 0.055990 0.056641 0.057292 0.057943 0.058594 0.059245 0.059896 0.060547 0.061198 0.061849 0.062500 0.063151 0.063802 0.064453 0.065104 0.065755 0.066406 0.067057 0.067708 0.068359 0.069010 0.069661 0.070312 0.070964 0.071615 0.072266 0.072917 0.073568 0.074219 0.074870 0.075521 0.076172 0.076823 0.077474 0.078125 0.078776 0.079427 0.080078 0.080729 0.081380 0.082031 0.082682 0.083333 0.083984 0.084635 0.085286 0.085938 0.086589 0.087240 0.087891 0.088542 0.089193 0.089844 0.090495 0.091146 0.091797 0.092448 0.093099 0.093750 0.094401 0.095052 0.095703 0.096354 0.097005 0.097656 0.098307 0.098958 0.099609 0.100260 0.100911 0.101562 0.102214 0.102865 0.103516 0.104167 0.104818 0.105469 0.106120 0.106771 0.107422 0.108073 0.108724 0.109375 0.110026 0.110677 0.111328 0.111979 0.112630 0.113281 0.113932 0.114583 0.115234 0.115885 0.116536 0.117188 0.117839 0.118490 0.119141 0.119792 0.120443 0.121094 0.121745 0.122396 0.123047 0.123698 0.124349 0.125000 0.125651 0.126302 0.126953 0.127604 0.128255 0.128906 0.129557 0.130208 0.130859 0.131510 0.132161 0.132812 0.133464 0.134115 0.134766 0.135417 0.136068 0.136719 0.137370 0.138021 0.138672 0.139323 0.139974 0.140625 0.141276 0.141927 0.142578 0.143229 0.143880 0.144531 0.145182 0.145833 0.146484 0.147135 0.147786 0.148438 0.149089 0.149740 0.150391 0.151042 0.151693 0.152344 0.152995 0.153646 0.154297 0.154948 0.155599 0.156250 0.156901 0.157552 0.158203 0.158854 0.159505 0.160156 0.160807 0.161458 0.162109 0.162760 0.163411 0.164062 0.164714 0.165365 0.166016 0.166667 0.167318 0.167969 0.168620 0.169271 0.169922 0.170573 0.171224 0.171875 0.172526 0.173177 0.173828 0.174479 0.175130 0.175781 0.176432 0.177083 0.177734 0.178385 0.179036 0.179688 0.180339 0.180990 0.181641 0.182292 0.182943 0.183594 0.184245 0.184896 0.185547 0.186198 0.186849 0.187500 0.188151 0.188802 0.189453 0.190104 0.190755 0.191406 0.192057 0.192708 0.193359 0.194010 0.194661 0.195312 0.195964 0.196615 0.197266 0.197917 0.198568 0.199219 0.199870 0.200521 0.201172 0.201823 0.202474 0.203125 0.203776 0.204427 0.205078 0.205729 0.206380 0.207031 0.207682 0.208333 0.208984 0.209635 0.210286 0.210938 0.211589 0.212240 0.212891 0.213542 0.214193 0.214844 0.215495 0.216146 0.216797 0.217448 0.218099 0.218750 0.219401 0.220052 0.220703 0.221354 0.222005 0.222656 0.223307 0.223958 0.224609 0.225260 0.225911 0.226562 0.227214 0.227865 0.228516 0.229167 0.229818 0.230469 0.231120 0.231771 0.232422 0.233073 0.233724 0.234375 0.235026 0.235677
       0.34070        0.34070        0.34070        0.34070        0.34070        0.34070        0.34070        0.34070        0.34070        0.34070        0.34070        0.34070        0.34070        0.34070        0.34070        0.34070        0.34070        0.34070        0.34070        0.34070        0.34070        0.34070        0.34070        0.34071        0.34070        0.34070        0.34070        0.34070        0.34070        0.34070        0.34070        0.34070        0.34070        0.34070        0.34070        0.34070        0.34070        0.34070        0.34070        0.34070        0.34070        0.34070        0.34070        0.34070        0.34070        0.34070        0.34070        0.34070        0.34070        0.34070        0.34070        0.42205        0.55564        0.34194       -0.21154       -0.45675       -0.55185       -0.65114       -0.72227       -0.73258       -0.82990       -0.89931       -0.69369       -0.85091       -0.83059       -0.97715       -1.01390       -0.89596       -0.85501       -0.80805       -0.72578       -0.65581       -0.56765       -0.47304       -0.40638       -0.17818       -0.07488        0.02405        0.24794        0.25087        0.30750        0.36803        0.39629        0.51039        0.53403        0.57011        0.53056        0.46980        0.50441        0.51733        0.43875        0.32572        0.20552        0.17388        0.10557       -0.00320       -0.01941       -0.02780        0.04600        0.01101        0.06471        0.03915        0.15444        0.18987        0.40294        0.45588        0.54750        0.65588        0.68775        0.71243        0.63324        0.60971        0.53267        0.43523        0.38282        0.26743        0.21041        0.20406        0.09269        0.09851        0.09051        0.07708        0.08970        0.30061        0.40974        0.51477        0.53152        0.57072        0.60714        0.58612        0.57420        0.58076        0.56255        0.46241        0.29752        0.25759        0.24358        0.13823        0.08234        0.15671        0.19117        0.27619        0.34839        0.41968        0.46903        0.52795        0.59919        0.54342        0.50504        0.49404        0.35112        0.26152        0.24947        0.16869        0.17986        0.22115        0.26449        0.27517        0.31636        0.42011        0.45324        0.49711        0.44989        0.44130        0.47959        0.38531        0.32431        0.28026        0.24982        0.22390        0.22399        0.23306        0.33006        0.43545        0.42506        0.48716        0.55020        0.44104        0.40790        0.35192        0.30517        0.26013        0.27281        0.26533        0.28287        0.33491        0.34584        0.42671        0.46934        0.43397        0.45313        0.36623        0.37334        0.35093        0.26132        0.24241        0.24028        0.31718        0.37198        0.36296        0.38619        0.43052        0.43411        0.36802        0.33500        0.31477        0.34486        0.30531        0.27344        0.27548        0.34572        0.36494        0.38005        0.38597        0.38149        0.41087        0.39477        0.31250        0.28311        0.31155        0.33919        0.36626        0.35569        0.40031        0.33723        0.36709        0.38752        0.32969        0.34937        0.31282        0.29409        0.33384        0.33460        0.32193        0.34374        0.36304        0.32211        0.34135        0.31233        0.30966        0.28609        0.31267        0.30738        0.32369        0.36198        0.36341        0.34520        0.30206        0.29075        0.28085        0.32337        0.30303        0.30945        0.36363        0.35607        0.33668        0.30757        0.29981        0.30738        0.26957        0.30313        0.31679        0.32652        0.36291        0.34040        0.29817        0.32836        0.33120        0.31922        0.35247        0.34032        0.30622        0.32921        0.28793        0.31817        0.28818        0.30633        0.28604        0.31607        0.35346        0.32859        0.34941        0.30432        0.31815        0.34137        0.33226        0.30632        0.30671        0.34544        0.33038        0.32478        0.31662        0.30871        0.30320        0.30745        0.31738        0.31768        0.34295        0.33822        0.33554        0.28687        0.27704        0.26330        0.26430        0.35819        0.30709        0.34803        0.29261        0.25819        0.27767        0.35767        0.30335        0.27840        0.29530        0.31083        0.29103        0.26555        0.30563        0.26750        0.27671        0.30065        0.32210        0.32961        0.31856        0.29770        0.26298        0.26357        0.25780        0.26554        0.28844        0.35469        0.28620        0.19671        0.29761        0.27526        0.31410        0.24086        0.30132        0.30506        0.33033        0.28696        0.27330        0.26302        0.23632        0.29221        0.34173        0.34899        0.24067        0.27829        0.22394        0.22349        0.20470        0.33224        0.24666        0.19107        0.12949        0.21870        0.30933        0.20875        0.18275        0.08066       -0.53047       -0.65869
3.147839 3.108117 3.068653 3.029445 2.990494 2.951801 2.913364 2.875184 2.837262 2.799596 2.762188 2.725036 2.688142 2.651505 2.615124 2.579001 2.543135 2.507526 2.472174 2.437079 2.402241 2.367660 2.333336 2.299269 2.265459 2.231906 2.198611 2.165572 2.132790 2.100266 2.067998 2.035988 2.004234 1.972738 1.941498 1.910516 1.879790 1.849322 1.819111 1.789157 1.759460 1.730020 1.700837 1.671910 1.643242 1.614830 1.586675 1.558777 1.531136 1.503752 1.476626 1.511303 1.596384 1.536422 0.846459 0.591339 0.452096 0.383585 0.288483 0.211529 0.175537 -0.053213 0.199588 0.064201 -0.034884 -0.116741 -0.241374 -0.149019 -0.062476 -0.094364 -0.079217 0.032269 0.028327 0.222840 0.105085 0.352659 0.460517 0.485799 0.763038 0.685835 0.690531 0.828143 0.797784 0.836636 0.919485 0.860853 0.892686 0.727811 0.796727 0.846228 0.682438 0.605550 0.439111 0.425906 0.343741 0.186983 0.183871 0.115923 0.210396 0.119632 0.210753 0.106381 0.220612 0.232633 0.448854 0.408867 0.582231 0.621285 0.654913 0.726983 0.614476 0.592550 0.465003 0.415484 0.298213 0.267551 0.099703 0.160361 -0.023562 0.038723 -0.033374 -0.039774 -0.046285 0.033818 0.278366 0.297462 0.371384 0.315055 0.396242 0.407541 0.433488 0.414467 0.363267 0.341905 0.131575 0.083927 0.066623 -0.012003 -0.152406 -0.042465 -0.066743 0.041438 0.085985 0.160657 0.228648 0.236093 0.325888 0.418306 0.301492 0.368102 0.246072 0.140884 0.067762 0.044211 0.003678 0.046668 0.072613 0.103431 0.118498 0.180362 0.242515 0.308967 0.284044 0.222852 0.259616 0.230301 0.112411 0.073139 0.049075 0.031339 0.007523 -0.008848 0.035365 0.171916 0.190566 0.195939 0.306815 0.191564 0.201190 0.080613 0.071951 0.002146 -0.006201 0.002831 -0.004546 0.042188 0.059326 0.095026 0.158372 0.144845 0.223096 0.131515 0.077933 0.101883 0.047149 -0.057564 -0.024662 0.020777 0.059619 0.074930 0.074336 0.154396 0.124363 0.151957 0.037842 0.054314 0.046036 0.050259 0.024925 -0.021602 0.038646 0.045839 0.088179 0.106642 0.090830 0.109281 0.126626 0.076486 0.013106 -0.003402 0.031597 0.080040 0.064984 0.097970 0.094039 0.050607 0.110098 0.067437 0.042356 0.081465 -0.018775 0.019943 0.062127 0.037992 0.043777 0.056297 0.072038 0.051922 0.062245 0.012009 0.019896 -0.001299 0.048184 0.003395 0.045564 0.068201 0.073589 0.039539 -0.009501 -0.006815 -0.017869 0.035173 -0.000447 0.013655 0.069974 0.057154 -0.005562 0.008982 -0.012765 0.009918 -0.043659 -0.003015 0.003734 0.032227 0.047474 0.019968 -0.016136 0.006358 0.011673 0.002991 0.043277 0.012461 -0.015564 0.034744 -0.043142 -0.019773 -0.051057 -0.013462 -0.047210 0.013756 0.035245 -0.001376 0.000752 -0.005865 0.004165 0.024157 0.023262 -0.012132 0.000790 0.024707 0.039864 0.015932 0.011085 0.032345 -0.005341 -0.000044 0.020579 -0.000685 0.077754 0.054649 0.033579 0.000799 -0.008957 -0.035403 -0.000656 0.079231 -0.002274 0.071716 -0.018289 -0.024158 -0.019513 0.095551 -0.002826 -0.016646 0.032271 0.045516 0.010445 0.006468 0.028010 0.003922 0.019577 0.027029 0.075249 0.072867 0.050709 0.034572 -0.000737 0.000799 -0.006125 -0.014200 0.005545 0.106810 -0.023787 -0.093772 0.054607 -0.011784 0.054318 -0.062114 0.010499 0.016634 0.023511 0.000710 -0.018932 -0.020239 -0.073766 0.026853 0.050433 0.065753 -0.126088 -0.000912 -0.031350 -0.015665 -0.122224 0.106837 0.013162 -0.013413 -0.081786 0.195403 0.258406 0.141754 0.143367 0.084670 -0.626323
0.072396 0.073047 0.074998 0.078250 0.082801 0.088649 0.095793 0.104230 0.113955 0.124964 0.137250 0.150804 0.165616 0.181675 0.198963 0.217463 0.237153 0.258007 0.279994 0.303078 0.327218 0.352368 0.378474 0.405475 0.433302 0.461880 0.491123 0.520936 0.551216 0.581848 0.612707 0.643658 0.674554 0.705236 0.735535 0.765271 0.794249 0.822268 0.849113 0.874560 0.898374 0.920315 0.940134 0.957574 0.972377 0.984282 0.993025 0.998346 0.999990 0.997709 0.991264 0.980431 0.965004 0.944796 0.919648 0.889426 0.854032 0.813406 0.767528 0.716424 0.660170 0.598897 0.532793 0.462104 0.387143 0.308286 0.225978 0.140729 0.053120 0.036205 0.126535 0.217099 0.307071 0.395571 0.481679 0.564439 0.642873 0.715987 0.782789 0.842301 0.893574 0.935707 0.967859 0.989273 0.999290 0.997369 0.983104 0.956241 0.916694 0.864563 0.800140 0.723923 0.636622 0.539165 0.432690 0.318551 0.198298 0.073671 0.053425 0.180941 0.306715 0.428509 0.544043 0.651043 0.747289 0.830661 0.899191 0.951121 0.984949 0.999482 0.993883 0.967712 0.920960 0.854081 0.768006 0.664151 0.544412 0.411149 0.267153 0.115595 0.040022 0.195948 0.348265 0.492987 0.626165 0.743999 0.842953 0.919877 0.972116 0.997615 0.995019 0.963747 0.904056 0.817076 0.704821 0.570173 0.416833 0.249239 0.072463 0.107934 0.286069 0.455918 0.611527 0.747227 0.857852 0.938953 0.987000 0.999559 0.975437 0.914786 0.819166 0.691548 0.536259 0.358875 0.166051 0.034714 0.235341 0.427498 0.602940 0.753876 0.873336 0.955509 0.996065 0.992416 0.943908 0.851941 0.719991 0.553526 0.359832 0.147738 0.072766 0.290975 0.495983 0.677230 0.825068 0.931297 0.989664 0.996275 0.949897 0.852138 0.707461 0.523061 0.308555 0.075530 0.163041 0.393514 0.602344 0.776897 0.906245 0.981894 0.998398 0.953810 0.849935 0.692356 0.490208 0.255732 0.003576 0.250074 0.488521 0.695658 0.857084 0.961148 0.999859 0.969564 0.871366 0.711204 0.499601 0.251045 0.016921 0.284908 0.533049 0.742501 0.896895 0.983683 0.995239 0.929615 0.790882 0.589004 0.339232 0.061030 0.223368 0.490713 0.718647 0.887598 0.982540 0.994417 0.921106 0.767828 0.546912 0.276927 0.018785 0.314065 0.582225 0.798475 0.942273 0.999369 0.963324 0.836362 0.629413 0.361312 0.057216 0.253679 0.540909 0.775720 0.934019 0.998926 0.962721 0.827889 0.607149 0.322437 0.002833 0.318306 0.606797 0.831281 0.966724 0.997315 0.918474 0.737663 0.473883 0.155846 0.181029 0.498488 0.759783 0.933985 0.999766 0.948166 0.783991 0.525601 0.203050 0.145271 0.477094 0.751420 0.933619 0.999940 0.940792 0.762309 0.485982 0.146265 0.213546 0.546772 0.809388 0.965932 0.994446 0.889768 0.664641 0.348421 0.016546 0.380451 0.692772 0.909331 0.998676 0.946855 0.759833 0.463101 0.098461 0.281688 0.621792 0.871284 0.992211 0.965225 0.792932 0.500008 0.129933 0.261240 0.613293 0.871101 0.993414 0.959663 0.773707 0.463761 0.078416 0.320776 0.669026 0.908865 0.999773 0.925298 0.696316 0.349821 0.056767 0.454917 0.776483 0.965448 0.987895 0.838400 0.541598 0.148484 0.272104 0.645362 0.903866 0.999908 0.914601 0.661924 0.286853 0.142313 0.546224 0.849061 0.992935 0.949227 0.724632 0.360622 0.073877 0.495248 0.821256 0.987163 0.958901 0.740429 0.373706 0.068947 0.498890 0.828784 0.990501 0.949461 0.712454 0.327021 0.127637 0.556715 0.869495 0.998671 0.915202 0.635264 0.217624 0.248265 0.661234
1.000000 1.000000 1.000000 1.000000 1.000000 1.000000 1.000000 1.000000 1.000000 1.000000 1.000000 1.000000 1.000000 1.000000 1.000000 1.000000 1.000000 1.000000 1.000000 1.000000 1.000000 1.000000 1.000000 1.000000 1.000000 1.000000 1.000000 1.000000 1.000000 1.000000 1.000000 1.000000 1.000000 1.000000 1.000000 1.000000 1.000000 1.000000 1.000000 1.000000 1.000000 1.000000 1.000000 1.000000 1.000000 1.000000 1.000000 1.000000 1.000000 1.000000 1.000000 1.000000 0.926221 0.926221 0.926221 0.926221 0.926221 0.926221 0.926221 0.926221 0.926221 0.926221 0.926221 0.926221 0.926221 0.926221 0.926221 0.926221 0.926221 0.926221 0.926221 0.926221 0.926221 0.926221 0.926221 0.926221 0.926221 0.926221 0.926221 0.926221 0.926221 0.926221 0.926221 0.926221 0.926221 0.913307 0.911402 0.912563 0.913752 0.913659 0.913103 0.912738 0.913772 0.915321 0.917338 0.938957 0.941988 0.943154 0.944448 0.945873 0.948309 0.946289 0.954005 0.960629 0.959646 0.960654 0.954466 0.955778 0.955145 0.954415 0.955990 0.956063 0.954442 0.952531 0.951045 0.950539 0.950246 0.953771 0.954316 0.954484 0.955035 0.954966 0.955685 0.956290 0.954380 0.956562 0.948681 0.947480 0.952879 0.950991 0.952532 0.952496 0.953192 0.953967 0.954253 0.954497 0.951389 0.951036 0.950299 0.941222 0.934406 0.933438 0.935866 0.939102 0.936534 0.932809 0.934169 0.936624 0.935980 0.935310 0.925716 0.921761 0.898094 0.886090 0.874985 0.875389 0.878602 0.880988 0.878608 0.870952 0.861314 0.857529 0.857772 0.853587 0.846426 0.862644 0.857042 0.855367 0.859343 0.862435 0.867890 0.864898 0.860460 0.855859 0.851403 0.844248 0.846096 0.850558 0.854604 0.838743 0.829847 0.847222 0.836752 0.827751 0.835307 0.837332 0.834329 0.833192 0.833934 0.831980 0.825293 0.819636 0.822894 0.831870 0.831056 0.819891 0.816453 0.812258 0.812047 0.804903 0.808504 0.808738 0.804945 0.798035 0.814000 0.779871 0.803144 0.802340 0.787592 0.771653 0.760222 0.769265 0.780524 0.783171 0.775231 0.772073 0.771415 0.764179 0.736732 0.738472 0.745764 0.744124 0.731537 0.713059 0.720309 0.725855 0.721394 0.717143 0.720086 0.721633 0.694442 0.707546 0.711521 0.697754 0.712740 0.714882 0.705649 0.707259 0.709802 0.712357 0.705960 0.664980 0.667857 0.661151 0.654659 0.604806 0.604174 0.602428 0.547760 0.551786 0.518084 0.500887 0.500444 0.492055 0.542424 0.497743 0.483709 0.514905 0.442713 0.361587 0.377093 0.375728 0.389240 0.397908 0.377291 0.376987 0.364145 0.342538 0.351480 0.374007 0.389647 0.355749 0.357886 0.350872 0.322822 0.295226 0.309953 0.313184 0.334523 0.336526 0.313940 0.342218 0.381175 0.324195 0.300685 0.281766 0.292458 0.306147 0.311352 0.300155 0.279377 0.265705 0.241129 0.266161 0.262108 0.266723 0.285869 0.317215 0.311187 0.319271 0.342488 0.293323 0.309385 0.311418 0.301225 0.309064 0.314479 0.314440 0.303790 0.323413 0.296061 0.307920 0.290585 0.280694 0.342989 0.323104 0.294831 0.290292 0.295392 0.301003 0.273197 0.222344 0.207602 0.209928 0.146822 0.119172 0.120227 0.120395 0.077234 0.051984 0.036618 -0.001804 -0.001986 0.000601 0.036197 0.005093 0.028570 0.036728 0.036728 0.036728 0.036728 0.036728 0.036728 0.036728 0.036728 0.036728 0.036728 0.036728 0.036728 0.036728 0.036728 0.059499 0.059499 0.059499 0.059499 0.059499 0.059499 0.059499 0.059499 0.059499 0.059499 0.059499 0.059499
0.000000 0.000000 0.000000 0.000000 0.000000 0.000000 0.000000 0.000000 0.000000 0.000000 0.000000 0.000000 0.000000 0.000000 0.000000 0.000000 0.000000 0.000000 0.000000 0.000000 0.000000 0.000000 0.000000 0.000000 0.000000 0.000000 0.000000 0.000000 0.000000 0.000000 0.000000 0.000000 0.000000 0.000000 0.000000 0.000000 0.000000 0.000000 0.000000 0.000000 0.000000 0.000000 0.000000 0.000000 0.000000 0.000000 0.000000 0.000000 0.000000 0.000000 0.000000 0.000000 0.209657 0.209657 0.209657 0.209657 0.209657 0.209657 0.209657 0.209657 0.209657 0.209657 0.209657 0.209657 0.209657 0.209657 0.209657 0.209657 0.209657 0.209657 0.209657 0.209657 0.209657 0.209657 0.209657 0.209657 0.209657 0.209657 0.209657 0.209657 0.209657 0.209657 0.209657 0.209657 0.209657 0.244339 0.244339 0.244339 0.244339 0.244339 0.244339 0.244339 0.244339 0.244339 0.244339 0.244339 0.244339 0.244339 0.244339 0.244339 0.244339 0.244339 0.244339 0.244339 0.244339 0.244339 0.244339 0.244339 0.244339 0.244339 0.260378 0.260378 0.260378 0.260378 0.260378 0.260378 0.260378 0.260378 0.260378 0.260378 0.260378 0.260378 0.260378 0.260378 0.260378 0.260378 0.260378 0.260378 0.260378 0.260378 0.269680 0.269680 0.269680 0.269680 0.269680 0.269680 0.269680 0.269680 0.269680 0.269680 0.269680 0.269680 0.269680 0.269680 0.269680 0.269680 0.269680 0.269680 0.269680 0.269680 0.269680 0.269680 0.269680 0.269680 0.269680 0.269680 0.269680 0.269680 0.269680 0.269680 0.269680 0.269680 0.269680 0.280056 0.280056 0.280056 0.280056 0.280056 0.280056 0.280056 0.280056 0.280056 0.280056 0.280056 0.280056 0.280056 0.280056 0.280056 0.280056 0.280056 0.280056 0.280056 0.280056 0.280056 0.280056 0.280056 0.280056 0.280056 0.280056 0.280056 0.274721 0.274721 0.274721 0.274721 0.274721 0.274721 0.274721 0.274721 0.274721 0.274721 0.274721 0.274721 0.274721 0.285714 0.285714 0.285714 0.285714 0.285714 0.285714 0.285714 0.285714 0.285714 0.285714 0.285714 0.280056 0.280056 0.280056 0.280056 0.280056 0.280056 0.280056 0.280056 0.280056 0.280056 0.280056 0.274721 0.274721 0.274721 0.274721 0.274721 0.274721 0.274721 0.274721 0.274721 0.274721 0.274721 0.280056 0.280056 0.280056 0.280056 0.280056 0.280056 0.280056 0.280056 0.280056 0.280056 0.285714 0.285714 0.285714 0.285714 0.285714 0.285714 0.285714 0.285714 0.285714 0.269680 0.269680 0.269680 0.269680 0.269680 0.269680 0.269680 0.269680 0.269680 0.269680 0.274721 0.274721 0.274721 0.274721 0.274721 0.274721 0.274721 0.274721 0.274721 0.285714 0.285714 0.285714 0.285714 0.285714 0.285714 0.285714 0.285714 0.264906 0.264906 0.264906 0.264906 0.264906 0.264906 0.264906 0.264906 0.264906 0.274721 0.274721 0.274721 0.274721 0.274721 0.274721 0.274721 0.274721 0.269680 0.269680 0.269680 0.269680 0.269680 0.269680 0.269680 0.269680 0.269680 0.269680 0.269680 0.269680 0.269680 0.269680 0.269680 0.269680 0.280056 0.280056 0.280056 0.280056 0.280056 0.280056 0.280056 0.260378 0.260378 0.260378 0.260378 0.260378 0.260378 0.260378 0.260378 0.269680 0.269680 0.269680 0.269680 0.269680 0.269680 0.269680 0.264906 0.264906 0.264906 0.264906 0.264906 0.264906 0.264906 0.264906 0.264906 0.264906 0.264906 0.264906 0.264906 0.264906 0.260378 0.260378 0.260378 0.260378 0.260378 0.260378 0.260378 0.260378 0.260378 0.260378 0.260378 0.260378
