# Output from CTFFind version 4.1.9, run on 2019-11-03 20:10:46
# Input file: stack11_bm3d_averaged_1_10_0_3000_half.mrc ; Number of micrographs: 1
# Pixel size: 3.000 Angstroms ; acceleration voltage: 300.0 keV ; spherical aberration: 0.00 mm ; amplitude contrast: 0.07
# Box size: 512 pixels ; min. res.: 30.0 Angstroms ; max. res.: 5.0 Angstroms ; min. def.: 5000.0 um; max. def. 50000.0 um; num. frames averaged: 1
# 6 lines per micrograph: #1 - spatial frequency (1/Angstroms); #2 - 1D rotational average of spectrum (assuming no astigmatism); #3 - 1D rotational average of spectrum; #4 - CTF fit; #5 - cross-correlation between spectrum and CTF fit; #6 - 2sigma of expected cross correlation of noise
0.000000 0.000651 0.001302 0.001953 0.002604 0.003255 0.003906 0.004557 0.005208 0.005859 0.006510 0.007161 0.007812 0.008464 0.009115 0.009766 0.010417 0.011068 0.011719 0.012370 0.013021 0.013672 0.014323 0.014974 0.015625 0.016276 0.016927 0.017578 0.018229 0.018880 0.019531 0.020182 0.020833 0.021484 0.022135 0.022786 0.023438 0.024089 0.024740 0.025391 0.026042 0.026693 0.027344 0.027995 0.028646 0.029297 0.029948 0.030599 0.031250 0.031901 0.032552 0.033203 0.033854 0.034505 0.035156 0.035807 0.036458 0.037109 0.037760 0.038411 0.039062 0.039714 0.040365 0.041016 0.041667 0.042318 0.042969 0.043620 0.044271 0.044922 0.045573 0.046224 0.046875 0.047526 0.048177 0.048828 0.049479 0.050130 0.050781 0.051432 0.052083 0.052734 0.053385 0.054036 0.054688 0.055339 0.055990 0.056641 0.057292 0.057943 0.058594 0.059245 0.059896 0.060547 0.061198 0.061849 0.062500 0.063151 0.063802 0.064453 0.065104 0.065755 0.066406 0.067057 0.067708 0.068359 0.069010 0.069661 0.070312 0.070964 0.071615 0.072266 0.072917 0.073568 0.074219 0.074870 0.075521 0.076172 0.076823 0.077474 0.078125 0.078776 0.079427 0.080078 0.080729 0.081380 0.082031 0.082682 0.083333 0.083984 0.084635 0.085286 0.085938 0.086589 0.087240 0.087891 0.088542 0.089193 0.089844 0.090495 0.091146 0.091797 0.092448 0.093099 0.093750 0.094401 0.095052 0.095703 0.096354 0.097005 0.097656 0.098307 0.098958 0.099609 0.100260 0.100911 0.101562 0.102214 0.102865 0.103516 0.104167 0.104818 0.105469 0.106120 0.106771 0.107422 0.108073 0.108724 0.109375 0.110026 0.110677 0.111328 0.111979 0.112630 0.113281 0.113932 0.114583 0.115234 0.115885 0.116536 0.117188 0.117839 0.118490 0.119141 0.119792 0.120443 0.121094 0.121745 0.122396 0.123047 0.123698 0.124349 0.125000 0.125651 0.126302 0.126953 0.127604 0.128255 0.128906 0.129557 0.130208 0.130859 0.131510 0.132161 0.132812 0.133464 0.134115 0.134766 0.135417 0.136068 0.136719 0.137370 0.138021 0.138672 0.139323 0.139974 0.140625 0.141276 0.141927 0.142578 0.143229 0.143880 0.144531 0.145182 0.145833 0.146484 0.147135 0.147786 0.148438 0.149089 0.149740 0.150391 0.151042 0.151693 0.152344 0.152995 0.153646 0.154297 0.154948 0.155599 0.156250 0.156901 0.157552 0.158203 0.158854 0.159505 0.160156 0.160807 0.161458 0.162109 0.162760 0.163411 0.164062 0.164714 0.165365 0.166016 0.166667 0.167318 0.167969 0.168620 0.169271 0.169922 0.170573 0.171224 0.171875 0.172526 0.173177 0.173828 0.174479 0.175130 0.175781 0.176432 0.177083 0.177734 0.178385 0.179036 0.179688 0.180339 0.180990 0.181641 0.182292 0.182943 0.183594 0.184245 0.184896 0.185547 0.186198 0.186849 0.187500 0.188151 0.188802 0.189453 0.190104 0.190755 0.191406 0.192057 0.192708 0.193359 0.194010 0.194661 0.195312 0.195964 0.196615 0.197266 0.197917 0.198568 0.199219 0.199870 0.200521 0.201172 0.201823 0.202474 0.203125 0.203776 0.204427 0.205078 0.205729 0.206380 0.207031 0.207682 0.208333 0.208984 0.209635 0.210286 0.210938 0.211589 0.212240 0.212891 0.213542 0.214193 0.214844 0.215495 0.216146 0.216797 0.217448 0.218099 0.218750 0.219401 0.220052 0.220703 0.221354 0.222005 0.222656 0.223307 0.223958 0.224609 0.225260 0.225911 0.226562 0.227214 0.227865 0.228516 0.229167 0.229818 0.230469 0.231120 0.231771 0.232422 0.233073 0.233724 0.234375 0.235026 0.235677
       0.34935        0.34935        0.34935        0.34935        0.34935        0.34935        0.34935        0.34935        0.34935        0.34935        0.34935        0.34935        0.34935        0.34935        0.34935        0.34935        0.34935        0.34935        0.34935        0.34935        0.34935        0.34935        0.34935        0.34935        0.34935        0.34935        0.34935        0.34935        0.34935        0.34935        0.34935        0.34935        0.34935        0.34935        0.34935        0.34935        0.34935        0.34935        0.34935        0.34935        0.34935        0.34935        0.34935        0.34935        0.34935        0.34935        0.34935        0.34935        0.34935        0.34935        0.34935        0.70150        0.85798        0.54069        0.10660       -0.02789       -0.37918       -0.17742       -0.28755       -0.11653       -0.05302       -0.11259       -0.05224       -0.16031       -0.20190       -0.20948       -0.30310       -0.31391       -0.43858       -0.35991       -0.42003       -0.41611       -0.38875       -0.39808       -0.43750       -0.50036       -0.55474       -0.54149       -0.51461       -0.35008       -0.31783       -0.28414       -0.26397       -0.18151       -0.16466        0.06563        0.14872        0.18312        0.27174        0.38223        0.45960        0.52547        0.60671        0.60394        0.58896        0.70353        0.80122        0.70177        0.74724        0.61749        0.56999        0.48682        0.43822        0.51433        0.40222        0.28181        0.12258        0.12186        0.10396       -0.00421        0.05721        0.06112        0.02125        0.03166        0.04044        0.23703        0.27375        0.29830        0.43885        0.45667        0.41793        0.60760        0.61539        0.62872        0.72100        0.67553        0.64849        0.65347        0.56060        0.45908        0.42031        0.30903        0.28108        0.19229        0.14101        0.05395        0.07424        0.08731        0.10493        0.16757        0.25204        0.30683        0.43376        0.46851        0.48306        0.56135        0.60198        0.63798        0.61135        0.55553        0.46617        0.47410        0.37956        0.28523        0.21861        0.15808        0.17954        0.15798        0.17311        0.20366        0.33110        0.34659        0.41558        0.45335        0.42495        0.47799        0.56604        0.55878        0.50900        0.45933        0.41844        0.38017        0.34944        0.31763        0.27554        0.25270        0.26737        0.26306        0.23132        0.31561        0.37090        0.38571        0.44145        0.45678        0.46628        0.43197        0.41746        0.40492        0.36870        0.34957        0.27856        0.29060        0.27506        0.25717        0.30399        0.30091        0.35798        0.39150        0.44368        0.47809        0.40735        0.42373        0.43341        0.41635        0.35447        0.33524        0.29447        0.33417        0.28326        0.33170        0.32273        0.34069        0.34878        0.37087        0.31125        0.38710        0.41298        0.38474        0.35573        0.37052        0.32337        0.30159        0.31492        0.32092        0.31128        0.32329        0.35274        0.36591        0.34560        0.36421        0.36198        0.43251        0.39802        0.34549        0.35387        0.30319        0.30209        0.33232        0.32399        0.33434        0.34868        0.35119        0.39356        0.33394        0.33354        0.34094        0.35670        0.30571        0.31498        0.28772        0.30535        0.33861        0.30563        0.33842        0.36585        0.38047        0.30552        0.35335        0.30518        0.29200        0.28202        0.25310        0.31588        0.31512        0.34494        0.34245        0.35170        0.33243        0.35180        0.32141        0.34799        0.30474        0.33246        0.30215        0.34325        0.34332        0.38422        0.34030        0.33920        0.33612        0.29682        0.28226        0.31855        0.25710        0.23667        0.34046        0.32899        0.37469        0.35222        0.36952        0.34357        0.33550        0.35913        0.27250        0.27917        0.32431        0.30179        0.31472        0.31172        0.34192        0.33001        0.28972        0.29712        0.34683        0.32617        0.33125        0.31210        0.32109        0.33803        0.38930        0.37266        0.32923        0.29067        0.30682        0.29393        0.31752        0.28741        0.28116        0.31281        0.32538        0.34883        0.35852        0.33763        0.30214        0.30678        0.27882        0.28751        0.26051        0.30599        0.25638        0.25863        0.28242        0.27534        0.25826        0.29326        0.22841        0.22936        0.23461        0.20057        0.28260        0.35948        0.25979        0.25798        0.32074        0.29630        0.30588        0.31745        0.28404        0.26421        0.20041        0.21383        0.22761        0.30932        0.23910        0.28191        0.37399        0.39432        0.27085        0.21338        0.16585       -0.01312       -0.16885       -0.63887
2.722346 2.693426 2.664664 2.636059 2.607611 2.579321 2.551189 2.523214 2.495396 2.467736 2.440234 2.412889 2.385701 2.358671 2.331798 2.305083 2.278526 2.252126 2.225883 2.199798 2.173870 2.148100 2.122487 2.097032 2.071734 2.046594 2.021611 1.996786 1.972118 1.947608 1.923255 1.899060 1.875022 1.851142 1.827419 1.803854 1.780446 1.757195 1.734103 1.711167 1.688389 1.665769 1.643306 1.621000 1.598852 1.576862 1.555029 1.533353 1.511835 1.490475 1.469272 1.679176 2.092943 1.663184 1.152718 1.018436 0.442418 0.820823 0.538813 0.813602 0.790236 0.789545 0.728452 0.734603 0.577967 0.542458 0.484307 0.410707 0.242292 0.346373 0.191090 0.318863 0.207006 0.205906 0.180816 0.040204 -0.004421 0.017634 -0.068839 0.128956 0.225936 0.182859 0.175708 0.310335 0.175935 0.506138 0.605315 0.620756 0.635784 0.846992 0.808707 0.913167 0.917145 1.008268 0.981773 1.044454 1.155206 1.008948 1.135073 0.879835 0.899108 0.773250 0.636202 0.786688 0.670124 0.488274 0.324747 0.243790 0.265409 0.146203 0.140417 0.164053 0.107946 0.109930 0.084717 0.237552 0.332627 0.327638 0.462930 0.526180 0.401928 0.577843 0.710653 0.610333 0.698281 0.681441 0.695988 0.620057 0.575218 0.465809 0.349965 0.269071 0.213887 0.095274 0.111360 -0.121874 -0.048902 -0.060848 -0.084325 -0.016221 0.122753 0.070430 0.239343 0.298399 0.325047 0.354351 0.474434 0.432738 0.466651 0.467823 0.292428 0.280760 0.274183 0.081570 0.045035 -0.082561 -0.019113 -0.062071 -0.095722 -0.058431 0.040009 0.093246 0.123709 0.222434 0.211481 0.211791 0.299893 0.325031 0.434444 0.244085 0.223500 0.221424 0.138011 0.141685 0.119090 -0.003849 0.014817 0.080967 -0.013789 0.040843 0.129873 0.129071 0.201656 0.225388 0.237595 0.156365 0.203565 0.124926 0.111413 0.118174 0.021616 -0.026494 -0.001964 -0.021328 -0.048068 0.054617 0.000241 0.104433 0.134317 0.190600 0.145349 0.117657 0.132472 0.149342 0.104428 0.030107 -0.027195 0.020726 0.032416 -0.046466 0.042550 0.016185 0.045705 0.038901 0.051138 0.011587 0.121394 0.107945 0.042563 0.031166 0.037590 0.002076 -0.028461 0.006213 -0.001784 -0.007868 -0.001814 0.062181 0.052351 0.035650 0.063351 0.059295 0.165895 0.064314 0.041824 0.043112 -0.035040 0.015327 0.048573 0.007291 0.030473 0.056021 0.074489 0.065554 0.040338 0.007561 0.077332 0.033103 0.014801 0.026810 -0.003311 0.028993 0.029018 0.018100 0.071310 0.077034 0.081091 0.041967 0.057145 0.017111 0.015267 -0.028865 -0.022242 0.040029 0.051449 0.074813 0.074655 0.064017 0.067537 0.088878 0.037813 0.078043 0.046012 0.046758 0.014795 0.103145 0.064329 0.128260 0.062801 0.059344 0.076533 0.021280 0.001504 0.080042 -0.037875 -0.034573 0.077671 0.040388 0.150968 0.089308 0.074326 0.063921 0.015983 0.078447 -0.020818 -0.023562 0.037325 0.020864 0.023540 0.001893 0.103129 0.013379 -0.019876 0.046351 0.028922 0.049182 0.051302 -0.002774 0.041494 0.038320 0.100011 0.064950 0.030173 -0.028731 -0.038630 -0.003517 0.014304 -0.056324 -0.016026 -0.006622 0.020589 0.024682 0.062837 0.003970 -0.030009 -0.022335 -0.015852 -0.055766 -0.042951 -0.044604 -0.126140 -0.087472 -0.073733 -0.108740 -0.116551 -0.036576 -0.148542 -0.089061 -0.123605 -0.199571 -0.069261 0.062153 -0.079712 -0.121180 0.044997 0.004119 -0.036780 0.060733 -0.024431 -0.002977 -0.078013 -0.048431 0.057310 0.146404 0.043016 0.121393 0.148115 0.502694 0.305539 0.361538 0.200476 -0.017087 -0.695135
0.072396 0.072899 0.074409 0.076924 0.080445 0.084970 0.090498 0.097028 0.104557 0.113083 0.122602 0.133110 0.144602 0.157070 0.170508 0.184906 0.200253 0.216537 0.233741 0.251850 0.270842 0.290694 0.311382 0.332875 0.355139 0.378138 0.401830 0.426169 0.451105 0.476580 0.502534 0.528899 0.555602 0.582565 0.609702 0.636919 0.664120 0.691199 0.718042 0.744532 0.770542 0.795939 0.820584 0.844331 0.867029 0.888521 0.908643 0.927228 0.944106 0.959101 0.972038 0.982737 0.991020 0.996710 0.999631 0.999613 0.996488 0.990098 0.980291 0.966929 0.949884 0.929043 0.904310 0.875609 0.842885 0.806104 0.765261 0.720377 0.671503 0.618723 0.562154 0.501949 0.438298 0.371431 0.301614 0.229157 0.154409 0.077759 0.000363 0.079488 0.159112 0.238692 0.317655 0.395398 0.471292 0.544690 0.614926 0.681327 0.743216 0.799922 0.850783 0.895161 0.932444 0.962060 0.983484 0.996249 0.999953 0.994271 0.978964 0.953888 0.918998 0.874364 0.820169 0.756719 0.684447 0.603912 0.515804 0.420942 0.320268 0.214843 0.105843 0.005457 0.117692 0.229420 0.339145 0.445330 0.546423 0.640877 0.727178 0.803870 0.869581 0.923053 0.963167 0.988972 0.999711 0.994844 0.974069 0.937344 0.884897 0.817244 0.735186 0.639818 0.532518 0.414939 0.288987 0.156803 0.020727 0.116739 0.252970 0.385270 0.510926 0.627261 0.731698 0.821820 0.895430 0.950612 0.985790 0.999780 0.991835 0.961683 0.909561 0.836226 0.742969 0.631602 0.504437 0.364255 0.214254 0.057981 0.100739 0.257895 0.409389 0.551145 0.679217 0.789911 0.879895 0.946312 0.986879 0.999983 0.984753 0.941119 0.869848 0.772553 0.651684 0.510481 0.352906 0.183552 0.007512 0.169757 0.342605 0.505362 0.652533 0.778991 0.880158 0.952196 0.992161 0.998148 0.969393 0.906348 0.810710 0.685405 0.534527 0.363223 0.177549 0.015745 0.209433 0.396089 0.568366 0.719301 0.842593 0.932897 0.986068 0.999381 0.971690 0.903536 0.797181 0.656571 0.487222 0.296036 0.091038 0.118940 0.324625 0.516722 0.686329 0.825366 0.926980 0.985908 0.998782 0.964348 0.883603 0.759815 0.598433 0.406894 0.194306 0.028958 0.251743 0.462676 0.650734 0.805842 0.919440 0.984973 0.998319 0.958078 0.865739 0.725681 0.545019 0.333291 0.101986 0.136051 0.367314 0.578408 0.756824 0.891712 0.974571 0.999825 0.965251 0.872205 0.725647 0.533932 0.308397 0.062721 0.187870 0.427528 0.640793 0.813596 0.934234 0.994185 0.988783 0.917624 0.784714 0.598315 0.370504 0.116432 0.146635 0.400479 0.627174 0.810387 0.936571 0.996026 0.983710 0.899719 0.749423 0.543201 0.295800 0.025327 0.248029 0.503484 0.721256 0.884123 0.978821 0.997201 0.936995 0.802153 0.602672 0.353951 0.075659 0.209770 0.478918 0.709304 0.881302 0.979852 0.995859 0.927113 0.778642 0.562458 0.296668 0.004041 0.289908 0.559108 0.779270 0.930104 0.997271 0.973820 0.861007 0.668369 0.413022 0.118238 0.188607 0.478562 0.723801 0.900354 0.990505 0.984659 0.882472 0.693088 0.434453 0.131706 0.185186 0.484354 0.735222 0.911687 0.994900 0.975380 0.854210 0.643157 0.363656 0.044744 0.279893 0.575434 0.809673 0.956589 0.999325 0.932242 0.761786 0.506016 0.192830 0.142987 0.463561 0.732204 0.917640 0.997747 0.962307 0.814452 0.570570 0.258629 0.084902 0.419246 0.704160 0.904784 0.996017 0.965779 0.816758 0.566379 0.244909 0.108049 0.448381 0.732956 0.925129 0.999559 0.945708 0.769479 0.492777 0.150937 0.211633
1.000000 1.000000 1.000000 1.000000 1.000000 1.000000 1.000000 1.000000 1.000000 1.000000 1.000000 1.000000 1.000000 1.000000 1.000000 1.000000 1.000000 1.000000 1.000000 1.000000 1.000000 1.000000 1.000000 1.000000 1.000000 1.000000 1.000000 1.000000 1.000000 1.000000 1.000000 1.000000 1.000000 1.000000 1.000000 1.000000 1.000000 1.000000 1.000000 1.000000 1.000000 1.000000 1.000000 1.000000 1.000000 1.000000 1.000000 1.000000 1.000000 1.000000 1.000000 1.000000 0.914361 0.914361 0.914361 0.911670 0.911670 0.911670 0.911670 0.911670 0.911670 0.911670 0.911670 0.911670 0.911670 0.911670 0.911670 0.911670 0.911670 0.911670 0.911670 0.911670 0.911670 0.911670 0.911670 0.911670 0.911670 0.911670 0.911670 0.911670 0.911670 0.911670 0.911670 0.911670 0.911670 0.911670 0.911670 0.911670 0.911670 0.911670 0.911670 0.911670 0.911670 0.911670 0.911670 0.911670 0.940010 0.941412 0.949804 0.949289 0.948754 0.946816 0.945532 0.945334 0.945255 0.945611 0.946347 0.947339 0.953534 0.954467 0.958848 0.961583 0.961559 0.963324 0.965327 0.964984 0.956816 0.956554 0.955095 0.954399 0.956523 0.955214 0.954033 0.954526 0.952228 0.956389 0.955987 0.954821 0.953228 0.951680 0.948158 0.947739 0.947490 0.948301 0.948390 0.949969 0.952993 0.951323 0.951435 0.948770 0.948330 0.949544 0.949203 0.950913 0.938929 0.938054 0.936401 0.936343 0.938932 0.938717 0.938614 0.939566 0.939279 0.939204 0.939219 0.933462 0.933359 0.926678 0.922091 0.921126 0.915136 0.910995 0.913772 0.916815 0.917852 0.918275 0.907906 0.905112 0.906192 0.904868 0.906158 0.907550 0.908799 0.909150 0.909086 0.904085 0.895259 0.893840 0.882754 0.885439 0.880582 0.877813 0.875091 0.867300 0.859053 0.870518 0.857613 0.811846 0.815408 0.820033 0.813049 0.808948 0.813066 0.813923 0.818870 0.813411 0.812639 0.805783 0.790952 0.789244 0.784135 0.769212 0.763092 0.753205 0.742743 0.736742 0.759671 0.753348 0.765446 0.769032 0.768369 0.763971 0.753301 0.740928 0.741639 0.742328 0.737604 0.713307 0.705688 0.705214 0.704629 0.690117 0.692230 0.681439 0.681848 0.666979 0.672626 0.678773 0.682306 0.676766 0.669229 0.660780 0.655614 0.669878 0.682225 0.672667 0.669411 0.683584 0.675021 0.670892 0.661475 0.663885 0.654530 0.655004 0.652884 0.688829 0.663471 0.653399 0.659650 0.661260 0.656446 0.654206 0.631886 0.626486 0.601892 0.619841 0.624388 0.639412 0.643545 0.648836 0.660101 0.667296 0.677666 0.683172 0.678495 0.637274 0.643433 0.663461 0.671562 0.663421 0.654158 0.644131 0.627104 0.663990 0.642471 0.604752 0.598703 0.603437 0.560122 0.542926 0.540381 0.538862 0.567774 0.568423 0.554577 0.530923 0.532808 0.529439 0.520632 0.519595 0.506307 0.510569 0.493685 0.472985 0.489161 0.496837 0.495818 0.479784 0.471011 0.483678 0.468453 0.486155 0.471014 0.458067 0.473504 0.473781 0.466024 0.392730 0.400273 0.396481 0.377574 0.337287 0.345365 0.356035 0.333604 0.259854 0.255815 0.256542 0.252236 0.224254 0.198585 0.184378 0.177571 0.156780 0.092054 0.040798 0.044659 0.047930 0.074365 0.037509 0.096073 0.168661 0.160738 0.160738 0.160738 0.160738 0.160738 0.160738 0.160738 0.160738 0.140608 0.140608 0.140608 0.140608 0.140608 0.140608 0.140608 0.140608 0.140608 0.160738 0.160738 0.160738 0.160738 0.160738 0.160738 0.160738 0.160738 0.160738 0.160738 0.160738 0.160738 0.160738 0.160738
0.000000 0.000000 0.000000 0.000000 0.000000 0.000000 0.000000 0.000000 0.000000 0.000000 0.000000 0.000000 0.000000 0.000000 0.000000 0.000000 0.000000 0.000000 0.000000 0.000000 0.000000 0.000000 0.000000 0.000000 0.000000 0.000000 0.000000 0.000000 0.000000 0.000000 0.000000 0.000000 0.000000 0.000000 0.000000 0.000000 0.000000 0.000000 0.000000 0.000000 0.000000 0.000000 0.000000 0.000000 0.000000 0.000000 0.000000 0.000000 0.000000 0.000000 0.000000 0.000000 0.180334 0.180334 0.180334 0.199007 0.199007 0.199007 0.199007 0.199007 0.199007 0.199007 0.199007 0.199007 0.199007 0.199007 0.199007 0.199007 0.199007 0.199007 0.199007 0.199007 0.199007 0.199007 0.199007 0.199007 0.199007 0.199007 0.199007 0.199007 0.199007 0.199007 0.199007 0.199007 0.199007 0.199007 0.199007 0.199007 0.199007 0.199007 0.199007 0.199007 0.199007 0.199007 0.199007 0.199007 0.225018 0.225018 0.225018 0.225018 0.225018 0.225018 0.225018 0.225018 0.225018 0.225018 0.225018 0.225018 0.225018 0.225018 0.225018 0.225018 0.225018 0.225018 0.225018 0.225018 0.225018 0.225018 0.225018 0.225018 0.225018 0.225018 0.225018 0.225018 0.225018 0.244339 0.244339 0.244339 0.244339 0.244339 0.244339 0.244339 0.244339 0.244339 0.244339 0.244339 0.244339 0.244339 0.244339 0.244339 0.244339 0.244339 0.244339 0.244339 0.244339 0.244339 0.244339 0.244339 0.256074 0.256074 0.256074 0.256074 0.256074 0.256074 0.256074 0.256074 0.256074 0.256074 0.256074 0.256074 0.256074 0.256074 0.256074 0.256074 0.256074 0.256074 0.256074 0.256074 0.256074 0.256074 0.256074 0.256074 0.256074 0.256074 0.256074 0.256074 0.256074 0.256074 0.256074 0.256074 0.256074 0.256074 0.256074 0.256074 0.256074 0.264906 0.264906 0.264906 0.264906 0.264906 0.264906 0.264906 0.264906 0.264906 0.264906 0.264906 0.264906 0.264906 0.264906 0.264906 0.264906 0.264906 0.264906 0.264906 0.264906 0.264906 0.264906 0.264906 0.264906 0.264906 0.264906 0.264906 0.264906 0.264906 0.264906 0.264906 0.264906 0.264906 0.264906 0.264906 0.264906 0.264906 0.264906 0.264906 0.264906 0.264906 0.264906 0.264906 0.264906 0.264906 0.264906 0.264906 0.264906 0.264906 0.264906 0.264906 0.264906 0.264906 0.264906 0.264906 0.264906 0.264906 0.264906 0.260378 0.260378 0.260378 0.260378 0.260378 0.260378 0.260378 0.260378 0.260378 0.260378 0.260378 0.260378 0.260378 0.264906 0.264906 0.264906 0.264906 0.264906 0.264906 0.264906 0.264906 0.264906 0.264906 0.264906 0.264906 0.269680 0.269680 0.269680 0.269680 0.269680 0.269680 0.269680 0.269680 0.269680 0.269680 0.269680 0.264906 0.264906 0.264906 0.264906 0.264906 0.264906 0.264906 0.264906 0.264906 0.264906 0.264906 0.256074 0.256074 0.256074 0.256074 0.256074 0.256074 0.256074 0.256074 0.256074 0.256074 0.256074 0.264906 0.264906 0.264906 0.264906 0.264906 0.264906 0.264906 0.264906 0.264906 0.264906 0.260378 0.260378 0.260378 0.260378 0.260378 0.260378 0.260378 0.260378 0.260378 0.260378 0.264906 0.264906 0.264906 0.264906 0.264906 0.264906 0.264906 0.264906 0.264906 0.251976 0.251976 0.251976 0.251976 0.251976 0.251976 0.251976 0.251976 0.251976 0.251976 0.256074 0.256074 0.256074 0.256074 0.256074 0.256074 0.256074 0.256074 0.256074 0.251976 0.251976 0.251976 0.251976 0.251976 0.251976 0.251976 0.251976 0.251976 0.251976 0.251976 0.251976 0.251976 0.251976
