# Output from CTFFind version 4.1.9, run on 2019-11-03 20:09:14
# Input file: stack16_bm3d_averaged_1_10_0_2000_half.mrc ; Number of micrographs: 1
# Pixel size: 3.000 Angstroms ; acceleration voltage: 300.0 keV ; spherical aberration: 0.00 mm ; amplitude contrast: 0.07
# Box size: 512 pixels ; min. res.: 30.0 Angstroms ; max. res.: 5.0 Angstroms ; min. def.: 5000.0 um; max. def. 50000.0 um; num. frames averaged: 1
# 6 lines per micrograph: #1 - spatial frequency (1/Angstroms); #2 - 1D rotational average of spectrum (assuming no astigmatism); #3 - 1D rotational average of spectrum; #4 - CTF fit; #5 - cross-correlation between spectrum and CTF fit; #6 - 2sigma of expected cross correlation of noise
0.000000 0.000651 0.001302 0.001953 0.002604 0.003255 0.003906 0.004557 0.005208 0.005859 0.006510 0.007161 0.007812 0.008464 0.009115 0.009766 0.010417 0.011068 0.011719 0.012370 0.013021 0.013672 0.014323 0.014974 0.015625 0.016276 0.016927 0.017578 0.018229 0.018880 0.019531 0.020182 0.020833 0.021484 0.022135 0.022786 0.023438 0.024089 0.024740 0.025391 0.026042 0.026693 0.027344 0.027995 0.028646 0.029297 0.029948 0.030599 0.031250 0.031901 0.032552 0.033203 0.033854 0.034505 0.035156 0.035807 0.036458 0.037109 0.037760 0.038411 0.039062 0.039714 0.040365 0.041016 0.041667 0.042318 0.042969 0.043620 0.044271 0.044922 0.045573 0.046224 0.046875 0.047526 0.048177 0.048828 0.049479 0.050130 0.050781 0.051432 0.052083 0.052734 0.053385 0.054036 0.054688 0.055339 0.055990 0.056641 0.057292 0.057943 0.058594 0.059245 0.059896 0.060547 0.061198 0.061849 0.062500 0.063151 0.063802 0.064453 0.065104 0.065755 0.066406 0.067057 0.067708 0.068359 0.069010 0.069661 0.070312 0.070964 0.071615 0.072266 0.072917 0.073568 0.074219 0.074870 0.075521 0.076172 0.076823 0.077474 0.078125 0.078776 0.079427 0.080078 0.080729 0.081380 0.082031 0.082682 0.083333 0.083984 0.084635 0.085286 0.085938 0.086589 0.087240 0.087891 0.088542 0.089193 0.089844 0.090495 0.091146 0.091797 0.092448 0.093099 0.093750 0.094401 0.095052 0.095703 0.096354 0.097005 0.097656 0.098307 0.098958 0.099609 0.100260 0.100911 0.101562 0.102214 0.102865 0.103516 0.104167 0.104818 0.105469 0.106120 0.106771 0.107422 0.108073 0.108724 0.109375 0.110026 0.110677 0.111328 0.111979 0.112630 0.113281 0.113932 0.114583 0.115234 0.115885 0.116536 0.117188 0.117839 0.118490 0.119141 0.119792 0.120443 0.121094 0.121745 0.122396 0.123047 0.123698 0.124349 0.125000 0.125651 0.126302 0.126953 0.127604 0.128255 0.128906 0.129557 0.130208 0.130859 0.131510 0.132161 0.132812 0.133464 0.134115 0.134766 0.135417 0.136068 0.136719 0.137370 0.138021 0.138672 0.139323 0.139974 0.140625 0.141276 0.141927 0.142578 0.143229 0.143880 0.144531 0.145182 0.145833 0.146484 0.147135 0.147786 0.148438 0.149089 0.149740 0.150391 0.151042 0.151693 0.152344 0.152995 0.153646 0.154297 0.154948 0.155599 0.156250 0.156901 0.157552 0.158203 0.158854 0.159505 0.160156 0.160807 0.161458 0.162109 0.162760 0.163411 0.164062 0.164714 0.165365 0.166016 0.166667 0.167318 0.167969 0.168620 0.169271 0.169922 0.170573 0.171224 0.171875 0.172526 0.173177 0.173828 0.174479 0.175130 0.175781 0.176432 0.177083 0.177734 0.178385 0.179036 0.179688 0.180339 0.180990 0.181641 0.182292 0.182943 0.183594 0.184245 0.184896 0.185547 0.186198 0.186849 0.187500 0.188151 0.188802 0.189453 0.190104 0.190755 0.191406 0.192057 0.192708 0.193359 0.194010 0.194661 0.195312 0.195964 0.196615 0.197266 0.197917 0.198568 0.199219 0.199870 0.200521 0.201172 0.201823 0.202474 0.203125 0.203776 0.204427 0.205078 0.205729 0.206380 0.207031 0.207682 0.208333 0.208984 0.209635 0.210286 0.210938 0.211589 0.212240 0.212891 0.213542 0.214193 0.214844 0.215495 0.216146 0.216797 0.217448 0.218099 0.218750 0.219401 0.220052 0.220703 0.221354 0.222005 0.222656 0.223307 0.223958 0.224609 0.225260 0.225911 0.226562 0.227214 0.227865 0.228516 0.229167 0.229818 0.230469 0.231120 0.231771 0.232422 0.233073 0.233724 0.234375 0.235026 0.235677
       0.37333        0.37333        0.37333        0.37333        0.37333        0.37333        0.37333        0.37333        0.37333        0.37333        0.37333        0.37333        0.37333        0.37333        0.37333        0.37333        0.37333        0.37333        0.37333        0.37333        0.37333        0.37333        0.37333        0.37333        0.37333        0.37333        0.37333        0.37333        0.37333        0.37333        0.37333        0.37333        0.37333        0.37333        0.37333        0.37333        0.37333        0.37333        0.37333        0.37333        0.37333        0.37333        0.37333        0.37333        0.37333        0.37333        0.37333        0.37333        0.37333        0.37333        0.37333        0.44772        0.56358        0.34992       -0.21563       -0.43377       -0.52055       -0.62879       -0.69257       -0.69297       -0.78131       -0.86324       -0.64966       -0.79759       -0.78813       -0.91958       -0.96399       -0.84563       -0.80675       -0.77088       -0.67205       -0.60481       -0.51331       -0.42334       -0.36174       -0.13619       -0.03608        0.07690        0.28995        0.27720        0.33988        0.38315        0.42128        0.55467        0.55554        0.58851        0.54427        0.49099        0.51912        0.55644        0.48197        0.35079        0.24534        0.20863        0.13227        0.05338        0.03465        0.02387        0.09338        0.06144        0.11117        0.08390        0.20282        0.22213        0.42546        0.47517        0.55369        0.66021        0.68431        0.71591        0.65545        0.61901        0.57271        0.46521        0.40573        0.31060        0.24431        0.24507        0.13375        0.15167        0.16404        0.12019        0.12078        0.32124        0.44047        0.54685        0.54447        0.56665        0.61006        0.59592        0.57373        0.59761        0.58110        0.49055        0.33632        0.28970        0.29147        0.19805        0.12156        0.20222        0.25757        0.31664        0.37215        0.44754        0.49398        0.54746        0.61307        0.56287        0.51162        0.53381        0.37783        0.32109        0.29066        0.20580        0.24903        0.27712        0.31198        0.30825        0.36282        0.45208        0.48426        0.51049        0.46855        0.45971        0.50749        0.42001        0.34336        0.30862        0.29068        0.26019        0.24297        0.25987        0.36389        0.47328        0.45757        0.49484        0.56020        0.48049        0.43750        0.37833        0.35278        0.30651        0.30689        0.29190        0.31553        0.39591        0.40363        0.46765        0.48479        0.46349        0.49009        0.40650        0.39695        0.36609        0.30065        0.28021        0.28491        0.37313        0.39665        0.37888        0.40184        0.44521        0.46414        0.41389        0.35623        0.34746        0.37797        0.34551        0.31385        0.32506        0.38640        0.40135        0.42110        0.40834        0.42092        0.44269        0.42813        0.35034        0.31399        0.32475        0.35922        0.41973        0.39291        0.42195        0.37522        0.38872        0.40872        0.36616        0.36921        0.34101        0.33076        0.35984        0.37399        0.35606        0.39569        0.40572        0.35167        0.37002        0.35086        0.33790        0.33292        0.34503        0.35886        0.34725        0.38859        0.40058        0.38863        0.32864        0.32721        0.30990        0.35324        0.34302        0.33788        0.39071        0.37681        0.35866        0.34012        0.33052        0.31838        0.30029        0.34501        0.36200        0.38406        0.38786        0.37736        0.35053        0.36697        0.39154        0.36460        0.36868        0.36659        0.34211        0.35197        0.31573        0.33689        0.33307        0.33834        0.30452        0.34914        0.37587        0.34384        0.38353        0.34325        0.36215        0.37304        0.35681        0.33935        0.36249        0.39932        0.36724        0.39748        0.35684        0.33587        0.35419        0.33887        0.35613        0.35417        0.39263        0.33702        0.34205        0.32311        0.32619        0.29600        0.31387        0.38906        0.34260        0.33036        0.30624        0.28820        0.29609        0.37706        0.32366        0.30984        0.35326        0.33369        0.29927        0.26733        0.30976        0.30340        0.33244        0.33596        0.36911        0.36167        0.34991        0.34117        0.28628        0.31999        0.32547        0.32178        0.33273        0.36462        0.32553        0.24668        0.32091        0.33831        0.35863        0.31143        0.31675        0.26621        0.31737        0.28752        0.27054        0.29938        0.25855        0.32055        0.32225        0.31284        0.29346        0.36043        0.30507        0.25938        0.26416        0.33107        0.25017        0.15403        0.11740        0.19168        0.36301        0.34401        0.21560        0.19918       -0.30391       -0.57721
3.350410 3.307305 3.264482 3.221941 3.179683 3.137706 3.096012 3.054600 3.013469 2.972621 2.932055 2.891771 2.851769 2.812050 2.772612 2.733457 2.694583 2.655992 2.617682 2.579655 2.541910 2.504447 2.467266 2.430367 2.393751 2.357416 2.321363 2.285593 2.250105 2.214898 2.179974 2.145332 2.110972 2.076894 2.043098 2.009585 1.976353 1.943403 1.910736 1.878351 1.846247 1.814426 1.782887 1.751630 1.720655 1.689963 1.659552 1.629423 1.599577 1.570012 1.540730 1.579126 1.632276 1.571180 0.847855 0.616079 0.476975 0.403432 0.304907 0.236884 0.208716 -0.043324 0.226111 0.094523 -0.017303 -0.087791 -0.230341 -0.134155 -0.038152 -0.093788 -0.060599 0.047515 0.051922 0.245333 0.114770 0.366374 0.469040 0.516566 0.788632 0.680799 0.710788 0.819276 0.795506 0.860950 0.921056 0.857342 0.881966 0.728478 0.777200 0.846544 0.701331 0.603326 0.429278 0.431430 0.312050 0.200212 0.191711 0.107656 0.207282 0.119821 0.203833 0.103622 0.213075 0.222176 0.421078 0.387682 0.550127 0.585334 0.592057 0.702421 0.591801 0.546022 0.450229 0.406363 0.267870 0.250133 0.076811 0.135204 -0.040636 0.027950 -0.030088 -0.054849 -0.079446 0.007860 0.236962 0.277454 0.330966 0.264753 0.353469 0.357121 0.378827 0.358504 0.339927 0.304753 0.102095 0.049970 0.053507 -0.037284 -0.153334 -0.081070 -0.066705 0.022836 0.058407 0.126962 0.185976 0.204826 0.297587 0.388829 0.251017 0.352541 0.206783 0.147182 0.055785 0.023313 -0.001099 0.055622 0.064936 0.080745 0.114992 0.161085 0.228172 0.288742 0.253226 0.197056 0.245421 0.216983 0.102746 0.035879 0.058779 0.014727 0.003320 -0.047020 0.027775 0.159970 0.201559 0.175306 0.281406 0.184917 0.196874 0.072546 0.063390 0.030656 -0.002397 -0.015000 -0.009114 0.049106 0.099466 0.111393 0.160498 0.138156 0.226728 0.147736 0.078279 0.097963 0.031486 -0.040725 -0.010121 0.036273 0.080862 0.066262 0.059559 0.145986 0.105792 0.153810 0.042943 0.039873 0.048703 0.045980 0.027193 -0.009965 0.041656 0.061471 0.092676 0.098779 0.080196 0.116760 0.114988 0.077535 0.006441 -0.016307 0.004784 0.069288 0.090531 0.086001 0.081501 0.053354 0.089627 0.062760 0.038682 0.057455 -0.004157 0.006573 0.071063 0.039878 0.041281 0.087668 0.088031 0.044368 0.067872 0.025277 0.017427 0.021975 0.055850 0.031840 0.033109 0.078081 0.083883 0.049743 -0.002039 0.001839 -0.019578 0.051833 0.005327 0.014657 0.074823 0.041944 0.009047 0.021007 -0.016038 -0.002411 -0.029762 0.015108 0.038386 0.063957 0.037764 0.039001 0.016281 0.011862 0.063741 0.018061 0.027823 0.019225 -0.005615 0.018821 -0.038117 -0.035365 -0.037120 -0.011078 -0.070675 0.017627 0.021213 -0.010346 -0.008875 0.002225 -0.006151 0.025243 -0.001365 -0.012525 0.019652 0.036953 0.012541 0.052096 -0.006375 0.007748 0.017010 -0.007940 0.019007 0.000715 0.095485 0.020053 0.010271 0.004861 -0.005275 -0.022221 0.013817 0.069356 0.023105 0.028958 -0.028115 -0.020750 -0.018927 0.078628 0.006079 -0.025052 0.070756 0.045558 -0.009806 -0.007751 -0.002941 0.027263 0.043186 0.041099 0.117051 0.040665 0.067880 0.046433 -0.005750 0.040154 0.025874 0.000611 0.040160 0.066047 0.010363 -0.056073 0.021944 0.045092 0.056991 -0.011408 0.008075 -0.036409 -0.006351 -0.010783 -0.043599 0.013784 -0.067857 0.053137 0.013817 0.049371 -0.076323 0.080234 0.047986 0.007713 -0.023496 0.110187 0.018297 -0.055049 -0.156003 0.166425 0.337641 0.335923 0.135280 0.199148 -0.563253
0.072396 0.073047 0.074998 0.078250 0.082801 0.088650 0.095794 0.104232 0.113957 0.124967 0.137253 0.150808 0.165621 0.181680 0.198969 0.217471 0.237161 0.258016 0.280004 0.303089 0.327230 0.352381 0.378488 0.405490 0.433319 0.461898 0.491142 0.520956 0.551237 0.581870 0.612730 0.643682 0.674578 0.705261 0.735560 0.765296 0.794275 0.822293 0.849137 0.874583 0.898397 0.920336 0.940153 0.957591 0.972392 0.984293 0.993032 0.998350 0.999990 0.997704 0.991253 0.980415 0.964981 0.944767 0.919611 0.889382 0.853980 0.813346 0.767459 0.716346 0.660084 0.598802 0.532689 0.461992 0.387023 0.308158 0.225843 0.140587 0.052972 0.036357 0.126690 0.217257 0.307228 0.395727 0.481832 0.564588 0.643014 0.716119 0.782910 0.842408 0.893666 0.935780 0.967913 0.989305 0.999299 0.997352 0.983061 0.956170 0.916596 0.864436 0.799985 0.723740 0.636414 0.538932 0.432436 0.318278 0.198010 0.073371 0.053731 0.181249 0.307019 0.428803 0.544322 0.651301 0.747519 0.830857 0.899348 0.951234 0.985013 0.999494 0.993841 0.967612 0.920804 0.853869 0.767740 0.663835 0.544051 0.410751 0.266724 0.115146 0.040481 0.196407 0.348711 0.493408 0.626548 0.744332 0.843226 0.920079 0.972238 0.997652 0.994965 0.963601 0.903818 0.816750 0.704414 0.569695 0.416296 0.248658 0.071856 0.108548 0.286669 0.456483 0.612037 0.747661 0.858192 0.939183 0.987109 0.999539 0.975282 0.914499 0.818753 0.691021 0.535636 0.358178 0.165303 0.035480 0.236096 0.428208 0.603576 0.754407 0.873734 0.955753 0.996139 0.992311 0.943624 0.851487 0.719380 0.552784 0.358992 0.146836 0.073687 0.291869 0.496804 0.677933 0.825614 0.931652 0.989805 0.996188 0.949581 0.851601 0.706730 0.522168 0.307548 0.074463 0.164108 0.394518 0.603225 0.777600 0.906722 0.982109 0.998332 0.953459 0.849315 0.691496 0.489160 0.254558 0.002349 0.251274 0.489614 0.696566 0.857741 0.961504 0.999880 0.969241 0.870713 0.710261 0.498426 0.249721 0.018304 0.286244 0.534241 0.743453 0.897528 0.983943 0.995096 0.929070 0.789970 0.587789 0.337803 0.059501 0.224874 0.492072 0.719742 0.888329 0.982837 0.994245 0.920470 0.766773 0.545522 0.275318 0.020475 0.315684 0.583620 0.799516 0.942857 0.999430 0.962845 0.835377 0.628004 0.359611 0.055380 0.255475 0.542481 0.776911 0.934695 0.999013 0.962197 0.826794 0.605590 0.320562 0.000838 0.320214 0.608406 0.832416 0.967248 0.997161 0.917644 0.736237 0.472011 0.153728 0.183152 0.500371 0.761207 0.934772 0.999811 0.947451 0.782587 0.523665 0.200801 0.147557 0.479141 0.752966 0.934462 0.999963 0.939976 0.760744 0.483854 0.143842 0.215957 0.548853 0.810857 0.966582 0.994176 0.888599 0.662715 0.345988 0.019159 0.382884 0.694679 0.910437 0.998810 0.945981 0.758059 0.460668 0.095713 0.284352 0.623982 0.872664 0.992560 0.964474 0.791179 0.497498 0.127046 0.264070 0.615619 0.872556 0.993752 0.958813 0.771784 0.461059 0.075354 0.323701 0.671336 0.910165 0.999836 0.924089 0.694024 0.346810 0.059996 0.457809 0.778541 0.966299 0.987376 0.836582 0.538779 0.145141 0.275370 0.647969 0.905329 0.999949 0.913188 0.659295 0.283482 0.145824 0.549205 0.850950 0.993357 0.948081 0.722114 0.357197 0.077559 0.498472 0.823383 0.987757 0.957822 0.737865 0.370158 0.072783 0.502239 0.830954 0.991031 0.948218 0.709670 0.323263 0.131608 0.560057 0.871485 0.998872 0.913543 0.632077 0.213586 0.252291 0.664370
1.000000 1.000000 1.000000 1.000000 1.000000 1.000000 1.000000 1.000000 1.000000 1.000000 1.000000 1.000000 1.000000 1.000000 1.000000 1.000000 1.000000 1.000000 1.000000 1.000000 1.000000 1.000000 1.000000 1.000000 1.000000 1.000000 1.000000 1.000000 1.000000 1.000000 1.000000 1.000000 1.000000 1.000000 1.000000 1.000000 1.000000 1.000000 1.000000 1.000000 1.000000 1.000000 1.000000 1.000000 1.000000 1.000000 1.000000 1.000000 1.000000 1.000000 1.000000 1.000000 0.923643 0.923643 0.923643 0.923643 0.923643 0.923643 0.923643 0.923643 0.923643 0.923643 0.923643 0.923643 0.923643 0.923643 0.923643 0.923643 0.923643 0.923643 0.923643 0.923643 0.923643 0.923643 0.923643 0.923643 0.923643 0.923643 0.923643 0.923643 0.923643 0.923643 0.923643 0.923643 0.923643 0.913419 0.911503 0.912668 0.911234 0.909756 0.909169 0.908780 0.909822 0.911429 0.913498 0.935117 0.936948 0.938224 0.939550 0.941124 0.943361 0.941176 0.945129 0.951139 0.950014 0.951331 0.951580 0.952149 0.951515 0.950791 0.953054 0.952254 0.950584 0.948593 0.946922 0.946369 0.946144 0.949785 0.950268 0.950438 0.951025 0.950974 0.951692 0.949587 0.947954 0.950247 0.931728 0.929962 0.934822 0.932206 0.933110 0.933079 0.933741 0.934652 0.935067 0.935348 0.931936 0.931375 0.930223 0.924489 0.917014 0.917328 0.919418 0.921609 0.918989 0.917913 0.919153 0.919964 0.917613 0.920560 0.913283 0.910770 0.886340 0.873524 0.867883 0.868642 0.873721 0.877711 0.875492 0.871633 0.865173 0.862795 0.861101 0.862637 0.852612 0.854279 0.853594 0.847259 0.850028 0.852805 0.858242 0.857668 0.853989 0.848854 0.842096 0.827660 0.827697 0.827934 0.831675 0.812154 0.795808 0.828735 0.823074 0.819573 0.826945 0.828730 0.826564 0.824984 0.825350 0.823332 0.815381 0.806347 0.810051 0.819193 0.823660 0.815995 0.811414 0.813222 0.813049 0.808901 0.813826 0.816345 0.813082 0.803904 0.819291 0.800838 0.815817 0.816300 0.793988 0.779517 0.766652 0.773339 0.780189 0.768199 0.769004 0.781091 0.780933 0.777356 0.767853 0.740886 0.748245 0.746294 0.738556 0.729853 0.736205 0.728353 0.727562 0.727568 0.732095 0.731636 0.709448 0.723509 0.730004 0.730527 0.741348 0.742107 0.734070 0.737340 0.742428 0.729387 0.724352 0.705665 0.708172 0.641559 0.635080 0.613947 0.609677 0.605293 0.549720 0.550818 0.534558 0.518888 0.517599 0.484773 0.526323 0.427098 0.420938 0.437453 0.377292 0.372205 0.392195 0.393192 0.408996 0.381128 0.379853 0.387062 0.363297 0.334969 0.311309 0.334931 0.343106 0.335460 0.337405 0.307481 0.300428 0.249913 0.268084 0.272426 0.298559 0.296412 0.282078 0.300451 0.353745 0.288034 0.274669 0.252549 0.278895 0.282273 0.267386 0.258030 0.285021 0.229279 0.247939 0.252518 0.254061 0.311170 0.336253 0.337448 0.333161 0.341382 0.370821 0.338140 0.344797 0.358531 0.350322 0.367557 0.370461 0.383513 0.386224 0.431040 0.454438 0.460758 0.471452 0.487282 0.487445 0.464989 0.471974 0.427767 0.453145 0.430446 0.439218 0.400366 0.386087 0.383979 0.348732 0.305676 0.306559 0.302054 0.256920 0.256746 0.246043 0.212538 0.212088 0.224498 0.234721 0.204344 0.211115 0.223444 0.223444 0.223444 0.223444 0.223444 0.223444 0.223444 0.223444 0.223444 0.223444 0.223444 0.223444 0.223444 0.223444 0.243624 0.243624 0.243624 0.243624 0.243624 0.243624 0.243624 0.243624 0.243624 0.243624 0.243624 0.243624
0.000000 0.000000 0.000000 0.000000 0.000000 0.000000 0.000000 0.000000 0.000000 0.000000 0.000000 0.000000 0.000000 0.000000 0.000000 0.000000 0.000000 0.000000 0.000000 0.000000 0.000000 0.000000 0.000000 0.000000 0.000000 0.000000 0.000000 0.000000 0.000000 0.000000 0.000000 0.000000 0.000000 0.000000 0.000000 0.000000 0.000000 0.000000 0.000000 0.000000 0.000000 0.000000 0.000000 0.000000 0.000000 0.000000 0.000000 0.000000 0.000000 0.000000 0.000000 0.000000 0.209657 0.209657 0.209657 0.209657 0.209657 0.209657 0.209657 0.209657 0.209657 0.209657 0.209657 0.209657 0.209657 0.209657 0.209657 0.209657 0.209657 0.209657 0.209657 0.209657 0.209657 0.209657 0.209657 0.209657 0.209657 0.209657 0.209657 0.209657 0.209657 0.209657 0.209657 0.209657 0.209657 0.244339 0.244339 0.244339 0.244339 0.244339 0.244339 0.244339 0.244339 0.244339 0.244339 0.244339 0.244339 0.244339 0.244339 0.244339 0.244339 0.244339 0.244339 0.244339 0.244339 0.244339 0.244339 0.244339 0.244339 0.244339 0.260378 0.260378 0.260378 0.260378 0.260378 0.260378 0.260378 0.260378 0.260378 0.260378 0.260378 0.260378 0.260378 0.260378 0.260378 0.260378 0.260378 0.260378 0.260378 0.260378 0.269680 0.269680 0.269680 0.269680 0.269680 0.269680 0.269680 0.269680 0.269680 0.269680 0.269680 0.269680 0.269680 0.269680 0.269680 0.269680 0.269680 0.269680 0.269680 0.269680 0.269680 0.269680 0.269680 0.269680 0.269680 0.269680 0.269680 0.269680 0.269680 0.269680 0.269680 0.269680 0.269680 0.280056 0.280056 0.280056 0.280056 0.280056 0.280056 0.280056 0.280056 0.280056 0.280056 0.280056 0.280056 0.280056 0.280056 0.280056 0.280056 0.280056 0.280056 0.280056 0.280056 0.280056 0.280056 0.280056 0.280056 0.280056 0.280056 0.280056 0.274721 0.274721 0.274721 0.274721 0.274721 0.274721 0.274721 0.274721 0.274721 0.274721 0.274721 0.274721 0.274721 0.285714 0.285714 0.285714 0.285714 0.285714 0.285714 0.285714 0.285714 0.285714 0.285714 0.285714 0.280056 0.280056 0.280056 0.280056 0.280056 0.280056 0.280056 0.280056 0.280056 0.280056 0.280056 0.274721 0.274721 0.274721 0.274721 0.274721 0.274721 0.274721 0.274721 0.274721 0.274721 0.274721 0.280056 0.280056 0.280056 0.280056 0.280056 0.280056 0.280056 0.280056 0.280056 0.280056 0.285714 0.285714 0.285714 0.285714 0.285714 0.285714 0.285714 0.285714 0.285714 0.269680 0.269680 0.269680 0.269680 0.269680 0.269680 0.269680 0.269680 0.269680 0.269680 0.274721 0.274721 0.274721 0.274721 0.274721 0.274721 0.274721 0.274721 0.274721 0.285714 0.285714 0.285714 0.285714 0.285714 0.285714 0.285714 0.285714 0.264906 0.264906 0.264906 0.264906 0.264906 0.264906 0.264906 0.264906 0.264906 0.274721 0.274721 0.274721 0.274721 0.274721 0.274721 0.274721 0.274721 0.269680 0.269680 0.269680 0.269680 0.269680 0.269680 0.269680 0.269680 0.269680 0.269680 0.269680 0.269680 0.269680 0.269680 0.269680 0.269680 0.280056 0.280056 0.280056 0.280056 0.280056 0.280056 0.280056 0.260378 0.260378 0.260378 0.260378 0.260378 0.260378 0.260378 0.260378 0.269680 0.269680 0.269680 0.269680 0.269680 0.269680 0.269680 0.264906 0.264906 0.264906 0.264906 0.264906 0.264906 0.264906 0.264906 0.264906 0.264906 0.264906 0.264906 0.264906 0.264906 0.260378 0.260378 0.260378 0.260378 0.260378 0.260378 0.260378 0.260378 0.260378 0.260378 0.260378 0.260378
