# Output from CTFFind version 4.1.9, run on 2019-11-03 19:48:02
# Input file: stack11_bm3d_averaged_1_5.25_0_1500_half.mrc ; Number of micrographs: 1
# Pixel size: 3.000 Angstroms ; acceleration voltage: 300.0 keV ; spherical aberration: 0.00 mm ; amplitude contrast: 0.07
# Box size: 512 pixels ; min. res.: 30.0 Angstroms ; max. res.: 5.0 Angstroms ; min. def.: 5000.0 um; max. def. 50000.0 um; num. frames averaged: 1
# 6 lines per micrograph: #1 - spatial frequency (1/Angstroms); #2 - 1D rotational average of spectrum (assuming no astigmatism); #3 - 1D rotational average of spectrum; #4 - CTF fit; #5 - cross-correlation between spectrum and CTF fit; #6 - 2sigma of expected cross correlation of noise
0.000000 0.000651 0.001302 0.001953 0.002604 0.003255 0.003906 0.004557 0.005208 0.005859 0.006510 0.007161 0.007812 0.008464 0.009115 0.009766 0.010417 0.011068 0.011719 0.012370 0.013021 0.013672 0.014323 0.014974 0.015625 0.016276 0.016927 0.017578 0.018229 0.018880 0.019531 0.020182 0.020833 0.021484 0.022135 0.022786 0.023438 0.024089 0.024740 0.025391 0.026042 0.026693 0.027344 0.027995 0.028646 0.029297 0.029948 0.030599 0.031250 0.031901 0.032552 0.033203 0.033854 0.034505 0.035156 0.035807 0.036458 0.037109 0.037760 0.038411 0.039062 0.039714 0.040365 0.041016 0.041667 0.042318 0.042969 0.043620 0.044271 0.044922 0.045573 0.046224 0.046875 0.047526 0.048177 0.048828 0.049479 0.050130 0.050781 0.051432 0.052083 0.052734 0.053385 0.054036 0.054688 0.055339 0.055990 0.056641 0.057292 0.057943 0.058594 0.059245 0.059896 0.060547 0.061198 0.061849 0.062500 0.063151 0.063802 0.064453 0.065104 0.065755 0.066406 0.067057 0.067708 0.068359 0.069010 0.069661 0.070312 0.070964 0.071615 0.072266 0.072917 0.073568 0.074219 0.074870 0.075521 0.076172 0.076823 0.077474 0.078125 0.078776 0.079427 0.080078 0.080729 0.081380 0.082031 0.082682 0.083333 0.083984 0.084635 0.085286 0.085938 0.086589 0.087240 0.087891 0.088542 0.089193 0.089844 0.090495 0.091146 0.091797 0.092448 0.093099 0.093750 0.094401 0.095052 0.095703 0.096354 0.097005 0.097656 0.098307 0.098958 0.099609 0.100260 0.100911 0.101562 0.102214 0.102865 0.103516 0.104167 0.104818 0.105469 0.106120 0.106771 0.107422 0.108073 0.108724 0.109375 0.110026 0.110677 0.111328 0.111979 0.112630 0.113281 0.113932 0.114583 0.115234 0.115885 0.116536 0.117188 0.117839 0.118490 0.119141 0.119792 0.120443 0.121094 0.121745 0.122396 0.123047 0.123698 0.124349 0.125000 0.125651 0.126302 0.126953 0.127604 0.128255 0.128906 0.129557 0.130208 0.130859 0.131510 0.132161 0.132812 0.133464 0.134115 0.134766 0.135417 0.136068 0.136719 0.137370 0.138021 0.138672 0.139323 0.139974 0.140625 0.141276 0.141927 0.142578 0.143229 0.143880 0.144531 0.145182 0.145833 0.146484 0.147135 0.147786 0.148438 0.149089 0.149740 0.150391 0.151042 0.151693 0.152344 0.152995 0.153646 0.154297 0.154948 0.155599 0.156250 0.156901 0.157552 0.158203 0.158854 0.159505 0.160156 0.160807 0.161458 0.162109 0.162760 0.163411 0.164062 0.164714 0.165365 0.166016 0.166667 0.167318 0.167969 0.168620 0.169271 0.169922 0.170573 0.171224 0.171875 0.172526 0.173177 0.173828 0.174479 0.175130 0.175781 0.176432 0.177083 0.177734 0.178385 0.179036 0.179688 0.180339 0.180990 0.181641 0.182292 0.182943 0.183594 0.184245 0.184896 0.185547 0.186198 0.186849 0.187500 0.188151 0.188802 0.189453 0.190104 0.190755 0.191406 0.192057 0.192708 0.193359 0.194010 0.194661 0.195312 0.195964 0.196615 0.197266 0.197917 0.198568 0.199219 0.199870 0.200521 0.201172 0.201823 0.202474 0.203125 0.203776 0.204427 0.205078 0.205729 0.206380 0.207031 0.207682 0.208333 0.208984 0.209635 0.210286 0.210938 0.211589 0.212240 0.212891 0.213542 0.214193 0.214844 0.215495 0.216146 0.216797 0.217448 0.218099 0.218750 0.219401 0.220052 0.220703 0.221354 0.222005 0.222656 0.223307 0.223958 0.224609 0.225260 0.225911 0.226562 0.227214 0.227865 0.228516 0.229167 0.229818 0.230469 0.231120 0.231771 0.232422 0.233073 0.233724 0.234375 0.235026 0.235677
       0.34013        0.34013        0.34013        0.34013        0.34013        0.34013        0.34013        0.34013        0.34013        0.34013        0.34013        0.34013        0.34013        0.34013        0.34013        0.34013        0.34013        0.34013        0.34013        0.34013        0.34013        0.34013        0.34013        0.34013        0.34013        0.34013        0.34013        0.34013        0.34013        0.34013        0.34013        0.34013        0.34013        0.34013        0.34013        0.34013        0.34013        0.34013        0.34013        0.34013        0.34013        0.34013        0.34013        0.34013        0.34013        0.34013        0.34013        0.34013        0.34013        0.34013        0.34013        0.69649        0.85913        0.53514        0.10431       -0.03124       -0.39310       -0.18244       -0.28767       -0.11378       -0.05606       -0.11105       -0.05381       -0.17303       -0.20911       -0.21939       -0.30988       -0.32211       -0.44963       -0.36376       -0.43179       -0.42532       -0.39867       -0.41797       -0.45979       -0.51522       -0.56164       -0.56089       -0.53475       -0.36432       -0.33610       -0.29816       -0.27804       -0.18912       -0.17616        0.05556        0.13417        0.16638        0.25959        0.38076        0.45637        0.52148        0.59298        0.59068        0.57912        0.69738        0.80637        0.70739        0.74124        0.62573        0.56783        0.48267        0.42803        0.51096        0.39474        0.25878        0.11136        0.10301        0.08057       -0.02275        0.03026        0.04214       -0.00017        0.02259        0.01989        0.23700        0.26894        0.29418        0.43120        0.45140        0.41133        0.58909        0.62407        0.64653        0.72933        0.67806        0.64864        0.66416        0.56324        0.46577        0.41906        0.30107        0.25675        0.17706        0.13268        0.05285        0.05670        0.06212        0.09502        0.15236        0.23865        0.29019        0.41207        0.46148        0.48262        0.57269        0.60612        0.63758        0.62071        0.56227        0.45880        0.47167        0.37756        0.26739        0.20639        0.15822        0.16641        0.14858        0.14683        0.17496        0.31061        0.32356        0.39759        0.43662        0.42760        0.48740        0.55941        0.55319        0.49707        0.45532        0.40911        0.36338        0.33378        0.29985        0.25115        0.24065        0.23901        0.24870        0.22110        0.30554        0.36123        0.38691        0.43882        0.45589        0.47134        0.42531        0.40590        0.40262        0.36036        0.32295        0.27216        0.26928        0.26262        0.23503        0.28398        0.28366        0.34655        0.37759        0.42401        0.47673        0.41086        0.42418        0.43213        0.40771        0.34718        0.32429        0.29243        0.31675        0.26996        0.31401        0.30684        0.32534        0.33338        0.35745        0.31805        0.39377        0.41547        0.37872        0.34771        0.37094        0.31390        0.29193        0.29994        0.32049        0.30482        0.31757        0.33653        0.34893        0.34003        0.36772        0.36729        0.41005        0.38357        0.33450        0.34210        0.29628        0.28521        0.32161        0.31621        0.32721        0.33676        0.33401        0.37861        0.32832        0.32874        0.33390        0.33934        0.30231        0.30997        0.27596        0.30080        0.32447        0.30355        0.32448        0.34933        0.35725        0.29186        0.32996        0.29359        0.29983        0.27979        0.24313        0.29935        0.30072        0.34195        0.33639        0.33721        0.32421        0.34816        0.31013        0.34351        0.31429        0.31464        0.28283        0.32941        0.31715        0.35925        0.32332        0.33472        0.34113        0.29409        0.27355        0.30865        0.24670        0.22608        0.33831        0.32041        0.35550        0.33961        0.35650        0.32669        0.33659        0.34431        0.26241        0.25406        0.31164        0.30312        0.30928        0.31952        0.33883        0.33342        0.29595        0.29120        0.34290        0.32038        0.30778        0.28499        0.32220        0.34392        0.39653        0.34695        0.30846        0.27683        0.30284        0.28248        0.29455        0.26950        0.25863        0.31214        0.33301        0.34348        0.35201        0.32276        0.28498        0.29775        0.26550        0.26998        0.24961        0.31270        0.27325        0.23457        0.30580        0.30304        0.26740        0.29180        0.21035        0.21297        0.24851        0.18873        0.26146        0.33297        0.24572        0.22706        0.31525        0.31698        0.32008        0.31718        0.26089        0.23434        0.18817        0.21671        0.19208        0.23574        0.22360        0.27075        0.33397        0.31883        0.23126        0.12902        0.06495       -0.01592       -0.09889       -0.60918
2.753188 2.723964 2.694900 2.665996 2.637252 2.608668 2.580244 2.551980 2.523876 2.495931 2.468147 2.440522 2.413058 2.385753 2.358608 2.331623 2.304798 2.278133 2.251628 2.225283 2.199097 2.173072 2.147207 2.121501 2.095955 2.070570 2.045344 2.020278 1.995372 1.970626 1.946040 1.921614 1.897347 1.873241 1.849294 1.825508 1.801881 1.778414 1.755108 1.731961 1.708974 1.686147 1.663480 1.640972 1.618625 1.596438 1.574410 1.552543 1.530835 1.509287 1.487899 1.704651 2.124069 1.684340 1.176830 1.042790 0.445791 0.843839 0.561889 0.843978 0.807032 0.815073 0.756142 0.744626 0.591420 0.553874 0.498727 0.428435 0.243930 0.369246 0.199530 0.327868 0.222404 0.203738 0.178286 0.038932 0.012229 0.016378 -0.068295 0.130016 0.228644 0.187116 0.174855 0.327606 0.184426 0.514280 0.618540 0.621348 0.638284 0.873811 0.829958 0.939234 0.923522 1.021905 0.988629 1.077435 1.165345 1.039544 1.152534 0.910264 0.925489 0.790900 0.648742 0.799317 0.697980 0.483594 0.329865 0.250528 0.261527 0.147025 0.127582 0.159847 0.106017 0.125914 0.075527 0.252349 0.357758 0.342483 0.472446 0.545050 0.418105 0.587044 0.724915 0.666058 0.727854 0.708445 0.717952 0.654923 0.598501 0.503579 0.376039 0.277855 0.220231 0.084993 0.119557 -0.096985 -0.045593 -0.060448 -0.075196 -0.018632 0.135630 0.070854 0.242068 0.306608 0.338753 0.387233 0.504115 0.468786 0.479819 0.492181 0.306021 0.291951 0.284091 0.086138 0.042404 -0.071284 -0.010215 -0.061245 -0.092639 -0.082569 0.037568 0.087287 0.123163 0.217086 0.227780 0.235187 0.288923 0.442775 0.390142 0.266808 0.240321 0.225248 0.151002 0.147809 0.117909 0.003309 0.020802 0.072744 0.000472 0.059223 0.143414 0.146810 0.231005 0.246554 0.273098 0.194823 0.219974 0.147305 0.161679 0.122572 0.050904 -0.006335 0.015575 -0.000649 -0.038790 0.065943 0.024407 0.123792 0.153087 0.200573 0.186608 0.152059 0.158757 0.177872 0.127608 0.057178 -0.002170 0.050666 0.031818 -0.021180 0.040129 0.038035 0.059862 0.050485 0.063574 0.064183 0.137893 0.144102 0.054929 0.052615 0.053561 0.016794 -0.022914 0.016778 0.019545 0.006966 0.016114 0.050413 0.060646 0.055227 0.082413 0.056076 0.148992 0.061033 0.032573 0.039277 -0.035855 0.004321 0.040983 0.003080 0.033825 0.050314 0.024658 0.117077 0.028583 0.001765 0.056401 0.004222 0.009366 0.003530 -0.025331 0.022219 0.006677 0.001918 0.052310 0.054643 0.056970 0.033079 0.037761 0.028251 0.019074 -0.020116 -0.026728 0.029585 0.050771 0.079978 0.084117 0.061255 0.075057 0.111600 0.054263 0.108618 0.081254 0.043812 0.034252 0.105914 0.070432 0.116666 0.091869 0.063357 0.123324 0.050059 0.011837 0.090947 -0.032485 -0.011503 0.108756 0.052697 0.154525 0.092892 0.101746 0.050826 0.074992 0.092836 -0.018930 -0.029152 0.056416 0.054439 0.042432 0.037089 0.104812 0.054166 0.000229 0.056229 0.053046 0.054099 0.053063 -0.016245 0.069566 0.070211 0.131893 0.041077 0.014716 -0.027323 -0.003973 -0.015711 -0.001470 -0.051030 -0.032334 0.008042 0.030301 0.025090 0.038511 -0.001102 -0.043362 -0.038242 -0.026590 -0.074354 -0.061279 -0.015571 0.003818 -0.095388 -0.001984 -0.039807 -0.069658 0.001061 -0.139864 -0.085807 -0.094667 -0.197286 -0.038420 0.055340 -0.054554 -0.156722 0.040778 0.048724 -0.044110 0.052290 -0.066290 0.255855 0.158977 0.224597 0.252520 0.281879 0.241739 0.307050 0.326514 0.364857 0.209852 0.238700 0.083010 -0.021893 -0.666052
0.072396 0.072899 0.074407 0.076920 0.080438 0.084959 0.090483 0.097007 0.104530 0.113049 0.122560 0.133059 0.144541 0.156999 0.170426 0.184812 0.200146 0.216416 0.233607 0.251701 0.270677 0.290514 0.311186 0.332662 0.354909 0.377891 0.401566 0.425888 0.450806 0.476264 0.502202 0.528551 0.555239 0.582187 0.609310 0.636516 0.663707 0.690776 0.717613 0.744099 0.770106 0.795504 0.820153 0.843908 0.866617 0.888124 0.908265 0.926875 0.943781 0.958811 0.971787 0.982531 0.990865 0.996612 0.999597 0.999648 0.996599 0.990291 0.980574 0.967307 0.950363 0.929629 0.905009 0.876426 0.843824 0.807170 0.766456 0.721704 0.672964 0.620318 0.563882 0.503809 0.440286 0.373541 0.303841 0.231493 0.156844 0.080281 0.002233 0.076833 0.156415 0.235972 0.314933 0.392696 0.468635 0.542102 0.612434 0.678959 0.741001 0.797889 0.848962 0.893580 0.931133 0.961047 0.982795 0.995908 0.999983 0.994692 0.979792 0.955135 0.920672 0.876468 0.822701 0.759671 0.687804 0.607655 0.519906 0.425369 0.324979 0.219792 0.110976 0.000199 0.112375 0.224113 0.333923 0.440270 0.541605 0.636382 0.723086 0.800261 0.866530 0.920631 0.961439 0.987995 0.999532 0.995498 0.975579 0.939719 0.888132 0.821315 0.740055 0.645429 0.538797 0.421795 0.296314 0.164479 0.028617 0.108781 0.245099 0.377649 0.503718 0.620631 0.725806 0.816817 0.891455 0.947789 0.984222 0.999545 0.992984 0.964237 0.913509 0.841522 0.749532 0.639315 0.513150 0.373784 0.224385 0.068478 0.090135 0.247457 0.399398 0.541882 0.670955 0.782908 0.874384 0.942493 0.984912 0.999982 0.986777 0.945170 0.875866 0.780416 0.661208 0.521421 0.364965 0.196382 0.020729 0.156568 0.329871 0.493517 0.641996 0.770149 0.873361 0.947733 0.990252 0.998930 0.972911 0.912552 0.819447 0.696424 0.547481 0.377683 0.193006 0.000151 0.193703 0.381137 0.554804 0.707698 0.833466 0.926678 0.983085 0.999839 0.975656 0.910931 0.807776 0.669991 0.502955 0.313450 0.109406 0.100412 0.306768 0.500364 0.672255 0.814281 0.919473 0.982417 0.999566 0.969471 0.892917 0.772961 0.614852 0.425843 0.214891 0.007741 0.230967 0.443418 0.634030 0.792629 0.910491 0.980862 0.999373 0.964353 0.877004 0.741424 0.564459 0.355416 0.125598 0.112268 0.344729 0.558355 0.740532 0.880222 0.968667 0.999979 0.971578 0.884447 0.743171 0.555762 0.333254 0.089100 0.161611 0.403073 0.619756 0.797414 0.924062 0.990815 0.992573 0.928460 0.802002 0.621003 0.397140 0.145249 0.117604 0.373264 0.603737 0.792469 0.925563 0.992857 0.988757 0.912766 0.769654 0.569245 0.325805 0.057102 0.216868 0.475343 0.698364 0.868353 0.971539 0.999134 0.948156 0.821814 0.629400 0.385701 0.109925 0.175761 0.447991 0.684095 0.864027 0.972113 0.998480 0.940047 0.800952 0.592363 0.331682 0.041165 0.253932 0.527513 0.754968 0.915419 0.993701 0.981879 0.880143 0.696989 0.448607 0.157555 0.149229 0.442870 0.695283 0.881881 0.984036 0.991020 0.901243 0.722610 0.471955 0.173546 0.143158 0.446405 0.705297 0.892991 0.989544 0.984131 0.876372 0.676599 0.405006 0.089709 0.236084 0.537532 0.781886 0.942113 0.999953 0.948134 0.791403 0.546250 0.239305 0.095443 0.420353 0.698348 0.897183 0.993259 0.974547 0.842230 0.610832 0.306780 0.034499 0.372616 0.666984 0.881716 0.990081 0.977950 0.845791 0.608902 0.295805 0.055059 0.399965 0.695332 0.903253 0.996467 0.962062 0.803425 0.540123 0.205649 0.156681
1.000000 1.000000 1.000000 1.000000 1.000000 1.000000 1.000000 1.000000 1.000000 1.000000 1.000000 1.000000 1.000000 1.000000 1.000000 1.000000 1.000000 1.000000 1.000000 1.000000 1.000000 1.000000 1.000000 1.000000 1.000000 1.000000 1.000000 1.000000 1.000000 1.000000 1.000000 1.000000 1.000000 1.000000 1.000000 1.000000 1.000000 1.000000 1.000000 1.000000 1.000000 1.000000 1.000000 1.000000 1.000000 1.000000 1.000000 1.000000 1.000000 1.000000 1.000000 1.000000 0.920452 0.920452 0.920452 0.912411 0.912411 0.912411 0.912411 0.912411 0.912411 0.912411 0.912411 0.912411 0.912411 0.912411 0.912411 0.912411 0.912411 0.912411 0.912411 0.912411 0.912411 0.912411 0.912411 0.912411 0.912411 0.912411 0.912411 0.912411 0.912411 0.912411 0.912411 0.912411 0.912411 0.912411 0.912411 0.912411 0.912411 0.912411 0.912411 0.912411 0.912411 0.912411 0.912411 0.912411 0.941544 0.942973 0.951179 0.950793 0.950199 0.948144 0.946958 0.946607 0.946507 0.946837 0.947543 0.948505 0.954748 0.955976 0.960404 0.962070 0.962827 0.963486 0.964159 0.963758 0.955151 0.954938 0.953557 0.952992 0.955518 0.954574 0.953791 0.954760 0.954647 0.955313 0.955238 0.954552 0.953475 0.952385 0.951447 0.951034 0.950828 0.951556 0.951971 0.953439 0.956729 0.957314 0.957446 0.957600 0.957703 0.958990 0.957984 0.957416 0.945440 0.945183 0.944047 0.944135 0.947329 0.947333 0.947909 0.948511 0.950225 0.950574 0.946001 0.944932 0.937075 0.934558 0.931631 0.926137 0.921455 0.923344 0.924916 0.925618 0.925992 0.921039 0.920925 0.918780 0.915366 0.917886 0.917825 0.919149 0.920529 0.918915 0.918304 0.917193 0.915534 0.907892 0.895706 0.894598 0.892865 0.897656 0.898450 0.897423 0.900483 0.889031 0.873524 0.852069 0.854442 0.857751 0.848433 0.844984 0.845209 0.845971 0.849713 0.842373 0.839917 0.835360 0.825143 0.818555 0.812554 0.803942 0.803485 0.795321 0.785893 0.782331 0.807059 0.800814 0.810605 0.815185 0.814783 0.812582 0.807061 0.798962 0.774875 0.774526 0.760600 0.737379 0.737905 0.736591 0.735717 0.733089 0.738914 0.729368 0.727127 0.709923 0.708301 0.712924 0.716545 0.714341 0.713613 0.718380 0.723063 0.706027 0.695914 0.686312 0.691108 0.694614 0.693975 0.697239 0.673837 0.649667 0.633168 0.645082 0.652391 0.627103 0.642961 0.656446 0.630892 0.627573 0.617937 0.620223 0.609946 0.612940 0.611744 0.611130 0.616560 0.630650 0.620248 0.618176 0.628835 0.632148 0.644104 0.643717 0.646312 0.612829 0.614604 0.636119 0.640509 0.624380 0.640594 0.629196 0.642120 0.678796 0.671982 0.638986 0.633380 0.619923 0.581032 0.566244 0.561639 0.570722 0.603313 0.600867 0.573864 0.547069 0.550899 0.561561 0.567395 0.567932 0.552073 0.561205 0.550465 0.527290 0.535474 0.542322 0.540176 0.526711 0.510946 0.512492 0.517430 0.532117 0.529559 0.492835 0.512964 0.508468 0.496354 0.428437 0.442564 0.429223 0.418178 0.375456 0.386059 0.394502 0.379224 0.300035 0.284679 0.285496 0.285363 0.273447 0.252333 0.228415 0.220168 0.185255 0.189799 0.175542 0.149873 0.148672 0.132411 0.122766 0.127785 0.098875 0.151512 0.213697 0.215415 0.215415 0.215415 0.215415 0.215415 0.215415 0.200052 0.200052 0.200052 0.200052 0.200052 0.200052 0.200052 0.200052 0.200052 0.223743 0.223743 0.223743 0.223743 0.223743 0.223743 0.223743 0.223743 0.223743 0.223743 0.223743 0.223743 0.223743 0.223743
0.000000 0.000000 0.000000 0.000000 0.000000 0.000000 0.000000 0.000000 0.000000 0.000000 0.000000 0.000000 0.000000 0.000000 0.000000 0.000000 0.000000 0.000000 0.000000 0.000000 0.000000 0.000000 0.000000 0.000000 0.000000 7.000000 4.000000 0.000000 0.000000 0.000000 0.000000 0.000000 0.000000 0.000000 0.000000 0.000000 0.000000 0.000000 0.000000 0.000000 0.000000 0.000000 0.000000 0.000000 0.000000 0.000000 0.000000 0.000000 0.000000 0.000000 0.000000 0.000000 0.180334 0.180334 0.180334 0.199007 0.199007 0.199007 0.199007 0.199007 0.199007 0.199007 0.199007 0.199007 0.199007 0.199007 0.199007 0.199007 0.199007 0.199007 0.199007 0.199007 0.199007 0.199007 0.199007 0.199007 0.199007 0.199007 0.199007 0.199007 0.199007 0.199007 0.199007 0.199007 0.199007 0.199007 0.199007 0.199007 0.199007 0.199007 0.199007 0.199007 0.199007 0.199007 0.199007 0.199007 0.225018 0.225018 0.225018 0.225018 0.225018 0.225018 0.225018 0.225018 0.225018 0.225018 0.225018 0.225018 0.225018 0.225018 0.225018 0.225018 0.225018 0.225018 0.225018 0.225018 0.225018 0.225018 0.225018 0.225018 0.225018 0.225018 0.225018 0.225018 0.225018 0.244339 0.244339 0.244339 0.244339 0.244339 0.244339 0.244339 0.244339 0.244339 0.244339 0.244339 0.244339 0.244339 0.244339 0.244339 0.244339 0.244339 0.244339 0.244339 0.244339 0.244339 0.244339 0.244339 0.251976 0.251976 0.251976 0.251976 0.251976 0.251976 0.251976 0.251976 0.251976 0.251976 0.251976 0.251976 0.251976 0.251976 0.251976 0.251976 0.251976 0.251976 0.251976 0.251976 0.264906 0.264906 0.264906 0.264906 0.264906 0.264906 0.264906 0.264906 0.264906 0.264906 0.264906 0.264906 0.264906 0.264906 0.264906 0.264906 0.264906 0.264906 0.264906 0.264906 0.264906 0.264906 0.264906 0.264906 0.264906 0.264906 0.264906 0.264906 0.264906 0.264906 0.264906 0.264906 0.264906 0.264906 0.264906 0.264906 0.264906 0.264906 0.264906 0.264906 0.264906 0.264906 0.264906 0.264906 0.264906 0.264906 0.264906 0.264906 0.264906 0.264906 0.264906 0.264906 0.264906 0.264906 0.264906 0.264906 0.264906 0.264906 0.264906 0.264906 0.264906 0.264906 0.256074 0.256074 0.256074 0.256074 0.256074 0.256074 0.256074 0.256074 0.256074 0.256074 0.256074 0.256074 0.256074 0.256074 0.269680 0.269680 0.269680 0.269680 0.269680 0.269680 0.269680 0.269680 0.269680 0.269680 0.269680 0.269680 0.264906 0.264906 0.264906 0.264906 0.264906 0.264906 0.264906 0.264906 0.264906 0.264906 0.264906 0.264906 0.269680 0.269680 0.269680 0.269680 0.269680 0.269680 0.269680 0.269680 0.269680 0.269680 0.269680 0.264906 0.264906 0.264906 0.264906 0.264906 0.264906 0.264906 0.264906 0.264906 0.264906 0.264906 0.256074 0.256074 0.256074 0.256074 0.256074 0.256074 0.256074 0.256074 0.256074 0.256074 0.256074 0.264906 0.264906 0.264906 0.264906 0.264906 0.264906 0.264906 0.264906 0.264906 0.264906 0.260378 0.260378 0.260378 0.260378 0.260378 0.260378 0.260378 0.260378 0.260378 0.260378 0.256074 0.256074 0.256074 0.256074 0.256074 0.256074 0.256074 0.256074 0.256074 0.256074 0.260378 0.260378 0.260378 0.260378 0.260378 0.260378 0.260378 0.260378 0.260378 0.256074 0.256074 0.256074 0.256074 0.256074 0.256074 0.256074 0.256074 0.256074 0.251976 0.251976 0.251976 0.251976 0.251976 0.251976 0.251976 0.251976 0.251976 0.251976 0.251976 0.251976 0.251976 0.251976
