# Output from CTFFind version 4.1.9, run on 2019-11-03 20:10:07
# Input file: stack16_bm3d_averaged_1_10_0_2500_half.mrc ; Number of micrographs: 1
# Pixel size: 3.000 Angstroms ; acceleration voltage: 300.0 keV ; spherical aberration: 0.00 mm ; amplitude contrast: 0.07
# Box size: 512 pixels ; min. res.: 30.0 Angstroms ; max. res.: 5.0 Angstroms ; min. def.: 5000.0 um; max. def. 50000.0 um; num. frames averaged: 1
# 6 lines per micrograph: #1 - spatial frequency (1/Angstroms); #2 - 1D rotational average of spectrum (assuming no astigmatism); #3 - 1D rotational average of spectrum; #4 - CTF fit; #5 - cross-correlation between spectrum and CTF fit; #6 - 2sigma of expected cross correlation of noise
0.000000 0.000651 0.001302 0.001953 0.002604 0.003255 0.003906 0.004557 0.005208 0.005859 0.006510 0.007161 0.007812 0.008464 0.009115 0.009766 0.010417 0.011068 0.011719 0.012370 0.013021 0.013672 0.014323 0.014974 0.015625 0.016276 0.016927 0.017578 0.018229 0.018880 0.019531 0.020182 0.020833 0.021484 0.022135 0.022786 0.023438 0.024089 0.024740 0.025391 0.026042 0.026693 0.027344 0.027995 0.028646 0.029297 0.029948 0.030599 0.031250 0.031901 0.032552 0.033203 0.033854 0.034505 0.035156 0.035807 0.036458 0.037109 0.037760 0.038411 0.039062 0.039714 0.040365 0.041016 0.041667 0.042318 0.042969 0.043620 0.044271 0.044922 0.045573 0.046224 0.046875 0.047526 0.048177 0.048828 0.049479 0.050130 0.050781 0.051432 0.052083 0.052734 0.053385 0.054036 0.054688 0.055339 0.055990 0.056641 0.057292 0.057943 0.058594 0.059245 0.059896 0.060547 0.061198 0.061849 0.062500 0.063151 0.063802 0.064453 0.065104 0.065755 0.066406 0.067057 0.067708 0.068359 0.069010 0.069661 0.070312 0.070964 0.071615 0.072266 0.072917 0.073568 0.074219 0.074870 0.075521 0.076172 0.076823 0.077474 0.078125 0.078776 0.079427 0.080078 0.080729 0.081380 0.082031 0.082682 0.083333 0.083984 0.084635 0.085286 0.085938 0.086589 0.087240 0.087891 0.088542 0.089193 0.089844 0.090495 0.091146 0.091797 0.092448 0.093099 0.093750 0.094401 0.095052 0.095703 0.096354 0.097005 0.097656 0.098307 0.098958 0.099609 0.100260 0.100911 0.101562 0.102214 0.102865 0.103516 0.104167 0.104818 0.105469 0.106120 0.106771 0.107422 0.108073 0.108724 0.109375 0.110026 0.110677 0.111328 0.111979 0.112630 0.113281 0.113932 0.114583 0.115234 0.115885 0.116536 0.117188 0.117839 0.118490 0.119141 0.119792 0.120443 0.121094 0.121745 0.122396 0.123047 0.123698 0.124349 0.125000 0.125651 0.126302 0.126953 0.127604 0.128255 0.128906 0.129557 0.130208 0.130859 0.131510 0.132161 0.132812 0.133464 0.134115 0.134766 0.135417 0.136068 0.136719 0.137370 0.138021 0.138672 0.139323 0.139974 0.140625 0.141276 0.141927 0.142578 0.143229 0.143880 0.144531 0.145182 0.145833 0.146484 0.147135 0.147786 0.148438 0.149089 0.149740 0.150391 0.151042 0.151693 0.152344 0.152995 0.153646 0.154297 0.154948 0.155599 0.156250 0.156901 0.157552 0.158203 0.158854 0.159505 0.160156 0.160807 0.161458 0.162109 0.162760 0.163411 0.164062 0.164714 0.165365 0.166016 0.166667 0.167318 0.167969 0.168620 0.169271 0.169922 0.170573 0.171224 0.171875 0.172526 0.173177 0.173828 0.174479 0.175130 0.175781 0.176432 0.177083 0.177734 0.178385 0.179036 0.179688 0.180339 0.180990 0.181641 0.182292 0.182943 0.183594 0.184245 0.184896 0.185547 0.186198 0.186849 0.187500 0.188151 0.188802 0.189453 0.190104 0.190755 0.191406 0.192057 0.192708 0.193359 0.194010 0.194661 0.195312 0.195964 0.196615 0.197266 0.197917 0.198568 0.199219 0.199870 0.200521 0.201172 0.201823 0.202474 0.203125 0.203776 0.204427 0.205078 0.205729 0.206380 0.207031 0.207682 0.208333 0.208984 0.209635 0.210286 0.210938 0.211589 0.212240 0.212891 0.213542 0.214193 0.214844 0.215495 0.216146 0.216797 0.217448 0.218099 0.218750 0.219401 0.220052 0.220703 0.221354 0.222005 0.222656 0.223307 0.223958 0.224609 0.225260 0.225911 0.226562 0.227214 0.227865 0.228516 0.229167 0.229818 0.230469 0.231120 0.231771 0.232422 0.233073 0.233724 0.234375 0.235026 0.235677
       0.37334        0.37334        0.37334        0.37334        0.37334        0.37334        0.37334        0.37334        0.37334        0.37334        0.37334        0.37334        0.37334        0.37334        0.37334        0.37334        0.37334        0.37334        0.37334        0.37334        0.37334        0.37334        0.37334        0.37334        0.37334        0.37334        0.37334        0.37334        0.37334        0.37334        0.37334        0.37334        0.37334        0.37334        0.37334        0.37334        0.37334        0.37334        0.37334        0.37334        0.37334        0.37334        0.37334        0.37334        0.37334        0.37334        0.37334        0.37334        0.37334        0.37334        0.37334        0.44773        0.56358        0.34992       -0.21563       -0.43376       -0.52054       -0.62878       -0.69256       -0.69296       -0.78130       -0.86324       -0.64965       -0.79757       -0.78811       -0.91956       -0.96397       -0.84562       -0.80674       -0.77087       -0.67203       -0.60479       -0.51330       -0.42332       -0.36173       -0.13618       -0.03606        0.07692        0.28996        0.27721        0.33990        0.38316        0.42130        0.55468        0.55555        0.58852        0.54427        0.49100        0.51913        0.55645        0.48198        0.35079        0.24535        0.20866        0.13229        0.05340        0.03467        0.02388        0.09340        0.06145        0.11117        0.08392        0.20283        0.22214        0.42546        0.47517        0.55369        0.66021        0.68431        0.71592        0.65546        0.61900        0.57272        0.46522        0.40573        0.31062        0.24433        0.24509        0.13377        0.15169        0.16406        0.12020        0.12079        0.32124        0.44048        0.54686        0.54447        0.56665        0.61007        0.59593        0.57374        0.59761        0.58112        0.49057        0.33632        0.28970        0.29148        0.19807        0.12157        0.20223        0.25759        0.31667        0.37215        0.44754        0.49398        0.54747        0.61308        0.56287        0.51162        0.53383        0.37785        0.32110        0.29067        0.20581        0.24905        0.27713        0.31199        0.30825        0.36284        0.45210        0.48427        0.51049        0.46854        0.45971        0.50750        0.42002        0.34337        0.30863        0.29069        0.26020        0.24298        0.25989        0.36390        0.47329        0.45758        0.49485        0.56020        0.48052        0.43750        0.37835        0.35280        0.30653        0.30691        0.29191        0.31554        0.39592        0.40365        0.46766        0.48480        0.46350        0.49010        0.40652        0.39695        0.36610        0.30065        0.28021        0.28492        0.37314        0.39666        0.37889        0.40184        0.44520        0.46414        0.41390        0.35625        0.34747        0.37798        0.34553        0.31386        0.32508        0.38641        0.40135        0.42112        0.40836        0.42092        0.44269        0.42813        0.35035        0.31400        0.32474        0.35922        0.41974        0.39293        0.42196        0.37523        0.38872        0.40873        0.36617        0.36921        0.34101        0.33079        0.35986        0.37401        0.35608        0.39571        0.40575        0.35169        0.37002        0.35088        0.33791        0.33293        0.34503        0.35886        0.34725        0.38860        0.40059        0.38864        0.32865        0.32722        0.30991        0.35325        0.34302        0.33789        0.39072        0.37682        0.35867        0.34013        0.33054        0.31838        0.30030        0.34503        0.36201        0.38409        0.38786        0.37736        0.35054        0.36699        0.39156        0.36460        0.36868        0.36660        0.34212        0.35197        0.31574        0.33690        0.33309        0.33835        0.30452        0.34915        0.37588        0.34386        0.38355        0.34326        0.36216        0.37302        0.35681        0.33933        0.36250        0.39933        0.36724        0.39751        0.35684        0.33588        0.35421        0.33889        0.35614        0.35418        0.39264        0.33702        0.34208        0.32313        0.32620        0.29601        0.31391        0.38908        0.34262        0.33035        0.30623        0.28821        0.29610        0.37707        0.32368        0.30985        0.35326        0.33371        0.29928        0.26734        0.30978        0.30343        0.33245        0.33600        0.36912        0.36170        0.34993        0.34118        0.28629        0.32002        0.32552        0.32182        0.33272        0.36461        0.32553        0.24667        0.32090        0.33831        0.35863        0.31145        0.31678        0.26619        0.31735        0.28750        0.27054        0.29938        0.25855        0.32055        0.32223        0.31286        0.29347        0.36044        0.30508        0.25942        0.26419        0.33110        0.25014        0.15400        0.11739        0.19169        0.36302        0.34404        0.21568        0.19925       -0.30384       -0.57729
3.350484 3.307378 3.264554 3.222012 3.179752 3.137775 3.096079 3.054665 3.013534 2.972685 2.932118 2.891833 2.851829 2.812109 2.772670 2.733513 2.694638 2.656046 2.617736 2.579707 2.541961 2.504497 2.467315 2.430415 2.393797 2.357462 2.321408 2.285637 2.250147 2.214940 2.180015 2.145372 2.111011 2.076932 2.043135 2.009620 1.976388 1.943437 1.910769 1.878383 1.846279 1.814457 1.782917 1.751659 1.720683 1.689989 1.659578 1.629448 1.599601 1.570036 1.540753 1.579151 1.632286 1.571181 0.847864 0.616089 0.476979 0.403437 0.304910 0.236897 0.208724 -0.043328 0.226115 0.094532 -0.017296 -0.087775 -0.230334 -0.134149 -0.038148 -0.093788 -0.060589 0.047520 0.051932 0.245338 0.114765 0.366379 0.469045 0.516579 0.788640 0.680791 0.710801 0.819274 0.795511 0.860963 0.921050 0.857339 0.881954 0.728487 0.777199 0.846547 0.701341 0.603326 0.429267 0.431441 0.312052 0.200216 0.191713 0.107651 0.207282 0.119816 0.203824 0.103622 0.213077 0.222165 0.421064 0.387670 0.550114 0.585314 0.592039 0.702418 0.591799 0.545999 0.450215 0.406367 0.267854 0.250129 0.076812 0.135193 -0.040643 0.027940 -0.030088 -0.054858 -0.079458 0.007850 0.236938 0.277456 0.330950 0.264729 0.353460 0.357106 0.378821 0.358479 0.339923 0.304753 0.102083 0.049940 0.053499 -0.037301 -0.153333 -0.081085 -0.066719 0.022842 0.058401 0.126944 0.185953 0.204814 0.297576 0.388824 0.250988 0.352544 0.206777 0.147181 0.055775 0.023299 -0.001090 0.055615 0.064930 0.080727 0.114978 0.161093 0.228170 0.288743 0.253200 0.197044 0.245424 0.216980 0.102733 0.035865 0.058779 0.014710 0.003331 -0.047028 0.027773 0.159966 0.201556 0.175299 0.281398 0.184930 0.196876 0.072554 0.063400 0.030669 -0.002377 -0.015008 -0.009121 0.049097 0.099482 0.111397 0.160510 0.138147 0.226733 0.147748 0.078285 0.097962 0.031482 -0.040734 -0.010118 0.036275 0.080864 0.066267 0.059561 0.145989 0.105777 0.153809 0.042967 0.039875 0.048703 0.045995 0.027190 -0.009942 0.041660 0.061478 0.092679 0.098791 0.080196 0.116756 0.114977 0.077541 0.006442 -0.016311 0.004764 0.069283 0.090546 0.086007 0.081497 0.053351 0.089608 0.062765 0.038672 0.057426 -0.004149 0.006579 0.071068 0.039871 0.041289 0.087671 0.088043 0.044360 0.067861 0.025282 0.017425 0.021962 0.055831 0.031832 0.033091 0.078077 0.083878 0.049743 -0.002045 0.001839 -0.019572 0.051829 0.005320 0.014653 0.074825 0.041949 0.009056 0.021014 -0.016028 -0.002416 -0.029746 0.015124 0.038409 0.063979 0.037758 0.039007 0.016309 0.011873 0.063770 0.018058 0.027836 0.019242 -0.005597 0.018824 -0.038098 -0.035354 -0.037090 -0.011077 -0.070658 0.017641 0.021214 -0.010321 -0.008856 0.002225 -0.006150 0.025213 -0.001364 -0.012543 0.019651 0.036972 0.012515 0.052114 -0.006394 0.007755 0.017010 -0.007931 0.019008 0.000714 0.095477 0.020036 0.010290 0.004854 -0.005266 -0.022225 0.013834 0.069361 0.023099 0.028931 -0.028140 -0.020759 -0.018941 0.078621 0.006076 -0.025050 0.070730 0.045557 -0.009799 -0.007771 -0.002934 0.027301 0.043164 0.041135 0.117070 0.040691 0.067897 0.046450 -0.005729 0.040164 0.025949 0.000667 0.040164 0.066058 0.010375 -0.056097 0.021945 0.045106 0.057004 -0.011352 0.008159 -0.036403 -0.006346 -0.010779 -0.043553 0.013803 -0.067835 0.053154 0.013830 0.049386 -0.076302 0.080256 0.047976 0.007747 -0.023476 0.110222 0.018243 -0.055102 -0.156064 0.166391 0.337678 0.336018 0.135373 0.199219 -0.563338
0.072396 0.073047 0.074998 0.078250 0.082801 0.088650 0.095794 0.104232 0.113957 0.124967 0.137253 0.150808 0.165621 0.181680 0.198969 0.217470 0.237161 0.258016 0.280003 0.303089 0.327230 0.352381 0.378488 0.405490 0.433319 0.461898 0.491141 0.520956 0.551237 0.581870 0.612730 0.643681 0.674578 0.705261 0.735560 0.765296 0.794274 0.822293 0.849137 0.874583 0.898397 0.920336 0.940153 0.957591 0.972392 0.984293 0.993032 0.998350 0.999990 0.997704 0.991253 0.980415 0.964981 0.944767 0.919611 0.889382 0.853981 0.813346 0.767459 0.716347 0.660084 0.598803 0.532690 0.461992 0.387023 0.308159 0.225844 0.140588 0.052973 0.036356 0.126689 0.217255 0.307227 0.395726 0.481831 0.564587 0.643013 0.716118 0.782909 0.842408 0.893665 0.935780 0.967912 0.989305 0.999299 0.997353 0.983061 0.956170 0.916596 0.864437 0.799986 0.723742 0.636415 0.538934 0.432438 0.318279 0.198011 0.073373 0.053729 0.181247 0.307017 0.428801 0.544320 0.651299 0.747517 0.830855 0.899347 0.951233 0.985013 0.999494 0.993841 0.967613 0.920805 0.853870 0.767742 0.663837 0.544054 0.410754 0.266727 0.115149 0.040478 0.196403 0.348707 0.493405 0.626545 0.744329 0.843224 0.920078 0.972237 0.997651 0.994965 0.963602 0.903820 0.816752 0.704417 0.569698 0.416299 0.248663 0.071861 0.108544 0.286665 0.456479 0.612033 0.747657 0.858189 0.939182 0.987109 0.999539 0.975283 0.914501 0.818757 0.691025 0.535640 0.358183 0.165309 0.035476 0.236091 0.428203 0.603571 0.754403 0.873731 0.955751 0.996139 0.992312 0.943626 0.851490 0.719384 0.552788 0.358997 0.146842 0.073681 0.291862 0.496798 0.677929 0.825609 0.931650 0.989804 0.996189 0.949583 0.851605 0.706735 0.522175 0.307555 0.074473 0.164100 0.394511 0.603219 0.777594 0.906718 0.982108 0.998332 0.953462 0.849319 0.691502 0.489167 0.254567 0.002359 0.251265 0.489606 0.696560 0.857736 0.961501 0.999880 0.969243 0.870718 0.710268 0.498434 0.249730 0.018292 0.286235 0.534232 0.743445 0.897524 0.983941 0.995097 0.929074 0.789977 0.587798 0.337814 0.059513 0.224863 0.492062 0.719734 0.888324 0.982835 0.994246 0.920475 0.766781 0.545532 0.275329 0.020463 0.315669 0.583610 0.799510 0.942854 0.999429 0.962848 0.835384 0.628016 0.359622 0.055391 0.255460 0.542471 0.776901 0.934691 0.999013 0.962201 0.826802 0.605599 0.320577 0.000849 0.320200 0.608394 0.832407 0.967245 0.997162 0.917650 0.736247 0.472025 0.153743 0.183137 0.500358 0.761195 0.934767 0.999811 0.947456 0.782597 0.523678 0.200819 0.147538 0.479124 0.752954 0.934457 0.999963 0.939981 0.760756 0.483871 0.143861 0.215938 0.548837 0.810846 0.966577 0.994178 0.888606 0.662730 0.346006 0.019140 0.382867 0.694665 0.910429 0.998809 0.945988 0.758072 0.460685 0.095732 0.284333 0.623967 0.872653 0.992557 0.964480 0.791190 0.497518 0.127065 0.264048 0.615604 0.872545 0.993750 0.958819 0.771799 0.461076 0.075377 0.323679 0.671319 0.910156 0.999835 0.924098 0.694040 0.346831 0.059973 0.457788 0.778527 0.966293 0.987379 0.836595 0.538799 0.145171 0.275348 0.647946 0.905319 0.999949 0.913198 0.659318 0.283504 0.145794 0.549186 0.850934 0.993354 0.948088 0.722136 0.357218 0.077529 0.498452 0.823365 0.987752 0.957829 0.737885 0.370187 0.072760 0.502212 0.830938 0.991028 0.948228 0.709691 0.323284 0.131578 0.560032 0.871470 0.998871 0.913556 0.632101 0.213616 0.252261 0.664347
1.000000 1.000000 1.000000 1.000000 1.000000 1.000000 1.000000 1.000000 1.000000 1.000000 1.000000 1.000000 1.000000 1.000000 1.000000 1.000000 1.000000 1.000000 1.000000 1.000000 1.000000 1.000000 1.000000 1.000000 1.000000 1.000000 1.000000 1.000000 1.000000 1.000000 1.000000 1.000000 1.000000 1.000000 1.000000 1.000000 1.000000 1.000000 1.000000 1.000000 1.000000 1.000000 1.000000 1.000000 1.000000 1.000000 1.000000 1.000000 1.000000 1.000000 1.000000 1.000000 0.923643 0.923643 0.923643 0.923643 0.923643 0.923643 0.923643 0.923643 0.923643 0.923643 0.923643 0.923643 0.923643 0.923643 0.923643 0.923643 0.923643 0.923643 0.923643 0.923643 0.923643 0.923643 0.923643 0.923643 0.923643 0.923643 0.923643 0.923643 0.923643 0.923643 0.923643 0.923643 0.923643 0.913419 0.911503 0.912667 0.911233 0.909756 0.909168 0.908779 0.909821 0.911429 0.913498 0.935117 0.936948 0.938224 0.939550 0.941124 0.943360 0.941175 0.945129 0.951139 0.950013 0.951330 0.951579 0.952149 0.951515 0.950790 0.953053 0.952253 0.950583 0.948593 0.946921 0.946368 0.946143 0.949784 0.950267 0.950437 0.951024 0.950973 0.951691 0.949585 0.947953 0.950246 0.931726 0.929960 0.934821 0.932204 0.933108 0.933078 0.933739 0.934650 0.935065 0.935345 0.931932 0.931370 0.930219 0.924483 0.917006 0.917321 0.919412 0.921601 0.918981 0.917906 0.919147 0.919957 0.917605 0.920553 0.913280 0.910768 0.886343 0.873530 0.867892 0.868652 0.873731 0.877720 0.875502 0.871644 0.865186 0.862810 0.861115 0.862653 0.852626 0.854293 0.853608 0.847275 0.850044 0.852820 0.858257 0.857682 0.854002 0.848868 0.842111 0.827675 0.827713 0.827943 0.831684 0.812166 0.795815 0.828742 0.823081 0.819591 0.826963 0.828748 0.826582 0.825003 0.825368 0.823352 0.815403 0.806366 0.810070 0.819212 0.823682 0.816018 0.811428 0.813240 0.813066 0.808921 0.813845 0.816360 0.813100 0.803919 0.819304 0.800872 0.815847 0.816328 0.794006 0.779535 0.766680 0.773367 0.780215 0.768213 0.769028 0.781115 0.780958 0.777389 0.767876 0.740882 0.748241 0.746291 0.738560 0.729857 0.736210 0.728355 0.727560 0.727562 0.732088 0.731632 0.709444 0.723498 0.729995 0.730527 0.741349 0.742101 0.734064 0.737333 0.742421 0.729351 0.724303 0.705625 0.708128 0.641522 0.635065 0.613940 0.609670 0.605290 0.549727 0.550823 0.534567 0.518898 0.517603 0.484781 0.526314 0.427211 0.421054 0.437560 0.377477 0.372366 0.392364 0.393360 0.409152 0.381248 0.379973 0.387185 0.363402 0.335083 0.311431 0.335042 0.343221 0.335584 0.337527 0.307600 0.300554 0.250045 0.268230 0.272570 0.298689 0.296541 0.282210 0.300589 0.353858 0.288135 0.274772 0.252652 0.278997 0.282384 0.267483 0.258138 0.285126 0.229414 0.248080 0.252640 0.254179 0.311313 0.336365 0.337558 0.333273 0.341492 0.370935 0.338281 0.344969 0.358702 0.350494 0.367714 0.370618 0.383682 0.386396 0.431162 0.454517 0.460834 0.471533 0.487317 0.487511 0.465052 0.472090 0.427893 0.453284 0.430576 0.439332 0.400496 0.386218 0.384110 0.348849 0.305810 0.306693 0.302197 0.257064 0.256898 0.246205 0.212707 0.212256 0.224651 0.234869 0.204494 0.211253 0.223582 0.223582 0.223582 0.223582 0.223582 0.223582 0.223582 0.223582 0.223582 0.223582 0.223582 0.223582 0.223582 0.223582 0.243759 0.243759 0.243759 0.243759 0.243759 0.243759 0.243759 0.243759 0.243759 0.243759 0.243759 0.243759
0.000000 0.000000 0.000000 0.000000 0.000000 0.000000 0.000000 0.000000 0.000000 0.000000 0.000000 0.000000 0.000000 0.000000 0.000000 0.000000 0.000000 0.000000 0.000000 0.000000 0.000000 0.000000 0.000000 0.000000 0.000000 0.000000 0.000000 0.000000 0.000000 0.000000 0.000000 0.000000 0.000000 0.000000 0.000000 0.000000 0.000000 0.000000 0.000000 0.000000 0.000000 0.000000 0.000000 0.000000 0.000000 0.000000 0.000000 0.000000 0.000000 0.000000 0.000000 0.000000 0.209657 0.209657 0.209657 0.209657 0.209657 0.209657 0.209657 0.209657 0.209657 0.209657 0.209657 0.209657 0.209657 0.209657 0.209657 0.209657 0.209657 0.209657 0.209657 0.209657 0.209657 0.209657 0.209657 0.209657 0.209657 0.209657 0.209657 0.209657 0.209657 0.209657 0.209657 0.209657 0.209657 0.244339 0.244339 0.244339 0.244339 0.244339 0.244339 0.244339 0.244339 0.244339 0.244339 0.244339 0.244339 0.244339 0.244339 0.244339 0.244339 0.244339 0.244339 0.244339 0.244339 0.244339 0.244339 0.244339 0.244339 0.244339 0.260378 0.260378 0.260378 0.260378 0.260378 0.260378 0.260378 0.260378 0.260378 0.260378 0.260378 0.260378 0.260378 0.260378 0.260378 0.260378 0.260378 0.260378 0.260378 0.260378 0.269680 0.269680 0.269680 0.269680 0.269680 0.269680 0.269680 0.269680 0.269680 0.269680 0.269680 0.269680 0.269680 0.269680 0.269680 0.269680 0.269680 0.269680 0.269680 0.269680 0.269680 0.269680 0.269680 0.269680 0.269680 0.269680 0.269680 0.269680 0.269680 0.269680 0.269680 0.269680 0.269680 0.280056 0.280056 0.280056 0.280056 0.280056 0.280056 0.280056 0.280056 0.280056 0.280056 0.280056 0.280056 0.280056 0.280056 0.280056 0.280056 0.280056 0.280056 0.280056 0.280056 0.280056 0.280056 0.280056 0.280056 0.280056 0.280056 0.280056 0.274721 0.274721 0.274721 0.274721 0.274721 0.274721 0.274721 0.274721 0.274721 0.274721 0.274721 0.274721 0.274721 0.285714 0.285714 0.285714 0.285714 0.285714 0.285714 0.285714 0.285714 0.285714 0.285714 0.285714 0.280056 0.280056 0.280056 0.280056 0.280056 0.280056 0.280056 0.280056 0.280056 0.280056 0.280056 0.274721 0.274721 0.274721 0.274721 0.274721 0.274721 0.274721 0.274721 0.274721 0.274721 0.274721 0.280056 0.280056 0.280056 0.280056 0.280056 0.280056 0.280056 0.280056 0.280056 0.280056 0.285714 0.285714 0.285714 0.285714 0.285714 0.285714 0.285714 0.285714 0.285714 0.269680 0.269680 0.269680 0.269680 0.269680 0.269680 0.269680 0.269680 0.269680 0.269680 0.274721 0.274721 0.274721 0.274721 0.274721 0.274721 0.274721 0.274721 0.274721 0.285714 0.285714 0.285714 0.285714 0.285714 0.285714 0.285714 0.285714 0.264906 0.264906 0.264906 0.264906 0.264906 0.264906 0.264906 0.264906 0.264906 0.274721 0.274721 0.274721 0.274721 0.274721 0.274721 0.274721 0.274721 0.269680 0.269680 0.269680 0.269680 0.269680 0.269680 0.269680 0.269680 0.269680 0.269680 0.269680 0.269680 0.269680 0.269680 0.269680 0.269680 0.280056 0.280056 0.280056 0.280056 0.280056 0.280056 0.280056 0.260378 0.260378 0.260378 0.260378 0.260378 0.260378 0.260378 0.260378 0.269680 0.269680 0.269680 0.269680 0.269680 0.269680 0.269680 0.264906 0.264906 0.264906 0.264906 0.264906 0.264906 0.264906 0.264906 0.264906 0.264906 0.264906 0.264906 0.264906 0.264906 0.260378 0.260378 0.260378 0.260378 0.260378 0.260378 0.260378 0.260378 0.260378 0.260378 0.260378 0.260378
