# Output from CTFFind version 4.1.9, run on 2019-11-03 19:31:14
# Input file: stack16_bm3d_averaged_1_3.75_0_3000_half.mrc ; Number of micrographs: 1
# Pixel size: 3.000 Angstroms ; acceleration voltage: 300.0 keV ; spherical aberration: 0.00 mm ; amplitude contrast: 0.07
# Box size: 512 pixels ; min. res.: 30.0 Angstroms ; max. res.: 5.0 Angstroms ; min. def.: 5000.0 um; max. def. 50000.0 um; num. frames averaged: 1
# 6 lines per micrograph: #1 - spatial frequency (1/Angstroms); #2 - 1D rotational average of spectrum (assuming no astigmatism); #3 - 1D rotational average of spectrum; #4 - CTF fit; #5 - cross-correlation between spectrum and CTF fit; #6 - 2sigma of expected cross correlation of noise
0.000000 0.000651 0.001302 0.001953 0.002604 0.003255 0.003906 0.004557 0.005208 0.005859 0.006510 0.007161 0.007812 0.008464 0.009115 0.009766 0.010417 0.011068 0.011719 0.012370 0.013021 0.013672 0.014323 0.014974 0.015625 0.016276 0.016927 0.017578 0.018229 0.018880 0.019531 0.020182 0.020833 0.021484 0.022135 0.022786 0.023438 0.024089 0.024740 0.025391 0.026042 0.026693 0.027344 0.027995 0.028646 0.029297 0.029948 0.030599 0.031250 0.031901 0.032552 0.033203 0.033854 0.034505 0.035156 0.035807 0.036458 0.037109 0.037760 0.038411 0.039062 0.039714 0.040365 0.041016 0.041667 0.042318 0.042969 0.043620 0.044271 0.044922 0.045573 0.046224 0.046875 0.047526 0.048177 0.048828 0.049479 0.050130 0.050781 0.051432 0.052083 0.052734 0.053385 0.054036 0.054688 0.055339 0.055990 0.056641 0.057292 0.057943 0.058594 0.059245 0.059896 0.060547 0.061198 0.061849 0.062500 0.063151 0.063802 0.064453 0.065104 0.065755 0.066406 0.067057 0.067708 0.068359 0.069010 0.069661 0.070312 0.070964 0.071615 0.072266 0.072917 0.073568 0.074219 0.074870 0.075521 0.076172 0.076823 0.077474 0.078125 0.078776 0.079427 0.080078 0.080729 0.081380 0.082031 0.082682 0.083333 0.083984 0.084635 0.085286 0.085938 0.086589 0.087240 0.087891 0.088542 0.089193 0.089844 0.090495 0.091146 0.091797 0.092448 0.093099 0.093750 0.094401 0.095052 0.095703 0.096354 0.097005 0.097656 0.098307 0.098958 0.099609 0.100260 0.100911 0.101562 0.102214 0.102865 0.103516 0.104167 0.104818 0.105469 0.106120 0.106771 0.107422 0.108073 0.108724 0.109375 0.110026 0.110677 0.111328 0.111979 0.112630 0.113281 0.113932 0.114583 0.115234 0.115885 0.116536 0.117188 0.117839 0.118490 0.119141 0.119792 0.120443 0.121094 0.121745 0.122396 0.123047 0.123698 0.124349 0.125000 0.125651 0.126302 0.126953 0.127604 0.128255 0.128906 0.129557 0.130208 0.130859 0.131510 0.132161 0.132812 0.133464 0.134115 0.134766 0.135417 0.136068 0.136719 0.137370 0.138021 0.138672 0.139323 0.139974 0.140625 0.141276 0.141927 0.142578 0.143229 0.143880 0.144531 0.145182 0.145833 0.146484 0.147135 0.147786 0.148438 0.149089 0.149740 0.150391 0.151042 0.151693 0.152344 0.152995 0.153646 0.154297 0.154948 0.155599 0.156250 0.156901 0.157552 0.158203 0.158854 0.159505 0.160156 0.160807 0.161458 0.162109 0.162760 0.163411 0.164062 0.164714 0.165365 0.166016 0.166667 0.167318 0.167969 0.168620 0.169271 0.169922 0.170573 0.171224 0.171875 0.172526 0.173177 0.173828 0.174479 0.175130 0.175781 0.176432 0.177083 0.177734 0.178385 0.179036 0.179688 0.180339 0.180990 0.181641 0.182292 0.182943 0.183594 0.184245 0.184896 0.185547 0.186198 0.186849 0.187500 0.188151 0.188802 0.189453 0.190104 0.190755 0.191406 0.192057 0.192708 0.193359 0.194010 0.194661 0.195312 0.195964 0.196615 0.197266 0.197917 0.198568 0.199219 0.199870 0.200521 0.201172 0.201823 0.202474 0.203125 0.203776 0.204427 0.205078 0.205729 0.206380 0.207031 0.207682 0.208333 0.208984 0.209635 0.210286 0.210938 0.211589 0.212240 0.212891 0.213542 0.214193 0.214844 0.215495 0.216146 0.216797 0.217448 0.218099 0.218750 0.219401 0.220052 0.220703 0.221354 0.222005 0.222656 0.223307 0.223958 0.224609 0.225260 0.225911 0.226562 0.227214 0.227865 0.228516 0.229167 0.229818 0.230469 0.231120 0.231771 0.232422 0.233073 0.233724 0.234375 0.235026 0.235677
       0.33683        0.33683        0.33683        0.33683        0.33683        0.33683        0.33683        0.33683        0.33683        0.33683        0.33683        0.33683        0.33683        0.33683        0.33683        0.33683        0.33683        0.33683        0.33683        0.33683        0.33683        0.33683        0.33683        0.33683        0.33683        0.33683        0.33683        0.33683        0.33683        0.33683        0.33683        0.33683        0.33683        0.33683        0.33683        0.33683        0.33683        0.33683        0.33683        0.33683        0.33683        0.33683        0.33683        0.33683        0.33683        0.33683        0.33683        0.33683        0.33683        0.33683        0.33683        0.43257        0.59196        0.38042       -0.15989       -0.44460       -0.56216       -0.65479       -0.73155       -0.75465       -0.87756       -0.92158       -0.72685       -0.89915       -0.85838       -1.00885       -1.05220       -0.94039       -0.89631       -0.82777       -0.77126       -0.68132       -0.59597       -0.50387       -0.42366       -0.21108       -0.09553       -0.00704        0.22253        0.23792        0.30651        0.37315        0.40040        0.49615        0.55658        0.58891        0.55833        0.49035        0.53096        0.49682        0.41536        0.32093        0.18341        0.17447        0.11283       -0.04864       -0.06454       -0.05817        0.02421       -0.01176        0.03787        0.02958        0.14617        0.19216        0.40683        0.46960        0.56774        0.67353        0.73356        0.72978        0.66620        0.64510        0.54443        0.45577        0.38159        0.26934        0.20371        0.18606        0.07725        0.04170        0.02018        0.05193        0.08543        0.28834        0.41272        0.50838        0.56113        0.60154        0.65732        0.62303        0.63067        0.61450        0.57737        0.47679        0.28227        0.25278        0.20717        0.11678        0.05941        0.10466        0.12295        0.26400        0.35619        0.41230        0.48611        0.55028        0.62720        0.57685        0.52585        0.50148        0.36762        0.21575        0.21410        0.15751        0.12581        0.16628        0.22249        0.26668        0.32632        0.42568        0.43271        0.52560        0.47162        0.46332        0.47035        0.38173        0.32269        0.27220        0.21511        0.20558        0.22263        0.23172        0.31500        0.42947        0.43558        0.48502        0.54015        0.47537        0.43477        0.36548        0.29243        0.24394        0.23145        0.26023        0.27552        0.29247        0.32522        0.41728        0.47237        0.46185        0.45439        0.35594        0.36324        0.35590        0.21409        0.23348        0.25600        0.28792        0.34854        0.37164        0.40782        0.44269        0.44265        0.37433        0.35831        0.30816        0.32484        0.28158        0.26886        0.27849        0.32627        0.37964        0.38932        0.40353        0.37831        0.40204        0.36095        0.28880        0.28320        0.29262        0.32256        0.36148        0.34264        0.41894        0.35085        0.37864        0.37524        0.32266        0.32750        0.28151        0.29580        0.34054        0.32771        0.33077        0.33681        0.35521        0.32019        0.34763        0.29801        0.31452        0.27155        0.28562        0.29409        0.34757        0.38301        0.35811        0.34459        0.30018        0.27031        0.27024        0.30061        0.27144        0.30964        0.36410        0.37799        0.33664        0.30857        0.29720        0.29819        0.29263        0.28310        0.28755        0.33253        0.33822        0.30907        0.28345        0.33964        0.30606        0.29418        0.32321        0.32290        0.32763        0.34290        0.30871        0.32319        0.27431        0.30067        0.30214        0.32208        0.40228        0.32624        0.35213        0.30605        0.29948        0.30150        0.32466        0.29079        0.28236        0.30455        0.31767        0.34329        0.31156        0.31276        0.29545        0.29831        0.30189        0.33138        0.32100        0.33838        0.34512        0.31230        0.28343        0.28958        0.25037        0.32164        0.32984        0.31030        0.29845        0.27414        0.29496        0.31893        0.32529        0.29394        0.29620        0.30790        0.30484        0.23909        0.30610        0.29766        0.29235        0.30833        0.29688        0.34811        0.37879        0.28855        0.25346        0.24261        0.26917        0.27912        0.27148        0.27337        0.25951        0.26236        0.29075        0.29784        0.28214        0.24368        0.34809        0.31221        0.27886        0.25056        0.22530        0.25622        0.22756        0.25032        0.30997        0.34402        0.28026        0.25380        0.27615        0.25831        0.20453        0.30948        0.24331        0.18173        0.14186        0.21588        0.27708        0.24121       -0.00873        0.15432       -0.39320       -0.67976
2.930416 2.894262 2.858340 2.822650 2.787191 2.751963 2.716967 2.682202 2.647668 2.613366 2.579295 2.545456 2.511848 2.478472 2.445327 2.412413 2.379731 2.347280 2.315061 2.283073 2.251316 2.219791 2.188497 2.157435 2.126604 2.096004 2.065636 2.035500 2.005594 1.975920 1.946478 1.917267 1.888287 1.859539 1.831022 1.802737 1.774682 1.746860 1.719269 1.691909 1.664780 1.637883 1.611218 1.584784 1.558581 1.532610 1.506870 1.481361 1.456084 1.431038 1.406224 1.441928 1.563186 1.507112 0.865765 0.579457 0.423054 0.359490 0.271569 0.188561 0.127305 -0.068096 0.166424 0.027039 -0.062163 -0.128907 -0.251420 -0.175266 -0.094436 -0.096046 -0.103471 0.020612 0.018049 0.195044 0.101299 0.328991 0.441660 0.453282 0.720006 0.681185 0.671915 0.824876 0.793750 0.810944 0.920226 0.873310 0.911416 0.734372 0.823859 0.841505 0.650739 0.590957 0.449457 0.416726 0.386398 0.175985 0.158321 0.117370 0.217690 0.127557 0.214779 0.105217 0.261019 0.246276 0.478351 0.428361 0.613330 0.641489 0.714229 0.741000 0.663684 0.649858 0.498385 0.448007 0.328566 0.304632 0.128571 0.189221 0.004866 0.014589 -0.042003 -0.038831 -0.005791 0.054130 0.301104 0.337955 0.413809 0.364906 0.465426 0.492922 0.485543 0.467526 0.394300 0.396083 0.152769 0.119025 0.071180 0.019960 -0.139482 -0.025747 -0.091230 0.038379 0.145238 0.184606 0.279347 0.268509 0.368974 0.476538 0.360977 0.407706 0.308314 0.148326 0.054663 0.078247 0.024335 0.030609 0.069462 0.114582 0.136407 0.249839 0.261549 0.299117 0.363332 0.253653 0.277668 0.242417 0.127718 0.104560 0.036836 0.031851 0.018820 0.021504 0.050858 0.175573 0.207863 0.206144 0.315309 0.220446 0.248108 0.116280 0.097380 -0.014811 -0.006292 -0.004677 0.024362 0.031666 0.022809 0.096082 0.171106 0.177090 0.220402 0.120871 0.079985 0.102951 0.029893 -0.089466 -0.003510 0.019545 0.032214 0.051696 0.111338 0.159480 0.141561 0.160692 0.060192 0.066168 0.033616 0.050533 0.000999 -0.001948 0.015582 0.060892 0.095328 0.124485 0.091515 0.110403 0.109183 0.037373 -0.005414 0.005797 0.006777 0.064946 0.058966 0.079317 0.117918 0.064538 0.090847 0.060009 0.037343 0.035323 -0.020520 0.024768 0.062819 0.032023 0.051796 0.019653 0.059273 0.054430 0.028904 0.014423 0.022865 -0.036568 -0.005730 0.011977 0.059579 0.097220 0.063772 0.041133 -0.008813 -0.026340 -0.012800 0.004092 -0.013445 0.025848 0.074374 0.069153 0.010765 0.026748 -0.017878 0.008181 -0.007864 -0.023687 -0.000049 0.042046 -0.002293 0.002532 -0.007165 0.025908 -0.013496 0.000310 0.012699 0.019809 0.040050 -0.014460 0.007821 -0.001198 -0.054607 -0.000189 -0.009787 0.034353 0.093443 -0.001848 0.036165 0.001218 0.001418 -0.025381 0.035682 -0.018378 -0.018825 -0.003604 0.046713 0.026643 0.013675 0.036565 -0.036167 0.003429 -0.005598 0.027411 0.041496 0.043201 0.025461 0.035759 0.004362 -0.023700 -0.023449 0.017333 0.045572 0.010418 0.011141 -0.023204 -0.002125 0.023514 0.031753 0.016484 0.009604 -0.001281 0.008465 -0.060526 0.009943 0.017478 0.002887 0.013579 0.026263 0.070976 0.089312 0.020051 -0.007258 -0.038188 -0.007106 0.037468 -0.041141 0.011216 -0.017416 -0.039129 0.026096 0.021587 -0.008165 -0.069343 0.045221 -0.011702 -0.051511 -0.063385 -0.058565 -0.022096 -0.067245 -0.032009 0.030039 0.085854 0.001073 -0.006107 0.139567 0.040395 -0.038122 0.165332 0.122321 0.131056 0.075306 0.199976 0.259306 0.215654 -0.161231 0.146241 -0.621007
0.072396 0.073047 0.075001 0.078255 0.082811 0.088665 0.095816 0.104261 0.113995 0.125015 0.137312 0.150880 0.165706 0.181780 0.199085 0.217603 0.237311 0.258184 0.280191 0.303295 0.327457 0.352629 0.378757 0.405781 0.433631 0.462231 0.491496 0.521330 0.551630 0.582281 0.613157 0.644124 0.675032 0.705725 0.736031 0.765770 0.794748 0.822761 0.849595 0.875026 0.898819 0.920731 0.940514 0.957911 0.972663 0.984507 0.993182 0.998425 0.999983 0.997605 0.991054 0.980106 0.964554 0.944212 0.918921 0.888549 0.852998 0.812208 0.766161 0.714884 0.658456 0.597009 0.530731 0.459874 0.384750 0.305741 0.223290 0.137915 0.050196 0.039218 0.129612 0.220214 0.310193 0.398667 0.484714 0.567376 0.645670 0.718603 0.785180 0.844424 0.895386 0.937164 0.968921 0.989901 0.999449 0.997027 0.982236 0.954827 0.914724 0.862032 0.797053 0.720295 0.632480 0.534544 0.427640 0.313129 0.192575 0.067728 0.059497 0.187041 0.312736 0.434336 0.549558 0.656128 0.751823 0.834527 0.902281 0.953335 0.986199 0.999696 0.993008 0.965716 0.917836 0.849848 0.762710 0.657867 0.537246 0.403233 0.258646 0.106684 0.049131 0.205030 0.357084 0.501299 0.633727 0.750573 0.848318 0.923834 0.974496 0.998287 0.993895 0.960791 0.899286 0.810567 0.696711 0.560656 0.406159 0.237713 0.060431 0.120088 0.297939 0.467086 0.621579 0.755769 0.864525 0.943450 0.989080 0.999060 0.972288 0.909017 0.810912 0.681047 0.523854 0.345002 0.151225 0.049912 0.250289 0.441554 0.615474 0.764297 0.881117 0.960221 0.997400 0.990207 0.938148 0.842790 0.707773 0.538732 0.343102 0.129830 0.091003 0.308638 0.512161 0.691052 0.835747 0.938184 0.992286 0.994368 0.943436 0.841346 0.692814 0.505269 0.288537 0.054371 0.184152 0.413343 0.619684 0.790647 0.915478 0.985927 0.996844 0.946617 0.837406 0.675146 0.469300 0.232385 0.020747 0.273788 0.510029 0.713451 0.869856 0.967894 0.999959 0.962846 0.858137 0.692249 0.476146 0.224694 0.044303 0.311306 0.556464 0.761087 0.909115 0.988445 0.991995 0.918432 0.772462 0.564651 0.310775 0.030695 0.253130 0.517421 0.739992 0.901659 0.987955 0.990524 0.908035 0.746520 0.519067 0.244876 0.052255 0.345957 0.609590 0.818693 0.953314 1.000000 0.953263 0.816341 0.601144 0.327359 0.020777 0.289073 0.571720 0.798770 0.946818 0.999965 0.951652 0.805608 0.575755 0.285038 0.036732 0.355862 0.638257 0.853120 0.976365 0.993456 0.901277 0.708790 0.436358 0.113760 0.222948 0.535404 0.787316 0.948734 0.999747 0.933104 0.755404 0.486680 0.158324 0.190435 0.517141 0.781280 0.949371 0.999343 0.923620 0.730457 0.443279 0.098054 0.261078 0.587361 0.837534 0.977659 0.987889 0.865490 0.625633 0.299774 0.068286 0.428145 0.729673 0.930053 0.999998 0.928256 0.723643 0.414262 0.043878 0.334106 0.664262 0.897321 0.997643 0.948889 0.756943 0.449529 0.072490 0.316881 0.658434 0.898501 0.998458 0.941188 0.734280 0.409386 0.017647 0.378147 0.713538 0.932973 0.999154 0.899661 0.649571 0.289544 0.120537 0.511317 0.815682 0.980384 0.975590 0.800594 0.484568 0.082063 0.336192 0.695561 0.930888 0.998489 0.884567 0.608372 0.219349 0.211404 0.603977 0.884427 0.998874 0.924172 0.672933 0.291855 0.146610 0.557815 0.861221 0.996312 0.934970 0.687715 0.302394 0.144732 0.563811 0.869434 0.998178 0.922112 0.655267 0.251524 0.205849 0.621160 0.906291 0.999576 0.879521 0.570198 0.136894 0.327259 0.721135
1.000000 1.000000 1.000000 1.000000 1.000000 1.000000 1.000000 1.000000 1.000000 1.000000 1.000000 1.000000 1.000000 1.000000 1.000000 1.000000 1.000000 1.000000 1.000000 1.000000 1.000000 1.000000 1.000000 1.000000 1.000000 1.000000 1.000000 1.000000 1.000000 1.000000 1.000000 1.000000 1.000000 1.000000 1.000000 1.000000 1.000000 1.000000 1.000000 1.000000 1.000000 1.000000 1.000000 1.000000 1.000000 1.000000 1.000000 1.000000 1.000000 1.000000 1.000000 1.000000 0.932683 0.932683 0.932683 0.932683 0.932683 0.932683 0.932683 0.932683 0.932683 0.932683 0.932683 0.932683 0.932683 0.932683 0.932683 0.932683 0.932683 0.932683 0.932683 0.932683 0.932683 0.932683 0.932683 0.932683 0.932683 0.932683 0.932683 0.932683 0.932683 0.932683 0.932683 0.932683 0.932683 0.920097 0.918157 0.921081 0.922093 0.921995 0.921512 0.921221 0.921515 0.922996 0.924848 0.946244 0.948555 0.949615 0.950686 0.949473 0.951991 0.949788 0.954175 0.969204 0.968518 0.969385 0.963660 0.964529 0.964130 0.963543 0.965437 0.965174 0.963877 0.962348 0.961181 0.960151 0.959813 0.961369 0.961825 0.962088 0.962463 0.962423 0.962318 0.959854 0.957678 0.957850 0.957181 0.956050 0.961495 0.960037 0.963084 0.964236 0.964926 0.965718 0.965940 0.966119 0.958715 0.956679 0.954078 0.940063 0.933238 0.928244 0.931371 0.934857 0.932658 0.927219 0.924807 0.927085 0.918671 0.918273 0.914373 0.915302 0.904493 0.899610 0.889629 0.891061 0.892822 0.892421 0.889766 0.877737 0.870034 0.869198 0.872223 0.866389 0.863063 0.879485 0.875238 0.877183 0.880683 0.883338 0.890270 0.874758 0.867685 0.863845 0.859198 0.858852 0.860917 0.865396 0.867825 0.864497 0.856298 0.859923 0.854577 0.862503 0.868055 0.865141 0.862201 0.860745 0.860315 0.861055 0.856564 0.861645 0.856238 0.853720 0.851772 0.845694 0.846022 0.843615 0.843500 0.843864 0.846459 0.839442 0.845425 0.834260 0.839296 0.835019 0.839129 0.835217 0.839571 0.830415 0.825268 0.817083 0.810320 0.809300 0.814328 0.765947 0.763819 0.761119 0.760543 0.766126 0.772919 0.767040 0.769781 0.764873 0.772201 0.782145 0.772085 0.764544 0.764940 0.765929 0.744377 0.754785 0.756223 0.750106 0.756229 0.736348 0.734272 0.726051 0.731907 0.690193 0.667604 0.644005 0.627798 0.642968 0.636178 0.620975 0.613909 0.615587 0.612163 0.572400 0.563110 0.551575 0.554374 0.545336 0.552464 0.553429 0.523018 0.536923 0.536065 0.540235 0.555288 0.467671 0.456986 0.435533 0.453824 0.466927 0.477304 0.487917 0.496872 0.490147 0.488986 0.482273 0.481780 0.497922 0.466596 0.456141 0.470005 0.444808 0.429853 0.442354 0.443446 0.446535 0.423966 0.423792 0.425855 0.428216 0.403261 0.403975 0.427133 0.428027 0.382607 0.386740 0.393677 0.374389 0.404662 0.401312 0.414413 0.430231 0.389269 0.391485 0.376623 0.385858 0.413552 0.382719 0.374175 0.378587 0.393458 0.341191 0.361188 0.386866 0.364326 0.433750 0.393058 0.379310 0.302058 0.339981 0.303009 0.310163 0.305106 0.236890 0.229603 0.202587 0.203208 0.178564 0.194022 0.166490 0.139981 0.109745 0.117474 0.090379 0.113183 0.120725 0.108236 0.096682 0.096682 0.096682 0.096682 0.093904 0.093904 0.093904 0.093904 0.093904 0.093904 0.093904 0.093904 0.093904 0.093904 0.093904 0.093904 0.093904 0.093904 0.027757 0.027757 0.027757 0.027757 0.027757 0.027757 0.027757 0.027757 0.027757 0.027757 0.027757 0.027757
0.000000 0.000000 0.000000 0.000000 0.000000 0.000000 0.000000 0.000000 0.000000 0.000000 0.000000 0.000000 0.000000 0.000000 0.000000 0.000000 0.000000 0.000000 0.000000 0.000000 0.000000 0.000000 0.000000 0.000000 0.000000 7.000000 4.000000 0.000000 0.000000 0.000000 0.000000 0.000000 0.000000 0.000000 0.000000 0.000000 0.000000 0.000000 0.000000 0.000000 0.000000 0.000000 0.000000 0.000000 0.000000 0.000000 0.000000 0.000000 0.000000 0.000000 0.000000 0.000000 0.209657 0.209657 0.209657 0.209657 0.209657 0.209657 0.209657 0.209657 0.209657 0.209657 0.209657 0.209657 0.209657 0.209657 0.209657 0.209657 0.209657 0.209657 0.209657 0.209657 0.209657 0.209657 0.209657 0.209657 0.209657 0.209657 0.209657 0.209657 0.209657 0.209657 0.209657 0.209657 0.209657 0.244339 0.244339 0.244339 0.244339 0.244339 0.244339 0.244339 0.244339 0.244339 0.244339 0.244339 0.244339 0.244339 0.244339 0.244339 0.244339 0.244339 0.244339 0.244339 0.244339 0.244339 0.244339 0.244339 0.244339 0.244339 0.260378 0.260378 0.260378 0.260378 0.260378 0.260378 0.260378 0.260378 0.260378 0.260378 0.260378 0.260378 0.260378 0.260378 0.260378 0.260378 0.260378 0.260378 0.260378 0.260378 0.269680 0.269680 0.269680 0.269680 0.269680 0.269680 0.269680 0.269680 0.269680 0.269680 0.269680 0.269680 0.269680 0.269680 0.269680 0.269680 0.269680 0.269680 0.269680 0.269680 0.269680 0.269680 0.269680 0.269680 0.269680 0.269680 0.269680 0.269680 0.269680 0.269680 0.269680 0.269680 0.269680 0.280056 0.280056 0.280056 0.280056 0.280056 0.280056 0.280056 0.280056 0.280056 0.280056 0.280056 0.280056 0.280056 0.280056 0.280056 0.280056 0.280056 0.280056 0.280056 0.280056 0.280056 0.280056 0.280056 0.280056 0.280056 0.280056 0.280056 0.285714 0.285714 0.285714 0.285714 0.285714 0.285714 0.285714 0.285714 0.285714 0.285714 0.285714 0.285714 0.274721 0.274721 0.274721 0.274721 0.274721 0.274721 0.274721 0.274721 0.274721 0.274721 0.274721 0.274721 0.280056 0.280056 0.280056 0.280056 0.280056 0.280056 0.280056 0.280056 0.280056 0.280056 0.280056 0.274721 0.274721 0.274721 0.274721 0.274721 0.274721 0.274721 0.274721 0.274721 0.274721 0.274721 0.280056 0.280056 0.280056 0.280056 0.280056 0.280056 0.280056 0.280056 0.280056 0.280056 0.285714 0.285714 0.285714 0.285714 0.285714 0.285714 0.285714 0.285714 0.285714 0.280056 0.280056 0.280056 0.280056 0.280056 0.280056 0.280056 0.280056 0.280056 0.274721 0.274721 0.274721 0.274721 0.274721 0.274721 0.274721 0.274721 0.274721 0.269680 0.269680 0.269680 0.269680 0.269680 0.269680 0.269680 0.269680 0.269680 0.280056 0.280056 0.280056 0.280056 0.280056 0.280056 0.280056 0.280056 0.260378 0.260378 0.260378 0.260378 0.260378 0.260378 0.260378 0.260378 0.260378 0.269680 0.269680 0.269680 0.269680 0.269680 0.269680 0.269680 0.269680 0.285714 0.285714 0.285714 0.285714 0.285714 0.285714 0.285714 0.264906 0.264906 0.264906 0.264906 0.264906 0.264906 0.264906 0.264906 0.274721 0.274721 0.274721 0.274721 0.274721 0.274721 0.274721 0.256074 0.256074 0.256074 0.256074 0.256074 0.256074 0.256074 0.256074 0.264906 0.264906 0.264906 0.264906 0.264906 0.264906 0.264906 0.264906 0.264906 0.264906 0.264906 0.264906 0.264906 0.264906 0.280056 0.280056 0.280056 0.280056 0.280056 0.280056 0.280056 0.280056 0.280056 0.280056 0.280056 0.280056
