# Output from CTFFind version 4.1.9, run on 2019-11-02 17:47:42
# Input file: stack11_bm3d_averaged_1_0.5_0_1500_half.mrc ; Number of micrographs: 1
# Pixel size: 3.000 Angstroms ; acceleration voltage: 300.0 keV ; spherical aberration: 0.00 mm ; amplitude contrast: 0.07
# Box size: 512 pixels ; min. res.: 30.0 Angstroms ; max. res.: 5.0 Angstroms ; min. def.: 5000.0 um; max. def. 50000.0 um; num. frames averaged: 1
# 6 lines per micrograph: #1 - spatial frequency (1/Angstroms); #2 - 1D rotational average of spectrum (assuming no astigmatism); #3 - 1D rotational average of spectrum; #4 - CTF fit; #5 - cross-correlation between spectrum and CTF fit; #6 - 2sigma of expected cross correlation of noise
0.000000 0.000651 0.001302 0.001953 0.002604 0.003255 0.003906 0.004557 0.005208 0.005859 0.006510 0.007161 0.007812 0.008464 0.009115 0.009766 0.010417 0.011068 0.011719 0.012370 0.013021 0.013672 0.014323 0.014974 0.015625 0.016276 0.016927 0.017578 0.018229 0.018880 0.019531 0.020182 0.020833 0.021484 0.022135 0.022786 0.023438 0.024089 0.024740 0.025391 0.026042 0.026693 0.027344 0.027995 0.028646 0.029297 0.029948 0.030599 0.031250 0.031901 0.032552 0.033203 0.033854 0.034505 0.035156 0.035807 0.036458 0.037109 0.037760 0.038411 0.039062 0.039714 0.040365 0.041016 0.041667 0.042318 0.042969 0.043620 0.044271 0.044922 0.045573 0.046224 0.046875 0.047526 0.048177 0.048828 0.049479 0.050130 0.050781 0.051432 0.052083 0.052734 0.053385 0.054036 0.054688 0.055339 0.055990 0.056641 0.057292 0.057943 0.058594 0.059245 0.059896 0.060547 0.061198 0.061849 0.062500 0.063151 0.063802 0.064453 0.065104 0.065755 0.066406 0.067057 0.067708 0.068359 0.069010 0.069661 0.070312 0.070964 0.071615 0.072266 0.072917 0.073568 0.074219 0.074870 0.075521 0.076172 0.076823 0.077474 0.078125 0.078776 0.079427 0.080078 0.080729 0.081380 0.082031 0.082682 0.083333 0.083984 0.084635 0.085286 0.085938 0.086589 0.087240 0.087891 0.088542 0.089193 0.089844 0.090495 0.091146 0.091797 0.092448 0.093099 0.093750 0.094401 0.095052 0.095703 0.096354 0.097005 0.097656 0.098307 0.098958 0.099609 0.100260 0.100911 0.101562 0.102214 0.102865 0.103516 0.104167 0.104818 0.105469 0.106120 0.106771 0.107422 0.108073 0.108724 0.109375 0.110026 0.110677 0.111328 0.111979 0.112630 0.113281 0.113932 0.114583 0.115234 0.115885 0.116536 0.117188 0.117839 0.118490 0.119141 0.119792 0.120443 0.121094 0.121745 0.122396 0.123047 0.123698 0.124349 0.125000 0.125651 0.126302 0.126953 0.127604 0.128255 0.128906 0.129557 0.130208 0.130859 0.131510 0.132161 0.132812 0.133464 0.134115 0.134766 0.135417 0.136068 0.136719 0.137370 0.138021 0.138672 0.139323 0.139974 0.140625 0.141276 0.141927 0.142578 0.143229 0.143880 0.144531 0.145182 0.145833 0.146484 0.147135 0.147786 0.148438 0.149089 0.149740 0.150391 0.151042 0.151693 0.152344 0.152995 0.153646 0.154297 0.154948 0.155599 0.156250 0.156901 0.157552 0.158203 0.158854 0.159505 0.160156 0.160807 0.161458 0.162109 0.162760 0.163411 0.164062 0.164714 0.165365 0.166016 0.166667 0.167318 0.167969 0.168620 0.169271 0.169922 0.170573 0.171224 0.171875 0.172526 0.173177 0.173828 0.174479 0.175130 0.175781 0.176432 0.177083 0.177734 0.178385 0.179036 0.179688 0.180339 0.180990 0.181641 0.182292 0.182943 0.183594 0.184245 0.184896 0.185547 0.186198 0.186849 0.187500 0.188151 0.188802 0.189453 0.190104 0.190755 0.191406 0.192057 0.192708 0.193359 0.194010 0.194661 0.195312 0.195964 0.196615 0.197266 0.197917 0.198568 0.199219 0.199870 0.200521 0.201172 0.201823 0.202474 0.203125 0.203776 0.204427 0.205078 0.205729 0.206380 0.207031 0.207682 0.208333 0.208984 0.209635 0.210286 0.210938 0.211589 0.212240 0.212891 0.213542 0.214193 0.214844 0.215495 0.216146 0.216797 0.217448 0.218099 0.218750 0.219401 0.220052 0.220703 0.221354 0.222005 0.222656 0.223307 0.223958 0.224609 0.225260 0.225911 0.226562 0.227214 0.227865 0.228516 0.229167 0.229818 0.230469 0.231120 0.231771 0.232422 0.233073 0.233724 0.234375 0.235026 0.235677
       0.31635        0.31635        0.31635        0.31635        0.31635        0.31635        0.31635        0.31635        0.31635        0.31635        0.31635        0.31635        0.31635        0.31635        0.31635        0.31635        0.31635        0.31635        0.31635        0.31635        0.31635        0.31635        0.31635        0.31635        0.31635        0.31635        0.31635        0.31635        0.31635        0.31635        0.31635        0.31635        0.31635        0.31635        0.31635        0.31635        0.31635        0.31635        0.31635        0.31635        0.31635        0.31635        0.31635        0.31635        0.31635        0.31635        0.31635        0.31635        0.31635        0.31635        0.31635        0.68457        0.87178        0.52165        0.08575       -0.06786       -0.42626       -0.20967       -0.29759       -0.11876       -0.07947       -0.11891       -0.06940       -0.21068       -0.23811       -0.26160       -0.33069       -0.33766       -0.49302       -0.38475       -0.46813       -0.45191       -0.42181       -0.47174       -0.54957       -0.56495       -0.59030       -0.62989       -0.58127       -0.41855       -0.37985       -0.33026       -0.31732       -0.21495       -0.20117        0.01872        0.06720        0.10103        0.22274        0.37178        0.44137        0.51589        0.55909        0.55411        0.57107        0.69876        0.81485        0.74589        0.73489        0.67469        0.58345        0.48623        0.40676        0.49256        0.37202        0.20008        0.07611        0.04489        0.00674       -0.06164       -0.04161       -0.02890       -0.07595       -0.00707       -0.02257        0.20889        0.24819        0.29136        0.43070        0.46774        0.40377        0.53225        0.63110        0.70366        0.76828        0.69149        0.66061        0.70050        0.58847        0.50709        0.41815        0.28776        0.18363        0.15603        0.10735        0.03655        0.01281       -0.00258        0.07454        0.13075        0.20193        0.28367        0.40282        0.41629        0.51218        0.60306        0.63606        0.61279        0.63009        0.55294        0.44493        0.44277        0.35029        0.22987        0.18513        0.14882        0.10400        0.11776        0.06316        0.09727        0.21999        0.26244        0.33952        0.34567        0.45243        0.51169        0.53611        0.55142        0.46830        0.42669        0.39324        0.37561        0.30809        0.25019        0.19943        0.18422        0.16035        0.18938        0.17639        0.26916        0.33203        0.36289        0.42133        0.46177        0.47807        0.44642        0.39219        0.41390        0.37485        0.29011        0.27480        0.22861        0.21200        0.19326        0.21096        0.23057        0.32884        0.37186        0.36494        0.45707        0.43964        0.43922        0.43085        0.39523        0.34331        0.32933        0.27661        0.23308        0.23550        0.26725        0.26777        0.29937        0.29850        0.33977        0.32802        0.41051        0.41663        0.37402        0.34344        0.36267        0.27917        0.27970        0.26278        0.27664        0.25930        0.27999        0.29175        0.31437        0.35253        0.35858        0.35948        0.33106        0.35119        0.28567        0.32224        0.26729        0.24904        0.28182        0.27940        0.30577        0.31468        0.33243        0.32515        0.31207        0.31679        0.28719        0.28568        0.25979        0.28103        0.26732        0.31092        0.28323        0.26091        0.30701        0.31044        0.31683        0.29140        0.29799        0.29261        0.24288        0.23627        0.21916        0.27814        0.27146        0.30720        0.31781        0.31976        0.31317        0.30278        0.27596        0.28241        0.33120        0.27504        0.26865        0.29460        0.29655        0.34159        0.33816        0.36289        0.33134        0.31185        0.27934        0.26261        0.26296        0.22601        0.26661        0.29792        0.29607        0.27699        0.29516        0.27033        0.32199        0.33102        0.25117        0.21660        0.26879        0.33730        0.27737        0.31533        0.32578        0.32788        0.29814        0.32012        0.34404        0.29806        0.29575        0.26418        0.27633        0.35110        0.35023        0.25674        0.26714        0.25397        0.27685        0.22689        0.28944        0.22019        0.25276        0.32499        0.31637        0.34195        0.29645        0.23838        0.23982        0.24195        0.24469        0.18120        0.21957        0.25888        0.29292        0.27972        0.29997        0.29106        0.28028        0.28272        0.20888        0.17909        0.18499        0.23466        0.20059        0.21980        0.23268        0.20947        0.24550        0.33262        0.29517        0.30424        0.22162        0.26164        0.23718        0.28490        0.30425        0.14730        0.21271        0.22416        0.13102        0.23356        0.10683        0.16556        0.18133        0.12213       -0.11436       -0.61928
2.591324 2.564257 2.537336 2.510562 2.483935 2.457454 2.431121 2.404934 2.378894 2.353001 2.327255 2.301655 2.276203 2.250897 2.225738 2.200725 2.175860 2.151141 2.126569 2.102144 2.077865 2.053734 2.029749 2.005911 1.982220 1.958675 1.935278 1.912027 1.888923 1.865966 1.843156 1.820492 1.797975 1.775605 1.753382 1.731306 1.709376 1.687593 1.665957 1.644468 1.623126 1.601930 1.580881 1.559979 1.539224 1.518615 1.498154 1.477839 1.457671 1.437650 1.417775 1.640155 2.045090 1.617306 1.130487 0.988178 0.426227 0.811959 0.564827 0.836629 0.773848 0.788854 0.755166 0.711358 0.562849 0.512745 0.488294 0.448393 0.206432 0.381819 0.205848 0.305600 0.241212 0.182181 0.130402 0.005370 0.044426 -0.015285 -0.055012 0.104958 0.207489 0.199409 0.154998 0.331308 0.198424 0.499282 0.573794 0.546536 0.591284 0.878344 0.807747 0.946473 0.889295 0.974156 0.940028 1.080594 1.142338 1.079589 1.126119 0.956178 0.945217 0.785477 0.652408 0.769303 0.702534 0.460951 0.306334 0.253786 0.211374 0.147938 0.088625 0.124902 0.064940 0.154774 0.050088 0.260589 0.376985 0.359832 0.478356 0.585683 0.469898 0.540969 0.699200 0.747867 0.781137 0.734908 0.733404 0.717398 0.627329 0.572874 0.430322 0.283584 0.205062 0.075412 0.132151 -0.044482 -0.027363 -0.082603 -0.037987 0.005171 0.140921 0.092613 0.302615 0.277004 0.366277 0.454522 0.524310 0.505900 0.517963 0.504821 0.331472 0.306706 0.275180 0.101014 0.047400 -0.001084 -0.037491 -0.042757 -0.095204 -0.104600 -0.019725 0.055060 0.135081 0.134007 0.225890 0.332260 0.303675 0.411430 0.395964 0.281795 0.231723 0.250172 0.210116 0.101060 0.070637 0.016345 0.002670 0.003359 -0.019458 0.058557 0.147552 0.141570 0.222977 0.251286 0.305473 0.260419 0.219605 0.188822 0.208577 0.150889 0.044799 0.049503 -0.008904 -0.010889 -0.032023 0.015856 0.016561 0.172781 0.122202 0.182010 0.236051 0.201716 0.193241 0.199433 0.135392 0.105542 0.066256 0.042826 -0.040456 0.007077 0.019604 0.051654 0.047851 0.079178 0.097974 0.118921 0.139193 0.185222 0.076667 0.097462 0.069026 -0.000494 0.006303 0.008673 -0.009925 0.018857 0.002883 0.030474 0.070622 0.083401 0.116763 0.051129 0.095456 0.055967 0.011849 0.062604 -0.034990 -0.013905 0.020673 -0.001776 0.050836 0.055437 0.050438 0.052189 0.050557 0.046313 0.019415 -0.001426 0.004618 0.014907 -0.014232 0.069432 -0.015596 0.005169 0.053140 0.047172 0.031857 0.042636 0.035466 0.015779 -0.028328 -0.049015 -0.018866 0.014699 0.016500 0.056859 0.061057 0.053221 0.076607 0.058578 0.019112 0.058808 0.084682 0.020932 0.022417 0.055592 0.054277 0.100602 0.108230 0.113323 0.109269 0.060663 0.038663 0.027646 0.005234 -0.007456 0.044452 0.072638 0.042825 0.027159 0.029649 0.026004 0.081993 0.063689 -0.048450 -0.055016 0.027724 0.092440 0.007087 0.034122 0.055640 0.090233 0.020629 0.055789 0.084930 0.033955 0.041288 -0.033041 0.014932 0.109873 0.066096 -0.059326 -0.020775 -0.049548 0.011954 -0.102699 0.033240 -0.111269 -0.031420 0.047444 0.024486 0.025796 -0.043785 -0.065481 -0.089185 -0.080533 -0.064453 -0.131765 -0.098659 -0.038625 0.013139 -0.027796 0.032373 -0.021462 -0.041344 0.054078 -0.111992 -0.092770 -0.099938 -0.004113 -0.057479 -0.038330 0.004153 0.014050 0.010299 0.175251 -0.007024 0.141778 0.005357 0.268444 0.251835 0.323920 0.282417 0.112524 0.215453 0.268931 0.053666 0.257439 0.111986 0.145448 0.236250 0.124083 -0.638725
0.072396 0.072899 0.074406 0.076917 0.080432 0.084950 0.090470 0.096990 0.104507 0.113020 0.122524 0.133015 0.144489 0.156938 0.170355 0.184731 0.200055 0.216314 0.233492 0.251573 0.270537 0.290361 0.311018 0.332480 0.354713 0.377681 0.401341 0.425648 0.450551 0.475995 0.501918 0.528254 0.554929 0.581865 0.608977 0.636173 0.663354 0.690416 0.717247 0.743729 0.769735 0.795133 0.819786 0.843547 0.866266 0.887785 0.907943 0.926573 0.943504 0.958562 0.971572 0.982354 0.990732 0.996527 0.999566 0.999676 0.996692 0.990455 0.980813 0.967627 0.950769 0.930127 0.905603 0.877120 0.844623 0.808076 0.767473 0.722834 0.674208 0.621676 0.565354 0.505392 0.441979 0.375339 0.305739 0.233483 0.158919 0.082432 0.004447 0.074569 0.154114 0.233652 0.312610 0.390389 0.466365 0.539891 0.610305 0.676935 0.739106 0.796148 0.847400 0.892224 0.930005 0.960172 0.982196 0.995606 0.999997 0.995039 0.980485 0.956185 0.922086 0.878249 0.824847 0.762176 0.690656 0.610836 0.523394 0.429135 0.328989 0.224007 0.115350 0.004283 0.107838 0.219583 0.329462 0.435945 0.537482 0.632532 0.719578 0.797161 0.863903 0.918538 0.959936 0.987130 0.999345 0.996021 0.976832 0.941710 0.890856 0.824754 0.744177 0.650185 0.544127 0.427622 0.302548 0.171017 0.035343 0.101990 0.238376 0.371130 0.497545 0.614943 0.720740 0.812502 0.888011 0.945322 0.982820 0.999277 0.993894 0.966347 0.916808 0.845975 0.755070 0.645841 0.520537 0.381878 0.233006 0.077422 0.081085 0.238535 0.390842 0.533931 0.663845 0.776857 0.869594 0.939136 0.983128 0.999869 0.988389 0.948512 0.880891 0.787024 0.669244 0.530682 0.375198 0.207295 0.031995 0.145299 0.318967 0.483343 0.632912 0.762492 0.867428 0.943775 0.988461 0.999428 0.975744 0.917681 0.826750 0.705692 0.558426 0.389940 0.206149 0.013702 0.180250 0.368311 0.543120 0.697651 0.825499 0.921167 0.980316 0.999995 0.978804 0.917014 0.816609 0.681264 0.516240 0.328216 0.125039 0.084586 0.291458 0.486273 0.660059 0.804588 0.912795 0.979138 0.999922 0.973529 0.900568 0.783914 0.628644 0.441854 0.232368 0.010352 0.213166 0.426833 0.619550 0.781059 0.902507 0.976969 0.999869 0.969309 0.886246 0.754533 0.580792 0.374123 0.145676 0.091938 0.325309 0.540993 0.726287 0.869997 0.963155 0.999608 0.976478 0.894426 0.757723 0.574078 0.354268 0.111546 0.139130 0.381991 0.601459 0.783146 0.914835 0.987339 0.995191 0.937117 0.816232 0.639947 0.419589 0.169727 0.092765 0.349798 0.583328 0.776629 0.915511 0.989428 0.992327 0.923203 0.786316 0.591006 0.351132 0.084148 0.190127 0.450958 0.678260 0.854170 0.964495 0.999912 0.956835 0.837840 0.651618 0.412420 0.139043 0.146596 0.421188 0.661930 0.848443 0.964538 0.999699 0.950107 0.819137 0.617235 0.361182 0.072775 0.222974 0.499978 0.733389 0.901844 0.989500 0.987591 0.895409 0.720548 0.478397 0.190880 0.115461 0.411868 0.670067 0.864973 0.977213 0.995111 0.916022 0.746787 0.503271 0.208984 0.107114 0.413395 0.678740 0.875719 0.983486 0.990090 0.893913 0.704057 0.439626 0.127911 0.198340 0.504326 0.756891 0.928181 0.998783 0.960049 0.815276 0.579590 0.278506 0.054729 0.382737 0.668185 0.878056 0.987546 0.983112 0.864279 0.643963 0.347227 0.008551 0.332089 0.633906 0.860209 0.982931 0.986241 0.868722 0.643837 0.338554 0.009745 0.357773 0.661659 0.882513 0.991502 0.973734 0.830450 0.579188 0.251803 0.109426
1.000000 1.000000 1.000000 1.000000 1.000000 1.000000 1.000000 1.000000 1.000000 1.000000 1.000000 1.000000 1.000000 1.000000 1.000000 1.000000 1.000000 1.000000 1.000000 1.000000 1.000000 1.000000 1.000000 1.000000 1.000000 1.000000 1.000000 1.000000 1.000000 1.000000 1.000000 1.000000 1.000000 1.000000 1.000000 1.000000 1.000000 1.000000 1.000000 1.000000 1.000000 1.000000 1.000000 1.000000 1.000000 1.000000 1.000000 1.000000 1.000000 1.000000 1.000000 1.000000 0.933239 0.933239 0.933239 0.924120 0.924120 0.924120 0.924120 0.924120 0.924120 0.924120 0.924120 0.924120 0.924120 0.924120 0.924120 0.924120 0.924120 0.924120 0.924120 0.924120 0.924120 0.924120 0.924120 0.924120 0.924120 0.924120 0.924120 0.924120 0.924120 0.924120 0.924120 0.924120 0.924120 0.924120 0.924120 0.924120 0.924120 0.924120 0.924120 0.924120 0.924120 0.924120 0.924120 0.924120 0.950105 0.951314 0.959161 0.958991 0.958484 0.956374 0.955469 0.954340 0.953891 0.954162 0.954766 0.955597 0.967348 0.968362 0.969897 0.970695 0.971399 0.972050 0.971900 0.972694 0.971941 0.971401 0.970896 0.966934 0.967567 0.968155 0.968321 0.969368 0.969251 0.971502 0.971629 0.971052 0.970217 0.969524 0.968857 0.968464 0.968190 0.968681 0.968947 0.970210 0.973352 0.972763 0.972454 0.972612 0.972715 0.972883 0.973273 0.974038 0.970134 0.968640 0.966972 0.964782 0.968998 0.966120 0.965905 0.967268 0.967649 0.968048 0.966882 0.962807 0.957298 0.956143 0.953729 0.944547 0.943501 0.944222 0.946511 0.946931 0.945518 0.938363 0.938918 0.931918 0.933814 0.937082 0.931099 0.931010 0.932155 0.931750 0.930799 0.930262 0.927400 0.924918 0.923447 0.923211 0.926152 0.926029 0.927210 0.927071 0.921556 0.913755 0.901855 0.899766 0.895148 0.898152 0.886925 0.886755 0.886487 0.882028 0.885401 0.885220 0.886148 0.882951 0.866425 0.849087 0.842561 0.846698 0.851610 0.847837 0.846659 0.839734 0.851039 0.830681 0.843161 0.854409 0.851714 0.851804 0.851220 0.849639 0.843879 0.844684 0.846588 0.847986 0.846075 0.844222 0.844105 0.826126 0.828106 0.764308 0.747148 0.737151 0.742815 0.749676 0.751693 0.750752 0.757036 0.761829 0.751987 0.733785 0.726498 0.720377 0.724415 0.721818 0.723615 0.706777 0.675226 0.670683 0.640630 0.657374 0.668531 0.629238 0.652212 0.663135 0.662425 0.661146 0.654731 0.652129 0.647810 0.650482 0.656926 0.669332 0.686413 0.709258 0.705082 0.695318 0.693265 0.674060 0.667769 0.663769 0.677866 0.656120 0.652113 0.670090 0.669609 0.654568 0.632194 0.622545 0.616056 0.609578 0.620037 0.607866 0.602540 0.591370 0.565664 0.559334 0.593909 0.609718 0.633034 0.602993 0.589810 0.578194 0.558918 0.571244 0.513314 0.513305 0.535519 0.543404 0.522325 0.512479 0.524065 0.528826 0.527241 0.517101 0.506605 0.498597 0.515829 0.552757 0.541921 0.522846 0.524519 0.523679 0.515901 0.425358 0.419255 0.393087 0.358579 0.300092 0.278471 0.271184 0.255293 0.245156 0.209614 0.206078 0.216071 0.222488 0.235144 0.237575 0.218329 0.228820 0.224723 0.211216 0.148381 0.137302 0.129227 0.118737 0.116551 0.093782 0.120155 0.188713 0.190896 0.190896 0.190896 0.190896 0.190896 0.190896 0.199781 0.199781 0.199781 0.199781 0.199781 0.199781 0.199781 0.199781 0.199781 0.209600 0.209600 0.209600 0.209600 0.209600 0.209600 0.209600 0.209600 0.209600 0.209600 0.209600 0.209600 0.209600 0.209600
0.000000 0.000000 0.000000 0.000000 0.000000 0.000000 0.000000 0.000000 0.000000 0.000000 0.000000 0.000000 0.000000 0.000000 0.000000 0.000000 0.000000 0.000000 0.000000 0.000000 0.000000 0.000000 0.000000 0.000000 0.000000 0.000000 0.000000 0.000000 0.000000 0.000000 0.000000 0.000000 0.000000 0.000000 0.000000 0.000000 0.000000 0.000000 0.000000 0.000000 0.000000 0.000000 0.000000 0.000000 0.000000 0.000000 0.000000 0.000000 0.000000 0.000000 0.000000 0.000000 0.180334 0.180334 0.180334 0.199007 0.199007 0.199007 0.199007 0.199007 0.199007 0.199007 0.199007 0.199007 0.199007 0.199007 0.199007 0.199007 0.199007 0.199007 0.199007 0.199007 0.199007 0.199007 0.199007 0.199007 0.199007 0.199007 0.199007 0.199007 0.199007 0.199007 0.199007 0.199007 0.199007 0.199007 0.199007 0.199007 0.199007 0.199007 0.199007 0.199007 0.199007 0.199007 0.199007 0.199007 0.225018 0.225018 0.225018 0.225018 0.225018 0.225018 0.225018 0.225018 0.225018 0.225018 0.225018 0.225018 0.225018 0.225018 0.225018 0.225018 0.225018 0.225018 0.225018 0.225018 0.225018 0.225018 0.225018 0.225018 0.225018 0.225018 0.225018 0.225018 0.225018 0.244339 0.244339 0.244339 0.244339 0.244339 0.244339 0.244339 0.244339 0.244339 0.244339 0.244339 0.244339 0.244339 0.244339 0.244339 0.244339 0.244339 0.244339 0.244339 0.244339 0.244339 0.244339 0.244339 0.251976 0.251976 0.251976 0.251976 0.251976 0.251976 0.251976 0.251976 0.251976 0.251976 0.251976 0.251976 0.251976 0.251976 0.251976 0.251976 0.251976 0.251976 0.251976 0.251976 0.264906 0.264906 0.264906 0.264906 0.264906 0.264906 0.264906 0.264906 0.264906 0.264906 0.264906 0.264906 0.264906 0.264906 0.264906 0.264906 0.264906 0.264906 0.264906 0.264906 0.264906 0.264906 0.264906 0.264906 0.264906 0.264906 0.264906 0.264906 0.264906 0.264906 0.264906 0.264906 0.264906 0.264906 0.264906 0.264906 0.264906 0.264906 0.264906 0.264906 0.264906 0.264906 0.264906 0.264906 0.264906 0.264906 0.264906 0.264906 0.264906 0.264906 0.264906 0.264906 0.264906 0.264906 0.264906 0.264906 0.264906 0.264906 0.264906 0.264906 0.264906 0.264906 0.256074 0.256074 0.256074 0.256074 0.256074 0.256074 0.256074 0.256074 0.256074 0.256074 0.256074 0.256074 0.256074 0.256074 0.269680 0.269680 0.269680 0.269680 0.269680 0.269680 0.269680 0.269680 0.269680 0.269680 0.269680 0.269680 0.264906 0.264906 0.264906 0.264906 0.264906 0.264906 0.264906 0.264906 0.264906 0.264906 0.264906 0.264906 0.269680 0.269680 0.269680 0.269680 0.269680 0.269680 0.269680 0.269680 0.269680 0.269680 0.269680 0.264906 0.264906 0.264906 0.264906 0.264906 0.264906 0.264906 0.264906 0.264906 0.264906 0.264906 0.256074 0.256074 0.256074 0.256074 0.256074 0.256074 0.256074 0.256074 0.256074 0.256074 0.256074 0.264906 0.264906 0.264906 0.264906 0.264906 0.264906 0.264906 0.264906 0.264906 0.264906 0.260378 0.260378 0.260378 0.260378 0.260378 0.260378 0.260378 0.260378 0.260378 0.260378 0.256074 0.256074 0.256074 0.256074 0.256074 0.256074 0.256074 0.256074 0.256074 0.256074 0.260378 0.260378 0.260378 0.260378 0.260378 0.260378 0.260378 0.260378 0.260378 0.256074 0.256074 0.256074 0.256074 0.256074 0.256074 0.256074 0.256074 0.256074 0.251976 0.251976 0.251976 0.251976 0.251976 0.251976 0.251976 0.251976 0.251976 0.251976 0.251976 0.251976 0.251976 0.251976
