# Output from CTFFind version 4.1.9, run on 2019-11-02 17:43:00
# Input file: stack1_bm3d_averaged_1_1.25_0_50_half.mrc ; Number of micrographs: 1
# Pixel size: 3.000 Angstroms ; acceleration voltage: 300.0 keV ; spherical aberration: 0.00 mm ; amplitude contrast: 0.07
# Box size: 512 pixels ; min. res.: 30.0 Angstroms ; max. res.: 5.0 Angstroms ; min. def.: 5000.0 um; max. def. 50000.0 um; num. frames averaged: 1
# 6 lines per micrograph: #1 - spatial frequency (1/Angstroms); #2 - 1D rotational average of spectrum (assuming no astigmatism); #3 - 1D rotational average of spectrum; #4 - CTF fit; #5 - cross-correlation between spectrum and CTF fit; #6 - 2sigma of expected cross correlation of noise
0.000000 0.000651 0.001302 0.001953 0.002604 0.003255 0.003906 0.004557 0.005208 0.005859 0.006510 0.007161 0.007812 0.008464 0.009115 0.009766 0.010417 0.011068 0.011719 0.012370 0.013021 0.013672 0.014323 0.014974 0.015625 0.016276 0.016927 0.017578 0.018229 0.018880 0.019531 0.020182 0.020833 0.021484 0.022135 0.022786 0.023438 0.024089 0.024740 0.025391 0.026042 0.026693 0.027344 0.027995 0.028646 0.029297 0.029948 0.030599 0.031250 0.031901 0.032552 0.033203 0.033854 0.034505 0.035156 0.035807 0.036458 0.037109 0.037760 0.038411 0.039062 0.039714 0.040365 0.041016 0.041667 0.042318 0.042969 0.043620 0.044271 0.044922 0.045573 0.046224 0.046875 0.047526 0.048177 0.048828 0.049479 0.050130 0.050781 0.051432 0.052083 0.052734 0.053385 0.054036 0.054688 0.055339 0.055990 0.056641 0.057292 0.057943 0.058594 0.059245 0.059896 0.060547 0.061198 0.061849 0.062500 0.063151 0.063802 0.064453 0.065104 0.065755 0.066406 0.067057 0.067708 0.068359 0.069010 0.069661 0.070312 0.070964 0.071615 0.072266 0.072917 0.073568 0.074219 0.074870 0.075521 0.076172 0.076823 0.077474 0.078125 0.078776 0.079427 0.080078 0.080729 0.081380 0.082031 0.082682 0.083333 0.083984 0.084635 0.085286 0.085938 0.086589 0.087240 0.087891 0.088542 0.089193 0.089844 0.090495 0.091146 0.091797 0.092448 0.093099 0.093750 0.094401 0.095052 0.095703 0.096354 0.097005 0.097656 0.098307 0.098958 0.099609 0.100260 0.100911 0.101562 0.102214 0.102865 0.103516 0.104167 0.104818 0.105469 0.106120 0.106771 0.107422 0.108073 0.108724 0.109375 0.110026 0.110677 0.111328 0.111979 0.112630 0.113281 0.113932 0.114583 0.115234 0.115885 0.116536 0.117188 0.117839 0.118490 0.119141 0.119792 0.120443 0.121094 0.121745 0.122396 0.123047 0.123698 0.124349 0.125000 0.125651 0.126302 0.126953 0.127604 0.128255 0.128906 0.129557 0.130208 0.130859 0.131510 0.132161 0.132812 0.133464 0.134115 0.134766 0.135417 0.136068 0.136719 0.137370 0.138021 0.138672 0.139323 0.139974 0.140625 0.141276 0.141927 0.142578 0.143229 0.143880 0.144531 0.145182 0.145833 0.146484 0.147135 0.147786 0.148438 0.149089 0.149740 0.150391 0.151042 0.151693 0.152344 0.152995 0.153646 0.154297 0.154948 0.155599 0.156250 0.156901 0.157552 0.158203 0.158854 0.159505 0.160156 0.160807 0.161458 0.162109 0.162760 0.163411 0.164062 0.164714 0.165365 0.166016 0.166667 0.167318 0.167969 0.168620 0.169271 0.169922 0.170573 0.171224 0.171875 0.172526 0.173177 0.173828 0.174479 0.175130 0.175781 0.176432 0.177083 0.177734 0.178385 0.179036 0.179688 0.180339 0.180990 0.181641 0.182292 0.182943 0.183594 0.184245 0.184896 0.185547 0.186198 0.186849 0.187500 0.188151 0.188802 0.189453 0.190104 0.190755 0.191406 0.192057 0.192708 0.193359 0.194010 0.194661 0.195312 0.195964 0.196615 0.197266 0.197917 0.198568 0.199219 0.199870 0.200521 0.201172 0.201823 0.202474 0.203125 0.203776 0.204427 0.205078 0.205729 0.206380 0.207031 0.207682 0.208333 0.208984 0.209635 0.210286 0.210938 0.211589 0.212240 0.212891 0.213542 0.214193 0.214844 0.215495 0.216146 0.216797 0.217448 0.218099 0.218750 0.219401 0.220052 0.220703 0.221354 0.222005 0.222656 0.223307 0.223958 0.224609 0.225260 0.225911 0.226562 0.227214 0.227865 0.228516 0.229167 0.229818 0.230469 0.231120 0.231771 0.232422 0.233073 0.233724 0.234375 0.235026 0.235677
       0.33024        0.33024        0.33024        0.33024        0.33024        0.33024        0.33024        0.33024        0.33024        0.33024        0.33024        0.33024        0.33024        0.33024        0.33024        0.33024        0.33024        0.33024        0.33024        0.33024        0.33024        0.33024        0.33024        0.33024        0.33024        0.33024        0.33024        0.33024        0.33024        0.33024        0.33024        0.33024        0.33024        0.33024        0.33024        0.33024        0.33024        0.33024        0.33024        0.33024        0.33024        0.33024        0.33024        0.33024        0.33024        0.33024        0.33024        0.33024        0.33024        0.33024        0.33024        0.50086        0.71750        0.42751        0.18736       -0.08225       -0.25737       -0.06619       -0.13407       -0.05260       -0.00585       -0.15100       -0.09369       -0.05764       -0.00632       -0.15690       -0.22586       -0.34858       -0.46148       -0.55652       -0.51559       -0.44437       -0.37113       -0.54661       -0.45381       -0.62374       -0.50733       -0.47309       -0.39081       -0.38931       -0.33797       -0.25310       -0.16489       -0.14434        0.03025       -0.01554        0.11488        0.16007        0.30671        0.41159        0.45883        0.50000        0.54265        0.54961        0.68088        0.63968        0.67313        0.58772        0.55308        0.64757        0.52385        0.42112        0.38061        0.31876        0.22839        0.25649        0.24865        0.10063        0.07861        0.00100       -0.00494        0.03810       -0.01341        0.06937        0.10196        0.23148        0.28418        0.29343        0.37732        0.56216        0.53127        0.57759        0.66298        0.70097        0.62757        0.63569        0.63193        0.55384        0.57205        0.40198        0.34401        0.25969        0.18264        0.07482        0.14287        0.11483        0.09345        0.10364        0.20467        0.20801        0.31599        0.36056        0.40961        0.48927        0.57614        0.54346        0.55522        0.59930        0.52853        0.45575        0.48548        0.32927        0.24115        0.25770        0.23724        0.13775        0.14112        0.15490        0.21924        0.23550        0.33169        0.36651        0.38785        0.46387        0.44025        0.48010        0.44668        0.46784        0.44700        0.40352        0.38023        0.35397        0.31618        0.29257        0.20261        0.18939        0.21900        0.26425        0.26182        0.34257        0.37225        0.35456        0.40875        0.44404        0.43738        0.42760        0.44639        0.38005        0.33369        0.27991        0.25446        0.29150        0.26154        0.29126        0.29823        0.33819        0.33738        0.38834        0.39702        0.42698        0.40524        0.43682        0.39813        0.35670        0.27903        0.28771        0.30026        0.26962        0.25052        0.31819        0.36783        0.33798        0.35127        0.36040        0.35359        0.40702        0.40859        0.36480        0.33635        0.30033        0.31224        0.31748        0.31559        0.29960        0.27763        0.33684        0.35663        0.37770        0.33389        0.32913        0.33476        0.34559        0.31164        0.28066        0.30040        0.30987        0.33709        0.31554        0.32156        0.35177        0.32413        0.31704        0.32240        0.29534        0.26078        0.25433        0.26521        0.30746        0.32042        0.35672        0.30147        0.30319        0.32224        0.29086        0.31423        0.28450        0.28124        0.28974        0.29168        0.30288        0.34139        0.33153        0.33099        0.33635        0.31756        0.33668        0.31734        0.32150        0.30998        0.27366        0.28488        0.29496        0.28867        0.31983        0.32463        0.32911        0.33025        0.34138        0.32214        0.28690        0.24307        0.26282        0.32651        0.35003        0.33756        0.30994        0.28720        0.29367        0.30671        0.25444        0.29893        0.31220        0.34110        0.29389        0.29280        0.27151        0.32866        0.33247        0.33483        0.30877        0.29214        0.31161        0.39395        0.32602        0.30528        0.31288        0.28556        0.28046        0.30153        0.28468        0.32589        0.22861        0.26403        0.30148        0.31112        0.29174        0.25356        0.28322        0.24241        0.21869        0.27437        0.29705        0.30588        0.27280        0.27360        0.32597        0.26590        0.23096        0.28837        0.25572        0.26607        0.27903        0.37477        0.27992        0.28075        0.25060        0.23988        0.27285        0.26042        0.23708        0.18601        0.24984        0.23663        0.25218        0.31655        0.25634        0.35512        0.32126        0.22841        0.21978        0.20979        0.24522        0.32918        0.23825        0.14350        0.18285        0.21990        0.23616        0.25223        0.19186        0.02947       -0.47955       -0.99539
2.671839 2.643648 2.615608 2.587719 2.559982 2.532395 2.504960 2.477676 2.450543 2.423561 2.396730 2.370051 2.343522 2.317145 2.290918 2.264843 2.238919 2.213146 2.187525 2.162054 2.136734 2.111566 2.086549 2.061683 2.036968 2.012404 1.987991 1.963730 1.939619 1.915660 1.891852 1.868195 1.844689 1.821334 1.798130 1.775078 1.752176 1.729426 1.706827 1.684378 1.662082 1.639936 1.617941 1.596098 1.574405 1.552864 1.531474 1.510235 1.489147 1.468210 1.447424 1.518437 1.822065 1.519204 1.148825 0.930442 0.542346 0.908843 0.626732 0.867939 0.916074 0.581501 0.704557 0.762577 0.813158 0.617186 0.525393 0.341736 0.098475 0.074990 0.042553 0.081441 0.299796 -0.041806 0.073849 -0.141533 -0.022394 -0.017752 0.077973 0.048680 0.104536 0.169082 0.275317 0.237785 0.475049 0.392341 0.542264 0.517059 0.763503 0.791357 0.871694 0.926341 0.935936 0.948031 1.072685 0.959044 1.152237 0.938035 0.850449 1.008383 0.844232 0.747577 0.616020 0.590180 0.461240 0.406356 0.505082 0.261675 0.189270 0.157041 0.014491 0.211769 -0.008243 0.108150 0.180396 0.263300 0.336961 0.337620 0.422944 0.544281 0.656472 0.540964 0.731551 0.867868 0.647289 0.689876 0.670595 0.594920 0.531896 0.474616 0.301089 0.210261 0.116715 -0.039122 -0.016552 0.052625 -0.094616 -0.057324 0.050694 0.048941 0.107872 0.226482 0.239179 0.312330 0.428852 0.426441 0.459977 0.460421 0.448875 0.311031 0.342528 0.251513 0.037300 0.061316 0.023388 -0.064610 -0.095082 -0.100025 -0.010747 -0.064496 0.071919 0.127447 0.128218 0.251616 0.220642 0.251655 0.284966 0.249716 0.248847 0.207731 0.174357 0.111540 0.109708 0.034086 0.018525 -0.126985 -0.055514 0.001372 0.001310 0.011269 0.098059 0.082558 0.140229 0.181071 0.239825 0.162933 0.201475 0.117770 0.148505 0.013352 -0.033060 0.013624 -0.015770 -0.011263 -0.003874 0.029520 0.063882 0.061290 0.130055 0.125770 0.157298 0.074204 0.155159 0.083438 -0.011794 -0.054198 -0.023136 -0.031607 -0.077990 -0.065633 0.043712 0.066982 -0.010698 0.056038 0.064865 0.069805 0.150281 0.082096 0.064155 0.044624 -0.022966 0.034714 0.006384 0.013248 0.007413 -0.012942 0.052177 0.066551 0.070194 0.033715 0.046212 0.018676 0.071696 -0.005629 -0.021139 0.019504 0.010981 0.066000 0.027797 0.036396 0.061583 0.032100 0.023976 0.028567 -0.007158 -0.041606 -0.024821 -0.027192 0.021391 0.054005 0.103356 0.006642 0.044398 0.062022 0.004358 0.072935 0.025730 0.023802 0.052807 0.050816 0.051548 0.105921 0.075462 0.081516 0.090487 0.101823 0.076234 0.075602 0.094258 0.040256 -0.004618 0.047950 0.024635 0.064625 0.062432 0.084045 0.017646 0.079728 0.071732 0.017819 0.028692 -0.080046 -0.021061 0.106093 0.069134 0.049400 0.037279 -0.030652 0.036737 0.019551 -0.051089 0.040664 0.056584 0.077315 0.029057 -0.015482 -0.001699 0.031457 0.054360 0.019770 0.035488 -0.028422 0.064986 0.117334 0.016166 -0.011573 0.018396 -0.026308 -0.028713 -0.014289 -0.031297 0.023002 -0.110692 -0.031884 -0.015804 0.019646 -0.039001 -0.061684 -0.008621 -0.058740 -0.056036 -0.044910 0.043654 0.009901 0.008281 -0.013555 0.079564 -0.037002 -0.036204 0.012203 -0.030223 0.036394 -0.002887 0.173136 -0.026061 -0.000643 0.029031 -0.022032 0.000132 0.005894 -0.020611 -0.125560 0.010744 -0.021983 0.009910 0.035061 -0.019446 0.154800 0.076007 -0.010256 -0.092770 -0.069033 -0.007145 0.097534 0.285681 0.169097 0.232051 0.198692 0.319701 0.287581 0.210279 0.122123 -0.339246
0.072396 0.072909 0.074449 0.077015 0.080607 0.085223 0.090863 0.097524 0.105205 0.113902 0.123612 0.134330 0.146051 0.158768 0.172473 0.187155 0.202804 0.219406 0.236945 0.255402 0.274757 0.294984 0.316057 0.337944 0.360611 0.384016 0.408118 0.432867 0.458208 0.484084 0.510428 0.537171 0.564234 0.591534 0.618981 0.646477 0.673919 0.701196 0.728189 0.754772 0.780814 0.806174 0.830707 0.854260 0.876674 0.897784 0.917421 0.935409 0.951573 0.965729 0.977695 0.987288 0.994323 0.998619 0.999997 0.998283 0.993310 0.984918 0.972958 0.957293 0.937801 0.914375 0.886930 0.855398 0.819737 0.779932 0.735993 0.687963 0.635916 0.579962 0.520247 0.456954 0.390309 0.320575 0.248059 0.173111 0.096120 0.017520 0.062216 0.142576 0.223008 0.302929 0.381723 0.458747 0.533335 0.604805 0.672464 0.735616 0.793565 0.845631 0.891151 0.929493 0.960062 0.982314 0.995761 0.999987 0.994651 0.979504 0.954393 0.919271 0.874207 0.819391 0.755138 0.681896 0.600248 0.510908 0.414725 0.312678 0.205869 0.095518 0.017053 0.130429 0.243117 0.353569 0.460198 0.561406 0.655600 0.741230 0.816806 0.880936 0.932346 0.969917 0.992708 0.999986 0.991249 0.966249 0.925009 0.867842 0.795357 0.708464 0.608377 0.496602 0.374925 0.245390 0.110274 0.027950 0.166654 0.303102 0.434503 0.558069 0.671073 0.770920 0.855203 0.921774 0.968801 0.994833 0.998845 0.980289 0.939129 0.875863 0.791542 0.687765 0.566666 0.430884 0.283519 0.128070 0.031642 0.191554 0.347472 0.495171 0.630517 0.749585 0.848784 0.924969 0.975561 0.998638 0.993027 0.958371 0.895173 0.804819 0.689565 0.552514 0.397544 0.229214 0.052647 0.126615 0.302786 0.470009 0.622564 0.755070 0.862675 0.941259 0.987603 0.999543 0.976087 0.917498 0.825334 0.702435 0.552868 0.381819 0.195429 0.000597 0.195269 0.384520 0.559576 0.713225 0.838940 0.931169 0.985604 0.999407 0.971383 0.902093 0.793886 0.650865 0.478761 0.284738 0.077118 0.134960 0.341930 0.534230 0.702748 0.839270 0.936899 0.990438 0.996691 0.954690 0.865819 0.733817 0.564669 0.366377 0.148609 0.077740 0.301082 0.509725 0.692489 0.839319 0.941871 0.994013 0.992235 0.935927 0.827499 0.672339 0.478602 0.256819 0.019368 0.220203 0.447925 0.650233 0.814793 0.931269 0.992025 0.992666 0.932405 0.814221 0.644776 0.434106 0.195073 0.057381 0.307139 0.537936 0.734425 0.883218 0.973842 0.999529 0.957773 0.850626 0.684682 0.470739 0.223169 0.041022 0.303304 0.544935 0.748300 0.898223 0.983149 0.996093 0.935285 0.804441 0.612622 0.373690 0.105368 0.172026 0.437091 0.669004 0.849168 0.962744 0.999952 0.956978 0.836434 0.647319 0.404421 0.127258 0.161458 0.437634 0.677823 0.861217 0.971516 0.998451 0.938817 0.796933 0.584442 0.319455 0.025088 0.272513 0.546457 0.771555 0.926674 0.996792 0.974543 0.861085 0.666198 0.407550 0.109191 0.200610 0.492010 0.736476 0.909601 0.993626 0.979351 0.867255 0.667664 0.399933 0.090664 0.228847 0.525758 0.769046 0.932805 0.999081 0.959956 0.818609 0.589224 0.295692 0.030763 0.354843 0.640961 0.857190 0.978868 0.991543 0.892800 0.692803 0.413404 0.085870 0.252501 0.562606 0.808050 0.959484 0.998217 0.918662 0.729276 0.451831 0.119058 0.229111 0.550281 0.804757 0.960518 0.997359 0.909657 0.707373 0.415110 0.069270 0.286380 0.606176 0.848464 0.981074 0.985750 0.860807 0.621699 0.299278 0.064032 0.419695 0.719563 0.922407 0.999702
1.000000 1.000000 1.000000 1.000000 1.000000 1.000000 1.000000 1.000000 1.000000 1.000000 1.000000 1.000000 1.000000 1.000000 1.000000 1.000000 1.000000 1.000000 1.000000 1.000000 1.000000 1.000000 1.000000 1.000000 1.000000 1.000000 1.000000 1.000000 1.000000 1.000000 1.000000 1.000000 1.000000 1.000000 1.000000 1.000000 1.000000 1.000000 1.000000 1.000000 1.000000 1.000000 1.000000 1.000000 1.000000 1.000000 1.000000 1.000000 1.000000 1.000000 1.000000 1.000000 0.914924 0.914924 0.903414 0.903414 0.903414 0.903414 0.903414 0.903414 0.903414 0.903414 0.903414 0.903414 0.903414 0.903414 0.903414 0.903414 0.903414 0.903414 0.903414 0.903414 0.903414 0.903414 0.903414 0.903414 0.903414 0.903414 0.903414 0.903414 0.903414 0.903414 0.903414 0.903414 0.903414 0.903414 0.903414 0.903414 0.903414 0.903414 0.903414 0.903414 0.903414 0.903414 0.903414 0.899635 0.904103 0.906121 0.904289 0.907969 0.908072 0.907334 0.907572 0.907145 0.907394 0.908784 0.919429 0.930631 0.941266 0.942489 0.947563 0.952091 0.954242 0.955271 0.956574 0.965819 0.964670 0.964045 0.964793 0.966540 0.968892 0.967301 0.967311 0.970387 0.971190 0.969256 0.967376 0.966718 0.966083 0.966130 0.965678 0.965579 0.965508 0.966131 0.966348 0.966210 0.966342 0.966349 0.964464 0.964750 0.966955 0.968045 0.967769 0.966317 0.963817 0.967733 0.968201 0.967769 0.967627 0.967080 0.967462 0.958365 0.954481 0.954469 0.950844 0.949856 0.948250 0.945583 0.942569 0.942274 0.941268 0.942452 0.938458 0.927342 0.914400 0.902204 0.923608 0.909330 0.896322 0.876902 0.875645 0.876098 0.876850 0.871619 0.865258 0.861349 0.858081 0.858990 0.857944 0.860082 0.858004 0.847799 0.849892 0.848024 0.819962 0.803015 0.785797 0.783529 0.781721 0.783104 0.783550 0.782531 0.790324 0.779308 0.778574 0.770951 0.752812 0.715397 0.703578 0.712941 0.721168 0.725783 0.722504 0.707877 0.668370 0.677431 0.697992 0.694943 0.697567 0.686290 0.677905 0.675191 0.675323 0.664697 0.656986 0.655264 0.652057 0.661219 0.665324 0.663667 0.655897 0.638109 0.623626 0.611619 0.620784 0.625779 0.589001 0.584866 0.568455 0.559317 0.543943 0.526518 0.522809 0.496487 0.487971 0.488469 0.492534 0.495515 0.502193 0.504794 0.488624 0.507351 0.514461 0.542470 0.522222 0.523704 0.523776 0.527016 0.512493 0.503654 0.501221 0.502024 0.511254 0.532847 0.571822 0.553564 0.539398 0.527605 0.533556 0.486411 0.490525 0.515330 0.492890 0.439635 0.380988 0.380325 0.337521 0.337687 0.316891 0.307261 0.295148 0.293133 0.282804 0.269332 0.255979 0.195693 0.154642 0.136162 0.125786 0.124493 0.140971 0.141148 0.139790 0.157324 0.202856 0.205594 0.195303 0.158044 0.145835 0.117635 0.111766 0.131810 0.087246 0.079747 0.071140 0.041851 0.016933 -0.028883 -0.006632 -0.094044 -0.115368 -0.125457 -0.101175 -0.091474 -0.083591 -0.091228 -0.129255 -0.120002 -0.072105 -0.066381 -0.073029 -0.132059 -0.110996 -0.100723 -0.098555 -0.109990 -0.122155 -0.111529 -0.124322 -0.121925 -0.117997 -0.066097 -0.002474 0.002382 0.002015 -0.002397 -0.010216 -0.020744 -0.009717 0.011783 0.018316 -0.001580 -0.000733 -0.000938 -0.041801 -0.041801 -0.042980 -0.042980 -0.042980 -0.042980 -0.042980 -0.042980 -0.042980 -0.042980 -0.042980 -0.046467 -0.046467 -0.046467 -0.046467 -0.046467 -0.046467 -0.046467 -0.046467 -0.046467 -0.046467 -0.046467 -0.046467 -0.046467 -0.046467 -0.046467 -0.046467 -0.046467 -0.046467
0.000000 0.000000 0.000000 0.000000 0.000000 0.000000 0.000000 0.000000 0.000000 0.000000 0.000000 0.000000 0.000000 0.000000 0.000000 0.000000 0.000000 0.000000 0.000000 0.000000 0.000000 0.000000 0.000000 0.000000 0.000000 0.000000 0.000000 0.000000 0.000000 0.000000 0.000000 0.000000 0.000000 0.000000 0.000000 0.000000 0.000000 0.000000 0.000000 0.000000 0.000000 0.000000 0.000000 0.000000 0.000000 0.000000 0.000000 0.000000 0.000000 0.000000 0.000000 0.000000 0.181818 0.181818 0.199007 0.199007 0.199007 0.199007 0.199007 0.199007 0.199007 0.199007 0.199007 0.199007 0.199007 0.199007 0.199007 0.199007 0.199007 0.199007 0.199007 0.199007 0.199007 0.199007 0.199007 0.199007 0.199007 0.199007 0.199007 0.199007 0.199007 0.199007 0.199007 0.199007 0.199007 0.199007 0.199007 0.199007 0.199007 0.199007 0.199007 0.199007 0.199007 0.199007 0.199007 0.230940 0.230940 0.230940 0.230940 0.230940 0.230940 0.230940 0.230940 0.230940 0.230940 0.230940 0.230940 0.230940 0.230940 0.230940 0.230940 0.230940 0.230940 0.230940 0.230940 0.230940 0.230940 0.230940 0.230940 0.230940 0.230940 0.230940 0.230940 0.244339 0.244339 0.244339 0.244339 0.244339 0.244339 0.244339 0.244339 0.244339 0.244339 0.244339 0.244339 0.244339 0.244339 0.244339 0.244339 0.244339 0.244339 0.244339 0.244339 0.244339 0.244339 0.244339 0.251976 0.251976 0.251976 0.251976 0.251976 0.251976 0.251976 0.251976 0.251976 0.251976 0.251976 0.251976 0.251976 0.251976 0.251976 0.251976 0.251976 0.251976 0.251976 0.251976 0.264906 0.264906 0.264906 0.264906 0.264906 0.264906 0.264906 0.264906 0.264906 0.264906 0.264906 0.264906 0.264906 0.264906 0.264906 0.264906 0.264906 0.264906 0.264906 0.264906 0.264906 0.264906 0.264906 0.264906 0.264906 0.264906 0.264906 0.264906 0.264906 0.264906 0.264906 0.264906 0.264906 0.264906 0.264906 0.264906 0.264906 0.264906 0.264906 0.264906 0.264906 0.264906 0.264906 0.264906 0.264906 0.264906 0.264906 0.264906 0.264906 0.264906 0.264906 0.264906 0.264906 0.264906 0.264906 0.264906 0.264906 0.264906 0.264906 0.264906 0.264906 0.264906 0.264906 0.264906 0.264906 0.264906 0.264906 0.264906 0.264906 0.264906 0.264906 0.264906 0.264906 0.264906 0.264906 0.269680 0.269680 0.269680 0.269680 0.269680 0.269680 0.269680 0.269680 0.269680 0.269680 0.269680 0.269680 0.264906 0.264906 0.264906 0.264906 0.264906 0.264906 0.264906 0.264906 0.264906 0.264906 0.264906 0.264906 0.269680 0.269680 0.269680 0.269680 0.269680 0.269680 0.269680 0.269680 0.269680 0.269680 0.269680 0.264906 0.264906 0.264906 0.264906 0.264906 0.264906 0.264906 0.264906 0.264906 0.264906 0.264906 0.256074 0.256074 0.256074 0.256074 0.256074 0.256074 0.256074 0.256074 0.256074 0.256074 0.256074 0.264906 0.264906 0.264906 0.264906 0.264906 0.264906 0.264906 0.264906 0.264906 0.264906 0.260378 0.260378 0.260378 0.260378 0.260378 0.260378 0.260378 0.260378 0.260378 0.260378 0.264906 0.264906 0.264906 0.264906 0.264906 0.264906 0.264906 0.264906 0.264906 0.260378 0.260378 0.260378 0.260378 0.260378 0.260378 0.260378 0.260378 0.260378 0.256074 0.256074 0.256074 0.256074 0.256074 0.256074 0.256074 0.256074 0.256074 0.251976 0.251976 0.251976 0.251976 0.251976 0.251976 0.251976 0.251976 0.251976 0.251976 0.251976 0.251976 0.251976 0.251976 0.251976 0.251976 0.251976 0.251976
