# Output from CTFFind version 4.1.9, run on 2019-11-03 19:37:47
# Input file: stack1_bm3d_averaged_1_4.75_0_50_half.mrc ; Number of micrographs: 1
# Pixel size: 3.000 Angstroms ; acceleration voltage: 300.0 keV ; spherical aberration: 0.00 mm ; amplitude contrast: 0.07
# Box size: 512 pixels ; min. res.: 30.0 Angstroms ; max. res.: 5.0 Angstroms ; min. def.: 5000.0 um; max. def. 50000.0 um; num. frames averaged: 1
# 6 lines per micrograph: #1 - spatial frequency (1/Angstroms); #2 - 1D rotational average of spectrum (assuming no astigmatism); #3 - 1D rotational average of spectrum; #4 - CTF fit; #5 - cross-correlation between spectrum and CTF fit; #6 - 2sigma of expected cross correlation of noise
0.000000 0.000651 0.001302 0.001953 0.002604 0.003255 0.003906 0.004557 0.005208 0.005859 0.006510 0.007161 0.007812 0.008464 0.009115 0.009766 0.010417 0.011068 0.011719 0.012370 0.013021 0.013672 0.014323 0.014974 0.015625 0.016276 0.016927 0.017578 0.018229 0.018880 0.019531 0.020182 0.020833 0.021484 0.022135 0.022786 0.023438 0.024089 0.024740 0.025391 0.026042 0.026693 0.027344 0.027995 0.028646 0.029297 0.029948 0.030599 0.031250 0.031901 0.032552 0.033203 0.033854 0.034505 0.035156 0.035807 0.036458 0.037109 0.037760 0.038411 0.039062 0.039714 0.040365 0.041016 0.041667 0.042318 0.042969 0.043620 0.044271 0.044922 0.045573 0.046224 0.046875 0.047526 0.048177 0.048828 0.049479 0.050130 0.050781 0.051432 0.052083 0.052734 0.053385 0.054036 0.054688 0.055339 0.055990 0.056641 0.057292 0.057943 0.058594 0.059245 0.059896 0.060547 0.061198 0.061849 0.062500 0.063151 0.063802 0.064453 0.065104 0.065755 0.066406 0.067057 0.067708 0.068359 0.069010 0.069661 0.070312 0.070964 0.071615 0.072266 0.072917 0.073568 0.074219 0.074870 0.075521 0.076172 0.076823 0.077474 0.078125 0.078776 0.079427 0.080078 0.080729 0.081380 0.082031 0.082682 0.083333 0.083984 0.084635 0.085286 0.085938 0.086589 0.087240 0.087891 0.088542 0.089193 0.089844 0.090495 0.091146 0.091797 0.092448 0.093099 0.093750 0.094401 0.095052 0.095703 0.096354 0.097005 0.097656 0.098307 0.098958 0.099609 0.100260 0.100911 0.101562 0.102214 0.102865 0.103516 0.104167 0.104818 0.105469 0.106120 0.106771 0.107422 0.108073 0.108724 0.109375 0.110026 0.110677 0.111328 0.111979 0.112630 0.113281 0.113932 0.114583 0.115234 0.115885 0.116536 0.117188 0.117839 0.118490 0.119141 0.119792 0.120443 0.121094 0.121745 0.122396 0.123047 0.123698 0.124349 0.125000 0.125651 0.126302 0.126953 0.127604 0.128255 0.128906 0.129557 0.130208 0.130859 0.131510 0.132161 0.132812 0.133464 0.134115 0.134766 0.135417 0.136068 0.136719 0.137370 0.138021 0.138672 0.139323 0.139974 0.140625 0.141276 0.141927 0.142578 0.143229 0.143880 0.144531 0.145182 0.145833 0.146484 0.147135 0.147786 0.148438 0.149089 0.149740 0.150391 0.151042 0.151693 0.152344 0.152995 0.153646 0.154297 0.154948 0.155599 0.156250 0.156901 0.157552 0.158203 0.158854 0.159505 0.160156 0.160807 0.161458 0.162109 0.162760 0.163411 0.164062 0.164714 0.165365 0.166016 0.166667 0.167318 0.167969 0.168620 0.169271 0.169922 0.170573 0.171224 0.171875 0.172526 0.173177 0.173828 0.174479 0.175130 0.175781 0.176432 0.177083 0.177734 0.178385 0.179036 0.179688 0.180339 0.180990 0.181641 0.182292 0.182943 0.183594 0.184245 0.184896 0.185547 0.186198 0.186849 0.187500 0.188151 0.188802 0.189453 0.190104 0.190755 0.191406 0.192057 0.192708 0.193359 0.194010 0.194661 0.195312 0.195964 0.196615 0.197266 0.197917 0.198568 0.199219 0.199870 0.200521 0.201172 0.201823 0.202474 0.203125 0.203776 0.204427 0.205078 0.205729 0.206380 0.207031 0.207682 0.208333 0.208984 0.209635 0.210286 0.210938 0.211589 0.212240 0.212891 0.213542 0.214193 0.214844 0.215495 0.216146 0.216797 0.217448 0.218099 0.218750 0.219401 0.220052 0.220703 0.221354 0.222005 0.222656 0.223307 0.223958 0.224609 0.225260 0.225911 0.226562 0.227214 0.227865 0.228516 0.229167 0.229818 0.230469 0.231120 0.231771 0.232422 0.233073 0.233724 0.234375 0.235026 0.235677
       0.34715        0.34715        0.34715        0.34715        0.34715        0.34715        0.34715        0.34715        0.34715        0.34715        0.34715        0.34715        0.34715        0.34715        0.34715        0.34715        0.34715        0.34715        0.34715        0.34715        0.34715        0.34715        0.34715        0.34715        0.34715        0.34715        0.34715        0.34715        0.34715        0.34715        0.34715        0.34715        0.34715        0.34715        0.34715        0.34715        0.34715        0.34715        0.34715        0.34715        0.34715        0.34715        0.34715        0.34715        0.34715        0.34715        0.34715        0.34715        0.34715        0.34715        0.34715        0.43581        0.64063        0.31834        0.15398       -0.02453       -0.25880       -0.07358       -0.16257       -0.16999        0.01155       -0.12019       -0.11782       -0.05633       -0.04139       -0.13091       -0.16008       -0.30653       -0.43842       -0.52706       -0.48413       -0.39086       -0.29680       -0.44222       -0.34751       -0.45885       -0.37420       -0.41979       -0.25455       -0.24485       -0.27788       -0.13562       -0.08638       -0.06312        0.07261        0.02688        0.19414        0.19114        0.32291        0.37498        0.48175        0.51259        0.55988        0.60059        0.69839        0.59792        0.56553        0.51431        0.50988        0.59010        0.49300        0.45757        0.40335        0.31614        0.28035        0.29523        0.28499        0.18121        0.16419        0.05422        0.11379        0.10819        0.10711        0.10539        0.14724        0.21590        0.29945        0.28373        0.31817        0.46646        0.46356        0.48830        0.62837        0.63365        0.57256        0.57518        0.58196        0.44942        0.47780        0.37985        0.32907        0.28709        0.22699        0.22317        0.19347        0.15385        0.17939        0.22368        0.23515        0.25968        0.32837        0.35620        0.39287        0.47561        0.49687        0.47711        0.46992        0.56649        0.48971        0.49201        0.45413        0.37624        0.33800        0.26297        0.28595        0.21895        0.22433        0.25921        0.21515        0.23028        0.31097        0.38113        0.40918        0.45280        0.44390        0.50347        0.48266        0.46592        0.41449        0.40286        0.36718        0.36857        0.38468        0.36878        0.27144        0.30989        0.28030        0.28626        0.29117        0.34857        0.38181        0.40115        0.44409        0.47780        0.43808        0.42436        0.44990        0.40294        0.34959        0.36586        0.32022        0.33550        0.30041        0.32431        0.29910        0.33262        0.34701        0.38333        0.42971        0.42958        0.40612        0.39075        0.37599        0.38570        0.29844        0.31609        0.33385        0.26905        0.32599        0.30834        0.33084        0.34979        0.34428        0.37288        0.38495        0.45763        0.38504        0.35767        0.35840        0.31308        0.31983        0.33186        0.32073        0.34531        0.33010        0.34863        0.33767        0.39218        0.36570        0.37823        0.40453        0.38863        0.34355        0.33149        0.33807        0.30749        0.35621        0.32461        0.34065        0.35297        0.36593        0.32992        0.34281        0.33367        0.29841        0.28570        0.27972        0.31388        0.34403        0.34204        0.32888        0.31130        0.34621        0.33652        0.32253        0.30498        0.32666        0.33516        0.31861        0.29554        0.34650        0.33437        0.33473        0.31442        0.31958        0.34536        0.32951        0.30920        0.31168        0.27728        0.29077        0.34972        0.33257        0.32101        0.36457        0.31572        0.30625        0.35230        0.33405        0.28581        0.29170        0.26678        0.32465        0.33989        0.34917        0.30612        0.29671        0.32936        0.30441        0.27513        0.31671        0.32775        0.33214        0.33833        0.30666        0.27720        0.33400        0.31622        0.33898        0.31676        0.28765        0.34614        0.36842        0.38474        0.29969        0.33543        0.32830        0.33297        0.28777        0.33327        0.31561        0.24881        0.30246        0.36132        0.32558        0.32855        0.31229        0.32989        0.29269        0.29983        0.29103        0.30885        0.29976        0.24767        0.23966        0.29521        0.32333        0.28186        0.27438        0.29768        0.31462        0.26440        0.32000        0.28076        0.29177        0.29418        0.23048        0.30460        0.29802        0.23529        0.21359        0.21460        0.20001        0.21973        0.28808        0.25974        0.35440        0.25714        0.29373        0.27642        0.18780        0.27186        0.32312        0.20952        0.14859        0.24218        0.30590        0.39805        0.38692       -0.01273       -0.01589       -0.41574       -0.51823
2.929794 2.897993 2.866366 2.834913 2.803636 2.772533 2.741605 2.710851 2.680273 2.649869 2.619639 2.589585 2.559705 2.529999 2.500469 2.471113 2.441931 2.412925 2.384093 2.355436 2.326953 2.298646 2.270513 2.242554 2.214771 2.187162 2.159727 2.132468 2.105383 2.078472 2.051737 2.025176 1.998790 1.972578 1.946542 1.920679 1.894992 1.869479 1.844141 1.818978 1.793989 1.769175 1.744536 1.720072 1.695782 1.671666 1.647726 1.623960 1.600369 1.576953 1.553711 1.545508 1.916139 1.688267 1.022759 1.112738 0.454042 0.927516 0.550620 0.713058 0.881868 0.687476 0.591800 0.765248 0.713667 0.607763 0.548768 0.338568 0.067079 -0.009451 -0.022633 -0.030068 0.366885 -0.053874 0.082900 -0.045371 0.022639 -0.054628 0.147644 0.138248 0.079386 0.226095 0.323220 0.280185 0.470413 0.387356 0.651344 0.536316 0.782642 0.746383 0.904429 1.034581 0.949967 1.085846 1.116797 1.131541 0.990818 0.874528 0.885654 0.944722 0.834563 0.783103 0.658936 0.563707 0.487640 0.466929 0.471988 0.293219 0.299785 0.126442 0.111550 0.165518 0.123651 0.086503 0.146022 0.190602 0.337079 0.316607 0.369544 0.390672 0.595654 0.399190 0.673892 0.808955 0.623156 0.636829 0.659549 0.463802 0.407297 0.395144 0.223819 0.236840 0.047856 0.121726 -0.011977 0.002843 -0.058125 -0.007113 0.082559 0.030541 0.088873 0.194307 0.222388 0.257987 0.374524 0.310329 0.351477 0.413950 0.375392 0.340755 0.300773 0.239271 0.121208 0.062997 -0.010976 -0.026345 -0.101882 -0.008764 -0.029767 -0.091329 -0.071106 0.083157 0.208878 0.172558 0.235343 0.210447 0.352461 0.247320 0.245229 0.242995 0.131809 0.087865 0.218560 0.091405 0.060590 0.001696 0.064774 -0.031269 0.047265 -0.006183 0.163861 0.090756 0.141247 0.251660 0.258541 0.112141 0.183539 0.175825 0.121425 0.058991 0.059630 0.044046 0.002796 0.012915 -0.006641 -0.038575 0.077917 0.025488 0.116670 0.168626 0.119494 0.061792 0.051951 0.087661 0.015217 -0.088419 -0.006654 -0.029560 -0.080480 -0.026345 -0.041673 0.029841 -0.020062 0.005896 0.080813 0.116042 0.160613 0.008010 0.048841 0.029343 -0.069399 0.004427 0.002225 -0.020876 0.048213 0.004040 0.000214 0.039344 0.077835 0.070245 0.086392 0.139442 0.034775 0.040440 0.023337 0.005832 -0.008318 0.075641 0.005155 0.042901 0.068519 0.016497 0.005680 0.048530 0.013803 -0.036447 -0.049176 -0.039727 -0.002068 0.062044 0.049976 0.020557 -0.014924 0.072566 0.049249 0.055920 0.026519 0.040473 0.055523 0.021831 0.030676 0.080816 0.050124 0.044748 0.050185 0.011369 0.093183 0.056322 0.028339 0.030356 -0.042951 0.018455 0.095237 0.063501 0.038403 0.122970 0.009543 0.001694 0.061770 0.013264 -0.005000 -0.051872 -0.065099 0.051989 0.043005 0.018573 -0.016286 -0.035421 0.016413 -0.081729 -0.031939 -0.022146 0.027412 0.030259 0.003301 -0.049622 -0.048513 0.005137 -0.046057 -0.064109 -0.026895 -0.069583 0.029749 0.040843 0.022019 -0.076684 -0.048778 -0.002400 -0.029580 -0.106476 -0.047536 -0.031491 -0.150642 -0.040753 0.060371 -0.057159 -0.028606 -0.027990 0.032257 -0.048703 0.002868 -0.047715 0.045855 -0.043305 -0.051396 -0.074775 0.006626 0.140453 0.052542 0.070539 0.049555 0.175817 -0.005699 0.158278 0.063525 0.035173 0.134310 -0.042939 0.169249 0.033074 -0.021406 -0.055647 -0.039216 -0.061559 -0.200615 0.080823 -0.004439 0.127598 -0.123314 0.055701 -0.092778 -0.199386 -0.061160 -0.009348 0.269738 0.115126 0.326407 0.487372 0.577585 0.547121 -0.278208 -0.013617 -0.704271
0.072396 0.072908 0.074444 0.077003 0.080586 0.085190 0.090815 0.097459 0.105119 0.113794 0.123479 0.134169 0.145860 0.158544 0.172213 0.186858 0.202468 0.219028 0.236522 0.254933 0.274240 0.294418 0.315441 0.337276 0.359889 0.383242 0.407289 0.431984 0.457272 0.483096 0.509389 0.536082 0.563098 0.590354 0.617761 0.645221 0.672633 0.699884 0.726859 0.753431 0.779470 0.804837 0.829387 0.852967 0.875420 0.896583 0.916286 0.934357 0.950617 0.964887 0.976985 0.986726 0.993930 0.998414 0.999999 0.998513 0.993787 0.985663 0.973991 0.958634 0.939468 0.916387 0.889302 0.858146 0.822875 0.783470 0.739940 0.692325 0.640695 0.585158 0.525854 0.462964 0.396707 0.327344 0.255175 0.180544 0.103837 0.025479 0.054061 0.134277 0.214623 0.294522 0.373363 0.450508 0.525297 0.597051 0.665081 0.728694 0.787196 0.839907 0.886164 0.925335 0.956821 0.980073 0.994600 0.999976 0.995853 0.981970 0.958163 0.924371 0.880647 0.827165 0.764221 0.692246 0.611800 0.523576 0.428405 0.327242 0.221169 0.111384 0.000808 0.114010 0.226746 0.337480 0.444637 0.546623 0.641852 0.728768 0.805879 0.871779 0.925181 0.964944 0.990101 0.999887 0.993763 0.971440 0.932897 0.878397 0.808497 0.724055 0.626228 0.516468 0.396508 0.268343 0.134202 0.003483 0.142118 0.278993 0.411334 0.536357 0.651332 0.753646 0.840859 0.910782 0.961526 0.991570 0.999811 0.985608 0.948825 0.889856 0.809640 0.709663 0.591949 0.459030 0.313907 0.159990 0.001029 0.158973 0.315853 0.465401 0.603470 0.726099 0.829629 0.910827 0.966992 0.996064 0.996708 0.968389 0.911418 0.826982 0.717141 0.584805 0.433669 0.268134 0.093187 0.085731 0.262896 0.432475 0.588719 0.726173 0.839864 0.925500 0.979648 0.999892 0.984957 0.934800 0.850663 0.735066 0.591775 0.425691 0.242716 0.049559 0.146505 0.337889 0.516998 0.676524 0.809766 0.910917 0.975344 0.999825 0.982733 0.924163 0.825992 0.691854 0.527045 0.338347 0.133771 0.077762 0.286795 0.483761 0.659415 0.805288 0.914110 0.980203 0.999802 0.971311 0.895445 0.775274 0.616148 0.425494 0.212514 0.012240 0.237366 0.451187 0.642351 0.800456 0.916634 0.984081 0.998493 0.958386 0.865258 0.723605 0.540751 0.326523 0.092754 0.147335 0.379876 0.591143 0.768386 0.900616 0.979321 0.999067 0.957914 0.857643 0.703755 0.505223 0.274034 0.024502 0.227592 0.465977 0.674952 0.840438 0.950953 0.998474 0.979057 0.893231 0.746083 0.547031 0.309283 0.049016 0.215686 0.466073 0.684071 0.853590 0.961765 0.999983 0.964639 0.857532 0.685878 0.461904 0.202045 0.074208 0.345740 0.591406 0.791711 0.930375 0.995724 0.981743 0.888704 0.723305 0.498279 0.231506 0.055362 0.338605 0.594387 0.800781 0.939690 0.998492 0.971278 0.859526 0.672152 0.424904 0.139121 0.160047 0.445805 0.692131 0.876156 0.980353 0.994293 0.915776 0.751242 0.515350 0.229797 0.078628 0.380477 0.646465 0.850325 0.971454 0.997099 0.923790 0.757907 0.515257 0.219685 0.099188 0.408878 0.677324 0.876260 0.984235 0.989042 0.889210 0.694401 0.424610 0.108233 0.220831 0.526774 0.775789 0.939838 0.999910 0.948344 0.789934 0.541657 0.230977 0.107064 0.433747 0.711092 0.906316 0.995784 0.968008 0.825256 0.583570 0.271117 0.074966 0.412919 0.701357 0.904400 0.996207 0.964408 0.811927 0.556917 0.230767 0.125635 0.466940 0.749107 0.935128 1.000000 0.934220 0.745361 0.457388 0.107803 0.257138 0.588467 0.841085 0.979995
1.000000 1.000000 1.000000 1.000000 1.000000 1.000000 1.000000 1.000000 1.000000 1.000000 1.000000 1.000000 1.000000 1.000000 1.000000 1.000000 1.000000 1.000000 1.000000 1.000000 1.000000 1.000000 1.000000 1.000000 1.000000 1.000000 1.000000 1.000000 1.000000 1.000000 1.000000 1.000000 1.000000 1.000000 1.000000 1.000000 1.000000 1.000000 1.000000 1.000000 1.000000 1.000000 1.000000 1.000000 1.000000 1.000000 1.000000 1.000000 1.000000 1.000000 1.000000 1.000000 0.866853 0.866853 0.866853 0.866773 0.866773 0.866773 0.866773 0.866773 0.866773 0.866773 0.866773 0.866773 0.866773 0.866773 0.866773 0.866773 0.866773 0.866773 0.866773 0.866773 0.866773 0.866773 0.866773 0.866773 0.866773 0.866773 0.866773 0.866773 0.866773 0.866773 0.866773 0.866773 0.866773 0.866773 0.866773 0.866773 0.866773 0.866773 0.866773 0.866773 0.866773 0.866773 0.866773 0.866773 0.872083 0.876274 0.878223 0.880291 0.881790 0.878907 0.877866 0.877686 0.877881 0.879286 0.890024 0.914256 0.928290 0.936892 0.944357 0.946042 0.949383 0.949088 0.955169 0.962611 0.961912 0.962467 0.963696 0.965540 0.950305 0.948434 0.943638 0.939059 0.967695 0.949974 0.947173 0.939906 0.933371 0.931851 0.931793 0.931146 0.931520 0.932280 0.933462 0.932122 0.932939 0.933467 0.932973 0.929432 0.923390 0.920665 0.920229 0.918905 0.906390 0.901028 0.901403 0.901260 0.892696 0.892720 0.892442 0.892884 0.893354 0.893870 0.875672 0.872798 0.871074 0.868566 0.867178 0.867673 0.867282 0.871616 0.873067 0.863911 0.834124 0.825229 0.811158 0.773790 0.761769 0.770847 0.771479 0.766775 0.763707 0.762282 0.760411 0.759659 0.756197 0.754610 0.753392 0.747821 0.733878 0.728004 0.706517 0.689697 0.694398 0.657624 0.684127 0.695312 0.695289 0.688154 0.689307 0.689346 0.698171 0.685365 0.678082 0.669685 0.662056 0.644539 0.624466 0.614668 0.631433 0.641296 0.631512 0.613580 0.634759 0.631221 0.634837 0.642487 0.657063 0.654963 0.642661 0.607813 0.583485 0.598265 0.601961 0.601309 0.602613 0.605340 0.615491 0.630640 0.628172 0.582443 0.569701 0.570483 0.564964 0.579466 0.594184 0.595177 0.567120 0.556504 0.535017 0.555351 0.565303 0.527133 0.518561 0.516171 0.509832 0.477822 0.485256 0.490553 0.490059 0.510003 0.516856 0.495461 0.485855 0.473320 0.476318 0.470776 0.469410 0.479423 0.460645 0.459003 0.471371 0.493952 0.500823 0.470012 0.466675 0.468753 0.462670 0.445010 0.460554 0.427546 0.423975 0.407441 0.320790 0.245882 0.261716 0.262457 0.235180 0.222026 0.218479 0.186194 0.161644 0.153338 0.130197 0.043695 -0.022983 -0.038103 -0.036715 -0.026223 -0.019967 -0.018149 -0.046320 -0.049376 -0.014632 -0.007966 -0.028591 -0.025880 -0.118853 -0.103317 -0.081356 -0.042271 -0.046751 -0.028972 -0.035167 -0.080284 -0.058980 -0.056438 -0.066521 -0.088191 -0.119810 -0.107470 -0.100726 -0.133104 -0.103964 -0.108330 -0.109837 -0.149585 -0.128611 -0.111487 -0.113595 -0.142133 -0.185686 -0.161392 -0.161572 -0.188047 -0.164794 -0.156297 -0.131612 -0.170373 -0.133578 -0.116306 -0.116094 -0.090578 -0.068333 -0.076826 -0.079333 -0.070217 -0.057810 -0.033935 -0.027212 -0.030025 -0.018168 -0.022076 -0.070217 -0.070217 -0.070217 -0.089708 -0.089708 -0.089708 -0.089708 -0.089708 -0.089708 -0.089708 -0.089708 -0.089708 0.004330 0.004330 0.004330 0.004330 0.004330 0.004330 0.004330 0.004330 0.004330 0.004330 0.004330 0.004330 0.004330 0.004330 0.004330 0.004330 0.004330
0.000000 0.000000 0.000000 0.000000 0.000000 0.000000 0.000000 0.000000 0.000000 0.000000 0.000000 0.000000 0.000000 0.000000 0.000000 0.000000 0.000000 0.000000 0.000000 0.000000 0.000000 0.000000 0.000000 0.000000 0.000000 0.000000 0.000000 0.000000 0.000000 0.000000 0.000000 0.000000 0.000000 0.000000 0.000000 0.000000 0.000000 0.000000 0.000000 0.000000 0.000000 0.000000 0.000000 0.000000 0.000000 0.000000 0.000000 0.000000 0.000000 0.000000 0.000000 0.000000 0.180334 0.180334 0.180334 0.199007 0.199007 0.199007 0.199007 0.199007 0.199007 0.199007 0.199007 0.199007 0.199007 0.199007 0.199007 0.199007 0.199007 0.199007 0.199007 0.199007 0.199007 0.199007 0.199007 0.199007 0.199007 0.199007 0.199007 0.199007 0.199007 0.199007 0.199007 0.199007 0.199007 0.199007 0.199007 0.199007 0.199007 0.199007 0.199007 0.199007 0.199007 0.199007 0.199007 0.199007 0.230940 0.230940 0.230940 0.230940 0.230940 0.230940 0.230940 0.230940 0.230940 0.230940 0.230940 0.230940 0.230940 0.230940 0.230940 0.230940 0.230940 0.230940 0.230940 0.230940 0.230940 0.230940 0.230940 0.230940 0.230940 0.230940 0.230940 0.230940 0.248069 0.248069 0.248069 0.248069 0.248069 0.248069 0.248069 0.248069 0.248069 0.248069 0.248069 0.248069 0.248069 0.248069 0.248069 0.248069 0.248069 0.248069 0.248069 0.248069 0.248069 0.248069 0.251976 0.251976 0.251976 0.251976 0.251976 0.251976 0.251976 0.251976 0.251976 0.251976 0.251976 0.251976 0.251976 0.251976 0.251976 0.251976 0.251976 0.251976 0.251976 0.251976 0.256074 0.256074 0.256074 0.256074 0.256074 0.256074 0.256074 0.256074 0.256074 0.256074 0.256074 0.256074 0.256074 0.256074 0.256074 0.256074 0.256074 0.256074 0.264906 0.264906 0.264906 0.264906 0.264906 0.264906 0.264906 0.264906 0.264906 0.264906 0.264906 0.264906 0.264906 0.264906 0.264906 0.264906 0.269680 0.269680 0.269680 0.269680 0.269680 0.269680 0.269680 0.269680 0.269680 0.269680 0.269680 0.269680 0.269680 0.269680 0.264906 0.264906 0.264906 0.264906 0.264906 0.264906 0.264906 0.264906 0.264906 0.264906 0.264906 0.264906 0.264906 0.264906 0.264906 0.264906 0.264906 0.264906 0.264906 0.264906 0.264906 0.264906 0.264906 0.264906 0.264906 0.264906 0.264906 0.260378 0.260378 0.260378 0.260378 0.260378 0.260378 0.260378 0.260378 0.260378 0.260378 0.260378 0.260378 0.260378 0.264906 0.264906 0.264906 0.264906 0.264906 0.264906 0.264906 0.264906 0.264906 0.264906 0.264906 0.264906 0.269680 0.269680 0.269680 0.269680 0.269680 0.269680 0.269680 0.269680 0.269680 0.269680 0.269680 0.264906 0.264906 0.264906 0.264906 0.264906 0.264906 0.264906 0.264906 0.264906 0.264906 0.264906 0.269680 0.269680 0.269680 0.269680 0.269680 0.269680 0.269680 0.269680 0.269680 0.269680 0.264906 0.264906 0.264906 0.264906 0.264906 0.264906 0.264906 0.264906 0.264906 0.264906 0.260378 0.260378 0.260378 0.260378 0.260378 0.260378 0.260378 0.260378 0.260378 0.260378 0.256074 0.256074 0.256074 0.256074 0.256074 0.256074 0.256074 0.256074 0.256074 0.256074 0.260378 0.260378 0.260378 0.260378 0.260378 0.260378 0.260378 0.260378 0.260378 0.256074 0.256074 0.256074 0.256074 0.256074 0.256074 0.256074 0.256074 0.256074 0.269680 0.269680 0.269680 0.269680 0.269680 0.269680 0.269680 0.269680 0.269680 0.269680 0.269680 0.269680 0.269680 0.269680 0.269680 0.269680 0.269680
