# Output from CTFFind version 4.1.9, run on 2019-11-03 19:02:25
# Input file: stack16_bm3d_averaged_1_3.25_0_1000_half.mrc ; Number of micrographs: 1
# Pixel size: 3.000 Angstroms ; acceleration voltage: 300.0 keV ; spherical aberration: 0.00 mm ; amplitude contrast: 0.07
# Box size: 512 pixels ; min. res.: 30.0 Angstroms ; max. res.: 5.0 Angstroms ; min. def.: 5000.0 um; max. def. 50000.0 um; num. frames averaged: 1
# 6 lines per micrograph: #1 - spatial frequency (1/Angstroms); #2 - 1D rotational average of spectrum (assuming no astigmatism); #3 - 1D rotational average of spectrum; #4 - CTF fit; #5 - cross-correlation between spectrum and CTF fit; #6 - 2sigma of expected cross correlation of noise
0.000000 0.000651 0.001302 0.001953 0.002604 0.003255 0.003906 0.004557 0.005208 0.005859 0.006510 0.007161 0.007812 0.008464 0.009115 0.009766 0.010417 0.011068 0.011719 0.012370 0.013021 0.013672 0.014323 0.014974 0.015625 0.016276 0.016927 0.017578 0.018229 0.018880 0.019531 0.020182 0.020833 0.021484 0.022135 0.022786 0.023438 0.024089 0.024740 0.025391 0.026042 0.026693 0.027344 0.027995 0.028646 0.029297 0.029948 0.030599 0.031250 0.031901 0.032552 0.033203 0.033854 0.034505 0.035156 0.035807 0.036458 0.037109 0.037760 0.038411 0.039062 0.039714 0.040365 0.041016 0.041667 0.042318 0.042969 0.043620 0.044271 0.044922 0.045573 0.046224 0.046875 0.047526 0.048177 0.048828 0.049479 0.050130 0.050781 0.051432 0.052083 0.052734 0.053385 0.054036 0.054688 0.055339 0.055990 0.056641 0.057292 0.057943 0.058594 0.059245 0.059896 0.060547 0.061198 0.061849 0.062500 0.063151 0.063802 0.064453 0.065104 0.065755 0.066406 0.067057 0.067708 0.068359 0.069010 0.069661 0.070312 0.070964 0.071615 0.072266 0.072917 0.073568 0.074219 0.074870 0.075521 0.076172 0.076823 0.077474 0.078125 0.078776 0.079427 0.080078 0.080729 0.081380 0.082031 0.082682 0.083333 0.083984 0.084635 0.085286 0.085938 0.086589 0.087240 0.087891 0.088542 0.089193 0.089844 0.090495 0.091146 0.091797 0.092448 0.093099 0.093750 0.094401 0.095052 0.095703 0.096354 0.097005 0.097656 0.098307 0.098958 0.099609 0.100260 0.100911 0.101562 0.102214 0.102865 0.103516 0.104167 0.104818 0.105469 0.106120 0.106771 0.107422 0.108073 0.108724 0.109375 0.110026 0.110677 0.111328 0.111979 0.112630 0.113281 0.113932 0.114583 0.115234 0.115885 0.116536 0.117188 0.117839 0.118490 0.119141 0.119792 0.120443 0.121094 0.121745 0.122396 0.123047 0.123698 0.124349 0.125000 0.125651 0.126302 0.126953 0.127604 0.128255 0.128906 0.129557 0.130208 0.130859 0.131510 0.132161 0.132812 0.133464 0.134115 0.134766 0.135417 0.136068 0.136719 0.137370 0.138021 0.138672 0.139323 0.139974 0.140625 0.141276 0.141927 0.142578 0.143229 0.143880 0.144531 0.145182 0.145833 0.146484 0.147135 0.147786 0.148438 0.149089 0.149740 0.150391 0.151042 0.151693 0.152344 0.152995 0.153646 0.154297 0.154948 0.155599 0.156250 0.156901 0.157552 0.158203 0.158854 0.159505 0.160156 0.160807 0.161458 0.162109 0.162760 0.163411 0.164062 0.164714 0.165365 0.166016 0.166667 0.167318 0.167969 0.168620 0.169271 0.169922 0.170573 0.171224 0.171875 0.172526 0.173177 0.173828 0.174479 0.175130 0.175781 0.176432 0.177083 0.177734 0.178385 0.179036 0.179688 0.180339 0.180990 0.181641 0.182292 0.182943 0.183594 0.184245 0.184896 0.185547 0.186198 0.186849 0.187500 0.188151 0.188802 0.189453 0.190104 0.190755 0.191406 0.192057 0.192708 0.193359 0.194010 0.194661 0.195312 0.195964 0.196615 0.197266 0.197917 0.198568 0.199219 0.199870 0.200521 0.201172 0.201823 0.202474 0.203125 0.203776 0.204427 0.205078 0.205729 0.206380 0.207031 0.207682 0.208333 0.208984 0.209635 0.210286 0.210938 0.211589 0.212240 0.212891 0.213542 0.214193 0.214844 0.215495 0.216146 0.216797 0.217448 0.218099 0.218750 0.219401 0.220052 0.220703 0.221354 0.222005 0.222656 0.223307 0.223958 0.224609 0.225260 0.225911 0.226562 0.227214 0.227865 0.228516 0.229167 0.229818 0.230469 0.231120 0.231771 0.232422 0.233073 0.233724 0.234375 0.235026 0.235677
       0.33506        0.33506        0.33506        0.33506        0.33506        0.33506        0.33506        0.33506        0.33506        0.33506        0.33506        0.33506        0.33506        0.33506        0.33506        0.33506        0.33506        0.33506        0.33506        0.33506        0.33506        0.33506        0.33506        0.33506        0.33506        0.33506        0.33506        0.33506        0.33506        0.33506        0.33506        0.33506        0.33506        0.33506        0.33506        0.33506        0.33506        0.33506        0.33506        0.33506        0.33506        0.33506        0.33506        0.33506        0.33506        0.33506        0.33506        0.33506        0.33506        0.33506        0.33506        0.43491        0.59698        0.38650       -0.15414       -0.44342       -0.56678       -0.65957       -0.73376       -0.75920       -0.88561       -0.92658       -0.73398       -0.91006       -0.86485       -1.01072       -1.06089       -0.94807       -0.90627       -0.83387       -0.77894       -0.68574       -0.60102       -0.50790       -0.42882       -0.21954       -0.09949       -0.01061        0.21459        0.23118        0.30572        0.36945        0.39885        0.49239        0.55752        0.58615        0.55871        0.49176        0.53346        0.49508        0.41383        0.31835        0.18024        0.17424        0.11300       -0.05428       -0.07215       -0.06256        0.02331       -0.01272        0.03090        0.02901        0.14791        0.19230        0.40421        0.46764        0.56766        0.67394        0.74061        0.72641        0.66851        0.64198        0.54688        0.45827        0.37766        0.26952        0.20270        0.18461        0.07423        0.02865        0.01121        0.04317        0.08195        0.28025        0.40912        0.50547        0.55942        0.59939        0.66354        0.62724        0.64041        0.61944        0.57795        0.47582        0.27752        0.25122        0.20217        0.11473        0.05693        0.09852        0.11865        0.26216        0.34987        0.41005        0.48146        0.54457        0.62995        0.58022        0.52051        0.50251        0.36956        0.21022        0.21200        0.15393        0.12261        0.16213        0.22010        0.25999        0.32909        0.42605        0.42949        0.51981        0.46651        0.46112        0.46708        0.38063        0.32072        0.26893        0.21019        0.20217        0.21724        0.22486        0.30820        0.42978        0.44197        0.48519        0.53904        0.47596        0.43241        0.36700        0.29747        0.24188        0.22436        0.24818        0.26413        0.29031        0.32620        0.42148        0.47419        0.46373        0.45546        0.36191        0.36321        0.35273        0.21612        0.23310        0.25921        0.28899        0.34737        0.36215        0.40534        0.43581        0.43420        0.37660        0.35615        0.30713        0.32476        0.27861        0.26640        0.27870        0.32643        0.38309        0.39561        0.39838        0.37217        0.40175        0.36175        0.29181        0.28481        0.28643        0.31603        0.36290        0.34412        0.41713        0.34722        0.37542        0.37059        0.32233        0.32106        0.27416        0.29333        0.33521        0.32594        0.32875        0.33689        0.36057        0.32361        0.35247        0.29461        0.30955        0.26787        0.28129        0.28974        0.34428        0.38142        0.36036        0.34368        0.29583        0.26461        0.26670        0.29444        0.27019        0.31195        0.36062        0.37201        0.33411        0.30432        0.29000        0.29715        0.29784        0.28915        0.29305        0.33730        0.33793        0.31343        0.28567        0.33703        0.30402        0.29115        0.31474        0.31173        0.31784        0.34118        0.30981        0.31877        0.27446        0.29960        0.30130        0.32323        0.40105        0.32538        0.35552        0.30440        0.29701        0.29895        0.32189        0.29694        0.28574        0.29531        0.32294        0.33628        0.30301        0.30414        0.29123        0.29953        0.29828        0.32462        0.31718        0.33864        0.34643        0.30288        0.29019        0.29176        0.24557        0.31715        0.33068        0.30675        0.29106        0.26637        0.28778        0.32524        0.33028        0.29217        0.29882        0.30830        0.30349        0.22654        0.29357        0.29800        0.28657        0.31897        0.29247        0.34954        0.37966        0.28243        0.25666        0.23888        0.26579        0.27455        0.27428        0.27901        0.25708        0.25422        0.29701        0.30687        0.28706        0.24326        0.34921        0.31161        0.27990        0.24400        0.21565        0.25269        0.22717        0.23901        0.30097        0.34416        0.27403        0.24334        0.25943        0.24946        0.19267        0.30647        0.24231        0.19232        0.14312        0.23969        0.31618        0.25369        0.00683        0.16760       -0.37289       -0.61617
2.901908 2.866094 2.830510 2.795156 2.760031 2.725134 2.690468 2.656031 2.621823 2.587844 2.554095 2.520575 2.487284 2.454223 2.421391 2.388788 2.356415 2.324271 2.292356 2.260671 2.229215 2.197988 2.166991 2.136223 2.105684 2.075375 2.045295 2.015444 1.985823 1.956431 1.927268 1.898335 1.869631 1.841156 1.812911 1.784894 1.757108 1.729550 1.702222 1.675124 1.648254 1.621614 1.595203 1.569022 1.543070 1.517347 1.491854 1.466590 1.441555 1.416749 1.392173 1.431255 1.551531 1.497884 0.867508 0.580819 0.418495 0.356140 0.272108 0.189606 0.125614 -0.065877 0.164589 0.024223 -0.064597 -0.119136 -0.249512 -0.174883 -0.096211 -0.094887 -0.102410 0.020030 0.020438 0.192314 0.100806 0.322025 0.435980 0.449433 0.704488 0.672026 0.667207 0.813268 0.784968 0.802006 0.915713 0.860427 0.903559 0.729467 0.817532 0.833916 0.643312 0.581542 0.446392 0.411146 0.386416 0.174182 0.152573 0.114997 0.216197 0.129375 0.210044 0.101790 0.264013 0.248597 0.467340 0.422386 0.609842 0.630885 0.716959 0.752674 0.647834 0.639912 0.494111 0.448403 0.323487 0.302935 0.130832 0.188102 0.007271 0.002601 -0.044202 -0.046231 -0.008815 0.051306 0.291108 0.338046 0.406109 0.358764 0.467255 0.501659 0.474007 0.472772 0.391200 0.392944 0.146063 0.117218 0.067996 0.015688 -0.134750 -0.026243 -0.095119 0.034148 0.146949 0.175131 0.277370 0.254189 0.375063 0.470130 0.350640 0.402557 0.308166 0.145573 0.050909 0.075408 0.025537 0.028371 0.067295 0.112535 0.130688 0.253285 0.259067 0.293639 0.338857 0.258786 0.273321 0.238367 0.128869 0.096899 0.038704 0.023576 0.021552 0.013442 0.046043 0.173233 0.208650 0.210022 0.311903 0.222421 0.245613 0.117556 0.104206 -0.006936 -0.008729 -0.007692 0.012714 0.030983 0.025498 0.097342 0.183787 0.191589 0.205130 0.125561 0.084187 0.099805 0.035250 -0.080814 -0.001911 0.025267 0.035533 0.049487 0.107322 0.166543 0.117577 0.160893 0.063872 0.065609 0.036281 0.056868 -0.001971 0.008206 0.013582 0.066902 0.106122 0.127010 0.084201 0.111994 0.114337 0.042353 -0.001063 0.009988 0.002302 0.060567 0.066533 0.081039 0.121918 0.062327 0.091338 0.058401 0.040394 0.030463 -0.021651 0.027473 0.058719 0.035543 0.039133 0.091593 0.036908 0.053469 0.040327 0.012081 0.020125 -0.039218 -0.005171 0.009930 0.077381 0.070539 0.059901 0.040428 -0.010787 -0.026396 -0.010546 -0.002046 -0.008801 0.026757 0.074532 0.062220 0.009554 0.023372 -0.026007 0.009275 -0.000383 -0.022197 0.007489 0.049704 -0.008779 0.005045 -0.009838 0.024448 -0.017844 -0.007436 0.008832 0.009156 0.026125 -0.000503 0.010837 -0.005303 -0.058399 0.006558 -0.012548 0.040921 0.082479 0.001276 0.037012 -0.001597 -0.006291 -0.026738 0.031431 -0.007979 -0.021585 -0.017537 0.051246 0.022945 0.007026 0.015380 -0.040740 0.002842 -0.013886 0.019203 0.016665 0.048258 0.025550 0.024279 0.010567 -0.022554 -0.031761 0.012942 0.052247 0.009116 0.009153 -0.037397 0.006337 0.029360 0.036280 0.016575 0.004285 0.011889 0.003012 -0.065301 -0.003115 0.022475 -0.012862 0.034789 0.022328 0.076604 0.087107 0.015485 -0.003307 -0.039917 -0.008733 0.020892 -0.022462 0.016605 -0.015739 -0.037793 0.031904 0.030543 -0.073529 -0.081394 0.034244 -0.028657 -0.067000 -0.085239 -0.077610 -0.069478 -0.072374 -0.068640 0.001854 0.070594 -0.024414 -0.035287 0.070200 0.036833 -0.062196 0.137151 0.099692 0.130049 0.057564 0.207066 0.293889 0.199264 -0.138482 0.156491 -0.554856
0.072396 0.073048 0.075002 0.078259 0.082817 0.088675 0.095831 0.104281 0.114022 0.125048 0.137353 0.150929 0.165764 0.181848 0.199163 0.217692 0.237413 0.258298 0.280318 0.303436 0.327612 0.352798 0.378941 0.405979 0.433843 0.462458 0.491736 0.521585 0.551898 0.582561 0.613448 0.644424 0.675341 0.706040 0.736351 0.766092 0.795069 0.823079 0.849907 0.875327 0.899105 0.920999 0.940759 0.958128 0.972846 0.984652 0.993282 0.998476 0.999977 0.997536 0.990917 0.979894 0.964261 0.943833 0.918450 0.887980 0.852327 0.811432 0.765276 0.713888 0.657347 0.595787 0.529398 0.458432 0.383204 0.304094 0.221553 0.136096 0.048307 0.041164 0.131599 0.222225 0.312208 0.400666 0.486672 0.569269 0.647473 0.720287 0.786719 0.845789 0.896549 0.938097 0.969598 0.990296 0.999540 0.996795 0.981664 0.953903 0.913440 0.860385 0.795048 0.717942 0.629795 0.531551 0.424370 0.309620 0.188874 0.063887 0.063418 0.190978 0.316619 0.438091 0.553109 0.659396 0.754732 0.837003 0.904253 0.954738 0.986977 0.999804 0.992412 0.964395 0.915787 0.847083 0.759261 0.653783 0.532595 0.398103 0.253140 0.100923 0.055014 0.210888 0.362765 0.506644 0.638579 0.754781 0.851739 0.926340 0.975978 0.998662 0.993109 0.958821 0.896146 0.806309 0.691423 0.554466 0.399233 0.230248 0.052653 0.127931 0.305582 0.474261 0.628019 0.761220 0.868757 0.946266 0.990327 0.998637 0.970154 0.905195 0.805492 0.674188 0.515780 0.335998 0.141628 0.059725 0.259914 0.450579 0.623491 0.770925 0.886021 0.963128 0.998116 0.988631 0.934282 0.836743 0.699765 0.529086 0.332235 0.118236 0.102769 0.319995 0.522518 0.699848 0.842484 0.942447 0.993777 0.992929 0.939060 0.834189 0.683196 0.493660 0.275537 0.040688 0.197746 0.426050 0.630729 0.799323 0.921199 0.988264 0.995562 0.941701 0.829069 0.663827 0.455650 0.217227 0.036455 0.289023 0.523757 0.724708 0.877811 0.971916 0.999669 0.958158 0.849273 0.679741 0.460811 0.207580 0.061974 0.328237 0.571362 0.772772 0.916619 0.991088 0.989456 0.910788 0.760202 0.548650 0.292240 0.011080 0.272233 0.534413 0.753401 0.910269 0.990922 0.987468 0.899086 0.732332 0.500773 0.224021 0.073853 0.366353 0.626892 0.831242 0.959838 0.999758 0.946133 0.802857 0.582465 0.305191 0.002785 0.311733 0.591209 0.813067 0.954373 0.999869 0.943758 0.790574 0.555003 0.260637 0.062267 0.379822 0.658038 0.866486 0.981728 0.990067 0.889340 0.689474 0.411699 0.086460 0.249816 0.558729 0.804316 0.957296 0.998700 0.922389 0.736123 0.461000 0.129249 0.219403 0.542429 0.799677 0.958442 0.997774 0.911414 0.708982 0.415135 0.066775 0.291458 0.612828 0.854623 0.983937 0.982320 0.848616 0.599558 0.267917 0.101622 0.458347 0.752451 0.942062 0.999345 0.914818 0.699136 0.382050 0.008533 0.367440 0.690622 0.912660 0.999477 0.936715 0.732374 0.416124 0.035239 0.352269 0.686409 0.914550 0.999851 0.927464 0.707390 0.373447 0.021665 0.414466 0.740865 0.946646 0.996683 0.881204 0.617981 0.249964 0.161487 0.546637 0.839190 0.987818 0.965401 0.774299 0.446573 0.038933 0.376810 0.726317 0.946060 0.995078 0.862918 0.572206 0.175156 0.255511 0.639710 0.904911 0.999999 0.905434 0.637644 0.246583 0.193205 0.596644 0.884542 0.999286 0.916709 0.651572 0.255370 0.193274 0.604022 0.892959 0.999947 0.901452 0.616151 0.201885 0.255721 0.660723 0.926975 0.996700 0.853375 0.526110 0.084209 0.377148 0.757218
1.000000 1.000000 1.000000 1.000000 1.000000 1.000000 1.000000 1.000000 1.000000 1.000000 1.000000 1.000000 1.000000 1.000000 1.000000 1.000000 1.000000 1.000000 1.000000 1.000000 1.000000 1.000000 1.000000 1.000000 1.000000 1.000000 1.000000 1.000000 1.000000 1.000000 1.000000 1.000000 1.000000 1.000000 1.000000 1.000000 1.000000 1.000000 1.000000 1.000000 1.000000 1.000000 1.000000 1.000000 1.000000 1.000000 1.000000 1.000000 1.000000 1.000000 1.000000 1.000000 0.929186 0.929186 0.929186 0.929186 0.929186 0.929186 0.929186 0.929186 0.929186 0.929186 0.929186 0.929186 0.929186 0.929186 0.929186 0.929186 0.929186 0.929186 0.929186 0.929186 0.929186 0.929186 0.929186 0.929186 0.929186 0.929186 0.929186 0.929186 0.929186 0.929186 0.929186 0.929186 0.929186 0.914797 0.912791 0.915807 0.916829 0.916690 0.916159 0.915845 0.916160 0.917757 0.919649 0.940944 0.943407 0.944186 0.945373 0.944113 0.946293 0.943889 0.948259 0.963156 0.962475 0.963621 0.958304 0.959097 0.958803 0.958294 0.959811 0.959435 0.958157 0.956595 0.955291 0.955034 0.954652 0.956247 0.956657 0.956673 0.957075 0.957085 0.957016 0.954834 0.952434 0.952954 0.952437 0.950992 0.956125 0.955856 0.963929 0.965161 0.965827 0.966670 0.966891 0.967064 0.963511 0.962703 0.961518 0.950671 0.944387 0.940383 0.943054 0.945804 0.941954 0.935777 0.933921 0.937523 0.931911 0.931526 0.927376 0.927835 0.916301 0.911741 0.901876 0.902986 0.905252 0.905858 0.902925 0.889906 0.881408 0.881177 0.884504 0.878947 0.876946 0.892679 0.889758 0.891998 0.894613 0.896076 0.902017 0.887475 0.880286 0.876659 0.872172 0.871521 0.873821 0.872349 0.874950 0.872848 0.864936 0.869172 0.861214 0.868901 0.873793 0.869001 0.865609 0.864153 0.863851 0.860741 0.856923 0.860400 0.853028 0.850153 0.848389 0.842069 0.843487 0.844041 0.844380 0.844383 0.845597 0.836906 0.842351 0.832505 0.837224 0.832794 0.838118 0.834142 0.838760 0.838983 0.827868 0.822049 0.816846 0.823757 0.828586 0.797078 0.793937 0.787390 0.779369 0.784747 0.791474 0.787577 0.793637 0.792038 0.799670 0.798614 0.797612 0.799540 0.784262 0.792616 0.800606 0.805689 0.795890 0.783783 0.778499 0.765736 0.765103 0.762561 0.766125 0.715354 0.700021 0.678595 0.669362 0.683764 0.682097 0.679118 0.667887 0.644001 0.643651 0.641316 0.641291 0.606326 0.605281 0.591628 0.594022 0.597499 0.572404 0.584625 0.581025 0.585153 0.598825 0.502862 0.502652 0.478862 0.482216 0.492906 0.496025 0.505997 0.517384 0.512292 0.512716 0.503208 0.492404 0.506248 0.478816 0.450665 0.460141 0.428897 0.414354 0.428538 0.432062 0.431902 0.402876 0.403085 0.405978 0.393027 0.370353 0.372997 0.392261 0.388238 0.379432 0.381185 0.394269 0.373674 0.409698 0.395417 0.407250 0.419213 0.371550 0.377610 0.359103 0.357632 0.373605 0.355966 0.341337 0.355599 0.371062 0.308762 0.330996 0.356513 0.327189 0.396039 0.360637 0.353046 0.267290 0.283931 0.262132 0.271915 0.279199 0.211074 0.203508 0.174988 0.161600 0.136399 0.155743 0.156174 0.133283 0.088126 0.083821 0.064411 0.093795 0.100823 0.080358 0.073470 0.073470 0.073470 0.073470 0.080454 0.080454 0.080454 0.080454 0.080454 0.080454 0.080454 0.080454 0.080454 0.080454 0.080454 0.080454 0.080454 0.080454 0.030266 0.030266 0.030266 0.030266 0.030266 0.030266 0.030266 0.030266 0.030266 0.030266 0.030266 0.030266
0.000000 0.000000 0.000000 0.000000 0.000000 0.000000 0.000000 0.000000 0.000000 0.000000 0.000000 0.000000 0.000000 0.000000 0.000000 0.000000 0.000000 0.000000 0.000000 0.000000 0.000000 0.000000 0.000000 0.000000 0.000000 7.000000 4.000000 0.000000 0.000000 0.000000 0.000000 0.000000 0.000000 0.000000 0.000000 0.000000 0.000000 0.000000 0.000000 0.000000 0.000000 0.000000 0.000000 0.000000 0.000000 0.000000 0.000000 0.000000 0.000000 0.000000 0.000000 0.000000 0.209657 0.209657 0.209657 0.209657 0.209657 0.209657 0.209657 0.209657 0.209657 0.209657 0.209657 0.209657 0.209657 0.209657 0.209657 0.209657 0.209657 0.209657 0.209657 0.209657 0.209657 0.209657 0.209657 0.209657 0.209657 0.209657 0.209657 0.209657 0.209657 0.209657 0.209657 0.209657 0.209657 0.244339 0.244339 0.244339 0.244339 0.244339 0.244339 0.244339 0.244339 0.244339 0.244339 0.244339 0.244339 0.244339 0.244339 0.244339 0.244339 0.244339 0.244339 0.244339 0.244339 0.244339 0.244339 0.244339 0.244339 0.244339 0.260378 0.260378 0.260378 0.260378 0.260378 0.260378 0.260378 0.260378 0.260378 0.260378 0.260378 0.260378 0.260378 0.260378 0.260378 0.260378 0.260378 0.260378 0.260378 0.260378 0.269680 0.269680 0.269680 0.269680 0.269680 0.269680 0.269680 0.269680 0.269680 0.269680 0.269680 0.269680 0.269680 0.269680 0.269680 0.269680 0.269680 0.269680 0.269680 0.269680 0.269680 0.269680 0.269680 0.269680 0.269680 0.269680 0.269680 0.269680 0.269680 0.269680 0.269680 0.269680 0.269680 0.280056 0.280056 0.280056 0.280056 0.280056 0.280056 0.280056 0.280056 0.280056 0.280056 0.280056 0.280056 0.280056 0.280056 0.280056 0.280056 0.280056 0.280056 0.280056 0.280056 0.280056 0.280056 0.280056 0.280056 0.280056 0.280056 0.280056 0.285714 0.285714 0.285714 0.285714 0.285714 0.285714 0.285714 0.285714 0.285714 0.285714 0.285714 0.285714 0.274721 0.274721 0.274721 0.274721 0.274721 0.274721 0.274721 0.274721 0.274721 0.274721 0.274721 0.274721 0.280056 0.280056 0.280056 0.280056 0.280056 0.280056 0.280056 0.280056 0.280056 0.280056 0.280056 0.285714 0.285714 0.285714 0.285714 0.285714 0.285714 0.285714 0.285714 0.285714 0.285714 0.280056 0.280056 0.280056 0.280056 0.280056 0.280056 0.280056 0.280056 0.280056 0.280056 0.274721 0.274721 0.274721 0.274721 0.274721 0.274721 0.274721 0.274721 0.274721 0.274721 0.280056 0.280056 0.280056 0.280056 0.280056 0.280056 0.280056 0.280056 0.280056 0.274721 0.274721 0.274721 0.274721 0.274721 0.274721 0.274721 0.274721 0.274721 0.269680 0.269680 0.269680 0.269680 0.269680 0.269680 0.269680 0.269680 0.269680 0.280056 0.280056 0.280056 0.280056 0.280056 0.280056 0.280056 0.280056 0.260378 0.260378 0.260378 0.260378 0.260378 0.260378 0.260378 0.260378 0.260378 0.269680 0.269680 0.269680 0.269680 0.269680 0.269680 0.269680 0.269680 0.285714 0.285714 0.285714 0.285714 0.285714 0.285714 0.285714 0.264906 0.264906 0.264906 0.264906 0.264906 0.264906 0.264906 0.264906 0.274721 0.274721 0.274721 0.274721 0.274721 0.274721 0.274721 0.256074 0.256074 0.256074 0.256074 0.256074 0.256074 0.256074 0.256074 0.264906 0.264906 0.264906 0.264906 0.264906 0.264906 0.264906 0.264906 0.264906 0.264906 0.264906 0.264906 0.264906 0.264906 0.280056 0.280056 0.280056 0.280056 0.280056 0.280056 0.280056 0.280056 0.280056 0.280056 0.280056 0.280056
