# Output from CTFFind version 4.1.9, run on 2019-11-02 17:48:22
# Input file: stack6_bm3d_averaged_1_1.5_0_2000_half.mrc ; Number of micrographs: 1
# Pixel size: 3.000 Angstroms ; acceleration voltage: 300.0 keV ; spherical aberration: 0.00 mm ; amplitude contrast: 0.07
# Box size: 512 pixels ; min. res.: 30.0 Angstroms ; max. res.: 5.0 Angstroms ; min. def.: 5000.0 um; max. def. 50000.0 um; num. frames averaged: 1
# 6 lines per micrograph: #1 - spatial frequency (1/Angstroms); #2 - 1D rotational average of spectrum (assuming no astigmatism); #3 - 1D rotational average of spectrum; #4 - CTF fit; #5 - cross-correlation between spectrum and CTF fit; #6 - 2sigma of expected cross correlation of noise
0.000000 0.000651 0.001302 0.001953 0.002604 0.003255 0.003906 0.004557 0.005208 0.005859 0.006510 0.007161 0.007812 0.008464 0.009115 0.009766 0.010417 0.011068 0.011719 0.012370 0.013021 0.013672 0.014323 0.014974 0.015625 0.016276 0.016927 0.017578 0.018229 0.018880 0.019531 0.020182 0.020833 0.021484 0.022135 0.022786 0.023438 0.024089 0.024740 0.025391 0.026042 0.026693 0.027344 0.027995 0.028646 0.029297 0.029948 0.030599 0.031250 0.031901 0.032552 0.033203 0.033854 0.034505 0.035156 0.035807 0.036458 0.037109 0.037760 0.038411 0.039062 0.039714 0.040365 0.041016 0.041667 0.042318 0.042969 0.043620 0.044271 0.044922 0.045573 0.046224 0.046875 0.047526 0.048177 0.048828 0.049479 0.050130 0.050781 0.051432 0.052083 0.052734 0.053385 0.054036 0.054688 0.055339 0.055990 0.056641 0.057292 0.057943 0.058594 0.059245 0.059896 0.060547 0.061198 0.061849 0.062500 0.063151 0.063802 0.064453 0.065104 0.065755 0.066406 0.067057 0.067708 0.068359 0.069010 0.069661 0.070312 0.070964 0.071615 0.072266 0.072917 0.073568 0.074219 0.074870 0.075521 0.076172 0.076823 0.077474 0.078125 0.078776 0.079427 0.080078 0.080729 0.081380 0.082031 0.082682 0.083333 0.083984 0.084635 0.085286 0.085938 0.086589 0.087240 0.087891 0.088542 0.089193 0.089844 0.090495 0.091146 0.091797 0.092448 0.093099 0.093750 0.094401 0.095052 0.095703 0.096354 0.097005 0.097656 0.098307 0.098958 0.099609 0.100260 0.100911 0.101562 0.102214 0.102865 0.103516 0.104167 0.104818 0.105469 0.106120 0.106771 0.107422 0.108073 0.108724 0.109375 0.110026 0.110677 0.111328 0.111979 0.112630 0.113281 0.113932 0.114583 0.115234 0.115885 0.116536 0.117188 0.117839 0.118490 0.119141 0.119792 0.120443 0.121094 0.121745 0.122396 0.123047 0.123698 0.124349 0.125000 0.125651 0.126302 0.126953 0.127604 0.128255 0.128906 0.129557 0.130208 0.130859 0.131510 0.132161 0.132812 0.133464 0.134115 0.134766 0.135417 0.136068 0.136719 0.137370 0.138021 0.138672 0.139323 0.139974 0.140625 0.141276 0.141927 0.142578 0.143229 0.143880 0.144531 0.145182 0.145833 0.146484 0.147135 0.147786 0.148438 0.149089 0.149740 0.150391 0.151042 0.151693 0.152344 0.152995 0.153646 0.154297 0.154948 0.155599 0.156250 0.156901 0.157552 0.158203 0.158854 0.159505 0.160156 0.160807 0.161458 0.162109 0.162760 0.163411 0.164062 0.164714 0.165365 0.166016 0.166667 0.167318 0.167969 0.168620 0.169271 0.169922 0.170573 0.171224 0.171875 0.172526 0.173177 0.173828 0.174479 0.175130 0.175781 0.176432 0.177083 0.177734 0.178385 0.179036 0.179688 0.180339 0.180990 0.181641 0.182292 0.182943 0.183594 0.184245 0.184896 0.185547 0.186198 0.186849 0.187500 0.188151 0.188802 0.189453 0.190104 0.190755 0.191406 0.192057 0.192708 0.193359 0.194010 0.194661 0.195312 0.195964 0.196615 0.197266 0.197917 0.198568 0.199219 0.199870 0.200521 0.201172 0.201823 0.202474 0.203125 0.203776 0.204427 0.205078 0.205729 0.206380 0.207031 0.207682 0.208333 0.208984 0.209635 0.210286 0.210938 0.211589 0.212240 0.212891 0.213542 0.214193 0.214844 0.215495 0.216146 0.216797 0.217448 0.218099 0.218750 0.219401 0.220052 0.220703 0.221354 0.222005 0.222656 0.223307 0.223958 0.224609 0.225260 0.225911 0.226562 0.227214 0.227865 0.228516 0.229167 0.229818 0.230469 0.231120 0.231771 0.232422 0.233073 0.233724 0.234375 0.235026 0.235677
       0.30860        0.30860        0.30860        0.30860        0.30860        0.30860        0.30860        0.30860        0.30860        0.30860        0.30860        0.30860        0.30860        0.30860        0.30860        0.30860        0.30860        0.30860        0.30860        0.30860        0.30860        0.30860        0.30860        0.30860        0.30860        0.30860        0.30860        0.30860        0.30860        0.30860        0.30860        0.30860        0.30860        0.30860        0.30860        0.30860        0.30860        0.30860        0.30860        0.30860        0.30860        0.30860        0.30860        0.30860        0.30860        0.30860        0.30860        0.30860        0.30860        0.30860        0.30860        0.63271        0.81006        0.41015        0.30557        0.18506       -0.10806        0.11196       -0.00077        0.03183        0.11364        0.33654        0.42216        0.39986        0.22162       -0.01432        0.04437        0.07135       -0.17195       -0.17974       -0.08898       -0.11129       -0.29818       -0.18975       -0.30653       -0.26099       -0.28448       -0.40787       -0.47596       -0.47484       -0.42068       -0.34441       -0.43625       -0.36583       -0.41377       -0.35350       -0.27624       -0.20178       -0.19706       -0.13308       -0.08770        0.03915        0.08052        0.25041        0.28569        0.37345        0.40083        0.51170        0.58681        0.60703        0.73674        0.69469        0.73783        0.64868        0.66152        0.69326        0.63165        0.61498        0.60675        0.43218        0.39134        0.35249        0.32770        0.22473        0.13145        0.06006        0.05068       -0.00130       -0.08112       -0.02958       -0.03308       -0.07262        0.06593        0.16354        0.25477        0.31392        0.33378        0.42401        0.53816        0.58400        0.53418        0.66935        0.55909        0.53214        0.59931        0.62862        0.52713        0.46158        0.40039        0.37737        0.24674        0.20490        0.13072        0.11396        0.05457        0.05735        0.10036        0.15478        0.14947        0.17776        0.22078        0.23763        0.32855        0.44650        0.48720        0.49262        0.51951        0.57690        0.57341        0.52354        0.41544        0.38268        0.36236        0.26540        0.24218        0.21501        0.20391        0.19745        0.17738        0.15727        0.12351        0.18522        0.24124        0.34112        0.37725        0.40511        0.46087        0.53224        0.46950        0.48372        0.42727        0.40478        0.38144        0.36342        0.28636        0.25389        0.20161        0.23526        0.21742        0.19522        0.21272        0.21843        0.24175        0.30541        0.39824        0.39149        0.37520        0.38946        0.45045        0.47467        0.43304        0.35501        0.32019        0.27904        0.26388        0.24817        0.21431        0.28124        0.29426        0.29301        0.30949        0.30041        0.33403        0.37543        0.36822        0.36701        0.35062        0.31580        0.33051        0.32080        0.29537        0.28765        0.26828        0.21352        0.26661        0.27147        0.29868        0.31537        0.33650        0.36786        0.32935        0.31069        0.35568        0.36359        0.26075        0.29176        0.30509        0.23976        0.21007        0.26395        0.27043        0.27546        0.29789        0.30132        0.32975        0.33137        0.35246        0.32330        0.32278        0.30770        0.29103        0.26393        0.23834        0.25092        0.25750        0.27620        0.29793        0.29030        0.28852        0.31837        0.33521        0.26859        0.30495        0.26624        0.25698        0.26346        0.25300        0.25335        0.26176        0.31163        0.28007        0.31384        0.29055        0.27407        0.30892        0.29903        0.32692        0.31346        0.29801        0.24928        0.24925        0.26349        0.26095        0.30955        0.31260        0.33229        0.32295        0.31013        0.26244        0.29121        0.21783        0.18811        0.25827        0.27136        0.25615        0.28059        0.31143        0.29294        0.35476        0.29821        0.24840        0.21525        0.23921        0.29296        0.30058        0.30023        0.26919        0.27802        0.25580        0.30915        0.27250        0.25045        0.27063        0.24569        0.28753        0.25245        0.28167        0.32685        0.28853        0.20603        0.23632        0.27859        0.31441        0.24864        0.26295        0.24277        0.29041        0.28683        0.37869        0.29056        0.26748        0.27084        0.24675        0.21516        0.18704        0.24414        0.20656        0.19665        0.17556        0.19588        0.24521        0.21405        0.24359        0.19926        0.23869        0.21924        0.20982        0.18516        0.16204        0.19059        0.23535        0.15331        0.07271        0.21275        0.17975        0.12428        0.23525        0.15027        0.22875        0.18624       -0.10582       -0.53085       -0.91917
2.870177 2.841865 2.813699 2.785679 2.757804 2.730076 2.702493 2.675056 2.647766 2.620620 2.593621 2.566768 2.540060 2.513499 2.487083 2.460813 2.434689 2.408711 2.382878 2.357192 2.331651 2.306256 2.281008 2.255904 2.230947 2.206136 2.181471 2.156951 2.132577 2.108349 2.084267 2.060331 2.036541 2.012896 1.989398 1.966045 1.942838 1.919777 1.896862 1.874093 1.851469 1.828992 1.806660 1.784474 1.762434 1.740540 1.718792 1.697189 1.675733 1.654422 1.633257 1.932866 2.278199 1.701505 1.743694 1.388492 0.945663 1.209005 1.036041 1.083864 1.033213 1.504956 1.523463 1.550784 1.281664 0.951140 0.827142 1.020290 0.721629 0.494057 0.594664 0.682582 0.420626 0.493554 0.329117 0.364704 0.257340 0.162535 -0.036499 0.009420 0.035722 0.076848 0.045724 0.087564 -0.042760 0.028641 0.109942 0.229458 0.284106 0.217188 0.334645 0.561843 0.447513 0.732047 0.808875 0.889664 0.909442 1.120731 1.141957 1.181098 1.332111 1.231062 1.379371 1.194639 1.112661 1.318581 1.130633 1.059532 1.131564 0.890126 0.734097 0.675589 0.672861 0.475015 0.395423 0.269908 0.215844 0.095599 -0.012182 0.094892 0.023889 -0.066162 0.115370 0.261265 0.308749 0.463469 0.481175 0.552508 0.714330 0.812733 0.652714 0.956376 0.805243 0.649318 0.767470 0.785364 0.706888 0.642147 0.443726 0.501614 0.287524 0.180526 0.136465 0.003573 -0.018993 -0.106023 -0.017816 0.002698 0.090579 -0.048814 0.251816 0.102543 0.201632 0.371319 0.425260 0.527022 0.426020 0.562748 0.669713 0.507799 0.384369 0.328753 0.319512 0.142464 0.126861 0.018060 0.093190 0.016351 0.002252 -0.034532 -0.119092 -0.019495 0.012621 0.100764 0.286365 0.206492 0.348048 0.372755 0.430484 0.401652 0.409707 0.341514 0.226496 0.310338 0.166313 0.162342 0.004803 0.058998 0.068019 -0.016486 -0.000694 0.007635 0.062095 0.078637 0.230080 0.298007 0.240784 0.208921 0.378538 0.386944 0.358570 0.251295 0.170420 0.147113 0.087210 0.075897 0.027733 0.021518 0.135668 0.052976 0.184825 0.081886 0.126977 0.221298 0.217154 0.212982 0.202279 0.192570 0.115800 0.168107 0.122170 0.100222 0.119371 -0.009938 0.024565 0.082516 0.048478 0.149838 0.107268 0.209138 0.188876 0.125979 0.133338 0.215754 0.124758 0.066355 0.093915 0.062012 -0.001295 -0.015816 0.060270 0.071559 0.040522 0.115668 0.110479 0.123051 0.147948 0.166013 0.137087 0.093750 0.108367 0.089149 0.015328 0.010054 0.038842 0.010826 0.074994 0.111549 0.070946 0.053434 0.131121 0.120039 0.020409 0.118746 0.020864 0.020579 0.033564 0.009757 0.001781 0.070468 0.084316 0.018405 0.104012 0.074264 0.013060 0.119122 0.064607 0.084025 0.096891 0.029728 -0.011059 -0.017693 0.034670 0.005626 0.065208 0.094435 0.096435 0.061147 0.133356 -0.008479 0.063130 -0.101185 -0.044045 -0.007994 0.019954 0.013906 0.016843 0.092170 0.051757 0.114701 -0.024045 -0.043972 -0.099532 -0.080083 0.074486 0.014107 0.039151 -0.024396 -0.017713 -0.038975 0.056931 -0.016224 -0.066561 -0.013158 -0.095587 0.023899 -0.041607 0.010689 0.061212 -0.014522 -0.106709 -0.023440 0.042389 0.037427 -0.032594 0.008120 -0.056052 0.105601 0.069640 0.175795 0.039738 0.008629 0.047118 0.037902 -0.053118 -0.025071 0.055679 -0.014534 -0.048874 -0.048401 -0.031693 0.097789 -0.057319 0.101726 -0.009630 0.097320 -0.017905 0.071553 -0.063945 -0.031300 -0.052259 0.104199 -0.018384 -0.230782 0.299278 0.247570 0.177362 0.395219 0.215643 0.289091 0.278007 -0.145187 -1.288426
0.072396 0.072834 0.074149 0.076340 0.079407 0.083348 0.088164 0.093853 0.100413 0.107843 0.116139 0.125300 0.135320 0.146197 0.157923 0.170493 0.183900 0.198134 0.213185 0.229041 0.245689 0.263112 0.281294 0.300213 0.319848 0.340173 0.361160 0.382778 0.404992 0.427763 0.451051 0.474810 0.498989 0.523535 0.548389 0.573487 0.598763 0.624143 0.649549 0.674898 0.700103 0.725069 0.749699 0.773889 0.797529 0.820507 0.842703 0.863995 0.884255 0.903352 0.921150 0.937511 0.952294 0.965357 0.976554 0.985741 0.992773 0.997506 0.999798 0.999510 0.996508 0.990662 0.981850 0.969956 0.954877 0.936516 0.914792 0.889637 0.860997 0.828837 0.793139 0.753905 0.711161 0.664953 0.615355 0.562463 0.506403 0.447328 0.385422 0.320896 0.253993 0.184987 0.114183 0.041914 0.031452 0.105524 0.179878 0.254067 0.327619 0.400040 0.470818 0.539425 0.605321 0.667959 0.726789 0.781263 0.830841 0.874996 0.913219 0.945028 0.969975 0.987647 0.997679 0.999759 0.993633 0.979113 0.956083 0.924506 0.884425 0.835974 0.779377 0.714953 0.643119 0.564390 0.479377 0.388788 0.293426 0.194181 0.092027 0.011987 0.116743 0.221070 0.323752 0.423542 0.519179 0.609402 0.692972 0.768682 0.835384 0.892006 0.937569 0.971212 0.992202 0.999964 0.994086 0.974342 0.940702 0.893343 0.832657 0.759255 0.673969 0.577848 0.472152 0.358345 0.238071 0.113142 0.014488 0.142751 0.269496 0.392529 0.509642 0.618659 0.717482 0.804128 0.876773 0.933801 0.973839 0.995798 0.998909 0.982749 0.947269 0.892811 0.820116 0.730326 0.624981 0.505996 0.375639 0.236495 0.091422 0.056507 0.204059 0.347916 0.484743 0.611276 0.724392 0.821201 0.899119 0.955947 0.989945 0.999888 0.985125 0.945610 0.881936 0.795337 0.687684 0.561457 0.419704 0.265973 0.104239 0.061197 0.225813 0.384992 0.534148 0.668863 0.785024 0.878958 0.947552 0.988377 0.999780 0.980968 0.932059 0.854113 0.749134 0.620035 0.470573 0.305263 0.129249 0.051849 0.232098 0.405453 0.565957 0.707951 0.826279 0.916494 0.975031 0.999373 0.988170 0.941331 0.860069 0.746891 0.605559 0.440972 0.259027 0.066421 0.129589 0.321446 0.501592 0.662760 0.798281 0.902377 0.970416 0.999148 0.986877 0.933581 0.840966 0.712445 0.553039 0.369209 0.168622 0.040164 0.248044 0.445760 0.624325 0.775426 0.891837 0.967782 0.999249 0.984223 0.922849 0.817478 0.672621 0.494788 0.292232 0.074580 0.147597 0.363300 0.561629 0.732359 0.866467 0.956648 0.997725 0.986992 0.924417 0.812720 0.657297 0.466005 0.248794 0.017221 0.216152 0.438423 0.637072 0.800676 0.919588 0.986537 0.997107 0.950070 0.847543 0.694939 0.500740 0.276062 0.034048 0.210867 0.443823 0.650419 0.817634 0.934668 0.993672 0.990323 0.924184 0.798829 0.621705 0.403749 0.158753 0.097482 0.348134 0.576471 0.766969 0.906400 0.984787 0.996158 0.939064 0.816776 0.637176 0.412298 0.157584 0.109147 0.368927 0.602973 0.794067 0.927846 0.993934 0.986796 0.906258 0.757650 0.551519 0.302950 0.030503 0.245125 0.502672 0.721937 0.885418 0.979721 0.996736 0.934391 0.796955 0.594827 0.343824 0.063997 0.221922 0.490348 0.718797 0.887794 0.982580 0.994462 0.921687 0.769739 0.551011 0.283886 0.008771 0.301495 0.568458 0.785734 0.933484 0.997837 0.972256 0.858289 0.665590 0.411191 0.118084 0.186814 0.475100 0.719523 0.896601 0.988925 0.986954 0.890088 0.706901 0.454485 0.156952 0.156813 0.455925 0.710520 0.894781
1.000000 1.000000 1.000000 1.000000 1.000000 1.000000 1.000000 1.000000 1.000000 1.000000 1.000000 1.000000 1.000000 1.000000 1.000000 1.000000 1.000000 1.000000 1.000000 1.000000 1.000000 1.000000 1.000000 1.000000 1.000000 1.000000 1.000000 1.000000 1.000000 1.000000 1.000000 1.000000 1.000000 1.000000 1.000000 1.000000 1.000000 1.000000 1.000000 1.000000 1.000000 1.000000 1.000000 1.000000 1.000000 1.000000 1.000000 1.000000 1.000000 1.000000 1.000000 1.000000 0.834836 0.834836 0.834836 0.834836 0.834836 0.834836 0.834836 0.812315 0.812315 0.812315 0.812315 0.812315 0.812315 0.812315 0.812315 0.812315 0.812315 0.812315 0.812315 0.812315 0.812315 0.812315 0.812315 0.812315 0.812315 0.812315 0.812315 0.812315 0.812315 0.812315 0.812315 0.812315 0.812315 0.812315 0.812315 0.812315 0.812315 0.812315 0.812315 0.812315 0.812315 0.812315 0.812315 0.812315 0.812315 0.812315 0.812315 0.812315 0.812315 0.812315 0.812315 0.954561 0.955232 0.947762 0.946711 0.945044 0.941678 0.937384 0.936900 0.938228 0.938450 0.939100 0.940514 0.941563 0.943243 0.944312 0.945176 0.946002 0.954021 0.957624 0.957254 0.956880 0.952613 0.959324 0.957283 0.957122 0.957828 0.958089 0.958777 0.958681 0.958533 0.958056 0.956823 0.957491 0.957330 0.956625 0.955632 0.953570 0.953541 0.953122 0.953259 0.954207 0.954909 0.955667 0.956169 0.956150 0.956307 0.956302 0.956215 0.951457 0.951470 0.944626 0.945131 0.946216 0.945880 0.944911 0.943503 0.943567 0.943465 0.943412 0.943254 0.943459 0.925699 0.925736 0.925759 0.926599 0.921431 0.911161 0.904660 0.899280 0.900338 0.904274 0.908750 0.908857 0.905236 0.904358 0.886477 0.890148 0.874730 0.871130 0.861913 0.871593 0.873444 0.874765 0.869751 0.868732 0.867296 0.864496 0.851152 0.855487 0.856108 0.852329 0.849067 0.846905 0.844083 0.845901 0.850529 0.845650 0.842898 0.839935 0.829276 0.818370 0.816940 0.819307 0.828010 0.839929 0.838832 0.837992 0.830532 0.826492 0.819443 0.813224 0.814093 0.816196 0.813176 0.817034 0.817948 0.827197 0.816705 0.810680 0.815633 0.827275 0.831979 0.833582 0.834678 0.831775 0.832991 0.808030 0.808764 0.810669 0.773502 0.774343 0.765163 0.764648 0.762343 0.761203 0.758193 0.752997 0.747379 0.730052 0.743772 0.751627 0.720169 0.727195 0.720517 0.711859 0.688291 0.689927 0.701859 0.711494 0.713386 0.721151 0.710983 0.710771 0.720754 0.720796 0.726896 0.722870 0.716802 0.712793 0.715513 0.710635 0.696505 0.691739 0.691429 0.690804 0.686344 0.668209 0.677428 0.663235 0.653692 0.642102 0.601105 0.583038 0.570391 0.559485 0.541024 0.515828 0.529739 0.532156 0.523561 0.513153 0.490633 0.448389 0.427132 0.425460 0.406998 0.402521 0.383795 0.333265 0.342043 0.329218 0.330214 0.308475 0.297394 0.281018 0.218248 0.220275 0.176532 0.203344 0.216301 0.208405 0.190526 0.179076 0.208895 0.218236 0.230994 0.229252 0.248484 0.209077 0.147619 0.171248 0.163522 0.172113 0.156247 0.123047 0.150864 0.148190 0.158691 0.164081 0.118784 0.088823 0.062324 0.056837 0.067477 0.090101 0.104144 0.092964 0.076577 -0.013955 0.018750 0.044204 0.044204 0.044204 0.044204 0.044204 0.044204 0.044204 0.044204 0.044204 0.044204 0.044204 -0.012008 -0.012008 -0.012008 -0.012008 -0.012008 -0.012008 -0.012008 -0.012008 -0.012008 -0.012008 -0.012008 -0.012008 -0.012008 -0.012008 -0.012008 -0.012008 -0.012008 -0.012008 -0.012008
0.000000 0.000000 0.000000 0.000000 0.000000 0.000000 0.000000 0.000000 0.000000 0.000000 0.000000 0.000000 0.000000 0.000000 0.000000 0.000000 0.000000 0.000000 0.000000 0.000000 0.000000 0.000000 0.000000 0.000000 0.000000 0.000000 0.000000 0.000000 0.000000 0.000000 0.000000 0.000000 0.000000 0.000000 0.000000 0.000000 0.000000 0.000000 0.000000 0.000000 0.000000 0.000000 0.000000 0.000000 0.000000 0.000000 0.000000 0.000000 0.000000 0.000000 0.000000 0.000000 0.173422 0.173422 0.173422 0.173422 0.173422 0.173422 0.173422 0.191565 0.191565 0.191565 0.191565 0.191565 0.191565 0.191565 0.191565 0.191565 0.191565 0.191565 0.191565 0.191565 0.191565 0.191565 0.191565 0.191565 0.191565 0.191565 0.191565 0.191565 0.191565 0.191565 0.191565 0.191565 0.191565 0.191565 0.191565 0.191565 0.191565 0.191565 0.191565 0.191565 0.191565 0.191565 0.191565 0.191565 0.191565 0.191565 0.191565 0.191565 0.191565 0.191565 0.191565 0.219529 0.219529 0.219529 0.219529 0.219529 0.219529 0.219529 0.219529 0.219529 0.219529 0.219529 0.219529 0.219529 0.219529 0.219529 0.219529 0.219529 0.219529 0.219529 0.219529 0.219529 0.219529 0.219529 0.219529 0.219529 0.219529 0.219529 0.219529 0.219529 0.219529 0.219529 0.237356 0.237356 0.237356 0.237356 0.237356 0.237356 0.237356 0.237356 0.237356 0.237356 0.237356 0.237356 0.237356 0.237356 0.237356 0.237356 0.237356 0.237356 0.237356 0.237356 0.237356 0.237356 0.237356 0.237356 0.244339 0.244339 0.244339 0.244339 0.244339 0.244339 0.244339 0.244339 0.244339 0.244339 0.244339 0.244339 0.244339 0.244339 0.244339 0.244339 0.244339 0.244339 0.244339 0.244339 0.244339 0.248069 0.248069 0.248069 0.248069 0.248069 0.248069 0.248069 0.248069 0.248069 0.248069 0.248069 0.248069 0.248069 0.248069 0.248069 0.248069 0.248069 0.248069 0.248069 0.248069 0.248069 0.248069 0.248069 0.248069 0.248069 0.248069 0.248069 0.248069 0.248069 0.248069 0.248069 0.248069 0.248069 0.248069 0.248069 0.248069 0.248069 0.256074 0.256074 0.256074 0.256074 0.256074 0.256074 0.256074 0.256074 0.256074 0.256074 0.256074 0.256074 0.256074 0.256074 0.256074 0.256074 0.256074 0.256074 0.256074 0.256074 0.256074 0.256074 0.256074 0.256074 0.256074 0.256074 0.256074 0.256074 0.256074 0.256074 0.256074 0.256074 0.256074 0.256074 0.256074 0.256074 0.256074 0.256074 0.256074 0.256074 0.256074 0.256074 0.256074 0.256074 0.256074 0.260378 0.260378 0.260378 0.260378 0.260378 0.260378 0.260378 0.260378 0.260378 0.260378 0.260378 0.260378 0.260378 0.256074 0.256074 0.256074 0.256074 0.256074 0.256074 0.256074 0.256074 0.256074 0.256074 0.256074 0.256074 0.256074 0.260378 0.260378 0.260378 0.260378 0.260378 0.260378 0.260378 0.260378 0.260378 0.260378 0.260378 0.260378 0.251976 0.251976 0.251976 0.251976 0.251976 0.251976 0.251976 0.251976 0.251976 0.251976 0.251976 0.251976 0.256074 0.256074 0.256074 0.256074 0.256074 0.256074 0.256074 0.256074 0.256074 0.256074 0.256074 0.251976 0.251976 0.251976 0.251976 0.251976 0.251976 0.251976 0.251976 0.251976 0.251976 0.251976 0.248069 0.248069 0.248069 0.248069 0.248069 0.248069 0.248069 0.248069 0.248069 0.248069 0.248069 0.256074 0.256074 0.256074 0.256074 0.256074 0.256074 0.256074 0.256074 0.256074 0.256074 0.256074 0.256074 0.256074 0.256074 0.256074 0.256074 0.256074 0.256074 0.256074
