# Output from CTFFind version 4.1.9, run on 2019-11-02 17:46:00
# Input file: stack11_bm3d_averaged_1_1.5_0_1000_half.mrc ; Number of micrographs: 1
# Pixel size: 3.000 Angstroms ; acceleration voltage: 300.0 keV ; spherical aberration: 0.00 mm ; amplitude contrast: 0.07
# Box size: 512 pixels ; min. res.: 30.0 Angstroms ; max. res.: 5.0 Angstroms ; min. def.: 5000.0 um; max. def. 50000.0 um; num. frames averaged: 1
# 6 lines per micrograph: #1 - spatial frequency (1/Angstroms); #2 - 1D rotational average of spectrum (assuming no astigmatism); #3 - 1D rotational average of spectrum; #4 - CTF fit; #5 - cross-correlation between spectrum and CTF fit; #6 - 2sigma of expected cross correlation of noise
0.000000 0.000651 0.001302 0.001953 0.002604 0.003255 0.003906 0.004557 0.005208 0.005859 0.006510 0.007161 0.007812 0.008464 0.009115 0.009766 0.010417 0.011068 0.011719 0.012370 0.013021 0.013672 0.014323 0.014974 0.015625 0.016276 0.016927 0.017578 0.018229 0.018880 0.019531 0.020182 0.020833 0.021484 0.022135 0.022786 0.023438 0.024089 0.024740 0.025391 0.026042 0.026693 0.027344 0.027995 0.028646 0.029297 0.029948 0.030599 0.031250 0.031901 0.032552 0.033203 0.033854 0.034505 0.035156 0.035807 0.036458 0.037109 0.037760 0.038411 0.039062 0.039714 0.040365 0.041016 0.041667 0.042318 0.042969 0.043620 0.044271 0.044922 0.045573 0.046224 0.046875 0.047526 0.048177 0.048828 0.049479 0.050130 0.050781 0.051432 0.052083 0.052734 0.053385 0.054036 0.054688 0.055339 0.055990 0.056641 0.057292 0.057943 0.058594 0.059245 0.059896 0.060547 0.061198 0.061849 0.062500 0.063151 0.063802 0.064453 0.065104 0.065755 0.066406 0.067057 0.067708 0.068359 0.069010 0.069661 0.070312 0.070964 0.071615 0.072266 0.072917 0.073568 0.074219 0.074870 0.075521 0.076172 0.076823 0.077474 0.078125 0.078776 0.079427 0.080078 0.080729 0.081380 0.082031 0.082682 0.083333 0.083984 0.084635 0.085286 0.085938 0.086589 0.087240 0.087891 0.088542 0.089193 0.089844 0.090495 0.091146 0.091797 0.092448 0.093099 0.093750 0.094401 0.095052 0.095703 0.096354 0.097005 0.097656 0.098307 0.098958 0.099609 0.100260 0.100911 0.101562 0.102214 0.102865 0.103516 0.104167 0.104818 0.105469 0.106120 0.106771 0.107422 0.108073 0.108724 0.109375 0.110026 0.110677 0.111328 0.111979 0.112630 0.113281 0.113932 0.114583 0.115234 0.115885 0.116536 0.117188 0.117839 0.118490 0.119141 0.119792 0.120443 0.121094 0.121745 0.122396 0.123047 0.123698 0.124349 0.125000 0.125651 0.126302 0.126953 0.127604 0.128255 0.128906 0.129557 0.130208 0.130859 0.131510 0.132161 0.132812 0.133464 0.134115 0.134766 0.135417 0.136068 0.136719 0.137370 0.138021 0.138672 0.139323 0.139974 0.140625 0.141276 0.141927 0.142578 0.143229 0.143880 0.144531 0.145182 0.145833 0.146484 0.147135 0.147786 0.148438 0.149089 0.149740 0.150391 0.151042 0.151693 0.152344 0.152995 0.153646 0.154297 0.154948 0.155599 0.156250 0.156901 0.157552 0.158203 0.158854 0.159505 0.160156 0.160807 0.161458 0.162109 0.162760 0.163411 0.164062 0.164714 0.165365 0.166016 0.166667 0.167318 0.167969 0.168620 0.169271 0.169922 0.170573 0.171224 0.171875 0.172526 0.173177 0.173828 0.174479 0.175130 0.175781 0.176432 0.177083 0.177734 0.178385 0.179036 0.179688 0.180339 0.180990 0.181641 0.182292 0.182943 0.183594 0.184245 0.184896 0.185547 0.186198 0.186849 0.187500 0.188151 0.188802 0.189453 0.190104 0.190755 0.191406 0.192057 0.192708 0.193359 0.194010 0.194661 0.195312 0.195964 0.196615 0.197266 0.197917 0.198568 0.199219 0.199870 0.200521 0.201172 0.201823 0.202474 0.203125 0.203776 0.204427 0.205078 0.205729 0.206380 0.207031 0.207682 0.208333 0.208984 0.209635 0.210286 0.210938 0.211589 0.212240 0.212891 0.213542 0.214193 0.214844 0.215495 0.216146 0.216797 0.217448 0.218099 0.218750 0.219401 0.220052 0.220703 0.221354 0.222005 0.222656 0.223307 0.223958 0.224609 0.225260 0.225911 0.226562 0.227214 0.227865 0.228516 0.229167 0.229818 0.230469 0.231120 0.231771 0.232422 0.233073 0.233724 0.234375 0.235026 0.235677
       0.31670        0.31670        0.31670        0.31670        0.31670        0.31670        0.31670        0.31670        0.31670        0.31670        0.31670        0.31670        0.31670        0.31670        0.31670        0.31670        0.31670        0.31670        0.31670        0.31670        0.31670        0.31670        0.31670        0.31670        0.31670        0.31670        0.31670        0.31670        0.31670        0.31670        0.31670        0.31670        0.31670        0.31670        0.31670        0.31670        0.31670        0.31670        0.31670        0.31670        0.31670        0.31670        0.31670        0.31670        0.31670        0.31670        0.31670        0.31670        0.31670        0.31670        0.31670        0.68274        0.86837        0.52244        0.08780       -0.06412       -0.42544       -0.20569       -0.29668       -0.11780       -0.07715       -0.11934       -0.06889       -0.20787       -0.23521       -0.25790       -0.33086       -0.33838       -0.48914       -0.38241       -0.46586       -0.44850       -0.42185       -0.46882       -0.54171       -0.56137       -0.58762       -0.62287       -0.57805       -0.41529       -0.37876       -0.33114       -0.31458       -0.21169       -0.20001        0.01829        0.07424        0.10627        0.22541        0.37080        0.44250        0.51584        0.55837        0.55308        0.57054        0.69748        0.81145        0.73989        0.73290        0.66759        0.57900        0.48384        0.40662        0.49351        0.37556        0.20408        0.07749        0.04606        0.01222       -0.06171       -0.03923       -0.02144       -0.07083       -0.00863       -0.01973        0.21295        0.25074        0.28962        0.42958        0.46138        0.40363        0.53608        0.62529        0.69785        0.76193        0.68837        0.65593        0.69734        0.58422        0.50077        0.41855        0.28988        0.18840        0.15551        0.10804        0.03771        0.01113       -0.00028        0.07546        0.13195        0.20467        0.28023        0.39851        0.41768        0.50858        0.60124        0.63305        0.61699        0.62898        0.55375        0.44714        0.44738        0.35216        0.22833        0.18265        0.14759        0.11045        0.12242        0.07034        0.10227        0.22769        0.26199        0.34147        0.35417        0.45177        0.51363        0.53710        0.54878        0.46998        0.42949        0.38977        0.36639        0.30622        0.25076        0.20178        0.18641        0.16202        0.19208        0.17827        0.26939        0.33266        0.36562        0.42482        0.45987        0.47707        0.44227        0.39396        0.41461        0.37354        0.28534        0.27006        0.22399        0.21358        0.19443        0.21541        0.22911        0.32788        0.37283        0.36780        0.46184        0.43608        0.43702        0.42887        0.39436        0.34465        0.32730        0.27701        0.24093        0.23704        0.27012        0.27236        0.30131        0.30219        0.33719        0.32842        0.40794        0.41812        0.37576        0.34573        0.36514        0.28040        0.28010        0.26056        0.27707        0.26075        0.27987        0.29142        0.31095        0.34882        0.35973        0.36012        0.33459        0.35158        0.28627        0.32162        0.26766        0.24465        0.28530        0.28361        0.30918        0.31168        0.32994        0.32624        0.31362        0.31771        0.28651        0.28749        0.26047        0.28230        0.26563        0.30798        0.28292        0.26624        0.30765        0.31134        0.31600        0.28508        0.29991        0.28627        0.24907        0.24279        0.21878        0.28056        0.27545        0.31865        0.31334        0.32084        0.31787        0.30711        0.27548        0.28601        0.32917        0.26775        0.25907        0.29329        0.28997        0.33919        0.33409        0.35519        0.33192        0.31045        0.28281        0.26652        0.25945        0.22586        0.27091        0.30491        0.29565        0.27911        0.29416        0.26863        0.32377        0.32944        0.24946        0.21882        0.27423        0.33434        0.27714        0.30842        0.32532        0.32519        0.29995        0.32257        0.34329        0.29919        0.28855        0.25688        0.28232        0.35372        0.35658        0.26313        0.26574        0.25475        0.28631        0.22033        0.29151        0.22384        0.25095        0.33536        0.32192        0.34880        0.29643        0.24092        0.23784        0.23917        0.23197        0.18676        0.22495        0.26447        0.30042        0.26922        0.30739        0.30029        0.27489        0.27583        0.20864        0.16876        0.19298        0.22947        0.19805        0.21033        0.22821        0.20279        0.25194        0.34416        0.30090        0.31446        0.22425        0.24567        0.22743        0.28610        0.29913        0.14583        0.22690        0.22417        0.11023        0.21944        0.11132        0.14823        0.21944        0.12148       -0.11933       -0.60056
2.588723 2.561700 2.534824 2.508094 2.481511 2.455074 2.428784 2.402640 2.376643 2.350792 2.325088 2.299531 2.274120 2.248855 2.223737 2.198766 2.173941 2.149263 2.124731 2.100346 2.076107 2.052014 2.028069 2.004270 1.980617 1.957111 1.933752 1.910539 1.887472 1.864552 1.841779 1.819152 1.796672 1.774338 1.752151 1.730110 1.708216 1.686468 1.664867 1.643412 1.622104 1.600943 1.579928 1.559059 1.538337 1.517762 1.497333 1.477051 1.456915 1.436926 1.417083 1.637689 2.044877 1.618318 1.130545 0.989341 0.420946 0.813565 0.561027 0.834686 0.772832 0.787686 0.751067 0.710744 0.562948 0.514416 0.484540 0.442447 0.206661 0.380004 0.201900 0.308104 0.236198 0.180821 0.132426 0.006488 0.040240 -0.013125 -0.056171 0.104594 0.207125 0.192899 0.154408 0.332318 0.197392 0.495393 0.579820 0.552205 0.594601 0.877040 0.810410 0.946206 0.889155 0.974283 0.943599 1.080154 1.139689 1.074109 1.128574 0.949812 0.942419 0.785092 0.651518 0.771676 0.707376 0.462947 0.308970 0.251688 0.216686 0.147530 0.089242 0.128969 0.071384 0.149970 0.054225 0.262979 0.379983 0.357831 0.481552 0.579874 0.465378 0.549476 0.698012 0.742767 0.781382 0.730620 0.732298 0.713849 0.627440 0.567963 0.428403 0.287948 0.208369 0.078229 0.131999 -0.043647 -0.031236 -0.079069 -0.038491 0.003346 0.148004 0.088132 0.298839 0.279008 0.364255 0.455990 0.523411 0.507382 0.520378 0.506644 0.334510 0.310368 0.280579 0.099323 0.048865 -0.008244 -0.030876 -0.039876 -0.088442 -0.103753 -0.007545 0.057162 0.132202 0.144394 0.229646 0.332303 0.312448 0.418654 0.392660 0.284529 0.231424 0.244745 0.202826 0.104161 0.076290 0.017651 0.001580 0.007719 -0.015195 0.059148 0.148215 0.142459 0.231969 0.254247 0.305011 0.256935 0.223177 0.184968 0.213721 0.143486 0.044786 0.040251 -0.010025 -0.011065 -0.031063 0.018115 0.016781 0.169160 0.129570 0.182465 0.238412 0.200275 0.189926 0.196697 0.141607 0.103481 0.063084 0.049396 -0.032702 0.007848 0.024322 0.056480 0.052790 0.079277 0.095607 0.122804 0.138009 0.188514 0.079928 0.098738 0.073766 0.001196 0.004855 0.008355 -0.007507 0.018932 0.006133 0.029227 0.066692 0.080437 0.124246 0.050225 0.102706 0.055404 0.013535 0.062158 -0.036448 -0.013943 0.026792 0.002386 0.056848 0.052018 0.051717 0.056790 0.055016 0.046059 0.023328 0.000432 0.012198 0.014607 -0.010654 0.071040 -0.014242 0.013436 0.058839 0.049214 0.037365 0.045198 0.038544 0.018067 -0.016208 -0.038153 -0.015341 0.022407 0.029565 0.072495 0.060346 0.064533 0.083708 0.066663 0.024402 0.067152 0.087249 0.015686 0.018714 0.061217 0.052159 0.103040 0.108748 0.110476 0.119242 0.070154 0.045246 0.035383 0.004387 0.002339 0.053843 0.084349 0.047589 0.035552 0.032950 0.017625 0.096406 0.061146 -0.046565 -0.049388 0.032964 0.096168 0.006665 0.025563 0.063460 0.087873 0.028334 0.060229 0.082499 0.036320 0.035912 -0.041359 0.024508 0.114067 0.074199 -0.047104 -0.022429 -0.045834 0.032284 -0.109740 0.040267 -0.102086 -0.029473 0.060145 0.037727 0.033572 -0.040268 -0.062964 -0.082727 -0.086019 -0.072011 -0.121970 -0.090388 -0.032662 0.036345 -0.036061 0.045403 -0.015660 -0.045689 0.048838 -0.108160 -0.103732 -0.087569 -0.015908 -0.050838 -0.049704 0.001266 0.001728 0.021057 0.191362 -0.013274 0.151952 0.015330 0.252275 0.247883 0.328343 0.275199 0.109979 0.230240 0.267787 0.033399 0.239105 0.115256 0.120242 0.305641 0.124448 -0.622433
0.072396 0.072899 0.074406 0.076917 0.080433 0.084951 0.090471 0.096991 0.104509 0.113022 0.122526 0.133018 0.144493 0.156942 0.170360 0.184737 0.200061 0.216321 0.233500 0.251582 0.270547 0.290371 0.311030 0.332493 0.354727 0.377695 0.401356 0.425665 0.450569 0.476014 0.501938 0.528274 0.554951 0.581887 0.609000 0.636196 0.663378 0.690441 0.717273 0.743754 0.769760 0.795159 0.819811 0.843572 0.866290 0.887809 0.907965 0.926594 0.943523 0.958580 0.971587 0.982366 0.990741 0.996533 0.999568 0.999674 0.996686 0.990444 0.980797 0.967605 0.950741 0.930093 0.905562 0.877073 0.844568 0.808014 0.767403 0.722756 0.674122 0.621582 0.565252 0.505283 0.441862 0.375215 0.305608 0.233346 0.158776 0.082283 0.004294 0.074725 0.154273 0.233812 0.312770 0.390549 0.466522 0.540043 0.610452 0.677075 0.739237 0.796268 0.847508 0.892317 0.930083 0.960233 0.982238 0.995627 0.999996 0.995015 0.980438 0.956113 0.921989 0.878127 0.824699 0.762003 0.690459 0.610617 0.523153 0.428876 0.328713 0.223716 0.115048 0.003974 0.108151 0.219896 0.329770 0.436243 0.537767 0.632798 0.719820 0.797375 0.864085 0.918684 0.960041 0.987191 0.999359 0.995986 0.976747 0.941574 0.890669 0.824518 0.743894 0.649858 0.543759 0.427220 0.302118 0.170566 0.034879 0.102458 0.238840 0.371580 0.497972 0.615337 0.721091 0.812801 0.888250 0.945494 0.982918 0.999297 0.993834 0.966203 0.916583 0.845670 0.754690 0.645392 0.520028 0.381320 0.232411 0.076805 0.081710 0.239150 0.391433 0.534481 0.664337 0.777277 0.869927 0.939370 0.983254 0.999880 0.988281 0.948285 0.880548 0.786571 0.668692 0.530045 0.374493 0.206543 0.031218 0.146078 0.319720 0.484048 0.633541 0.763023 0.867841 0.944053 0.988590 0.999399 0.975554 0.917332 0.826250 0.705057 0.557674 0.389096 0.205244 0.012767 0.181180 0.369197 0.543930 0.698349 0.826055 0.921553 0.980514 0.999991 0.978594 0.916601 0.816005 0.680490 0.515326 0.327199 0.123960 0.085679 0.292516 0.487249 0.660907 0.805265 0.913263 0.979373 0.999907 0.973259 0.900049 0.783166 0.627699 0.440753 0.231164 0.009105 0.214397 0.427983 0.620556 0.781865 0.903068 0.977248 0.999847 0.968978 0.885618 0.753637 0.579672 0.372837 0.144293 0.093341 0.326655 0.542199 0.727280 0.870716 0.963550 0.999649 0.976154 0.893751 0.756730 0.572823 0.352823 0.109999 0.140683 0.383452 0.602732 0.784144 0.915489 0.987596 0.995029 0.936537 0.815265 0.638653 0.418047 0.168039 0.094481 0.351427 0.584750 0.777738 0.916223 0.989686 0.992102 0.922504 0.785183 0.589518 0.349396 0.082285 0.191977 0.452649 0.679663 0.855170 0.965005 0.999884 0.956261 0.836758 0.650103 0.410587 0.137040 0.148611 0.423049 0.663481 0.849543 0.965089 0.999645 0.949442 0.817908 0.615538 0.359157 0.070594 0.225119 0.501896 0.734902 0.902812 0.989824 0.987232 0.894387 0.718948 0.476359 0.188588 0.117795 0.414026 0.671832 0.866175 0.977722 0.994868 0.915039 0.745149 0.501131 0.206547 0.109606 0.415690 0.680604 0.876950 0.983947 0.989724 0.892744 0.702194 0.437257 0.125281 0.200956 0.506640 0.758653 0.929188 0.998914 0.959276 0.813671 0.577321 0.275815 0.057540 0.385354 0.670305 0.879424 0.987995 0.982577 0.862805 0.641713 0.344457 0.005579 0.334909 0.636228 0.861746 0.983486 0.985731 0.867196 0.641467 0.335627 0.012877 0.360710 0.664027 0.884005 0.991913 0.972995 0.828644 0.576536 0.248642 0.112702
1.000000 1.000000 1.000000 1.000000 1.000000 1.000000 1.000000 1.000000 1.000000 1.000000 1.000000 1.000000 1.000000 1.000000 1.000000 1.000000 1.000000 1.000000 1.000000 1.000000 1.000000 1.000000 1.000000 1.000000 1.000000 1.000000 1.000000 1.000000 1.000000 1.000000 1.000000 1.000000 1.000000 1.000000 1.000000 1.000000 1.000000 1.000000 1.000000 1.000000 1.000000 1.000000 1.000000 1.000000 1.000000 1.000000 1.000000 1.000000 1.000000 1.000000 1.000000 1.000000 0.929582 0.929582 0.929582 0.919570 0.919570 0.919570 0.919570 0.919570 0.919570 0.919570 0.919570 0.919570 0.919570 0.919570 0.919570 0.919570 0.919570 0.919570 0.919570 0.919570 0.919570 0.919570 0.919570 0.919570 0.919570 0.919570 0.919570 0.919570 0.919570 0.919570 0.919570 0.919570 0.919570 0.919570 0.919570 0.919570 0.919570 0.919570 0.919570 0.919570 0.919570 0.919570 0.919570 0.919570 0.949999 0.951246 0.959143 0.958987 0.958491 0.956404 0.955486 0.954365 0.953912 0.954184 0.954788 0.955619 0.964337 0.965409 0.966985 0.967814 0.968530 0.969175 0.969002 0.969716 0.968920 0.968353 0.967836 0.963853 0.964480 0.965039 0.965147 0.966177 0.966055 0.968059 0.968236 0.967628 0.966733 0.965979 0.965251 0.964821 0.964539 0.965045 0.965342 0.966654 0.969838 0.969264 0.968969 0.969127 0.969228 0.969410 0.969850 0.971550 0.967801 0.968435 0.966766 0.964586 0.968772 0.965919 0.965699 0.967061 0.967446 0.967848 0.966543 0.963003 0.957094 0.956578 0.953608 0.944443 0.942797 0.943501 0.945832 0.946292 0.945027 0.937832 0.938414 0.932387 0.933329 0.936615 0.931744 0.931766 0.932903 0.932061 0.930524 0.929848 0.927140 0.924181 0.922339 0.922052 0.925058 0.925659 0.926861 0.926692 0.921076 0.912403 0.899001 0.897514 0.892224 0.895380 0.884851 0.884688 0.884783 0.880556 0.884069 0.884275 0.885251 0.881894 0.865997 0.847504 0.839251 0.842552 0.847680 0.843192 0.842032 0.835112 0.847104 0.828654 0.841357 0.852721 0.848778 0.849507 0.849039 0.846629 0.840262 0.841033 0.843170 0.844999 0.844122 0.842777 0.840152 0.823046 0.824177 0.759295 0.742199 0.736633 0.742201 0.748288 0.748984 0.748291 0.756527 0.761752 0.756498 0.740165 0.732353 0.723683 0.728693 0.731719 0.736025 0.724150 0.698790 0.692034 0.658918 0.676473 0.692903 0.651447 0.675028 0.685768 0.682643 0.681712 0.674371 0.670339 0.665508 0.668509 0.676996 0.691620 0.711127 0.735621 0.732766 0.722680 0.721965 0.703193 0.696070 0.686191 0.696246 0.676652 0.672294 0.690588 0.690133 0.676900 0.656209 0.644189 0.632328 0.628457 0.636577 0.628853 0.625908 0.614954 0.588422 0.582787 0.619669 0.636105 0.654822 0.627355 0.613314 0.603974 0.583870 0.597575 0.543937 0.543814 0.564550 0.571709 0.549996 0.534787 0.544162 0.554709 0.559702 0.550664 0.533905 0.522254 0.536671 0.566454 0.557779 0.535799 0.539362 0.538450 0.533260 0.453451 0.448588 0.418091 0.387413 0.328544 0.304657 0.297819 0.279886 0.264920 0.230780 0.227014 0.236929 0.246025 0.256385 0.257953 0.243932 0.248284 0.240570 0.226896 0.165395 0.154195 0.146779 0.136069 0.136716 0.113474 0.135769 0.200378 0.202920 0.202920 0.202920 0.202920 0.202920 0.202920 0.213693 0.213693 0.213693 0.213693 0.213693 0.213693 0.213693 0.213693 0.213693 0.222381 0.222381 0.222381 0.222381 0.222381 0.222381 0.222381 0.222381 0.222381 0.222381 0.222381 0.222381 0.222381 0.222381
0.000000 0.000000 0.000000 0.000000 0.000000 0.000000 0.000000 0.000000 0.000000 0.000000 0.000000 0.000000 0.000000 0.000000 0.000000 0.000000 0.000000 0.000000 0.000000 0.000000 0.000000 0.000000 0.000000 0.000000 0.000000 0.000000 0.000000 0.000000 0.000000 0.000000 0.000000 0.000000 0.000000 0.000000 0.000000 0.000000 0.000000 0.000000 0.000000 0.000000 0.000000 0.000000 0.000000 0.000000 0.000000 0.000000 0.000000 0.000000 0.000000 0.000000 0.000000 0.000000 0.180334 0.180334 0.180334 0.199007 0.199007 0.199007 0.199007 0.199007 0.199007 0.199007 0.199007 0.199007 0.199007 0.199007 0.199007 0.199007 0.199007 0.199007 0.199007 0.199007 0.199007 0.199007 0.199007 0.199007 0.199007 0.199007 0.199007 0.199007 0.199007 0.199007 0.199007 0.199007 0.199007 0.199007 0.199007 0.199007 0.199007 0.199007 0.199007 0.199007 0.199007 0.199007 0.199007 0.199007 0.225018 0.225018 0.225018 0.225018 0.225018 0.225018 0.225018 0.225018 0.225018 0.225018 0.225018 0.225018 0.225018 0.225018 0.225018 0.225018 0.225018 0.225018 0.225018 0.225018 0.225018 0.225018 0.225018 0.225018 0.225018 0.225018 0.225018 0.225018 0.225018 0.244339 0.244339 0.244339 0.244339 0.244339 0.244339 0.244339 0.244339 0.244339 0.244339 0.244339 0.244339 0.244339 0.244339 0.244339 0.244339 0.244339 0.244339 0.244339 0.244339 0.244339 0.244339 0.244339 0.251976 0.251976 0.251976 0.251976 0.251976 0.251976 0.251976 0.251976 0.251976 0.251976 0.251976 0.251976 0.251976 0.251976 0.251976 0.251976 0.251976 0.251976 0.251976 0.251976 0.264906 0.264906 0.264906 0.264906 0.264906 0.264906 0.264906 0.264906 0.264906 0.264906 0.264906 0.264906 0.264906 0.264906 0.264906 0.264906 0.264906 0.264906 0.264906 0.264906 0.264906 0.264906 0.264906 0.264906 0.264906 0.264906 0.264906 0.264906 0.264906 0.264906 0.264906 0.264906 0.264906 0.264906 0.264906 0.264906 0.264906 0.264906 0.264906 0.264906 0.264906 0.264906 0.264906 0.264906 0.264906 0.264906 0.264906 0.264906 0.264906 0.264906 0.264906 0.264906 0.264906 0.264906 0.264906 0.264906 0.264906 0.264906 0.264906 0.264906 0.264906 0.264906 0.256074 0.256074 0.256074 0.256074 0.256074 0.256074 0.256074 0.256074 0.256074 0.256074 0.256074 0.256074 0.256074 0.256074 0.269680 0.269680 0.269680 0.269680 0.269680 0.269680 0.269680 0.269680 0.269680 0.269680 0.269680 0.269680 0.264906 0.264906 0.264906 0.264906 0.264906 0.264906 0.264906 0.264906 0.264906 0.264906 0.264906 0.264906 0.269680 0.269680 0.269680 0.269680 0.269680 0.269680 0.269680 0.269680 0.269680 0.269680 0.269680 0.264906 0.264906 0.264906 0.264906 0.264906 0.264906 0.264906 0.264906 0.264906 0.264906 0.264906 0.256074 0.256074 0.256074 0.256074 0.256074 0.256074 0.256074 0.256074 0.256074 0.256074 0.256074 0.264906 0.264906 0.264906 0.264906 0.264906 0.264906 0.264906 0.264906 0.264906 0.264906 0.260378 0.260378 0.260378 0.260378 0.260378 0.260378 0.260378 0.260378 0.260378 0.260378 0.256074 0.256074 0.256074 0.256074 0.256074 0.256074 0.256074 0.256074 0.256074 0.256074 0.260378 0.260378 0.260378 0.260378 0.260378 0.260378 0.260378 0.260378 0.260378 0.256074 0.256074 0.256074 0.256074 0.256074 0.256074 0.256074 0.256074 0.256074 0.251976 0.251976 0.251976 0.251976 0.251976 0.251976 0.251976 0.251976 0.251976 0.251976 0.251976 0.251976 0.251976 0.251976
