# Output from CTFFind version 4.1.9, run on 2019-11-02 17:43:28
# Input file: stack11_bm3d_averaged_1_1.0_0_50_half.mrc ; Number of micrographs: 1
# Pixel size: 3.000 Angstroms ; acceleration voltage: 300.0 keV ; spherical aberration: 0.00 mm ; amplitude contrast: 0.07
# Box size: 512 pixels ; min. res.: 30.0 Angstroms ; max. res.: 5.0 Angstroms ; min. def.: 5000.0 um; max. def. 50000.0 um; num. frames averaged: 1
# 6 lines per micrograph: #1 - spatial frequency (1/Angstroms); #2 - 1D rotational average of spectrum (assuming no astigmatism); #3 - 1D rotational average of spectrum; #4 - CTF fit; #5 - cross-correlation between spectrum and CTF fit; #6 - 2sigma of expected cross correlation of noise
0.000000 0.000651 0.001302 0.001953 0.002604 0.003255 0.003906 0.004557 0.005208 0.005859 0.006510 0.007161 0.007812 0.008464 0.009115 0.009766 0.010417 0.011068 0.011719 0.012370 0.013021 0.013672 0.014323 0.014974 0.015625 0.016276 0.016927 0.017578 0.018229 0.018880 0.019531 0.020182 0.020833 0.021484 0.022135 0.022786 0.023438 0.024089 0.024740 0.025391 0.026042 0.026693 0.027344 0.027995 0.028646 0.029297 0.029948 0.030599 0.031250 0.031901 0.032552 0.033203 0.033854 0.034505 0.035156 0.035807 0.036458 0.037109 0.037760 0.038411 0.039062 0.039714 0.040365 0.041016 0.041667 0.042318 0.042969 0.043620 0.044271 0.044922 0.045573 0.046224 0.046875 0.047526 0.048177 0.048828 0.049479 0.050130 0.050781 0.051432 0.052083 0.052734 0.053385 0.054036 0.054688 0.055339 0.055990 0.056641 0.057292 0.057943 0.058594 0.059245 0.059896 0.060547 0.061198 0.061849 0.062500 0.063151 0.063802 0.064453 0.065104 0.065755 0.066406 0.067057 0.067708 0.068359 0.069010 0.069661 0.070312 0.070964 0.071615 0.072266 0.072917 0.073568 0.074219 0.074870 0.075521 0.076172 0.076823 0.077474 0.078125 0.078776 0.079427 0.080078 0.080729 0.081380 0.082031 0.082682 0.083333 0.083984 0.084635 0.085286 0.085938 0.086589 0.087240 0.087891 0.088542 0.089193 0.089844 0.090495 0.091146 0.091797 0.092448 0.093099 0.093750 0.094401 0.095052 0.095703 0.096354 0.097005 0.097656 0.098307 0.098958 0.099609 0.100260 0.100911 0.101562 0.102214 0.102865 0.103516 0.104167 0.104818 0.105469 0.106120 0.106771 0.107422 0.108073 0.108724 0.109375 0.110026 0.110677 0.111328 0.111979 0.112630 0.113281 0.113932 0.114583 0.115234 0.115885 0.116536 0.117188 0.117839 0.118490 0.119141 0.119792 0.120443 0.121094 0.121745 0.122396 0.123047 0.123698 0.124349 0.125000 0.125651 0.126302 0.126953 0.127604 0.128255 0.128906 0.129557 0.130208 0.130859 0.131510 0.132161 0.132812 0.133464 0.134115 0.134766 0.135417 0.136068 0.136719 0.137370 0.138021 0.138672 0.139323 0.139974 0.140625 0.141276 0.141927 0.142578 0.143229 0.143880 0.144531 0.145182 0.145833 0.146484 0.147135 0.147786 0.148438 0.149089 0.149740 0.150391 0.151042 0.151693 0.152344 0.152995 0.153646 0.154297 0.154948 0.155599 0.156250 0.156901 0.157552 0.158203 0.158854 0.159505 0.160156 0.160807 0.161458 0.162109 0.162760 0.163411 0.164062 0.164714 0.165365 0.166016 0.166667 0.167318 0.167969 0.168620 0.169271 0.169922 0.170573 0.171224 0.171875 0.172526 0.173177 0.173828 0.174479 0.175130 0.175781 0.176432 0.177083 0.177734 0.178385 0.179036 0.179688 0.180339 0.180990 0.181641 0.182292 0.182943 0.183594 0.184245 0.184896 0.185547 0.186198 0.186849 0.187500 0.188151 0.188802 0.189453 0.190104 0.190755 0.191406 0.192057 0.192708 0.193359 0.194010 0.194661 0.195312 0.195964 0.196615 0.197266 0.197917 0.198568 0.199219 0.199870 0.200521 0.201172 0.201823 0.202474 0.203125 0.203776 0.204427 0.205078 0.205729 0.206380 0.207031 0.207682 0.208333 0.208984 0.209635 0.210286 0.210938 0.211589 0.212240 0.212891 0.213542 0.214193 0.214844 0.215495 0.216146 0.216797 0.217448 0.218099 0.218750 0.219401 0.220052 0.220703 0.221354 0.222005 0.222656 0.223307 0.223958 0.224609 0.225260 0.225911 0.226562 0.227214 0.227865 0.228516 0.229167 0.229818 0.230469 0.231120 0.231771 0.232422 0.233073 0.233724 0.234375 0.235026 0.235677
       0.31855        0.31855        0.31855        0.31855        0.31855        0.31855        0.31855        0.31855        0.31855        0.31855        0.31855        0.31855        0.31855        0.31855        0.31855        0.31855        0.31855        0.31855        0.31855        0.31855        0.31855        0.31855        0.31855        0.31855        0.31855        0.31855        0.31855        0.31855        0.31855        0.31855        0.31855        0.31855        0.31855        0.31855        0.31855        0.31855        0.31855        0.31855        0.31855        0.31855        0.31855        0.31855        0.31855        0.31855        0.31855        0.31855        0.31855        0.31855        0.31855        0.31855        0.31855        0.68517        0.86967        0.52404        0.09118       -0.05943       -0.42119       -0.20464       -0.29389       -0.11430       -0.07283       -0.11698       -0.06445       -0.20491       -0.23093       -0.25520       -0.32565       -0.33607       -0.48402       -0.37908       -0.46481       -0.44672       -0.41881       -0.46614       -0.53862       -0.55758       -0.58451       -0.62084       -0.57454       -0.41410       -0.37688       -0.32547       -0.31033       -0.21347       -0.20024        0.01869        0.07862        0.11238        0.22884        0.37244        0.44273        0.51331        0.55970        0.55687        0.56702        0.69804        0.81208        0.73614        0.73239        0.66596        0.58141        0.48394        0.41078        0.49569        0.37988        0.21176        0.07826        0.05495        0.01827       -0.05963       -0.03441       -0.01861       -0.06898       -0.00932       -0.01348        0.21493        0.25082        0.28747        0.42903        0.45893        0.40715        0.54291        0.62942        0.70034        0.75983        0.68875        0.65037        0.69822        0.58524        0.50231        0.42050        0.28792        0.18826        0.15649        0.10482        0.04349        0.01534        0.00208        0.07712        0.13166        0.20822        0.28326        0.39746        0.42189        0.51387        0.60709        0.63240        0.62392        0.63124        0.55760        0.44912        0.45067        0.35388        0.23128        0.17642        0.14946        0.11653        0.12129        0.07187        0.10259        0.23390        0.26480        0.34684        0.35827        0.45172        0.51469        0.53992        0.55107        0.47165        0.43559        0.39372        0.36498        0.30565        0.25220        0.20129        0.18995        0.16355        0.19092        0.18150        0.27291        0.33367        0.37144        0.43120        0.46190        0.47963        0.44164        0.39428        0.41990        0.37149        0.28924        0.26834        0.22244        0.21619        0.19581        0.21894        0.23137        0.33017        0.37569        0.36818        0.46105        0.43995        0.43642        0.43219        0.39647        0.34557        0.32577        0.27549        0.24529        0.23921        0.27351        0.27399        0.30422        0.30828        0.34005        0.32890        0.40810        0.42160        0.37642        0.34677        0.37158        0.28306        0.28314        0.26076        0.28351        0.26320        0.27732        0.28781        0.31025        0.35166        0.36493        0.36278        0.33941        0.35473        0.28457        0.31714        0.26847        0.24722        0.29112        0.28269        0.31051        0.31061        0.33076        0.33358        0.31605        0.31461        0.28602        0.29440        0.26733        0.28035        0.25853        0.30758        0.28515        0.27055        0.30798        0.31567        0.32460        0.28563        0.30483        0.28783        0.25377        0.24622        0.22356        0.28258        0.27501        0.32397        0.31476        0.31932        0.32030        0.31197        0.27886        0.29181        0.32886        0.26984        0.26085        0.29753        0.29261        0.33547        0.33184        0.35112        0.33136        0.31045        0.28132        0.27109        0.25816        0.22931        0.27893        0.30578        0.29508        0.28322        0.29578        0.27776        0.32808        0.31648        0.24967        0.21735        0.28031        0.32850        0.27531        0.31104        0.32480        0.32593        0.31174        0.32175        0.34115        0.30580        0.29628        0.25977        0.28855        0.35952        0.35477        0.26335        0.26614        0.25580        0.29333        0.22328        0.29110        0.22532        0.25058        0.33362        0.32427        0.34544        0.29694        0.24807        0.24337        0.24577        0.23668        0.19903        0.23346        0.26384        0.31013        0.26463        0.31017        0.31561        0.27814        0.26982        0.21080        0.16719        0.19555        0.23064        0.20841        0.21101        0.23097        0.19866        0.24138        0.34114        0.30650        0.31899        0.23734        0.23271        0.22220        0.28990        0.30114        0.13393        0.20516        0.22639        0.11567        0.20082        0.11346        0.14412        0.18375        0.08688       -0.11497       -0.54668
2.601049 2.573823 2.546745 2.519814 2.493032 2.466398 2.439911 2.413572 2.387382 2.361339 2.335444 2.309697 2.284097 2.258646 2.233343 2.208187 2.183180 2.158320 2.133608 2.109044 2.084628 2.060360 2.036240 2.012268 1.988444 1.964767 1.941239 1.917858 1.894625 1.871541 1.848604 1.825815 1.803174 1.780680 1.758335 1.736138 1.714088 1.692186 1.670433 1.648827 1.627369 1.606059 1.584897 1.563883 1.543016 1.522298 1.501727 1.481305 1.461030 1.440903 1.420925 1.641235 2.049885 1.622099 1.136440 0.992669 0.426699 0.813454 0.565825 0.836670 0.778649 0.790785 0.755156 0.710971 0.567825 0.517970 0.488476 0.443462 0.209901 0.383629 0.201051 0.306563 0.239643 0.181896 0.132121 0.009048 0.041571 -0.014491 -0.056207 0.103814 0.207924 0.195340 0.158159 0.326511 0.195034 0.491714 0.582688 0.555552 0.597610 0.874769 0.810160 0.941180 0.887072 0.974730 0.943058 1.076127 1.139317 1.067169 1.124613 0.944307 0.944357 0.780079 0.653180 0.770821 0.707414 0.468570 0.307298 0.252331 0.221350 0.147398 0.088684 0.127890 0.071213 0.141144 0.057415 0.262063 0.377171 0.349501 0.477614 0.573122 0.461564 0.555104 0.697320 0.743973 0.777784 0.726757 0.719125 0.709914 0.626270 0.566490 0.423199 0.285772 0.201073 0.075686 0.124139 -0.047968 -0.028633 -0.081051 -0.042721 -0.001237 0.144167 0.089255 0.291605 0.278716 0.363165 0.460699 0.518595 0.514096 0.515119 0.509260 0.331701 0.308642 0.276812 0.101460 0.041793 -0.016629 -0.026010 -0.044644 -0.092837 -0.108681 -0.007033 0.060280 0.128885 0.146465 0.228312 0.327219 0.312333 0.419412 0.394019 0.279721 0.234585 0.241757 0.194320 0.105584 0.072021 0.012899 0.003630 0.002761 -0.020293 0.063399 0.144433 0.144039 0.234900 0.255016 0.304980 0.253671 0.220782 0.189153 0.211842 0.141803 0.045230 0.032845 -0.010555 -0.009443 -0.031931 0.020819 0.016038 0.170828 0.130731 0.176488 0.240826 0.195180 0.184329 0.199168 0.139407 0.097243 0.057774 0.046390 -0.031833 0.005564 0.025749 0.053476 0.054342 0.081547 0.093153 0.117227 0.142772 0.193330 0.081148 0.100743 0.076503 0.006361 0.007174 0.008237 -0.000293 0.020310 0.000657 0.023864 0.068909 0.084317 0.127401 0.052562 0.110309 0.055188 0.009465 0.059111 -0.034218 -0.009234 0.031507 -0.001186 0.060405 0.048975 0.054473 0.068929 0.053553 0.041346 0.023136 0.009877 0.015677 0.006414 -0.015945 0.072408 -0.012229 0.015255 0.057815 0.054627 0.042933 0.046247 0.041620 0.017387 -0.010257 -0.038786 -0.010144 0.022908 0.027222 0.077690 0.057337 0.065936 0.082487 0.067807 0.034180 0.071077 0.086912 0.017401 0.019345 0.067302 0.050530 0.097899 0.107828 0.094275 0.118826 0.067742 0.037486 0.035820 -0.000070 0.003044 0.056643 0.077925 0.042023 0.037229 0.033249 0.026263 0.095232 0.046257 -0.046237 -0.049685 0.034370 0.087225 0.006176 0.026086 0.069512 0.079137 0.041136 0.051054 0.081924 0.039245 0.042551 -0.041759 0.028494 0.117333 0.072361 -0.053138 -0.025218 -0.048541 0.043165 -0.108594 0.031677 -0.096824 -0.033281 0.054647 0.044389 0.023604 -0.037692 -0.053674 -0.071074 -0.079282 -0.062225 -0.095315 -0.091177 -0.028941 0.048999 -0.032682 0.054757 0.010566 -0.037337 0.046633 -0.097552 -0.098563 -0.076086 -0.003482 -0.029793 -0.047511 0.020953 -0.001848 0.017390 0.203577 0.003715 0.172506 0.049171 0.237061 0.245657 0.329578 0.286768 0.098243 0.208070 0.269990 0.055964 0.218785 0.119080 0.119016 0.257915 0.088680 -0.567333
0.072396 0.072899 0.074406 0.076918 0.080433 0.084952 0.090472 0.096993 0.104511 0.113025 0.122531 0.133024 0.144499 0.156950 0.170369 0.184746 0.200072 0.216333 0.233514 0.251597 0.270564 0.290390 0.311050 0.332514 0.354750 0.377720 0.401383 0.425693 0.450599 0.476046 0.501972 0.528310 0.554987 0.581926 0.609040 0.636237 0.663420 0.690484 0.717316 0.743798 0.769805 0.795203 0.819855 0.843615 0.866332 0.887849 0.908004 0.926630 0.943556 0.958609 0.971612 0.982387 0.990757 0.996543 0.999572 0.999671 0.996675 0.990424 0.980768 0.967567 0.950693 0.930033 0.905492 0.876990 0.844473 0.807906 0.767282 0.722622 0.673974 0.621421 0.565077 0.505094 0.441660 0.375001 0.305382 0.233109 0.158529 0.082027 0.004031 0.074995 0.154547 0.234088 0.313047 0.390823 0.466792 0.540307 0.610705 0.677316 0.739463 0.796476 0.847695 0.892479 0.930218 0.960337 0.982309 0.995664 0.999995 0.994974 0.980356 0.955988 0.921821 0.877915 0.824444 0.761706 0.690120 0.610239 0.522739 0.428427 0.328236 0.223215 0.114528 0.003441 0.108691 0.220435 0.330301 0.436759 0.538258 0.633257 0.720239 0.797745 0.864399 0.918934 0.960221 0.987295 0.999383 0.995925 0.976599 0.941338 0.890346 0.824110 0.743405 0.649293 0.543126 0.426527 0.301377 0.169788 0.034079 0.103266 0.239641 0.372357 0.498707 0.616015 0.721696 0.813317 0.888663 0.945790 0.983088 0.999332 0.993728 0.965955 0.916193 0.845142 0.754033 0.644617 0.519151 0.380358 0.231386 0.075741 0.082787 0.240213 0.392453 0.535429 0.665186 0.778001 0.870501 0.939774 0.983471 0.999898 0.988094 0.947892 0.879954 0.785789 0.667739 0.528945 0.373278 0.205246 0.029877 0.147419 0.321020 0.485262 0.634627 0.763940 0.868553 0.944530 0.988809 0.999346 0.975223 0.916728 0.825387 0.703959 0.556375 0.387641 0.203681 0.011154 0.182782 0.370727 0.545325 0.699551 0.827010 0.922217 0.980853 0.999982 0.978229 0.915886 0.814962 0.679155 0.513751 0.325445 0.122101 0.087564 0.294342 0.488932 0.662365 0.806428 0.914069 0.979775 0.999877 0.972788 0.899150 0.781873 0.626066 0.438853 0.229089 0.006952 0.216519 0.429962 0.622289 0.783255 0.904033 0.977728 0.999804 0.968405 0.884534 0.752091 0.577739 0.370618 0.141905 0.095764 0.328972 0.544276 0.728990 0.871949 0.964225 0.999713 0.975591 0.892582 0.755014 0.570656 0.350331 0.107330 0.143362 0.385971 0.604924 0.785862 0.916609 0.988034 0.994742 0.935531 0.813592 0.636413 0.415388 0.165131 0.097439 0.354229 0.587195 0.779645 0.917447 0.990124 0.991707 0.921289 0.783226 0.586946 0.346391 0.079068 0.195166 0.455569 0.682080 0.856888 0.965878 0.999826 0.955262 0.834879 0.647482 0.407423 0.133578 0.152088 0.426257 0.666145 0.851431 0.966030 0.999541 0.948285 0.815777 0.612605 0.355662 0.066838 0.228812 0.505196 0.737504 0.904471 0.990371 0.986599 0.892614 0.716180 0.472837 0.184630 0.121821 0.417734 0.674869 0.868232 0.978587 0.994436 0.913330 0.742313 0.497432 0.202339 0.113901 0.419644 0.683806 0.879059 0.984729 0.989076 0.890712 0.698971 0.433163 0.120742 0.205461 0.510627 0.761679 0.930911 0.999122 0.957925 0.810888 0.573393 0.271170 0.062391 0.389859 0.673945 0.881768 0.988752 0.981634 0.860249 0.637820 0.339668 0.000456 0.339760 0.640219 0.864380 0.984422 0.984830 0.864541 0.637366 0.330566 0.018270 0.365767 0.668098 0.886556 0.992598 0.971700 0.825505 0.571939 0.243169 0.118333
1.000000 1.000000 1.000000 1.000000 1.000000 1.000000 1.000000 1.000000 1.000000 1.000000 1.000000 1.000000 1.000000 1.000000 1.000000 1.000000 1.000000 1.000000 1.000000 1.000000 1.000000 1.000000 1.000000 1.000000 1.000000 1.000000 1.000000 1.000000 1.000000 1.000000 1.000000 1.000000 1.000000 1.000000 1.000000 1.000000 1.000000 1.000000 1.000000 1.000000 1.000000 1.000000 1.000000 1.000000 1.000000 1.000000 1.000000 1.000000 1.000000 1.000000 1.000000 1.000000 0.930323 0.930323 0.930323 0.920395 0.920395 0.920395 0.920395 0.920395 0.920395 0.920395 0.920395 0.920395 0.920395 0.920395 0.920395 0.920395 0.920395 0.920395 0.920395 0.920395 0.920395 0.920395 0.920395 0.920395 0.920395 0.920395 0.920395 0.920395 0.920395 0.920395 0.920395 0.920395 0.920395 0.920395 0.920395 0.920395 0.920395 0.920395 0.920395 0.920395 0.920395 0.920395 0.920395 0.920395 0.950916 0.952131 0.960009 0.959858 0.959374 0.957316 0.956405 0.955302 0.954849 0.955118 0.955712 0.956527 0.965226 0.966283 0.967842 0.968665 0.969384 0.970039 0.969881 0.970623 0.969852 0.969308 0.968808 0.964871 0.965478 0.966050 0.966191 0.967227 0.967112 0.969162 0.969304 0.968717 0.967852 0.967125 0.966423 0.966009 0.965735 0.966234 0.966521 0.967813 0.970973 0.970411 0.970100 0.970259 0.970362 0.970543 0.970972 0.972647 0.968969 0.969612 0.968004 0.968470 0.970057 0.969940 0.969718 0.970216 0.970589 0.970800 0.969206 0.965374 0.960048 0.959483 0.956440 0.947514 0.945331 0.946007 0.948054 0.948380 0.947261 0.939930 0.940547 0.934667 0.935803 0.939081 0.934291 0.933644 0.934741 0.933420 0.931369 0.930778 0.927895 0.924442 0.922320 0.922182 0.925209 0.926146 0.927315 0.926992 0.921493 0.913113 0.899050 0.895156 0.889923 0.893160 0.881349 0.880872 0.880830 0.876657 0.880363 0.881936 0.882957 0.879041 0.859074 0.836302 0.827311 0.831288 0.837008 0.833220 0.831868 0.825026 0.837284 0.820993 0.833927 0.838490 0.836491 0.836616 0.835749 0.832174 0.825935 0.825580 0.827586 0.828965 0.828249 0.829063 0.824271 0.813552 0.816812 0.753051 0.739296 0.735017 0.740837 0.746799 0.748231 0.747290 0.755168 0.760061 0.751698 0.736473 0.729778 0.721362 0.726506 0.731384 0.736034 0.725871 0.708207 0.699427 0.662058 0.679037 0.703085 0.657825 0.682110 0.693034 0.686207 0.685190 0.677746 0.671468 0.663273 0.666460 0.678784 0.697571 0.717003 0.742306 0.738081 0.729023 0.726669 0.710948 0.705152 0.700582 0.707310 0.690155 0.686185 0.704810 0.705389 0.692190 0.674540 0.659736 0.649431 0.648252 0.653843 0.648116 0.645907 0.628172 0.598443 0.589093 0.627251 0.643332 0.661865 0.631682 0.617364 0.606921 0.580231 0.594793 0.544155 0.544028 0.566914 0.574164 0.550506 0.536876 0.545541 0.560673 0.567999 0.559659 0.530457 0.515529 0.528716 0.555671 0.547270 0.523978 0.531816 0.528169 0.522191 0.454973 0.454950 0.424694 0.396549 0.346109 0.321558 0.316294 0.300139 0.292933 0.260509 0.256573 0.268454 0.277165 0.282459 0.282058 0.262345 0.274580 0.271102 0.258264 0.198451 0.188370 0.180256 0.169541 0.169867 0.149657 0.169228 0.227084 0.228849 0.228849 0.228849 0.228849 0.228849 0.228849 0.239644 0.239644 0.239644 0.239644 0.239644 0.239644 0.239644 0.239644 0.239644 0.249610 0.249610 0.249610 0.249610 0.249610 0.249610 0.249610 0.249610 0.249610 0.249610 0.249610 0.249610 0.249610 0.249610
0.000000 0.000000 0.000000 0.000000 0.000000 0.000000 0.000000 0.000000 0.000000 0.000000 0.000000 0.000000 0.000000 0.000000 0.000000 0.000000 0.000000 0.000000 0.000000 0.000000 0.000000 0.000000 0.000000 0.000000 0.000000 0.000000 0.000000 0.000000 0.000000 0.000000 0.000000 0.000000 0.000000 0.000000 0.000000 0.000000 0.000000 0.000000 0.000000 0.000000 0.000000 0.000000 0.000000 0.000000 0.000000 0.000000 0.000000 0.000000 0.000000 0.000000 0.000000 0.000000 0.180334 0.180334 0.180334 0.199007 0.199007 0.199007 0.199007 0.199007 0.199007 0.199007 0.199007 0.199007 0.199007 0.199007 0.199007 0.199007 0.199007 0.199007 0.199007 0.199007 0.199007 0.199007 0.199007 0.199007 0.199007 0.199007 0.199007 0.199007 0.199007 0.199007 0.199007 0.199007 0.199007 0.199007 0.199007 0.199007 0.199007 0.199007 0.199007 0.199007 0.199007 0.199007 0.199007 0.199007 0.225018 0.225018 0.225018 0.225018 0.225018 0.225018 0.225018 0.225018 0.225018 0.225018 0.225018 0.225018 0.225018 0.225018 0.225018 0.225018 0.225018 0.225018 0.225018 0.225018 0.225018 0.225018 0.225018 0.225018 0.225018 0.225018 0.225018 0.225018 0.225018 0.244339 0.244339 0.244339 0.244339 0.244339 0.244339 0.244339 0.244339 0.244339 0.244339 0.244339 0.244339 0.244339 0.244339 0.244339 0.244339 0.244339 0.244339 0.244339 0.244339 0.244339 0.244339 0.244339 0.251976 0.251976 0.251976 0.251976 0.251976 0.251976 0.251976 0.251976 0.251976 0.251976 0.251976 0.251976 0.251976 0.251976 0.251976 0.251976 0.251976 0.251976 0.251976 0.251976 0.264906 0.264906 0.264906 0.264906 0.264906 0.264906 0.264906 0.264906 0.264906 0.264906 0.264906 0.264906 0.264906 0.264906 0.264906 0.264906 0.264906 0.264906 0.264906 0.264906 0.264906 0.264906 0.264906 0.264906 0.264906 0.264906 0.264906 0.264906 0.264906 0.264906 0.264906 0.264906 0.264906 0.264906 0.264906 0.264906 0.264906 0.264906 0.264906 0.264906 0.264906 0.264906 0.264906 0.264906 0.264906 0.264906 0.264906 0.264906 0.264906 0.264906 0.264906 0.264906 0.264906 0.264906 0.264906 0.264906 0.264906 0.264906 0.264906 0.264906 0.264906 0.264906 0.256074 0.256074 0.256074 0.256074 0.256074 0.256074 0.256074 0.256074 0.256074 0.256074 0.256074 0.256074 0.256074 0.256074 0.269680 0.269680 0.269680 0.269680 0.269680 0.269680 0.269680 0.269680 0.269680 0.269680 0.269680 0.269680 0.264906 0.264906 0.264906 0.264906 0.264906 0.264906 0.264906 0.264906 0.264906 0.264906 0.264906 0.264906 0.269680 0.269680 0.269680 0.269680 0.269680 0.269680 0.269680 0.269680 0.269680 0.269680 0.269680 0.264906 0.264906 0.264906 0.264906 0.264906 0.264906 0.264906 0.264906 0.264906 0.264906 0.264906 0.256074 0.256074 0.256074 0.256074 0.256074 0.256074 0.256074 0.256074 0.256074 0.256074 0.256074 0.264906 0.264906 0.264906 0.264906 0.264906 0.264906 0.264906 0.264906 0.264906 0.264906 0.260378 0.260378 0.260378 0.260378 0.260378 0.260378 0.260378 0.260378 0.260378 0.260378 0.256074 0.256074 0.256074 0.256074 0.256074 0.256074 0.256074 0.256074 0.256074 0.256074 0.260378 0.260378 0.260378 0.260378 0.260378 0.260378 0.260378 0.260378 0.260378 0.256074 0.256074 0.256074 0.256074 0.256074 0.256074 0.256074 0.256074 0.256074 0.251976 0.251976 0.251976 0.251976 0.251976 0.251976 0.251976 0.251976 0.251976 0.251976 0.251976 0.251976 0.251976 0.251976
