# Output from CTFFind version 4.1.9, run on 2019-11-02 17:46:12
# Input file: stack16_bm3d_averaged_1_1.25_0_1000_half.mrc ; Number of micrographs: 1
# Pixel size: 3.000 Angstroms ; acceleration voltage: 300.0 keV ; spherical aberration: 0.00 mm ; amplitude contrast: 0.07
# Box size: 512 pixels ; min. res.: 30.0 Angstroms ; max. res.: 5.0 Angstroms ; min. def.: 5000.0 um; max. def. 50000.0 um; num. frames averaged: 1
# 6 lines per micrograph: #1 - spatial frequency (1/Angstroms); #2 - 1D rotational average of spectrum (assuming no astigmatism); #3 - 1D rotational average of spectrum; #4 - CTF fit; #5 - cross-correlation between spectrum and CTF fit; #6 - 2sigma of expected cross correlation of noise
0.000000 0.000651 0.001302 0.001953 0.002604 0.003255 0.003906 0.004557 0.005208 0.005859 0.006510 0.007161 0.007812 0.008464 0.009115 0.009766 0.010417 0.011068 0.011719 0.012370 0.013021 0.013672 0.014323 0.014974 0.015625 0.016276 0.016927 0.017578 0.018229 0.018880 0.019531 0.020182 0.020833 0.021484 0.022135 0.022786 0.023438 0.024089 0.024740 0.025391 0.026042 0.026693 0.027344 0.027995 0.028646 0.029297 0.029948 0.030599 0.031250 0.031901 0.032552 0.033203 0.033854 0.034505 0.035156 0.035807 0.036458 0.037109 0.037760 0.038411 0.039062 0.039714 0.040365 0.041016 0.041667 0.042318 0.042969 0.043620 0.044271 0.044922 0.045573 0.046224 0.046875 0.047526 0.048177 0.048828 0.049479 0.050130 0.050781 0.051432 0.052083 0.052734 0.053385 0.054036 0.054688 0.055339 0.055990 0.056641 0.057292 0.057943 0.058594 0.059245 0.059896 0.060547 0.061198 0.061849 0.062500 0.063151 0.063802 0.064453 0.065104 0.065755 0.066406 0.067057 0.067708 0.068359 0.069010 0.069661 0.070312 0.070964 0.071615 0.072266 0.072917 0.073568 0.074219 0.074870 0.075521 0.076172 0.076823 0.077474 0.078125 0.078776 0.079427 0.080078 0.080729 0.081380 0.082031 0.082682 0.083333 0.083984 0.084635 0.085286 0.085938 0.086589 0.087240 0.087891 0.088542 0.089193 0.089844 0.090495 0.091146 0.091797 0.092448 0.093099 0.093750 0.094401 0.095052 0.095703 0.096354 0.097005 0.097656 0.098307 0.098958 0.099609 0.100260 0.100911 0.101562 0.102214 0.102865 0.103516 0.104167 0.104818 0.105469 0.106120 0.106771 0.107422 0.108073 0.108724 0.109375 0.110026 0.110677 0.111328 0.111979 0.112630 0.113281 0.113932 0.114583 0.115234 0.115885 0.116536 0.117188 0.117839 0.118490 0.119141 0.119792 0.120443 0.121094 0.121745 0.122396 0.123047 0.123698 0.124349 0.125000 0.125651 0.126302 0.126953 0.127604 0.128255 0.128906 0.129557 0.130208 0.130859 0.131510 0.132161 0.132812 0.133464 0.134115 0.134766 0.135417 0.136068 0.136719 0.137370 0.138021 0.138672 0.139323 0.139974 0.140625 0.141276 0.141927 0.142578 0.143229 0.143880 0.144531 0.145182 0.145833 0.146484 0.147135 0.147786 0.148438 0.149089 0.149740 0.150391 0.151042 0.151693 0.152344 0.152995 0.153646 0.154297 0.154948 0.155599 0.156250 0.156901 0.157552 0.158203 0.158854 0.159505 0.160156 0.160807 0.161458 0.162109 0.162760 0.163411 0.164062 0.164714 0.165365 0.166016 0.166667 0.167318 0.167969 0.168620 0.169271 0.169922 0.170573 0.171224 0.171875 0.172526 0.173177 0.173828 0.174479 0.175130 0.175781 0.176432 0.177083 0.177734 0.178385 0.179036 0.179688 0.180339 0.180990 0.181641 0.182292 0.182943 0.183594 0.184245 0.184896 0.185547 0.186198 0.186849 0.187500 0.188151 0.188802 0.189453 0.190104 0.190755 0.191406 0.192057 0.192708 0.193359 0.194010 0.194661 0.195312 0.195964 0.196615 0.197266 0.197917 0.198568 0.199219 0.199870 0.200521 0.201172 0.201823 0.202474 0.203125 0.203776 0.204427 0.205078 0.205729 0.206380 0.207031 0.207682 0.208333 0.208984 0.209635 0.210286 0.210938 0.211589 0.212240 0.212891 0.213542 0.214193 0.214844 0.215495 0.216146 0.216797 0.217448 0.218099 0.218750 0.219401 0.220052 0.220703 0.221354 0.222005 0.222656 0.223307 0.223958 0.224609 0.225260 0.225911 0.226562 0.227214 0.227865 0.228516 0.229167 0.229818 0.230469 0.231120 0.231771 0.232422 0.233073 0.233724 0.234375 0.235026 0.235677
       0.34279        0.34279        0.34279        0.34279        0.34279        0.34279        0.34279        0.34279        0.34279        0.34279        0.34279        0.34279        0.34279        0.34279        0.34279        0.34279        0.34279        0.34279        0.34279        0.34279        0.34279        0.34279        0.34279        0.34279        0.34279        0.34279        0.34279        0.34279        0.34279        0.34279        0.34279        0.34279        0.34279        0.34279        0.34279        0.34279        0.34279        0.34279        0.34279        0.34279        0.34279        0.34279        0.34279        0.34279        0.34279        0.34279        0.34279        0.34279        0.34279        0.34279        0.34279        0.48861        0.70079        0.45619       -0.11179       -0.41276       -0.57172       -0.66166       -0.74471       -0.76137       -0.87020       -0.91524       -0.75957       -0.92587       -0.87273       -1.02565       -1.09816       -0.98941       -0.96218       -0.88456       -0.85816       -0.74971       -0.64110       -0.49998       -0.42320       -0.21907       -0.11720       -0.02354        0.20211        0.24319        0.30842        0.38344        0.43655        0.51440        0.57994        0.59773        0.59044        0.50090        0.54638        0.48533        0.39292        0.32600        0.20541        0.17117        0.09944       -0.05903       -0.11294       -0.09075        0.01156       -0.01766        0.01410        0.02727        0.20624        0.21752        0.39081        0.45670        0.56163        0.70042        0.76169        0.73232        0.70557        0.70040        0.58335        0.54054        0.39900        0.27502        0.19552        0.14750        0.06772        0.02694        0.02300        0.06251        0.07959        0.27391        0.41758        0.50551        0.58911        0.63860        0.70296        0.65876        0.65222        0.67147        0.60820        0.48197        0.28541        0.23600        0.20481        0.12884        0.04371        0.09232        0.11644        0.25071        0.34414        0.41522        0.50179        0.53997        0.65930        0.60701        0.55305        0.51006        0.36300        0.20710        0.21086        0.15376        0.11841        0.12163        0.21483        0.25397        0.35883        0.44164        0.43781        0.56036        0.51015        0.45199        0.45575        0.38149        0.32345        0.27483        0.21448        0.23391        0.21311        0.20844        0.31998        0.45054        0.48661        0.48190        0.55207        0.49722        0.45493        0.39702        0.29573        0.22597        0.23268        0.24250        0.26540        0.27333        0.32758        0.44268        0.50165        0.48962        0.46052        0.41602        0.38850        0.36200        0.24969        0.22500        0.24833        0.29412        0.35599        0.36259        0.39129        0.41087        0.44207        0.37303        0.34804        0.31501        0.30860        0.26797        0.25784        0.30754        0.34659        0.41508        0.41719        0.39505        0.39177        0.40476        0.34715        0.28589        0.29425        0.28170        0.30956        0.35847        0.36992        0.41579        0.35839        0.36463        0.38835        0.34449        0.31326        0.28293        0.29216        0.33870        0.32810        0.32375        0.37334        0.39506        0.33460        0.35237        0.29912        0.30790        0.28587        0.28169        0.30143        0.33005        0.38360        0.36621        0.34715        0.32670        0.28454        0.27569        0.29756        0.28390        0.31507        0.36812        0.39455        0.33549        0.31768        0.30989        0.29944        0.28895        0.27819        0.30113        0.34024        0.33387        0.34329        0.32025        0.35034        0.32248        0.28761        0.31326        0.32216        0.33833        0.34059        0.31981        0.31335        0.30206        0.32899        0.31407        0.33817        0.39020        0.33357        0.36177        0.31678        0.30845        0.28934        0.30854        0.29087        0.31003        0.31926        0.35191        0.36108        0.31023        0.32167        0.31741        0.29694        0.29208        0.29108        0.32831        0.34255        0.35518        0.33546        0.31990        0.26327        0.26195        0.31275        0.34918        0.31833        0.29403        0.28016        0.28893        0.32787        0.31247        0.30701        0.33574        0.33886        0.31092        0.24307        0.28530        0.28689        0.28689        0.32443        0.32449        0.34625        0.34236        0.28450        0.27098        0.29717        0.27067        0.29485        0.27400        0.24786        0.26102        0.25769        0.28159        0.28794        0.28084        0.26569        0.31895        0.32525        0.31234        0.28097        0.29248        0.24035        0.26740        0.25128        0.32406        0.35212        0.22901        0.25107        0.28072        0.24557        0.24361        0.30497        0.23543        0.13737        0.17780        0.22902        0.26919        0.23007        0.13404        0.04827       -0.41187       -0.77327
3.052829 3.014850 2.977115 2.939624 2.902378 2.865376 2.828617 2.792104 2.755834 2.719808 2.684027 2.648490 2.613197 2.578149 2.543344 2.508784 2.474468 2.440396 2.406568 2.372985 2.339646 2.306551 2.273700 2.241093 2.208731 2.176612 2.144738 2.113108 2.081723 2.050581 2.019684 1.989031 1.958622 1.928458 1.898537 1.868861 1.839429 1.810241 1.781297 1.752598 1.724143 1.695932 1.667965 1.640242 1.612764 1.585530 1.558540 1.531794 1.505292 1.479035 1.453022 1.511019 1.695145 1.611097 0.964346 0.682680 0.476902 0.430733 0.322908 0.266010 0.200471 0.021077 0.197947 0.081849 -0.007573 -0.058279 -0.198268 -0.151361 -0.089205 -0.091917 -0.093971 0.011316 0.033232 0.232678 0.150793 0.364256 0.444936 0.476541 0.712984 0.697966 0.707275 0.835161 0.818102 0.848444 0.919778 0.892429 0.935905 0.749210 0.834291 0.837042 0.621985 0.606904 0.455768 0.435212 0.380189 0.211328 0.118947 0.099856 0.207376 0.143437 0.197362 0.111382 0.306984 0.284938 0.456824 0.412517 0.579314 0.641635 0.761133 0.705850 0.653371 0.664127 0.527943 0.503106 0.363799 0.293780 0.118949 0.147887 0.002370 -0.009740 -0.037973 -0.028905 -0.001473 0.033695 0.275534 0.329018 0.387355 0.394300 0.465113 0.516326 0.469655 0.504265 0.397465 0.389861 0.154397 0.069511 0.073213 -0.003621 -0.125432 -0.043007 -0.113215 0.015034 0.138489 0.156808 0.253750 0.257296 0.382625 0.455398 0.350784 0.390046 0.282697 0.124726 0.048661 0.051869 0.018528 0.004404 0.008469 0.109124 0.127082 0.264871 0.236156 0.302395 0.365508 0.243266 0.245947 0.219152 0.129875 0.084008 0.049069 0.025179 0.040556 -0.013030 0.027371 0.184157 0.219443 0.252379 0.282362 0.231936 0.240159 0.147039 0.109568 -0.020633 -0.015305 -0.006669 0.016242 0.009399 0.028693 0.105230 0.190857 0.203717 0.221926 0.136460 0.145378 0.079631 0.059525 -0.060311 -0.015395 -0.002199 0.055086 0.067064 0.075396 0.153327 0.091056 0.162236 0.068100 0.052555 0.047466 0.029666 0.002755 0.006841 0.050957 0.086223 0.128847 0.139211 0.067983 0.126694 0.097395 0.012284 0.008997 0.007504 -0.002009 0.053357 0.059824 0.100342 0.097356 0.063740 0.070432 0.078888 0.032713 0.013123 -0.011268 0.007190 0.060046 0.022349 0.036196 0.072976 0.088713 0.055797 0.032588 0.011336 0.013266 -0.007650 -0.012056 0.013312 0.052110 0.102747 0.062333 0.057997 0.037169 -0.013563 -0.002252 0.017207 0.012634 0.028560 0.104049 0.063235 0.019057 0.044580 0.002643 0.027983 -0.007706 -0.003915 0.025521 0.061819 0.031058 0.045066 0.031828 0.055937 0.023598 -0.006186 0.027023 0.041621 0.042412 0.038456 0.027284 -0.001636 -0.009490 0.028703 0.009547 0.048259 0.075369 0.042624 0.024698 0.010960 -0.001516 -0.007198 0.008498 0.002493 0.013346 -0.001531 0.080082 0.051412 0.029213 0.043515 0.002941 0.012180 0.007178 -0.003777 0.045001 0.067259 0.082973 0.049906 0.047016 -0.022097 0.009432 0.033444 0.071104 0.040287 0.032816 0.000317 0.004671 0.056511 0.052241 0.033706 0.061923 0.067338 0.051469 -0.024904 0.014433 0.045626 0.018008 0.042331 0.075281 0.076279 0.065185 0.017212 0.006889 0.015044 -0.002487 0.025634 -0.023111 -0.026437 -0.022076 -0.040691 -0.002563 -0.005111 0.008991 -0.078602 0.004311 0.006811 -0.007264 -0.047151 0.010264 -0.099347 -0.027248 -0.053960 0.018763 0.067914 -0.113446 -0.029579 0.035261 0.002677 -0.046618 0.044483 0.026635 -0.025693 -0.040254 0.050190 0.236002 0.200527 0.087042 0.045319 -0.676935
0.072396 0.073046 0.074995 0.078243 0.082788 0.088630 0.095766 0.104193 0.113907 0.124903 0.137174 0.150713 0.165508 0.181548 0.198817 0.217296 0.236964 0.257794 0.279757 0.302816 0.326930 0.352054 0.378132 0.405106 0.432907 0.461458 0.490674 0.520462 0.550717 0.581327 0.612165 0.643097 0.673978 0.704648 0.734938 0.764669 0.793649 0.821674 0.848531 0.873997 0.897838 0.919814 0.939675 0.957167 0.972032 0.984008 0.992833 0.998248 0.999996 0.997831 0.991513 0.980819 0.965542 0.945495 0.920518 0.890477 0.855273 0.814844 0.769168 0.718272 0.662228 0.601165 0.535269 0.464784 0.390019 0.311347 0.229210 0.144115 0.056638 0.032580 0.122831 0.213349 0.303309 0.391838 0.478018 0.560896 0.639496 0.712826 0.779896 0.839728 0.891375 0.933931 0.966558 0.988493 0.999073 0.997753 0.984120 0.957912 0.919036 0.867580 0.803826 0.728261 0.641583 0.544703 0.438750 0.325061 0.205175 0.080818 0.046116 0.173591 0.299454 0.421473 0.537374 0.644887 0.741788 0.825954 0.895412 0.948391 0.983374 0.999150 0.994859 0.970035 0.924642 0.859101 0.774310 0.671650 0.552983 0.420635 0.277361 0.126306 0.029056 0.184997 0.337613 0.482926 0.616988 0.735991 0.836384 0.914988 0.969113 0.996660 0.996220 0.967153 0.909651 0.824772 0.714460 0.581526 0.429601 0.263063 0.086927 0.093288 0.271729 0.442384 0.599299 0.736782 0.849626 0.933321 0.984260 0.999913 0.978977 0.921487 0.828878 0.703992 0.551033 0.375466 0.183842 0.016415 0.217280 0.410445 0.587656 0.741081 0.863669 0.949497 0.994094 0.994701 0.950476 0.862620 0.734402 0.571097 0.379812 0.169224 0.050788 0.269589 0.476286 0.660277 0.811815 0.922544 0.986004 0.998049 0.957165 0.864658 0.724691 0.544170 0.332461 0.100946 0.137538 0.369410 0.581096 0.759847 0.894533 0.976375 0.999576 0.961791 0.864397 0.712553 0.514998 0.283630 0.032842 0.221339 0.462243 0.673670 0.840987 0.952197 0.998853 0.976773 0.886483 0.733346 0.527344 0.282508 0.016042 0.252852 0.504324 0.719355 0.881228 0.976878 0.998034 0.942016 0.812133 0.617614 0.373064 0.097456 0.187278 0.457957 0.692034 0.869511 0.974711 0.997746 0.935555 0.792382 0.579634 0.315092 0.021518 0.275217 0.548401 0.772895 0.927488 0.996989 0.973841 0.859049 0.662351 0.401539 0.100963 0.210637 0.502851 0.746552 0.916858 0.995763 0.974167 0.853058 0.643707 0.366779 0.050430 0.272453 0.567639 0.803194 0.952986 0.999718 0.937069 0.770692 0.517915 0.206105 0.130156 0.452842 0.724753 0.913866 0.997207 0.963803 0.816304 0.571012 0.256305 0.090528 0.427570 0.713341 0.911949 0.997707 0.958633 0.798316 0.535861 0.203818 0.155680 0.496180 0.772885 0.948624 0.998995 0.915947 0.709275 0.405728 0.045762 0.321701 0.645844 0.881030 0.993331 0.965624 0.800435 0.520043 0.163738 0.217494 0.568162 0.836355 0.981517 0.980780 0.832820 0.558551 0.198467 0.193135 0.556201 0.834133 0.982719 0.977363 0.817440 0.526932 0.151138 0.250170 0.612112 0.875229 0.995357 0.951298 0.748855 0.420450 0.020251 0.384569 0.725009 0.942034 0.997056 0.879034 0.607034 0.227500 0.193382 0.581054 0.865802 0.995393 0.944965 0.722121 0.366203 0.058277 0.473139 0.800839 0.979071 0.972864 0.781803 0.440807 0.014137 0.416441 0.767216 0.968902 0.980554 0.798254 0.456644 0.022740 0.416907 0.773361 0.973374 0.974703 0.775429 0.415141 0.032498 0.474506 0.817821 0.988968 0.950132 0.707920 0.312788 0.151013 0.583162
1.000000 1.000000 1.000000 1.000000 1.000000 1.000000 1.000000 1.000000 1.000000 1.000000 1.000000 1.000000 1.000000 1.000000 1.000000 1.000000 1.000000 1.000000 1.000000 1.000000 1.000000 1.000000 1.000000 1.000000 1.000000 1.000000 1.000000 1.000000 1.000000 1.000000 1.000000 1.000000 1.000000 1.000000 1.000000 1.000000 1.000000 1.000000 1.000000 1.000000 1.000000 1.000000 1.000000 1.000000 1.000000 1.000000 1.000000 1.000000 1.000000 1.000000 1.000000 1.000000 0.933164 0.933164 0.933164 0.933164 0.933164 0.933164 0.933164 0.933164 0.933164 0.933164 0.933164 0.933164 0.933164 0.933164 0.933164 0.933164 0.933164 0.933164 0.933164 0.933164 0.933164 0.933164 0.933164 0.933164 0.933164 0.933164 0.933164 0.933164 0.933164 0.933164 0.933164 0.933164 0.933164 0.922483 0.923969 0.926934 0.928002 0.927962 0.927506 0.927193 0.927414 0.929130 0.931449 0.948051 0.950166 0.950744 0.952023 0.952262 0.954772 0.953024 0.952886 0.963426 0.962259 0.962984 0.956080 0.957640 0.956746 0.955831 0.956318 0.956547 0.954633 0.952505 0.950833 0.950205 0.949835 0.951600 0.952074 0.952049 0.953513 0.953487 0.953217 0.949895 0.948444 0.949909 0.951926 0.951063 0.956766 0.956601 0.964643 0.965449 0.964060 0.963957 0.964156 0.964352 0.955716 0.950056 0.945003 0.933176 0.924430 0.922049 0.924869 0.926539 0.925358 0.920541 0.919511 0.917021 0.912251 0.911423 0.911073 0.912578 0.908332 0.904940 0.888599 0.887944 0.890610 0.890343 0.888154 0.879755 0.874878 0.875594 0.878682 0.876273 0.872945 0.888943 0.883736 0.888637 0.891682 0.894683 0.898544 0.894468 0.892905 0.889172 0.885659 0.880046 0.881390 0.872216 0.874979 0.869982 0.860926 0.854185 0.856966 0.866001 0.873898 0.881880 0.880949 0.881186 0.880415 0.871026 0.872391 0.861493 0.862369 0.867624 0.873327 0.870414 0.867660 0.872286 0.870497 0.871115 0.873845 0.870593 0.868784 0.859632 0.860050 0.862012 0.878287 0.879179 0.867072 0.857378 0.846007 0.853006 0.856126 0.855240 0.856902 0.849252 0.851042 0.840659 0.828055 0.829019 0.834126 0.830060 0.832522 0.831574 0.835954 0.837380 0.836008 0.831908 0.830365 0.834822 0.807575 0.814030 0.816170 0.810417 0.814898 0.806858 0.800196 0.795530 0.794797 0.788759 0.799660 0.798088 0.763747 0.758187 0.765711 0.750105 0.740428 0.737161 0.738461 0.718527 0.704690 0.673935 0.669412 0.653517 0.652409 0.650839 0.640995 0.625536 0.612612 0.599819 0.614944 0.619165 0.594036 0.596075 0.589526 0.585069 0.579430 0.573982 0.572040 0.578382 0.583674 0.549416 0.543011 0.549928 0.522102 0.521176 0.520032 0.510240 0.483069 0.488853 0.484094 0.506100 0.538558 0.490365 0.482099 0.497691 0.513965 0.525797 0.524933 0.511031 0.492517 0.507400 0.484261 0.463635 0.478632 0.483702 0.474095 0.486907 0.478631 0.506975 0.498997 0.477454 0.501228 0.503945 0.499268 0.507949 0.523066 0.517905 0.520572 0.513766 0.468873 0.479971 0.461694 0.404388 0.403174 0.415900 0.403348 0.403990 0.378991 0.380872 0.354359 0.325322 0.327980 0.322206 0.285609 0.250955 0.255902 0.257659 0.228147 0.198090 0.218010 0.170430 0.163422 0.183950 0.190541 0.175105 0.179840 0.201480 0.201480 0.201480 0.201480 0.201480 0.201480 0.201480 0.201480 0.201480 0.201480 0.201480 0.201480 0.201480 0.201480 0.226325 0.226325 0.226325 0.226325 0.226325 0.226325 0.226325 0.226325 0.226325 0.226325 0.226325 0.226325
0.000000 0.000000 0.000000 0.000000 0.000000 0.000000 0.000000 0.000000 0.000000 0.000000 0.000000 0.000000 0.000000 0.000000 0.000000 0.000000 0.000000 0.000000 0.000000 0.000000 0.000000 0.000000 0.000000 0.000000 0.000000 7.000000 4.000000 0.000000 0.000000 0.000000 0.000000 0.000000 0.000000 0.000000 0.000000 0.000000 0.000000 0.000000 0.000000 0.000000 0.000000 0.000000 0.000000 0.000000 0.000000 0.000000 0.000000 0.000000 0.000000 0.000000 0.000000 0.000000 0.209657 0.209657 0.209657 0.209657 0.209657 0.209657 0.209657 0.209657 0.209657 0.209657 0.209657 0.209657 0.209657 0.209657 0.209657 0.209657 0.209657 0.209657 0.209657 0.209657 0.209657 0.209657 0.209657 0.209657 0.209657 0.209657 0.209657 0.209657 0.209657 0.209657 0.209657 0.209657 0.209657 0.244339 0.244339 0.244339 0.244339 0.244339 0.244339 0.244339 0.244339 0.244339 0.244339 0.244339 0.244339 0.244339 0.244339 0.244339 0.244339 0.244339 0.244339 0.244339 0.244339 0.244339 0.244339 0.244339 0.244339 0.244339 0.260378 0.260378 0.260378 0.260378 0.260378 0.260378 0.260378 0.260378 0.260378 0.260378 0.260378 0.260378 0.260378 0.260378 0.260378 0.260378 0.260378 0.260378 0.260378 0.260378 0.269680 0.269680 0.269680 0.269680 0.269680 0.269680 0.269680 0.269680 0.269680 0.269680 0.269680 0.269680 0.269680 0.269680 0.269680 0.269680 0.269680 0.269680 0.269680 0.269680 0.269680 0.269680 0.269680 0.269680 0.269680 0.269680 0.269680 0.269680 0.269680 0.269680 0.269680 0.269680 0.269680 0.280056 0.280056 0.280056 0.280056 0.280056 0.280056 0.280056 0.280056 0.280056 0.280056 0.280056 0.280056 0.280056 0.280056 0.280056 0.280056 0.280056 0.280056 0.280056 0.280056 0.280056 0.280056 0.280056 0.280056 0.280056 0.280056 0.280056 0.274721 0.274721 0.274721 0.274721 0.274721 0.274721 0.274721 0.274721 0.274721 0.274721 0.274721 0.274721 0.274721 0.285714 0.285714 0.285714 0.285714 0.285714 0.285714 0.285714 0.285714 0.285714 0.285714 0.285714 0.280056 0.280056 0.280056 0.280056 0.280056 0.280056 0.280056 0.280056 0.280056 0.280056 0.280056 0.274721 0.274721 0.274721 0.274721 0.274721 0.274721 0.274721 0.274721 0.274721 0.274721 0.274721 0.280056 0.280056 0.280056 0.280056 0.280056 0.280056 0.280056 0.280056 0.280056 0.280056 0.285714 0.285714 0.285714 0.285714 0.285714 0.285714 0.285714 0.285714 0.285714 0.269680 0.269680 0.269680 0.269680 0.269680 0.269680 0.269680 0.269680 0.269680 0.269680 0.274721 0.274721 0.274721 0.274721 0.274721 0.274721 0.274721 0.274721 0.274721 0.285714 0.285714 0.285714 0.285714 0.285714 0.285714 0.285714 0.285714 0.264906 0.264906 0.264906 0.264906 0.264906 0.264906 0.264906 0.264906 0.264906 0.274721 0.274721 0.274721 0.274721 0.274721 0.274721 0.274721 0.274721 0.269680 0.269680 0.269680 0.269680 0.269680 0.269680 0.269680 0.269680 0.269680 0.269680 0.269680 0.269680 0.269680 0.269680 0.269680 0.269680 0.280056 0.280056 0.280056 0.280056 0.280056 0.280056 0.280056 0.260378 0.260378 0.260378 0.260378 0.260378 0.260378 0.260378 0.260378 0.269680 0.269680 0.269680 0.269680 0.269680 0.269680 0.269680 0.264906 0.264906 0.264906 0.264906 0.264906 0.264906 0.264906 0.264906 0.264906 0.264906 0.264906 0.264906 0.264906 0.264906 0.260378 0.260378 0.260378 0.260378 0.260378 0.260378 0.260378 0.260378 0.260378 0.260378 0.260378 0.260378
