# Output from CTFFind version 4.1.9, run on 2019-11-02 17:45:09
# Input file: stack11_bm3d_averaged_1_0.5_0_750_half.mrc ; Number of micrographs: 1
# Pixel size: 3.000 Angstroms ; acceleration voltage: 300.0 keV ; spherical aberration: 0.00 mm ; amplitude contrast: 0.07
# Box size: 512 pixels ; min. res.: 30.0 Angstroms ; max. res.: 5.0 Angstroms ; min. def.: 5000.0 um; max. def. 50000.0 um; num. frames averaged: 1
# 6 lines per micrograph: #1 - spatial frequency (1/Angstroms); #2 - 1D rotational average of spectrum (assuming no astigmatism); #3 - 1D rotational average of spectrum; #4 - CTF fit; #5 - cross-correlation between spectrum and CTF fit; #6 - 2sigma of expected cross correlation of noise
0.000000 0.000651 0.001302 0.001953 0.002604 0.003255 0.003906 0.004557 0.005208 0.005859 0.006510 0.007161 0.007812 0.008464 0.009115 0.009766 0.010417 0.011068 0.011719 0.012370 0.013021 0.013672 0.014323 0.014974 0.015625 0.016276 0.016927 0.017578 0.018229 0.018880 0.019531 0.020182 0.020833 0.021484 0.022135 0.022786 0.023438 0.024089 0.024740 0.025391 0.026042 0.026693 0.027344 0.027995 0.028646 0.029297 0.029948 0.030599 0.031250 0.031901 0.032552 0.033203 0.033854 0.034505 0.035156 0.035807 0.036458 0.037109 0.037760 0.038411 0.039062 0.039714 0.040365 0.041016 0.041667 0.042318 0.042969 0.043620 0.044271 0.044922 0.045573 0.046224 0.046875 0.047526 0.048177 0.048828 0.049479 0.050130 0.050781 0.051432 0.052083 0.052734 0.053385 0.054036 0.054688 0.055339 0.055990 0.056641 0.057292 0.057943 0.058594 0.059245 0.059896 0.060547 0.061198 0.061849 0.062500 0.063151 0.063802 0.064453 0.065104 0.065755 0.066406 0.067057 0.067708 0.068359 0.069010 0.069661 0.070312 0.070964 0.071615 0.072266 0.072917 0.073568 0.074219 0.074870 0.075521 0.076172 0.076823 0.077474 0.078125 0.078776 0.079427 0.080078 0.080729 0.081380 0.082031 0.082682 0.083333 0.083984 0.084635 0.085286 0.085938 0.086589 0.087240 0.087891 0.088542 0.089193 0.089844 0.090495 0.091146 0.091797 0.092448 0.093099 0.093750 0.094401 0.095052 0.095703 0.096354 0.097005 0.097656 0.098307 0.098958 0.099609 0.100260 0.100911 0.101562 0.102214 0.102865 0.103516 0.104167 0.104818 0.105469 0.106120 0.106771 0.107422 0.108073 0.108724 0.109375 0.110026 0.110677 0.111328 0.111979 0.112630 0.113281 0.113932 0.114583 0.115234 0.115885 0.116536 0.117188 0.117839 0.118490 0.119141 0.119792 0.120443 0.121094 0.121745 0.122396 0.123047 0.123698 0.124349 0.125000 0.125651 0.126302 0.126953 0.127604 0.128255 0.128906 0.129557 0.130208 0.130859 0.131510 0.132161 0.132812 0.133464 0.134115 0.134766 0.135417 0.136068 0.136719 0.137370 0.138021 0.138672 0.139323 0.139974 0.140625 0.141276 0.141927 0.142578 0.143229 0.143880 0.144531 0.145182 0.145833 0.146484 0.147135 0.147786 0.148438 0.149089 0.149740 0.150391 0.151042 0.151693 0.152344 0.152995 0.153646 0.154297 0.154948 0.155599 0.156250 0.156901 0.157552 0.158203 0.158854 0.159505 0.160156 0.160807 0.161458 0.162109 0.162760 0.163411 0.164062 0.164714 0.165365 0.166016 0.166667 0.167318 0.167969 0.168620 0.169271 0.169922 0.170573 0.171224 0.171875 0.172526 0.173177 0.173828 0.174479 0.175130 0.175781 0.176432 0.177083 0.177734 0.178385 0.179036 0.179688 0.180339 0.180990 0.181641 0.182292 0.182943 0.183594 0.184245 0.184896 0.185547 0.186198 0.186849 0.187500 0.188151 0.188802 0.189453 0.190104 0.190755 0.191406 0.192057 0.192708 0.193359 0.194010 0.194661 0.195312 0.195964 0.196615 0.197266 0.197917 0.198568 0.199219 0.199870 0.200521 0.201172 0.201823 0.202474 0.203125 0.203776 0.204427 0.205078 0.205729 0.206380 0.207031 0.207682 0.208333 0.208984 0.209635 0.210286 0.210938 0.211589 0.212240 0.212891 0.213542 0.214193 0.214844 0.215495 0.216146 0.216797 0.217448 0.218099 0.218750 0.219401 0.220052 0.220703 0.221354 0.222005 0.222656 0.223307 0.223958 0.224609 0.225260 0.225911 0.226562 0.227214 0.227865 0.228516 0.229167 0.229818 0.230469 0.231120 0.231771 0.232422 0.233073 0.233724 0.234375 0.235026 0.235677
       0.31704        0.31704        0.31704        0.31704        0.31704        0.31704        0.31704        0.31704        0.31704        0.31704        0.31704        0.31704        0.31704        0.31704        0.31704        0.31704        0.31704        0.31704        0.31704        0.31704        0.31704        0.31704        0.31704        0.31704        0.31704        0.31704        0.31704        0.31704        0.31704        0.31704        0.31704        0.31704        0.31704        0.31704        0.31704        0.31704        0.31704        0.31704        0.31704        0.31704        0.31704        0.31704        0.31704        0.31704        0.31704        0.31704        0.31704        0.31704        0.31704        0.31704        0.31704        0.68472        0.87181        0.52305        0.08761       -0.06622       -0.42510       -0.20929       -0.29698       -0.11686       -0.07808       -0.11807       -0.06801       -0.20974       -0.23616       -0.26058       -0.32879       -0.33610       -0.49041       -0.38333       -0.46770       -0.44983       -0.42157       -0.47138       -0.54875       -0.56359       -0.58974       -0.62884       -0.58009       -0.41844       -0.37993       -0.32931       -0.31563       -0.21430       -0.20123        0.01784        0.06956        0.10280        0.22460        0.37253        0.44160        0.51610        0.55939        0.55500        0.57018        0.69954        0.81446        0.74392        0.73451        0.67382        0.58482        0.48699        0.40879        0.49330        0.37487        0.20309        0.07657        0.04749        0.00931       -0.06142       -0.04034       -0.02734       -0.07490       -0.00729       -0.02014        0.20988        0.24873        0.29106        0.43198        0.46807        0.40510        0.53525        0.63187        0.70460        0.76713        0.69216        0.65827        0.70104        0.58799        0.50762        0.41895        0.28859        0.18324        0.15614        0.10543        0.03954        0.01291       -0.00273        0.07534        0.13135        0.20356        0.28426        0.40284        0.41713        0.51523        0.60561        0.63665        0.61533        0.63035        0.55426        0.44662        0.44381        0.35092        0.23121        0.18430        0.14877        0.10713        0.11862        0.06391        0.09693        0.22231        0.26232        0.33960        0.34791        0.45463        0.51388        0.53627        0.55110        0.46919        0.42896        0.39426        0.37371        0.30833        0.25076        0.19899        0.18516        0.15986        0.18880        0.17753        0.26942        0.33141        0.36286        0.42362        0.46259        0.47899        0.44718        0.39362        0.41798        0.37464        0.28875        0.27252        0.22719        0.21334        0.19499        0.21244        0.23038        0.32924        0.37324        0.36447        0.45873        0.44155        0.43895        0.43287        0.39549        0.34520        0.32963        0.27558        0.23512        0.23665        0.26831        0.26876        0.30169        0.30053        0.34094        0.32872        0.41033        0.41848        0.37415        0.34417        0.36417        0.27852        0.28027        0.26213        0.27659        0.25997        0.27929        0.29150        0.31455        0.35382        0.36084        0.36037        0.33097        0.35059        0.28396        0.31964        0.26821        0.25133        0.28500        0.27847        0.30585        0.31376        0.33481        0.32798        0.31374        0.31623        0.28851        0.28848        0.26135        0.28019        0.26518        0.31076        0.28303        0.26321        0.30773        0.31198        0.31887        0.29147        0.30000        0.29291        0.24493        0.23652        0.22134        0.27978        0.27172        0.30975        0.31847        0.31952        0.31538        0.30454        0.27696        0.28442        0.33138        0.27387        0.26784        0.29677        0.29628        0.34029        0.33566        0.36293        0.33108        0.31440        0.27916        0.26329        0.26495        0.22804        0.26912        0.29808        0.29435        0.27789        0.29530        0.27238        0.32237        0.32479        0.24993        0.21662        0.27333        0.33789        0.27763        0.31353        0.32472        0.32720        0.30198        0.32336        0.34383        0.29922        0.29557        0.26572        0.27881        0.35418        0.35064        0.25783        0.26801        0.25313        0.28050        0.22542        0.28990        0.21940        0.25372        0.32675        0.32030        0.34293        0.29584        0.24303        0.24407        0.24329        0.24489        0.18470        0.22307        0.25759        0.29607        0.27949        0.29899        0.29526        0.28334        0.27972        0.21042        0.17537        0.18624        0.23685        0.20453        0.21535        0.23096        0.21112        0.24427        0.33211        0.29536        0.30397        0.22322        0.25598        0.23873        0.28545        0.30756        0.14881        0.20968        0.22507        0.12747        0.22767        0.10735        0.15513        0.17650        0.10444       -0.10230       -0.57142
2.594677 2.567549 2.540569 2.513735 2.487049 2.460510 2.434119 2.407874 2.381777 2.355827 2.330024 2.304369 2.278860 2.253499 2.228285 2.203219 2.178300 2.153527 2.128902 2.104425 2.080094 2.055911 2.031875 2.007986 1.984245 1.960650 1.937203 1.913903 1.890751 1.867745 1.844887 1.822176 1.799612 1.777196 1.754926 1.732804 1.710830 1.689002 1.667321 1.645788 1.624402 1.603164 1.582072 1.561128 1.540331 1.519681 1.499178 1.478823 1.458615 1.438554 1.418640 1.640224 2.045596 1.619203 1.132756 0.988742 0.427766 0.811516 0.566021 0.837536 0.775139 0.789648 0.755876 0.710755 0.564782 0.514164 0.488999 0.449310 0.207759 0.383451 0.205419 0.306073 0.241613 0.181671 0.129710 0.006047 0.044170 -0.015735 -0.054956 0.104360 0.206617 0.199117 0.155651 0.330431 0.198252 0.496332 0.575351 0.547200 0.592528 0.877791 0.807297 0.945659 0.888602 0.973531 0.939763 1.079251 1.141317 1.076329 1.124706 0.952913 0.946022 0.784753 0.653162 0.769184 0.703217 0.463645 0.305515 0.254011 0.213164 0.147474 0.087908 0.124755 0.065059 0.151581 0.051872 0.260435 0.376456 0.356233 0.479374 0.584487 0.468713 0.543541 0.698284 0.747689 0.780729 0.733172 0.729231 0.715499 0.626014 0.571717 0.428733 0.284146 0.202723 0.074772 0.127925 -0.044612 -0.027382 -0.084560 -0.038757 0.003284 0.140690 0.092095 0.301120 0.276453 0.365709 0.458869 0.521183 0.506154 0.517399 0.504700 0.330945 0.306690 0.273301 0.101188 0.046106 -0.004092 -0.036968 -0.042594 -0.095911 -0.107799 -0.020136 0.056620 0.130968 0.134037 0.226945 0.333312 0.303752 0.419335 0.389635 0.281054 0.231617 0.248141 0.206311 0.101469 0.069026 0.014100 0.002675 -0.000374 -0.020403 0.058412 0.145617 0.140080 0.222143 0.252572 0.303568 0.262816 0.219979 0.192335 0.209761 0.149480 0.042551 0.045259 -0.008923 -0.010187 -0.030683 0.016955 0.015019 0.173643 0.122112 0.180809 0.237999 0.200557 0.192456 0.200375 0.135694 0.105479 0.065027 0.041650 -0.037952 0.005989 0.020818 0.052126 0.049025 0.080442 0.097887 0.118255 0.142229 0.186337 0.076649 0.098729 0.069725 -0.000919 0.006916 0.007886 -0.009956 0.020070 0.001568 0.029410 0.071576 0.084575 0.118312 0.049495 0.096101 0.054346 0.008119 0.060680 -0.034314 -0.010642 0.022447 -0.004487 0.051080 0.053360 0.053781 0.054185 0.050742 0.046940 0.019735 0.000863 0.005032 0.011152 -0.016109 0.069388 -0.016860 0.006204 0.052787 0.047604 0.033368 0.043416 0.035159 0.014169 -0.026582 -0.050862 -0.016069 0.013427 0.016068 0.058242 0.059394 0.053253 0.076967 0.060483 0.018134 0.059091 0.083336 0.019013 0.020768 0.056942 0.051076 0.098922 0.106430 0.108652 0.108496 0.061159 0.035057 0.025428 0.005972 -0.007402 0.043746 0.070627 0.037136 0.028245 0.031631 0.020547 0.081999 0.054163 -0.049945 -0.054615 0.029038 0.093015 0.005232 0.030030 0.054104 0.087523 0.025863 0.054447 0.082133 0.033514 0.040692 -0.033400 0.014759 0.112565 0.064910 -0.058100 -0.021766 -0.052139 0.019711 -0.106619 0.033218 -0.111381 -0.029183 0.049573 0.028585 0.027789 -0.042657 -0.058795 -0.081466 -0.078434 -0.062603 -0.121935 -0.099142 -0.039088 0.017383 -0.023334 0.032156 -0.013507 -0.035874 0.051207 -0.105830 -0.095285 -0.096824 -0.002382 -0.047910 -0.042371 0.003776 0.016765 0.008931 0.176197 -0.008344 0.142168 0.011695 0.262621 0.257224 0.324848 0.285891 0.115523 0.212450 0.269052 0.058629 0.248698 0.113819 0.118940 0.242478 0.105821 -0.589562
0.072396 0.072899 0.074406 0.076917 0.080433 0.084951 0.090471 0.096992 0.104510 0.113023 0.122528 0.133020 0.144495 0.156945 0.170363 0.184740 0.200065 0.216325 0.233505 0.251588 0.270553 0.290378 0.311037 0.332500 0.354735 0.377704 0.401366 0.425675 0.450580 0.476025 0.501950 0.528287 0.554964 0.581901 0.609014 0.636211 0.663393 0.690456 0.717288 0.743770 0.769776 0.795175 0.819827 0.843587 0.866305 0.887823 0.907979 0.926607 0.943535 0.958590 0.971596 0.982374 0.990747 0.996537 0.999569 0.999673 0.996682 0.990437 0.980786 0.967591 0.950724 0.930071 0.905537 0.877043 0.844534 0.807975 0.767360 0.722708 0.674069 0.621524 0.565189 0.505215 0.441789 0.375138 0.305527 0.233261 0.158687 0.082191 0.004200 0.074822 0.154371 0.233911 0.312869 0.390647 0.466619 0.540138 0.610543 0.677161 0.739318 0.796343 0.847575 0.892375 0.930132 0.960270 0.982263 0.995640 0.999996 0.995000 0.980408 0.956068 0.921929 0.878051 0.824608 0.761896 0.690338 0.610481 0.523005 0.428714 0.328542 0.223536 0.114861 0.003783 0.108345 0.220090 0.329961 0.436428 0.537944 0.632963 0.719970 0.797508 0.864198 0.918774 0.960105 0.987228 0.999368 0.995964 0.976694 0.941489 0.890553 0.824372 0.743718 0.649656 0.543532 0.426972 0.301851 0.170287 0.034592 0.102748 0.239127 0.371859 0.498236 0.615580 0.721308 0.812986 0.888398 0.945600 0.982979 0.999310 0.993796 0.966114 0.916443 0.845480 0.754454 0.645114 0.519713 0.380975 0.232044 0.076423 0.082096 0.239533 0.391799 0.534822 0.664642 0.777537 0.870133 0.939515 0.983332 0.999886 0.988214 0.948144 0.880335 0.786290 0.668350 0.529650 0.374057 0.206077 0.030736 0.146559 0.320187 0.484483 0.633932 0.763353 0.868097 0.944225 0.988669 0.999380 0.975435 0.917115 0.825940 0.704663 0.557207 0.388575 0.204684 0.012188 0.181754 0.369747 0.544431 0.698780 0.826398 0.921792 0.980636 0.999988 0.978463 0.916345 0.815632 0.680012 0.514760 0.326570 0.123294 0.086356 0.293173 0.487854 0.661430 0.805682 0.913553 0.979518 0.999897 0.973090 0.899726 0.782702 0.627112 0.440071 0.230420 0.008331 0.215159 0.428695 0.621179 0.782365 0.903415 0.977421 0.999832 0.968773 0.885230 0.753083 0.578979 0.372041 0.143436 0.094211 0.327486 0.542945 0.727893 0.871159 0.963793 0.999673 0.975953 0.893332 0.756115 0.572046 0.351929 0.109040 0.141646 0.384357 0.603520 0.784761 0.915892 0.987755 0.994927 0.936176 0.814664 0.637848 0.417094 0.166997 0.095545 0.352431 0.585628 0.778423 0.916664 0.989845 0.991962 0.922069 0.784481 0.588597 0.348316 0.081129 0.193123 0.453700 0.680533 0.855788 0.965319 0.999864 0.955903 0.836085 0.649164 0.409453 0.135797 0.149860 0.424203 0.664436 0.850223 0.965429 0.999609 0.949028 0.817145 0.614485 0.357903 0.069247 0.226445 0.503080 0.735838 0.903409 0.990022 0.987006 0.893752 0.717956 0.475098 0.187168 0.119242 0.415359 0.672925 0.866916 0.978034 0.994715 0.914427 0.744133 0.499803 0.205035 0.111149 0.417112 0.681754 0.877708 0.984230 0.989493 0.892016 0.701039 0.435788 0.123650 0.202574 0.508073 0.759743 0.929809 0.998991 0.958794 0.812674 0.575912 0.274150 0.059284 0.386973 0.671614 0.880268 0.988270 0.982241 0.861890 0.640317 0.342737 0.003741 0.336651 0.637663 0.862695 0.983826 0.985411 0.866244 0.639996 0.333812 0.014811 0.362527 0.665492 0.884923 0.992163 0.972534 0.827519 0.574889 0.246676 0.114726
1.000000 1.000000 1.000000 1.000000 1.000000 1.000000 1.000000 1.000000 1.000000 1.000000 1.000000 1.000000 1.000000 1.000000 1.000000 1.000000 1.000000 1.000000 1.000000 1.000000 1.000000 1.000000 1.000000 1.000000 1.000000 1.000000 1.000000 1.000000 1.000000 1.000000 1.000000 1.000000 1.000000 1.000000 1.000000 1.000000 1.000000 1.000000 1.000000 1.000000 1.000000 1.000000 1.000000 1.000000 1.000000 1.000000 1.000000 1.000000 1.000000 1.000000 1.000000 1.000000 0.933445 0.933445 0.933445 0.924292 0.924292 0.924292 0.924292 0.924292 0.924292 0.924292 0.924292 0.924292 0.924292 0.924292 0.924292 0.924292 0.924292 0.924292 0.924292 0.924292 0.924292 0.924292 0.924292 0.924292 0.924292 0.924292 0.924292 0.924292 0.924292 0.924292 0.924292 0.924292 0.924292 0.924292 0.924292 0.924292 0.924292 0.924292 0.924292 0.924292 0.924292 0.924292 0.924292 0.924292 0.950198 0.951399 0.959246 0.959079 0.958577 0.956483 0.955573 0.954455 0.954004 0.954276 0.954880 0.955710 0.967451 0.968464 0.969993 0.970794 0.971502 0.972160 0.972019 0.972819 0.972077 0.971551 0.971056 0.967128 0.967743 0.968336 0.968518 0.969566 0.969453 0.971690 0.971799 0.971234 0.970410 0.969727 0.969069 0.968681 0.968413 0.968900 0.969164 0.970420 0.973553 0.972977 0.972657 0.972816 0.972920 0.973090 0.973482 0.974245 0.970386 0.968879 0.967233 0.965069 0.969257 0.966418 0.966193 0.967555 0.967937 0.968334 0.967381 0.963428 0.958448 0.957393 0.954915 0.945275 0.943956 0.944659 0.946919 0.947305 0.945879 0.938305 0.938883 0.931811 0.933841 0.937079 0.931071 0.930864 0.932022 0.931369 0.930214 0.929653 0.926667 0.924069 0.922491 0.922377 0.925381 0.925672 0.926861 0.926659 0.921007 0.913075 0.900760 0.898686 0.894542 0.897607 0.886479 0.886481 0.886316 0.882038 0.885372 0.885170 0.886062 0.882981 0.866111 0.848446 0.842223 0.846350 0.851327 0.846856 0.845819 0.838973 0.850071 0.831088 0.843520 0.853797 0.850824 0.850446 0.849870 0.847909 0.842919 0.843822 0.845510 0.847021 0.845533 0.845129 0.844476 0.829045 0.831236 0.767538 0.750471 0.742151 0.747901 0.754486 0.756933 0.755814 0.761324 0.766051 0.753273 0.735179 0.727720 0.720841 0.725047 0.723197 0.725148 0.710090 0.677870 0.672890 0.642761 0.660162 0.671929 0.632929 0.656757 0.667722 0.666286 0.664501 0.658326 0.655382 0.650753 0.653539 0.661020 0.673691 0.690550 0.713246 0.709426 0.699986 0.697082 0.678549 0.672919 0.666932 0.679451 0.660042 0.657125 0.675028 0.675148 0.661053 0.638994 0.628150 0.620237 0.611985 0.620924 0.610055 0.604887 0.592542 0.567172 0.561756 0.595714 0.611866 0.633802 0.604542 0.590678 0.577545 0.555386 0.568652 0.512551 0.512521 0.535200 0.543277 0.521192 0.514978 0.526846 0.533727 0.534310 0.523937 0.509278 0.498298 0.514429 0.550044 0.540188 0.522959 0.525523 0.523453 0.513015 0.423117 0.417094 0.389150 0.354470 0.300614 0.277823 0.270381 0.255053 0.246564 0.211745 0.207739 0.219039 0.225464 0.235931 0.238392 0.219956 0.230184 0.226485 0.212857 0.150725 0.140010 0.132306 0.121518 0.120494 0.100625 0.125988 0.190222 0.192192 0.192192 0.192192 0.192192 0.192192 0.192192 0.201381 0.201381 0.201381 0.201381 0.201381 0.201381 0.201381 0.201381 0.201381 0.209167 0.209167 0.209167 0.209167 0.209167 0.209167 0.209167 0.209167 0.209167 0.209167 0.209167 0.209167 0.209167 0.209167
0.000000 0.000000 0.000000 0.000000 0.000000 0.000000 0.000000 0.000000 0.000000 0.000000 0.000000 0.000000 0.000000 0.000000 0.000000 0.000000 0.000000 0.000000 0.000000 0.000000 0.000000 0.000000 0.000000 0.000000 0.000000 0.000000 0.000000 0.000000 0.000000 0.000000 0.000000 0.000000 0.000000 0.000000 0.000000 0.000000 0.000000 0.000000 0.000000 0.000000 0.000000 0.000000 0.000000 0.000000 0.000000 0.000000 0.000000 0.000000 0.000000 0.000000 0.000000 0.000000 0.180334 0.180334 0.180334 0.199007 0.199007 0.199007 0.199007 0.199007 0.199007 0.199007 0.199007 0.199007 0.199007 0.199007 0.199007 0.199007 0.199007 0.199007 0.199007 0.199007 0.199007 0.199007 0.199007 0.199007 0.199007 0.199007 0.199007 0.199007 0.199007 0.199007 0.199007 0.199007 0.199007 0.199007 0.199007 0.199007 0.199007 0.199007 0.199007 0.199007 0.199007 0.199007 0.199007 0.199007 0.225018 0.225018 0.225018 0.225018 0.225018 0.225018 0.225018 0.225018 0.225018 0.225018 0.225018 0.225018 0.225018 0.225018 0.225018 0.225018 0.225018 0.225018 0.225018 0.225018 0.225018 0.225018 0.225018 0.225018 0.225018 0.225018 0.225018 0.225018 0.225018 0.244339 0.244339 0.244339 0.244339 0.244339 0.244339 0.244339 0.244339 0.244339 0.244339 0.244339 0.244339 0.244339 0.244339 0.244339 0.244339 0.244339 0.244339 0.244339 0.244339 0.244339 0.244339 0.244339 0.251976 0.251976 0.251976 0.251976 0.251976 0.251976 0.251976 0.251976 0.251976 0.251976 0.251976 0.251976 0.251976 0.251976 0.251976 0.251976 0.251976 0.251976 0.251976 0.251976 0.264906 0.264906 0.264906 0.264906 0.264906 0.264906 0.264906 0.264906 0.264906 0.264906 0.264906 0.264906 0.264906 0.264906 0.264906 0.264906 0.264906 0.264906 0.264906 0.264906 0.264906 0.264906 0.264906 0.264906 0.264906 0.264906 0.264906 0.264906 0.264906 0.264906 0.264906 0.264906 0.264906 0.264906 0.264906 0.264906 0.264906 0.264906 0.264906 0.264906 0.264906 0.264906 0.264906 0.264906 0.264906 0.264906 0.264906 0.264906 0.264906 0.264906 0.264906 0.264906 0.264906 0.264906 0.264906 0.264906 0.264906 0.264906 0.264906 0.264906 0.264906 0.264906 0.256074 0.256074 0.256074 0.256074 0.256074 0.256074 0.256074 0.256074 0.256074 0.256074 0.256074 0.256074 0.256074 0.256074 0.269680 0.269680 0.269680 0.269680 0.269680 0.269680 0.269680 0.269680 0.269680 0.269680 0.269680 0.269680 0.264906 0.264906 0.264906 0.264906 0.264906 0.264906 0.264906 0.264906 0.264906 0.264906 0.264906 0.264906 0.269680 0.269680 0.269680 0.269680 0.269680 0.269680 0.269680 0.269680 0.269680 0.269680 0.269680 0.264906 0.264906 0.264906 0.264906 0.264906 0.264906 0.264906 0.264906 0.264906 0.264906 0.264906 0.256074 0.256074 0.256074 0.256074 0.256074 0.256074 0.256074 0.256074 0.256074 0.256074 0.256074 0.264906 0.264906 0.264906 0.264906 0.264906 0.264906 0.264906 0.264906 0.264906 0.264906 0.260378 0.260378 0.260378 0.260378 0.260378 0.260378 0.260378 0.260378 0.260378 0.260378 0.256074 0.256074 0.256074 0.256074 0.256074 0.256074 0.256074 0.256074 0.256074 0.256074 0.260378 0.260378 0.260378 0.260378 0.260378 0.260378 0.260378 0.260378 0.260378 0.256074 0.256074 0.256074 0.256074 0.256074 0.256074 0.256074 0.256074 0.256074 0.251976 0.251976 0.251976 0.251976 0.251976 0.251976 0.251976 0.251976 0.251976 0.251976 0.251976 0.251976 0.251976 0.251976
