# Output from CTFFind version 4.1.9, run on 2019-11-03 20:09:28
# Input file: stack6_bm3d_averaged_1_6.0_0_2500_half.mrc ; Number of micrographs: 1
# Pixel size: 3.000 Angstroms ; acceleration voltage: 300.0 keV ; spherical aberration: 0.00 mm ; amplitude contrast: 0.07
# Box size: 512 pixels ; min. res.: 30.0 Angstroms ; max. res.: 5.0 Angstroms ; min. def.: 5000.0 um; max. def. 50000.0 um; num. frames averaged: 1
# 6 lines per micrograph: #1 - spatial frequency (1/Angstroms); #2 - 1D rotational average of spectrum (assuming no astigmatism); #3 - 1D rotational average of spectrum; #4 - CTF fit; #5 - cross-correlation between spectrum and CTF fit; #6 - 2sigma of expected cross correlation of noise
0.000000 0.000651 0.001302 0.001953 0.002604 0.003255 0.003906 0.004557 0.005208 0.005859 0.006510 0.007161 0.007812 0.008464 0.009115 0.009766 0.010417 0.011068 0.011719 0.012370 0.013021 0.013672 0.014323 0.014974 0.015625 0.016276 0.016927 0.017578 0.018229 0.018880 0.019531 0.020182 0.020833 0.021484 0.022135 0.022786 0.023438 0.024089 0.024740 0.025391 0.026042 0.026693 0.027344 0.027995 0.028646 0.029297 0.029948 0.030599 0.031250 0.031901 0.032552 0.033203 0.033854 0.034505 0.035156 0.035807 0.036458 0.037109 0.037760 0.038411 0.039062 0.039714 0.040365 0.041016 0.041667 0.042318 0.042969 0.043620 0.044271 0.044922 0.045573 0.046224 0.046875 0.047526 0.048177 0.048828 0.049479 0.050130 0.050781 0.051432 0.052083 0.052734 0.053385 0.054036 0.054688 0.055339 0.055990 0.056641 0.057292 0.057943 0.058594 0.059245 0.059896 0.060547 0.061198 0.061849 0.062500 0.063151 0.063802 0.064453 0.065104 0.065755 0.066406 0.067057 0.067708 0.068359 0.069010 0.069661 0.070312 0.070964 0.071615 0.072266 0.072917 0.073568 0.074219 0.074870 0.075521 0.076172 0.076823 0.077474 0.078125 0.078776 0.079427 0.080078 0.080729 0.081380 0.082031 0.082682 0.083333 0.083984 0.084635 0.085286 0.085938 0.086589 0.087240 0.087891 0.088542 0.089193 0.089844 0.090495 0.091146 0.091797 0.092448 0.093099 0.093750 0.094401 0.095052 0.095703 0.096354 0.097005 0.097656 0.098307 0.098958 0.099609 0.100260 0.100911 0.101562 0.102214 0.102865 0.103516 0.104167 0.104818 0.105469 0.106120 0.106771 0.107422 0.108073 0.108724 0.109375 0.110026 0.110677 0.111328 0.111979 0.112630 0.113281 0.113932 0.114583 0.115234 0.115885 0.116536 0.117188 0.117839 0.118490 0.119141 0.119792 0.120443 0.121094 0.121745 0.122396 0.123047 0.123698 0.124349 0.125000 0.125651 0.126302 0.126953 0.127604 0.128255 0.128906 0.129557 0.130208 0.130859 0.131510 0.132161 0.132812 0.133464 0.134115 0.134766 0.135417 0.136068 0.136719 0.137370 0.138021 0.138672 0.139323 0.139974 0.140625 0.141276 0.141927 0.142578 0.143229 0.143880 0.144531 0.145182 0.145833 0.146484 0.147135 0.147786 0.148438 0.149089 0.149740 0.150391 0.151042 0.151693 0.152344 0.152995 0.153646 0.154297 0.154948 0.155599 0.156250 0.156901 0.157552 0.158203 0.158854 0.159505 0.160156 0.160807 0.161458 0.162109 0.162760 0.163411 0.164062 0.164714 0.165365 0.166016 0.166667 0.167318 0.167969 0.168620 0.169271 0.169922 0.170573 0.171224 0.171875 0.172526 0.173177 0.173828 0.174479 0.175130 0.175781 0.176432 0.177083 0.177734 0.178385 0.179036 0.179688 0.180339 0.180990 0.181641 0.182292 0.182943 0.183594 0.184245 0.184896 0.185547 0.186198 0.186849 0.187500 0.188151 0.188802 0.189453 0.190104 0.190755 0.191406 0.192057 0.192708 0.193359 0.194010 0.194661 0.195312 0.195964 0.196615 0.197266 0.197917 0.198568 0.199219 0.199870 0.200521 0.201172 0.201823 0.202474 0.203125 0.203776 0.204427 0.205078 0.205729 0.206380 0.207031 0.207682 0.208333 0.208984 0.209635 0.210286 0.210938 0.211589 0.212240 0.212891 0.213542 0.214193 0.214844 0.215495 0.216146 0.216797 0.217448 0.218099 0.218750 0.219401 0.220052 0.220703 0.221354 0.222005 0.222656 0.223307 0.223958 0.224609 0.225260 0.225911 0.226562 0.227214 0.227865 0.228516 0.229167 0.229818 0.230469 0.231120 0.231771 0.232422 0.233073 0.233724 0.234375 0.235026 0.235677
       0.31683        0.31683        0.31683        0.31683        0.31683        0.31683        0.31683        0.31683        0.31683        0.31683        0.31683        0.31683        0.31683        0.31683        0.31683        0.31683        0.31683        0.31683        0.31683        0.31683        0.31683        0.31683        0.31683        0.31683        0.31683        0.31683        0.31683        0.31683        0.31683        0.31683        0.31683        0.31683        0.31683        0.31683        0.31683        0.31683        0.31683        0.31683        0.31683        0.31683        0.31683        0.31683        0.31683        0.31683        0.31683        0.31683        0.31683        0.31683        0.31683        0.31683        0.31683        0.59790        0.71862        0.35796        0.17948        0.12956       -0.14334        0.10852        0.03225        0.03510        0.09006        0.30679        0.31933        0.24567        0.14453       -0.03917       -0.01314        0.04330       -0.11806       -0.12526       -0.08026       -0.09503       -0.20855       -0.13590       -0.25072       -0.26720       -0.26380       -0.32666       -0.40305       -0.33943       -0.24689       -0.21634       -0.31830       -0.23498       -0.28719       -0.22807       -0.15534       -0.10084       -0.06649       -0.00090        0.03757        0.13219        0.17474        0.21622        0.33814        0.40533        0.35611        0.46749        0.54578        0.55446        0.63594        0.56776        0.59979        0.59943        0.60864        0.60896        0.55366        0.57921        0.54643        0.39090        0.33388        0.36751        0.34405        0.19751        0.17277        0.14559        0.09247        0.09775        0.01600        0.07458        0.05441        0.01193        0.10613        0.16818        0.26286        0.35207        0.34796        0.37572        0.45229        0.48765        0.41766        0.64595        0.53868        0.48156        0.57206        0.49866        0.53944        0.50210        0.37126        0.30911        0.28500        0.23543        0.22513        0.19960        0.17906        0.14403        0.22383        0.20468        0.24126        0.21034        0.26734        0.31967        0.33451        0.44380        0.43651        0.41444        0.42346        0.47114        0.43847        0.42743        0.39324        0.40061        0.33604        0.28513        0.24926        0.25372        0.24946        0.19618        0.17161        0.22851        0.23655        0.27345        0.34471        0.36376        0.41578        0.39750        0.43045        0.46626        0.45745        0.42659        0.38852        0.41319        0.37091        0.32617        0.33293        0.31508        0.25815        0.27663        0.27426        0.23878        0.30471        0.28068        0.29526        0.32138        0.38050        0.41193        0.40410        0.42926        0.37575        0.41559        0.39112        0.30929        0.28726        0.24958        0.26463        0.22817        0.20313        0.29430        0.35274        0.32055        0.29268        0.34744        0.27179        0.33022        0.38253        0.37278        0.36060        0.38263        0.32965        0.34744        0.32978        0.28989        0.28126        0.24513        0.29720        0.30991        0.32370        0.33962        0.37888        0.37356        0.37200        0.32673        0.34987        0.34270        0.32655        0.32147        0.29049        0.28606        0.25627        0.32385        0.33029        0.32564        0.29645        0.33353        0.33860        0.33162        0.34648        0.32485        0.29165        0.29104        0.29447        0.26788        0.25019        0.24139        0.24640        0.26374        0.25042        0.29073        0.28206        0.32175        0.33113        0.26529        0.29952        0.27527        0.21850        0.26970        0.25127        0.24630        0.28252        0.30853        0.30609        0.30144        0.30169        0.29865        0.31628        0.33581        0.28495        0.31532        0.31188        0.36030        0.28297        0.26899        0.26521        0.31020        0.31989        0.33081        0.34730        0.30974        0.22935        0.28849        0.25376        0.24694        0.24790        0.25154        0.28873        0.22877        0.29865        0.31791        0.35289        0.31322        0.29120        0.25545        0.27618        0.28179        0.23856        0.26193        0.27800        0.30914        0.33531        0.31641        0.29320        0.28106        0.31556        0.26474        0.23335        0.19148        0.29877        0.33791        0.32933        0.31215        0.29738        0.23754        0.21266        0.24690        0.24766        0.24558        0.27047        0.28136        0.25118        0.25161        0.23390        0.28771        0.25286        0.25139        0.26245        0.25722        0.18452        0.23727        0.24465        0.23236        0.29244        0.24974        0.25060        0.21032        0.21703        0.26621        0.22212        0.23077        0.15181        0.15182        0.31919        0.20229        0.20723        0.29011        0.17333        0.16183        0.13848        0.24963        0.17772        0.16086       -0.05336       -0.59415       -0.92170
2.317977 2.298259 2.278629 2.259087 2.239633 2.220267 2.200990 2.181800 2.162698 2.143684 2.124759 2.105921 2.087172 2.068510 2.049937 2.031451 2.013054 1.994744 1.976523 1.958390 1.940344 1.922387 1.904518 1.886737 1.869044 1.851439 1.833921 1.816492 1.799151 1.781899 1.764734 1.747657 1.730668 1.713767 1.696954 1.680230 1.663593 1.647044 1.630584 1.614211 1.597927 1.581730 1.565622 1.549601 1.533669 1.517825 1.502068 1.486400 1.470820 1.455328 1.439923 1.799432 2.130549 1.473845 1.323848 1.076228 0.522289 0.909579 0.818450 0.828640 0.699857 1.372395 1.197912 1.212248 0.972336 0.625993 0.484256 0.745028 0.572188 0.252404 0.295948 0.477952 0.228578 0.254440 0.108594 0.002555 -0.015951 -0.010436 -0.301764 -0.168838 -0.004498 -0.034531 -0.096539 -0.018059 -0.130286 -0.111644 0.062143 0.166836 0.234619 0.272346 0.356581 0.599387 0.546453 0.624123 0.818283 1.014805 0.796167 1.202948 1.158964 1.225099 1.330789 1.231161 1.177068 1.319913 1.205209 1.335332 1.162258 1.122737 1.186616 0.949097 0.663681 0.724640 0.775950 0.479736 0.406089 0.355355 0.204361 0.192656 0.042464 0.188397 0.152917 0.019631 0.111891 0.227816 0.342277 0.602335 0.593564 0.569398 0.702172 0.873447 0.581909 1.015374 1.008440 0.755534 0.910640 0.753628 0.835541 0.870722 0.601084 0.392495 0.395126 0.335396 0.212890 0.187320 0.170645 -0.010863 0.199423 0.165774 0.234858 0.122999 0.262306 0.320276 0.282630 0.486589 0.590042 0.513415 0.362251 0.672440 0.552063 0.467728 0.504714 0.440654 0.303434 0.329747 0.123930 0.191188 0.042839 0.193486 -0.065475 0.051987 0.037652 0.238568 0.086201 0.374093 0.322347 0.377824 0.398140 0.398440 0.563431 0.399853 0.376648 0.426652 0.224859 0.328092 0.152415 0.263891 0.078966 0.119907 0.095823 0.084109 0.044841 0.157714 0.064192 0.146145 0.236213 0.277284 0.344217 0.269667 0.336348 0.256295 0.295901 0.180298 0.097913 0.037835 -0.008998 0.019557 -0.084436 -0.059540 0.108260 0.204506 0.068552 0.108720 0.108065 0.024113 0.175624 0.231024 0.183341 0.222209 0.139687 0.135645 0.111580 0.104686 0.053506 -0.074336 -0.023123 0.141194 0.008598 0.135594 0.102586 0.228482 0.212916 0.184102 0.133759 0.185988 0.101242 0.117131 0.114362 0.047506 -0.008513 0.017335 0.122894 0.133370 0.109700 0.051490 0.144897 0.115131 0.066936 0.129527 0.030330 -0.015746 0.023811 -0.004049 -0.043013 -0.076245 -0.099728 -0.035300 -0.059899 -0.079295 0.014638 0.005082 0.083839 0.075005 -0.057363 0.058310 -0.047808 -0.111639 0.025316 -0.067356 -0.080506 0.039786 0.069014 0.024996 0.057494 -0.030522 0.048309 0.128999 -0.015271 -0.012499 0.087942 0.039339 0.127088 -0.053586 -0.031274 -0.046992 0.100953 0.032200 0.069108 0.141515 0.016085 -0.096198 0.005695 -0.048322 -0.060977 -0.055729 -0.054840 0.021661 -0.134489 0.106730 0.075826 0.173810 0.042039 -0.006079 -0.010495 0.013622 0.055207 -0.070928 0.029580 0.020703 0.114773 0.109616 0.132994 0.081938 0.074587 0.168362 -0.025281 0.009256 -0.125717 0.162719 0.174604 0.153984 0.135060 0.065524 -0.030012 -0.071128 -0.027952 -0.000390 -0.010373 0.035104 0.084411 -0.012911 0.004530 0.027444 0.078662 0.059747 0.050088 0.075804 0.014813 -0.039290 0.030316 0.060541 0.022225 0.161502 0.056852 0.019570 0.056749 0.045283 0.111741 0.135797 0.077094 -0.057153 -0.156085 0.424909 0.439895 0.348544 0.553824 0.259437 0.293934 0.196529 0.539873 0.332237 0.316271 0.197144 -0.859380
0.072396 0.072838 0.074163 0.076371 0.079462 0.083435 0.088289 0.094022 0.100634 0.108122 0.116484 0.125716 0.135815 0.146776 0.158594 0.171262 0.184772 0.199116 0.214282 0.230259 0.247032 0.264586 0.282903 0.301961 0.321739 0.342209 0.363344 0.385111 0.407474 0.430396 0.453833 0.477738 0.502061 0.526747 0.551735 0.576960 0.602354 0.627843 0.653346 0.678779 0.704051 0.729069 0.753731 0.777931 0.801559 0.824499 0.846629 0.867825 0.887956 0.906890 0.924488 0.940610 0.955112 0.967851 0.978680 0.987451 0.994019 0.998237 0.999964 0.999060 0.995388 0.988821 0.979236 0.966518 0.950564 0.931282 0.908590 0.882425 0.852736 0.819493 0.782682 0.742313 0.698416 0.651047 0.600285 0.546238 0.489041 0.428857 0.365881 0.300336 0.232478 0.162594 0.091002 0.018050 0.055883 0.130388 0.205031 0.279348 0.352856 0.425047 0.495396 0.563366 0.628407 0.689964 0.747479 0.800402 0.848190 0.890315 0.926273 0.955588 0.977820 0.992569 0.999485 0.998277 0.988713 0.970632 0.943948 0.908657 0.864842 0.812675 0.752424 0.684454 0.609231 0.527317 0.439375 0.346165 0.248540 0.147440 0.043885 0.061028 0.166143 0.270251 0.372106 0.470437 0.563965 0.651424 0.731572 0.803218 0.865233 0.916578 0.956321 0.983654 0.997916 0.998607 0.985407 0.958192 0.917039 0.862242 0.794319 0.714007 0.622269 0.520285 0.409446 0.291336 0.167716 0.040506 0.088250 0.216406 0.341757 0.462066 0.575119 0.678750 0.770902 0.849658 0.913296 0.960323 0.989521 0.999980 0.991137 0.962795 0.915150 0.848800 0.764752 0.664419 0.549605 0.422480 0.285552 0.141622 0.006269 0.154897 0.300927 0.440980 0.571721 0.689935 0.792613 0.877034 0.940842 0.982127 0.999484 0.992074 0.959665 0.902665 0.822136 0.719788 0.597962 0.459586 0.308120 0.147478 0.018066 0.183983 0.345614 0.498297 0.637510 0.759000 0.858929 0.934004 0.981593 0.999836 0.987727 0.945176 0.873050 0.773168 0.648289 0.502048 0.338864 0.163824 0.017463 0.199040 0.374797 0.538674 0.684877 0.808085 0.903659 0.967832 0.997874 0.992225 0.950588 0.873990 0.764777 0.626575 0.464192 0.283467 0.091080 0.105682 0.299199 0.481803 0.646095 0.785242 0.893285 0.965408 0.998170 0.989698 0.939809 0.850073 0.723801 0.565943 0.382939 0.182460 0.026882 0.235900 0.435226 0.615737 0.768976 0.887568 0.965597 0.998919 0.985421 0.925170 0.820481 0.675864 0.497862 0.294798 0.076395 0.146661 0.363236 0.562304 0.733521 0.867767 0.957665 0.998014 0.986118 0.922006 0.808499 0.651135 0.457938 0.239048 0.006209 0.227834 0.450029 0.647754 0.809529 0.925727 0.989163 0.995583 0.943987 0.836772 0.679681 0.481538 0.253798 0.009912 0.235431 0.467203 0.670938 0.833664 0.944749 0.996643 0.985427 0.911160 0.777971 0.593885 0.370404 0.121820 0.135662 0.384967 0.609279 0.793179 0.923751 0.991510 0.991152 0.922021 0.788260 0.598637 0.366026 0.106581 0.161341 0.418481 0.646035 0.827068 0.947796 0.998685 0.975268 0.878586 0.715243 0.497021 0.240102 0.036101 0.310362 0.561273 0.768927 0.916516 0.991754 0.987952 0.904681 0.747947 0.529842 0.267673 0.017345 0.301778 0.561874 0.775578 0.924413 0.995148 0.981031 0.882517 0.707374 0.470168 0.191118 0.105567 0.393759 0.647693 0.844311 0.965377 0.999256 0.942097 0.798357 0.580554 0.308267 0.006448 0.296823 0.572914 0.795383 0.942524 0.999570 0.960250 0.827572 0.613716 0.339009 0.030078 0.282680 0.568056 0.797160 0.946401 0.999962
1.000000 1.000000 1.000000 1.000000 1.000000 1.000000 1.000000 1.000000 1.000000 1.000000 1.000000 1.000000 1.000000 1.000000 1.000000 1.000000 1.000000 1.000000 1.000000 1.000000 1.000000 1.000000 1.000000 1.000000 1.000000 1.000000 1.000000 1.000000 1.000000 1.000000 1.000000 1.000000 1.000000 1.000000 1.000000 1.000000 1.000000 1.000000 1.000000 1.000000 1.000000 1.000000 1.000000 1.000000 1.000000 1.000000 1.000000 1.000000 1.000000 1.000000 1.000000 1.000000 0.781227 0.781227 0.781227 0.781227 0.781227 0.781227 0.781227 0.766408 0.766408 0.766408 0.766408 0.766408 0.766408 0.766408 0.766408 0.766408 0.766408 0.766408 0.766408 0.766408 0.766408 0.766408 0.766408 0.766408 0.766408 0.766408 0.766408 0.766408 0.766408 0.766408 0.766408 0.766408 0.766408 0.766408 0.766408 0.766408 0.766408 0.766408 0.766408 0.766408 0.766408 0.766408 0.766408 0.766408 0.766408 0.766408 0.766408 0.766408 0.766408 0.766408 0.766408 0.911497 0.912800 0.915519 0.910437 0.912256 0.910198 0.903747 0.906711 0.906008 0.905855 0.906813 0.908080 0.909931 0.914967 0.921411 0.923209 0.930934 0.934268 0.935546 0.935598 0.932687 0.940218 0.937841 0.936097 0.924212 0.927492 0.927121 0.927275 0.926089 0.926208 0.927481 0.927402 0.925285 0.923452 0.921247 0.919449 0.920007 0.919594 0.919777 0.919948 0.920139 0.920567 0.921151 0.917293 0.919554 0.918435 0.914863 0.911532 0.911091 0.912224 0.905350 0.901969 0.892619 0.893814 0.892730 0.897915 0.894344 0.893427 0.894656 0.895419 0.896080 0.894033 0.894086 0.891648 0.893434 0.890048 0.885785 0.882151 0.882567 0.884289 0.891628 0.894293 0.893410 0.889858 0.883138 0.873703 0.871280 0.857899 0.829387 0.830403 0.833545 0.835372 0.836252 0.835605 0.833843 0.829520 0.820826 0.812102 0.816736 0.816407 0.808372 0.798381 0.798830 0.795726 0.803327 0.806562 0.798110 0.800787 0.798554 0.796956 0.797764 0.797542 0.797019 0.791640 0.793627 0.802316 0.802923 0.793075 0.787565 0.783283 0.762988 0.765949 0.772440 0.780492 0.781703 0.776769 0.762689 0.771302 0.766154 0.781769 0.794975 0.793372 0.789575 0.768868 0.726794 0.714318 0.703518 0.706169 0.707993 0.693776 0.687129 0.688028 0.692668 0.643613 0.630305 0.618914 0.617897 0.626481 0.630856 0.624771 0.589121 0.607295 0.604615 0.587399 0.583858 0.549316 0.531125 0.485221 0.487813 0.484886 0.460369 0.444934 0.434745 0.449712 0.460544 0.458799 0.457513 0.428247 0.411384 0.412963 0.412571 0.417250 0.416850 0.423666 0.378734 0.357724 0.344639 0.366125 0.368191 0.368076 0.378231 0.379952 0.378703 0.359867 0.343294 0.334225 0.348567 0.366755 0.375886 0.377725 0.344561 0.327073 0.304967 0.311451 0.353197 0.343866 0.347441 0.341119 0.346674 0.368582 0.353440 0.331876 0.311188 0.349397 0.346227 0.337893 0.311646 0.311910 0.330912 0.333411 0.329118 0.318482 0.351503 0.380952 0.372829 0.379181 0.365765 0.399395 0.448992 0.435382 0.431920 0.456125 0.448290 0.443210 0.417891 0.405629 0.403093 0.378540 0.370496 0.349116 0.333413 0.320629 0.326655 0.352271 0.358270 0.392860 0.369505 0.337298 0.238174 0.314856 0.227534 0.232108 0.232108 0.232108 0.232108 0.232108 0.232108 0.232108 0.232108 0.250668 0.250668 0.250668 0.250668 0.250668 0.250668 0.250668 0.250668 0.250668 0.250668 0.250668 0.250668 0.250668 0.250668 0.250668 0.250668 0.250668 0.250668 0.250668 0.250668 0.250668
0.000000 0.000000 0.000000 0.000000 0.000000 0.000000 0.000000 0.000000 0.000000 0.000000 0.000000 0.000000 0.000000 0.000000 0.000000 0.000000 0.000000 0.000000 0.000000 0.000000 0.000000 0.000000 0.000000 0.000000 0.000000 0.000000 0.000000 0.000000 0.000000 0.000000 0.000000 0.000000 0.000000 0.000000 0.000000 0.000000 0.000000 0.000000 0.000000 0.000000 0.000000 0.000000 0.000000 0.000000 0.000000 0.000000 0.000000 0.000000 0.000000 0.000000 0.000000 0.000000 0.173422 0.173422 0.173422 0.173422 0.173422 0.173422 0.173422 0.191565 0.191565 0.191565 0.191565 0.191565 0.191565 0.191565 0.191565 0.191565 0.191565 0.191565 0.191565 0.191565 0.191565 0.191565 0.191565 0.191565 0.191565 0.191565 0.191565 0.191565 0.191565 0.191565 0.191565 0.191565 0.191565 0.191565 0.191565 0.191565 0.191565 0.191565 0.191565 0.191565 0.191565 0.191565 0.191565 0.191565 0.191565 0.191565 0.191565 0.191565 0.191565 0.191565 0.191565 0.222222 0.222222 0.222222 0.222222 0.222222 0.222222 0.222222 0.222222 0.222222 0.222222 0.222222 0.222222 0.222222 0.222222 0.222222 0.222222 0.222222 0.222222 0.222222 0.222222 0.222222 0.222222 0.222222 0.222222 0.222222 0.222222 0.222222 0.222222 0.222222 0.222222 0.234082 0.234082 0.234082 0.234082 0.234082 0.234082 0.234082 0.234082 0.234082 0.234082 0.234082 0.234082 0.234082 0.234082 0.234082 0.234082 0.234082 0.234082 0.234082 0.234082 0.234082 0.234082 0.234082 0.234082 0.234082 0.244339 0.244339 0.244339 0.244339 0.244339 0.244339 0.244339 0.244339 0.244339 0.244339 0.244339 0.244339 0.244339 0.244339 0.244339 0.244339 0.244339 0.244339 0.244339 0.244339 0.244339 0.248069 0.248069 0.248069 0.248069 0.248069 0.248069 0.248069 0.248069 0.248069 0.248069 0.248069 0.248069 0.248069 0.248069 0.248069 0.248069 0.248069 0.248069 0.248069 0.256074 0.256074 0.256074 0.256074 0.256074 0.256074 0.256074 0.256074 0.256074 0.256074 0.256074 0.256074 0.256074 0.256074 0.256074 0.256074 0.256074 0.256074 0.256074 0.256074 0.256074 0.256074 0.256074 0.256074 0.256074 0.256074 0.256074 0.256074 0.256074 0.256074 0.256074 0.256074 0.256074 0.256074 0.256074 0.256074 0.256074 0.256074 0.256074 0.256074 0.256074 0.256074 0.256074 0.256074 0.256074 0.256074 0.256074 0.256074 0.256074 0.256074 0.256074 0.256074 0.256074 0.256074 0.256074 0.256074 0.256074 0.256074 0.256074 0.256074 0.256074 0.256074 0.260378 0.260378 0.260378 0.260378 0.260378 0.260378 0.260378 0.260378 0.260378 0.260378 0.260378 0.260378 0.260378 0.256074 0.256074 0.256074 0.256074 0.256074 0.256074 0.256074 0.256074 0.256074 0.256074 0.256074 0.256074 0.256074 0.260378 0.260378 0.260378 0.260378 0.260378 0.260378 0.260378 0.260378 0.260378 0.260378 0.260378 0.260378 0.251976 0.251976 0.251976 0.251976 0.251976 0.251976 0.251976 0.251976 0.251976 0.251976 0.251976 0.251976 0.256074 0.256074 0.256074 0.256074 0.256074 0.256074 0.256074 0.256074 0.256074 0.256074 0.256074 0.251976 0.251976 0.251976 0.251976 0.251976 0.251976 0.251976 0.251976 0.251976 0.251976 0.251976 0.260378 0.260378 0.260378 0.260378 0.260378 0.260378 0.260378 0.260378 0.260378 0.260378 0.244339 0.244339 0.244339 0.244339 0.244339 0.244339 0.244339 0.244339 0.244339 0.244339 0.244339 0.244339 0.244339 0.244339 0.244339 0.244339 0.244339 0.244339 0.244339 0.244339 0.244339
