# Output from CTFFind version 4.1.9, run on 2019-11-03 20:10:59
# Input file: stack16_bm3d_averaged_1_5.5_0_3000_half.mrc ; Number of micrographs: 1
# Pixel size: 3.000 Angstroms ; acceleration voltage: 300.0 keV ; spherical aberration: 0.00 mm ; amplitude contrast: 0.07
# Box size: 512 pixels ; min. res.: 30.0 Angstroms ; max. res.: 5.0 Angstroms ; min. def.: 5000.0 um; max. def. 50000.0 um; num. frames averaged: 1
# 6 lines per micrograph: #1 - spatial frequency (1/Angstroms); #2 - 1D rotational average of spectrum (assuming no astigmatism); #3 - 1D rotational average of spectrum; #4 - CTF fit; #5 - cross-correlation between spectrum and CTF fit; #6 - 2sigma of expected cross correlation of noise
0.000000 0.000651 0.001302 0.001953 0.002604 0.003255 0.003906 0.004557 0.005208 0.005859 0.006510 0.007161 0.007812 0.008464 0.009115 0.009766 0.010417 0.011068 0.011719 0.012370 0.013021 0.013672 0.014323 0.014974 0.015625 0.016276 0.016927 0.017578 0.018229 0.018880 0.019531 0.020182 0.020833 0.021484 0.022135 0.022786 0.023438 0.024089 0.024740 0.025391 0.026042 0.026693 0.027344 0.027995 0.028646 0.029297 0.029948 0.030599 0.031250 0.031901 0.032552 0.033203 0.033854 0.034505 0.035156 0.035807 0.036458 0.037109 0.037760 0.038411 0.039062 0.039714 0.040365 0.041016 0.041667 0.042318 0.042969 0.043620 0.044271 0.044922 0.045573 0.046224 0.046875 0.047526 0.048177 0.048828 0.049479 0.050130 0.050781 0.051432 0.052083 0.052734 0.053385 0.054036 0.054688 0.055339 0.055990 0.056641 0.057292 0.057943 0.058594 0.059245 0.059896 0.060547 0.061198 0.061849 0.062500 0.063151 0.063802 0.064453 0.065104 0.065755 0.066406 0.067057 0.067708 0.068359 0.069010 0.069661 0.070312 0.070964 0.071615 0.072266 0.072917 0.073568 0.074219 0.074870 0.075521 0.076172 0.076823 0.077474 0.078125 0.078776 0.079427 0.080078 0.080729 0.081380 0.082031 0.082682 0.083333 0.083984 0.084635 0.085286 0.085938 0.086589 0.087240 0.087891 0.088542 0.089193 0.089844 0.090495 0.091146 0.091797 0.092448 0.093099 0.093750 0.094401 0.095052 0.095703 0.096354 0.097005 0.097656 0.098307 0.098958 0.099609 0.100260 0.100911 0.101562 0.102214 0.102865 0.103516 0.104167 0.104818 0.105469 0.106120 0.106771 0.107422 0.108073 0.108724 0.109375 0.110026 0.110677 0.111328 0.111979 0.112630 0.113281 0.113932 0.114583 0.115234 0.115885 0.116536 0.117188 0.117839 0.118490 0.119141 0.119792 0.120443 0.121094 0.121745 0.122396 0.123047 0.123698 0.124349 0.125000 0.125651 0.126302 0.126953 0.127604 0.128255 0.128906 0.129557 0.130208 0.130859 0.131510 0.132161 0.132812 0.133464 0.134115 0.134766 0.135417 0.136068 0.136719 0.137370 0.138021 0.138672 0.139323 0.139974 0.140625 0.141276 0.141927 0.142578 0.143229 0.143880 0.144531 0.145182 0.145833 0.146484 0.147135 0.147786 0.148438 0.149089 0.149740 0.150391 0.151042 0.151693 0.152344 0.152995 0.153646 0.154297 0.154948 0.155599 0.156250 0.156901 0.157552 0.158203 0.158854 0.159505 0.160156 0.160807 0.161458 0.162109 0.162760 0.163411 0.164062 0.164714 0.165365 0.166016 0.166667 0.167318 0.167969 0.168620 0.169271 0.169922 0.170573 0.171224 0.171875 0.172526 0.173177 0.173828 0.174479 0.175130 0.175781 0.176432 0.177083 0.177734 0.178385 0.179036 0.179688 0.180339 0.180990 0.181641 0.182292 0.182943 0.183594 0.184245 0.184896 0.185547 0.186198 0.186849 0.187500 0.188151 0.188802 0.189453 0.190104 0.190755 0.191406 0.192057 0.192708 0.193359 0.194010 0.194661 0.195312 0.195964 0.196615 0.197266 0.197917 0.198568 0.199219 0.199870 0.200521 0.201172 0.201823 0.202474 0.203125 0.203776 0.204427 0.205078 0.205729 0.206380 0.207031 0.207682 0.208333 0.208984 0.209635 0.210286 0.210938 0.211589 0.212240 0.212891 0.213542 0.214193 0.214844 0.215495 0.216146 0.216797 0.217448 0.218099 0.218750 0.219401 0.220052 0.220703 0.221354 0.222005 0.222656 0.223307 0.223958 0.224609 0.225260 0.225911 0.226562 0.227214 0.227865 0.228516 0.229167 0.229818 0.230469 0.231120 0.231771 0.232422 0.233073 0.233724 0.234375 0.235026 0.235677
       0.33746        0.33746        0.33746        0.33746        0.33746        0.33746        0.33746        0.33746        0.33746        0.33746        0.33746        0.33746        0.33746        0.33746        0.33746        0.33746        0.33746        0.33746        0.33746        0.33746        0.33746        0.33746        0.33746        0.33747        0.33746        0.33746        0.33746        0.33746        0.33746        0.33746        0.33746        0.33746        0.33746        0.33746        0.33746        0.33746        0.33746        0.33746        0.33746        0.33746        0.33746        0.33746        0.33746        0.33746        0.33746        0.33746        0.33746        0.33746        0.33746        0.33746        0.33746        0.41937        0.55475        0.34097       -0.21059       -0.45866       -0.55472       -0.65296       -0.72507       -0.73636       -0.83469       -0.90243       -0.69794       -0.85611       -0.83431       -0.98252       -1.01852       -0.90048       -0.85957       -0.81136       -0.73090       -0.66045       -0.57275       -0.47761       -0.41039       -0.18272       -0.07888        0.01863        0.24328        0.24805        0.30438        0.36650        0.39354        0.50588        0.53210        0.56845        0.52964        0.46777        0.50354        0.51319        0.43385        0.32307        0.20151        0.17064        0.10334       -0.00924       -0.02522       -0.03316        0.04140        0.00611        0.05999        0.03523        0.15020        0.18701        0.40070        0.45425        0.54645        0.65484        0.68819        0.71160        0.63167        0.60884        0.52912        0.43301        0.38044        0.26338        0.20729        0.19972        0.08913        0.09314        0.08228        0.07289        0.08669        0.29825        0.40706        0.51100        0.53076        0.57098        0.60718        0.58553        0.57449        0.57922        0.56020        0.45992        0.29361        0.25401        0.23836        0.13308        0.07840        0.15138        0.18348        0.27190        0.34661        0.41688        0.46727        0.52667        0.59816        0.54232        0.50504        0.49008        0.34899        0.25530        0.24518        0.16550        0.17220        0.21430        0.25987        0.27235        0.31193        0.41640        0.44912        0.49683        0.44932        0.44046        0.47621        0.38107        0.32170        0.27710        0.24504        0.21969        0.22217        0.23066        0.32683        0.43133        0.42243        0.48566        0.54799        0.43850        0.40741        0.35023        0.30035        0.25522        0.26817        0.26297        0.28014        0.32783        0.33969        0.42230        0.46799        0.43240        0.44947        0.36172        0.37081        0.34967        0.25650        0.23838        0.23656        0.31098        0.36899        0.36177        0.38505        0.42916        0.43146        0.36423        0.33340        0.31154        0.34147        0.30068        0.26955        0.27127        0.34140        0.36137        0.37556        0.38434        0.37782        0.40711        0.38982        0.30718        0.28076        0.30993        0.33709        0.36136        0.35308        0.39851        0.33467        0.36578        0.38525        0.32583        0.34580        0.30846        0.29053        0.33213        0.33116        0.31921        0.33865        0.35829        0.31950        0.33929        0.30869        0.30657        0.28212        0.30881        0.30238        0.32284        0.35995        0.35891        0.34060        0.29909        0.28606        0.27789        0.31970        0.29810        0.30680        0.36073        0.35504        0.33373        0.30492        0.29802        0.30575        0.26717        0.29705        0.31068        0.32166        0.35961        0.33599        0.29223        0.32466        0.32379        0.31471        0.35006        0.33782        0.30307        0.32727        0.28551        0.31701        0.28399        0.30297        0.28596        0.31353        0.35405        0.32674        0.34669        0.30014        0.31213        0.33534        0.32833        0.30260        0.30023        0.33798        0.32461        0.31886        0.31149        0.30723        0.29802        0.30335        0.31395        0.31553        0.33647        0.33743        0.33423        0.28602        0.27389        0.26233        0.26147        0.35489        0.30505        0.34826        0.28988        0.25605        0.27851        0.35369        0.30082        0.27638        0.28724        0.30712        0.28841        0.26637        0.30615        0.26747        0.27024        0.29925        0.31614        0.32792        0.31813        0.29342        0.26134        0.25891        0.25453        0.26156        0.28423        0.34993        0.28212        0.19702        0.29332        0.26885        0.30713        0.23494        0.30227        0.30659        0.32605        0.28528        0.26970        0.26247        0.23353        0.28869        0.34013        0.35254        0.23676        0.26908        0.21706        0.22007        0.19917        0.33019        0.24316        0.20060        0.13192        0.22419        0.29630        0.20241        0.17771        0.06322       -0.56113       -0.70691
3.128471 3.089073 3.049929 3.011041 2.972407 2.934027 2.895902 2.858032 2.820417 2.783056 2.745950 2.709099 2.672503 2.636161 2.600074 2.564241 2.528663 2.493341 2.458272 2.423458 2.388899 2.354595 2.320546 2.286751 2.253211 2.219925 2.186895 2.154119 2.121597 2.089331 2.057319 2.025561 1.994059 1.962811 1.931818 1.901079 1.870596 1.840367 1.810392 1.780673 1.751208 1.721998 1.693042 1.664341 1.635895 1.607704 1.579767 1.552085 1.524657 1.497485 1.470567 1.504673 1.593176 1.532917 0.846827 0.589164 0.449800 0.381857 0.286836 0.209082 0.171988 -0.053983 0.196944 0.061041 -0.036298 -0.119587 -0.242423 -0.150154 -0.064902 -0.094542 -0.080743 0.030968 0.026286 0.220716 0.104617 0.350972 0.459594 0.482683 0.760186 0.686293 0.688934 0.829204 0.797667 0.834606 0.919705 0.861560 0.894528 0.727862 0.799587 0.846554 0.680291 0.605432 0.440427 0.425344 0.347740 0.185679 0.182471 0.116539 0.211038 0.120047 0.211188 0.107102 0.222820 0.233752 0.451984 0.411248 0.585455 0.624437 0.661939 0.729039 0.617592 0.597248 0.467528 0.417108 0.301712 0.269931 0.102372 0.162865 -0.021313 0.039917 -0.033913 -0.038356 -0.042495 0.036423 0.282620 0.299597 0.375851 0.320653 0.401078 0.413064 0.439639 0.420310 0.365206 0.346461 0.134558 0.087364 0.067736 -0.008518 -0.151664 -0.038887 -0.067437 0.042539 0.089742 0.164898 0.233211 0.240655 0.329395 0.423418 0.307818 0.370308 0.251395 0.140828 0.069127 0.047666 0.005143 0.045114 0.073814 0.106618 0.119422 0.183693 0.243620 0.310641 0.289657 0.227022 0.262017 0.231093 0.113474 0.077141 0.047865 0.032979 0.008125 -0.004350 0.037382 0.173247 0.190478 0.198324 0.308692 0.193956 0.204463 0.084394 0.073919 -0.000479 -0.005992 0.004156 -0.001786 0.041467 0.055436 0.093745 0.159013 0.146139 0.224488 0.129826 0.077965 0.103037 0.048136 -0.059824 -0.025019 0.018698 0.057517 0.075345 0.077745 0.155087 0.129026 0.150632 0.038552 0.055710 0.045500 0.051033 0.023339 -0.021712 0.037554 0.045238 0.086828 0.107954 0.091731 0.108120 0.127006 0.074008 0.012801 -0.001223 0.033302 0.080665 0.063215 0.099700 0.095400 0.051467 0.111252 0.068442 0.041971 0.080426 -0.020111 0.021186 0.061918 0.037663 0.044566 0.052884 0.069803 0.053697 0.061027 0.011331 0.019544 -0.003186 0.044855 0.001962 0.047935 0.068304 0.071385 0.038517 -0.011123 -0.008578 -0.017049 0.032104 -0.001603 0.014759 0.069898 0.057704 -0.007844 0.009516 -0.011962 0.010397 -0.044326 -0.006913 0.000248 0.030129 0.047063 0.017395 -0.019555 0.006235 0.005613 0.002278 0.043218 0.012867 -0.015710 0.042022 -0.042618 -0.017290 -0.050558 -0.013638 -0.041111 0.014614 0.040226 -0.000121 0.004704 -0.007505 0.004318 0.020941 0.025140 -0.011418 -0.002069 0.022466 0.043559 0.010971 0.011499 0.037513 -0.008667 -0.000659 0.021832 0.000568 0.073555 0.055804 0.034118 0.001767 -0.007966 -0.035697 -0.002140 0.078057 -0.003426 0.073628 -0.019453 -0.024097 -0.018604 0.093058 -0.004931 -0.014396 0.021351 0.042353 0.009812 0.005786 0.029785 0.004586 0.012669 0.028344 0.064932 0.078230 0.050971 0.032019 0.001130 -0.004345 -0.002631 -0.018273 0.002376 0.107287 -0.025423 -0.092927 0.054566 -0.016643 0.044371 -0.057220 0.015525 0.018763 0.021497 0.000308 -0.019995 -0.016940 -0.074040 0.023251 0.050669 0.069339 -0.125727 -0.005231 -0.040819 -0.016991 -0.125730 0.107095 0.011780 0.002676 -0.071857 0.175149 0.258812 0.138186 0.140658 0.067992 -0.670707
0.072396 0.073047 0.074998 0.078250 0.082801 0.088650 0.095794 0.104231 0.113956 0.124965 0.137251 0.150806 0.165619 0.181677 0.198966 0.217467 0.237158 0.258012 0.279999 0.303083 0.327224 0.352375 0.378481 0.405483 0.433311 0.461889 0.491133 0.520946 0.551227 0.581859 0.612719 0.643670 0.674566 0.705249 0.735548 0.765284 0.794262 0.822281 0.849126 0.874572 0.898386 0.920326 0.940144 0.957583 0.972385 0.984288 0.993029 0.998348 0.999990 0.997706 0.991258 0.980423 0.964992 0.944781 0.919629 0.889403 0.854005 0.813375 0.767492 0.716383 0.660125 0.598848 0.532739 0.462046 0.387080 0.308220 0.225908 0.140656 0.053043 0.036284 0.126616 0.217181 0.307152 0.395652 0.481758 0.564517 0.642946 0.716056 0.782852 0.842357 0.893622 0.935745 0.967887 0.989290 0.999295 0.997361 0.983081 0.956204 0.916643 0.864497 0.800059 0.723828 0.636514 0.539044 0.432558 0.318409 0.198148 0.073515 0.053584 0.181101 0.306873 0.428662 0.544188 0.651177 0.747408 0.830762 0.899272 0.951180 0.984982 0.999489 0.993861 0.967660 0.920879 0.853971 0.767868 0.663987 0.544225 0.410942 0.266929 0.115362 0.040261 0.196186 0.348497 0.493206 0.626364 0.744171 0.843094 0.919982 0.972179 0.997634 0.994991 0.963671 0.903933 0.816907 0.704610 0.569925 0.416553 0.248938 0.072148 0.108253 0.286381 0.456212 0.611792 0.747452 0.858028 0.939073 0.987057 0.999549 0.975356 0.914637 0.818952 0.691274 0.535935 0.358513 0.165663 0.035113 0.235733 0.427867 0.603270 0.754152 0.873543 0.955636 0.996104 0.992361 0.943761 0.851706 0.719673 0.553140 0.359396 0.147270 0.073243 0.291439 0.496409 0.677595 0.825351 0.931481 0.989738 0.996230 0.949733 0.851859 0.707082 0.522598 0.308033 0.074977 0.163594 0.394036 0.602802 0.777262 0.906492 0.982006 0.998364 0.953628 0.849614 0.691910 0.489664 0.255122 0.002939 0.250696 0.489088 0.696131 0.857425 0.961333 0.999870 0.969397 0.871027 0.710715 0.498991 0.250358 0.017638 0.285600 0.533667 0.742995 0.897224 0.983818 0.995165 0.929332 0.790409 0.588374 0.338489 0.060236 0.224151 0.491420 0.719214 0.887977 0.982696 0.994328 0.920776 0.767280 0.546190 0.276092 0.019662 0.314905 0.582950 0.799017 0.942576 0.999401 0.963076 0.835851 0.628680 0.360430 0.056264 0.254612 0.541724 0.776339 0.934371 0.998972 0.962449 0.827321 0.606340 0.321466 0.001795 0.319296 0.607634 0.831870 0.966996 0.997236 0.918044 0.736923 0.472909 0.154746 0.182132 0.499466 0.760521 0.934394 0.999790 0.947796 0.783261 0.524594 0.201880 0.146456 0.478156 0.752223 0.934057 0.999953 0.940368 0.761496 0.484878 0.145009 0.214798 0.547854 0.810151 0.966270 0.994307 0.889162 0.663640 0.347158 0.017904 0.381714 0.693765 0.909906 0.998746 0.946402 0.758912 0.461840 0.097034 0.283071 0.622929 0.872002 0.992393 0.964836 0.792022 0.498706 0.128435 0.262709 0.614500 0.871857 0.993590 0.959223 0.772710 0.462358 0.076826 0.322296 0.670227 0.909540 0.999807 0.924671 0.695127 0.348255 0.058442 0.456418 0.777554 0.965892 0.987627 0.837455 0.540135 0.146748 0.273800 0.646713 0.904628 0.999931 0.913868 0.660561 0.285106 0.144133 0.547776 0.850043 0.993156 0.948633 0.723327 0.358842 0.075787 0.496924 0.822360 0.987473 0.958343 0.739099 0.371866 0.070941 0.500628 0.829913 0.990778 0.948818 0.711007 0.325074 0.129695 0.558451 0.870529 0.998777 0.914342 0.633613 0.215531 0.250356 0.662863
1.000000 1.000000 1.000000 1.000000 1.000000 1.000000 1.000000 1.000000 1.000000 1.000000 1.000000 1.000000 1.000000 1.000000 1.000000 1.000000 1.000000 1.000000 1.000000 1.000000 1.000000 1.000000 1.000000 1.000000 1.000000 1.000000 1.000000 1.000000 1.000000 1.000000 1.000000 1.000000 1.000000 1.000000 1.000000 1.000000 1.000000 1.000000 1.000000 1.000000 1.000000 1.000000 1.000000 1.000000 1.000000 1.000000 1.000000 1.000000 1.000000 1.000000 1.000000 1.000000 0.926271 0.926271 0.926271 0.926271 0.926271 0.926271 0.926271 0.926271 0.926271 0.926271 0.926271 0.926271 0.926271 0.926271 0.926271 0.926271 0.926271 0.926271 0.926271 0.926271 0.926271 0.926271 0.926271 0.926271 0.926271 0.926271 0.926271 0.926271 0.926271 0.926271 0.926271 0.926271 0.926271 0.913340 0.911429 0.912593 0.913779 0.913685 0.913130 0.912765 0.913800 0.915351 0.917366 0.938981 0.942012 0.943178 0.944470 0.945893 0.948327 0.946310 0.954036 0.960663 0.959685 0.960696 0.954522 0.955826 0.955199 0.954473 0.956045 0.956112 0.954496 0.952591 0.951110 0.950608 0.950316 0.953839 0.954383 0.954555 0.955104 0.955037 0.955756 0.956365 0.954465 0.956652 0.948790 0.947587 0.952984 0.951103 0.952648 0.952613 0.953309 0.954086 0.954371 0.954615 0.951424 0.951092 0.950363 0.940533 0.933637 0.932188 0.934743 0.938124 0.935653 0.931693 0.932983 0.935472 0.934797 0.934164 0.924948 0.921385 0.898999 0.887489 0.876023 0.876484 0.879464 0.881712 0.879315 0.871200 0.861358 0.857632 0.857944 0.853802 0.846824 0.863263 0.857580 0.856246 0.860301 0.863335 0.868815 0.865287 0.860892 0.856362 0.851982 0.845657 0.847586 0.852527 0.856524 0.841317 0.832872 0.850464 0.839352 0.830797 0.838253 0.840303 0.837397 0.836308 0.837107 0.835204 0.828404 0.823511 0.826481 0.835454 0.834498 0.823389 0.819489 0.814773 0.814603 0.808090 0.811167 0.811053 0.807315 0.800263 0.815322 0.782488 0.806114 0.804859 0.790530 0.774893 0.764135 0.773170 0.784682 0.787381 0.778511 0.773509 0.772740 0.766882 0.739962 0.743707 0.751028 0.749452 0.737369 0.716995 0.724149 0.731376 0.726173 0.722147 0.725121 0.725943 0.697566 0.710376 0.714070 0.699476 0.714783 0.716696 0.707587 0.708179 0.710297 0.712717 0.705652 0.665508 0.668105 0.665483 0.657181 0.608094 0.607450 0.606870 0.556786 0.560655 0.526001 0.508871 0.508365 0.503461 0.549877 0.516081 0.497771 0.527958 0.463890 0.374748 0.389773 0.386251 0.397902 0.407287 0.381613 0.380814 0.369321 0.347171 0.356050 0.376166 0.391277 0.360376 0.361522 0.356166 0.325754 0.299747 0.313306 0.316294 0.335703 0.337734 0.314451 0.344790 0.382082 0.325149 0.300671 0.283431 0.281220 0.295562 0.301377 0.291016 0.261090 0.256050 0.223214 0.248182 0.239388 0.240778 0.255024 0.287229 0.281285 0.293626 0.312247 0.265150 0.280119 0.281821 0.271346 0.276539 0.285298 0.284015 0.272100 0.290626 0.258508 0.272845 0.249979 0.229882 0.294506 0.276766 0.246112 0.246257 0.251372 0.259041 0.230056 0.182904 0.167664 0.172483 0.109070 0.083728 0.083880 0.082966 0.038464 0.011151 -0.004446 -0.042562 -0.042381 -0.041477 -0.004827 -0.035952 -0.009627 0.000917 0.000917 0.000917 0.000917 0.000917 0.000917 0.000917 0.000917 0.000917 0.000917 0.000917 0.000917 0.000917 0.000917 0.023795 0.023795 0.023795 0.023795 0.023795 0.023795 0.023795 0.023795 0.023795 0.023795 0.023795 0.023795
0.000000 0.000000 0.000000 0.000000 0.000000 0.000000 0.000000 0.000000 0.000000 0.000000 0.000000 0.000000 0.000000 0.000000 0.000000 0.000000 0.000000 0.000000 0.000000 0.000000 0.000000 0.000000 0.000000 0.000000 0.000000 0.000000 0.000000 0.000000 0.000000 0.000000 0.000000 0.000000 0.000000 0.000000 0.000000 0.000000 0.000000 0.000000 0.000000 0.000000 0.000000 0.000000 0.000000 0.000000 0.000000 0.000000 0.000000 0.000000 0.000000 0.000000 0.000000 0.000000 0.209657 0.209657 0.209657 0.209657 0.209657 0.209657 0.209657 0.209657 0.209657 0.209657 0.209657 0.209657 0.209657 0.209657 0.209657 0.209657 0.209657 0.209657 0.209657 0.209657 0.209657 0.209657 0.209657 0.209657 0.209657 0.209657 0.209657 0.209657 0.209657 0.209657 0.209657 0.209657 0.209657 0.244339 0.244339 0.244339 0.244339 0.244339 0.244339 0.244339 0.244339 0.244339 0.244339 0.244339 0.244339 0.244339 0.244339 0.244339 0.244339 0.244339 0.244339 0.244339 0.244339 0.244339 0.244339 0.244339 0.244339 0.244339 0.260378 0.260378 0.260378 0.260378 0.260378 0.260378 0.260378 0.260378 0.260378 0.260378 0.260378 0.260378 0.260378 0.260378 0.260378 0.260378 0.260378 0.260378 0.260378 0.260378 0.269680 0.269680 0.269680 0.269680 0.269680 0.269680 0.269680 0.269680 0.269680 0.269680 0.269680 0.269680 0.269680 0.269680 0.269680 0.269680 0.269680 0.269680 0.269680 0.269680 0.269680 0.269680 0.269680 0.269680 0.269680 0.269680 0.269680 0.269680 0.269680 0.269680 0.269680 0.269680 0.269680 0.280056 0.280056 0.280056 0.280056 0.280056 0.280056 0.280056 0.280056 0.280056 0.280056 0.280056 0.280056 0.280056 0.280056 0.280056 0.280056 0.280056 0.280056 0.280056 0.280056 0.280056 0.280056 0.280056 0.280056 0.280056 0.280056 0.280056 0.274721 0.274721 0.274721 0.274721 0.274721 0.274721 0.274721 0.274721 0.274721 0.274721 0.274721 0.274721 0.274721 0.285714 0.285714 0.285714 0.285714 0.285714 0.285714 0.285714 0.285714 0.285714 0.285714 0.285714 0.280056 0.280056 0.280056 0.280056 0.280056 0.280056 0.280056 0.280056 0.280056 0.280056 0.280056 0.274721 0.274721 0.274721 0.274721 0.274721 0.274721 0.274721 0.274721 0.274721 0.274721 0.274721 0.280056 0.280056 0.280056 0.280056 0.280056 0.280056 0.280056 0.280056 0.280056 0.280056 0.285714 0.285714 0.285714 0.285714 0.285714 0.285714 0.285714 0.285714 0.285714 0.269680 0.269680 0.269680 0.269680 0.269680 0.269680 0.269680 0.269680 0.269680 0.269680 0.274721 0.274721 0.274721 0.274721 0.274721 0.274721 0.274721 0.274721 0.274721 0.285714 0.285714 0.285714 0.285714 0.285714 0.285714 0.285714 0.285714 0.264906 0.264906 0.264906 0.264906 0.264906 0.264906 0.264906 0.264906 0.264906 0.274721 0.274721 0.274721 0.274721 0.274721 0.274721 0.274721 0.274721 0.269680 0.269680 0.269680 0.269680 0.269680 0.269680 0.269680 0.269680 0.269680 0.269680 0.269680 0.269680 0.269680 0.269680 0.269680 0.269680 0.280056 0.280056 0.280056 0.280056 0.280056 0.280056 0.280056 0.260378 0.260378 0.260378 0.260378 0.260378 0.260378 0.260378 0.260378 0.269680 0.269680 0.269680 0.269680 0.269680 0.269680 0.269680 0.264906 0.264906 0.264906 0.264906 0.264906 0.264906 0.264906 0.264906 0.264906 0.264906 0.264906 0.264906 0.264906 0.264906 0.260378 0.260378 0.260378 0.260378 0.260378 0.260378 0.260378 0.260378 0.260378 0.260378 0.260378 0.260378
