# Output from CTFFind version 4.1.9, run on 2019-11-03 19:35:09
# Input file: stack6_bm3d_averaged_1_4.25_0_1500_half.mrc ; Number of micrographs: 1
# Pixel size: 3.000 Angstroms ; acceleration voltage: 300.0 keV ; spherical aberration: 0.00 mm ; amplitude contrast: 0.07
# Box size: 512 pixels ; min. res.: 30.0 Angstroms ; max. res.: 5.0 Angstroms ; min. def.: 5000.0 um; max. def. 50000.0 um; num. frames averaged: 1
# 6 lines per micrograph: #1 - spatial frequency (1/Angstroms); #2 - 1D rotational average of spectrum (assuming no astigmatism); #3 - 1D rotational average of spectrum; #4 - CTF fit; #5 - cross-correlation between spectrum and CTF fit; #6 - 2sigma of expected cross correlation of noise
0.000000 0.000651 0.001302 0.001953 0.002604 0.003255 0.003906 0.004557 0.005208 0.005859 0.006510 0.007161 0.007812 0.008464 0.009115 0.009766 0.010417 0.011068 0.011719 0.012370 0.013021 0.013672 0.014323 0.014974 0.015625 0.016276 0.016927 0.017578 0.018229 0.018880 0.019531 0.020182 0.020833 0.021484 0.022135 0.022786 0.023438 0.024089 0.024740 0.025391 0.026042 0.026693 0.027344 0.027995 0.028646 0.029297 0.029948 0.030599 0.031250 0.031901 0.032552 0.033203 0.033854 0.034505 0.035156 0.035807 0.036458 0.037109 0.037760 0.038411 0.039062 0.039714 0.040365 0.041016 0.041667 0.042318 0.042969 0.043620 0.044271 0.044922 0.045573 0.046224 0.046875 0.047526 0.048177 0.048828 0.049479 0.050130 0.050781 0.051432 0.052083 0.052734 0.053385 0.054036 0.054688 0.055339 0.055990 0.056641 0.057292 0.057943 0.058594 0.059245 0.059896 0.060547 0.061198 0.061849 0.062500 0.063151 0.063802 0.064453 0.065104 0.065755 0.066406 0.067057 0.067708 0.068359 0.069010 0.069661 0.070312 0.070964 0.071615 0.072266 0.072917 0.073568 0.074219 0.074870 0.075521 0.076172 0.076823 0.077474 0.078125 0.078776 0.079427 0.080078 0.080729 0.081380 0.082031 0.082682 0.083333 0.083984 0.084635 0.085286 0.085938 0.086589 0.087240 0.087891 0.088542 0.089193 0.089844 0.090495 0.091146 0.091797 0.092448 0.093099 0.093750 0.094401 0.095052 0.095703 0.096354 0.097005 0.097656 0.098307 0.098958 0.099609 0.100260 0.100911 0.101562 0.102214 0.102865 0.103516 0.104167 0.104818 0.105469 0.106120 0.106771 0.107422 0.108073 0.108724 0.109375 0.110026 0.110677 0.111328 0.111979 0.112630 0.113281 0.113932 0.114583 0.115234 0.115885 0.116536 0.117188 0.117839 0.118490 0.119141 0.119792 0.120443 0.121094 0.121745 0.122396 0.123047 0.123698 0.124349 0.125000 0.125651 0.126302 0.126953 0.127604 0.128255 0.128906 0.129557 0.130208 0.130859 0.131510 0.132161 0.132812 0.133464 0.134115 0.134766 0.135417 0.136068 0.136719 0.137370 0.138021 0.138672 0.139323 0.139974 0.140625 0.141276 0.141927 0.142578 0.143229 0.143880 0.144531 0.145182 0.145833 0.146484 0.147135 0.147786 0.148438 0.149089 0.149740 0.150391 0.151042 0.151693 0.152344 0.152995 0.153646 0.154297 0.154948 0.155599 0.156250 0.156901 0.157552 0.158203 0.158854 0.159505 0.160156 0.160807 0.161458 0.162109 0.162760 0.163411 0.164062 0.164714 0.165365 0.166016 0.166667 0.167318 0.167969 0.168620 0.169271 0.169922 0.170573 0.171224 0.171875 0.172526 0.173177 0.173828 0.174479 0.175130 0.175781 0.176432 0.177083 0.177734 0.178385 0.179036 0.179688 0.180339 0.180990 0.181641 0.182292 0.182943 0.183594 0.184245 0.184896 0.185547 0.186198 0.186849 0.187500 0.188151 0.188802 0.189453 0.190104 0.190755 0.191406 0.192057 0.192708 0.193359 0.194010 0.194661 0.195312 0.195964 0.196615 0.197266 0.197917 0.198568 0.199219 0.199870 0.200521 0.201172 0.201823 0.202474 0.203125 0.203776 0.204427 0.205078 0.205729 0.206380 0.207031 0.207682 0.208333 0.208984 0.209635 0.210286 0.210938 0.211589 0.212240 0.212891 0.213542 0.214193 0.214844 0.215495 0.216146 0.216797 0.217448 0.218099 0.218750 0.219401 0.220052 0.220703 0.221354 0.222005 0.222656 0.223307 0.223958 0.224609 0.225260 0.225911 0.226562 0.227214 0.227865 0.228516 0.229167 0.229818 0.230469 0.231120 0.231771 0.232422 0.233073 0.233724 0.234375 0.235026 0.235677
       0.30220        0.30220        0.30220        0.30220        0.30220        0.30220        0.30220        0.30220        0.30220        0.30220        0.30220        0.30220        0.30220        0.30220        0.30220        0.30220        0.30220        0.30220        0.30220        0.30220        0.30220        0.30220        0.30220        0.30220        0.30220        0.30220        0.30220        0.30220        0.30220        0.30220        0.30220        0.30220        0.30220        0.30220        0.30220        0.30220        0.30220        0.30220        0.30220        0.30220        0.30220        0.30220        0.30220        0.30220        0.30220        0.30220        0.30220        0.30220        0.30220        0.30220        0.30220        0.60852        0.74963        0.36193        0.21187        0.13224       -0.15025        0.11425        0.02458        0.03433        0.09410        0.32070        0.35896        0.29185        0.17354       -0.03237        0.00124        0.04614       -0.15566       -0.16730       -0.09033       -0.11814       -0.26193       -0.16369       -0.29505       -0.29449       -0.30215       -0.37183       -0.44817       -0.41087       -0.32510       -0.28944       -0.38396       -0.29063       -0.35422       -0.29064       -0.21856       -0.16724       -0.12860       -0.04491       -0.01948        0.09667        0.13608        0.21598        0.32989        0.39315        0.36644        0.46988        0.56185        0.57452        0.65868        0.61780        0.66324        0.60530        0.63345        0.63323        0.56812        0.57377        0.57572        0.40017        0.33306        0.35680        0.34626        0.18420        0.13004        0.08986        0.07014        0.07037       -0.03006        0.03072       -0.00673       -0.05049        0.07661        0.16058        0.25947        0.34247        0.33209        0.37047        0.48617        0.51690        0.45188        0.65272        0.52711        0.49650        0.56094        0.51260        0.51535        0.46530        0.36904        0.32648        0.24529        0.20221        0.17043        0.16450        0.13671        0.08038        0.13281        0.15241        0.19458        0.17654        0.24724        0.27969        0.32950        0.45125        0.42394        0.42171        0.47257        0.51527        0.50246        0.47029        0.38102        0.40598        0.35367        0.28050        0.22588        0.23373        0.20355        0.17029        0.15264        0.18526        0.17468        0.22868        0.29303        0.33662        0.39283        0.39245        0.45311        0.46843        0.44994        0.43068        0.39791        0.40471        0.39020        0.34807        0.30426        0.28683        0.23745        0.25634        0.25056        0.20245        0.24677        0.24237        0.25378        0.31955        0.35694        0.38519        0.39002        0.40161        0.40293        0.40380        0.39999        0.29292        0.28852        0.25394        0.26721        0.22593        0.19278        0.26050        0.31005        0.29521        0.27351        0.32828        0.27234        0.35719        0.34665        0.35521        0.36542        0.37486        0.31173        0.30780        0.29228        0.27613        0.26385        0.24990        0.26108        0.29147        0.28686        0.30927        0.34924        0.36946        0.34246        0.33425        0.34673        0.31240        0.29550        0.29225        0.26883        0.27632        0.26334        0.29514        0.29783        0.28140        0.29646        0.30561        0.32009        0.32929        0.33022        0.27785        0.25889        0.28386        0.27484        0.26396        0.25697        0.22672        0.24503        0.25641        0.24732        0.26457        0.28174        0.32079        0.31471        0.30024        0.30363        0.23229        0.22139        0.27037        0.23983        0.20368        0.26231        0.31840        0.25722        0.29574        0.29672        0.29663        0.30701        0.28275        0.27237        0.28975        0.26669        0.28665        0.24071        0.26180        0.24962        0.29090        0.29018        0.31506        0.31420        0.31363        0.22015        0.28335        0.28076        0.22609        0.27224        0.25876        0.29306        0.28418        0.30515        0.29753        0.34879        0.29314        0.25781        0.24116        0.21783        0.24103        0.26271        0.29159        0.28842        0.28759        0.29323        0.27747        0.27217        0.26711        0.24109        0.28299        0.24226        0.22988        0.22244        0.30096        0.29796        0.28356        0.28549        0.22091        0.28857        0.25185        0.20002        0.23002        0.26778        0.27733        0.30590        0.21145        0.19307        0.25670        0.24400        0.26212        0.21645        0.21905        0.20668        0.23342        0.25303        0.21354        0.25920        0.23284        0.26171        0.19337        0.26703        0.29912        0.19642        0.15504        0.14464        0.13259        0.22615        0.14934        0.09052        0.31755        0.19316        0.08956        0.08594        0.11798        0.16453        0.21640       -0.05393       -0.74313       -1.06642
3.042071 3.011720 2.981526 2.951489 2.921607 2.891882 2.862313 2.832901 2.803645 2.774545 2.745601 2.716814 2.688183 2.659709 2.631390 2.603228 2.575223 2.547374 2.519681 2.492144 2.464764 2.437539 2.410472 2.383560 2.356805 2.330206 2.303764 2.277478 2.251348 2.225374 2.199557 2.173896 2.148392 2.123043 2.097851 2.072816 2.047936 2.023213 1.998646 1.974236 1.949982 1.925884 1.901943 1.878157 1.854529 1.831056 1.807740 1.784580 1.761576 1.738729 1.716038 2.062424 2.391458 1.747941 1.673555 1.375359 0.832727 1.235639 1.097683 1.126216 0.984040 1.594515 1.501927 1.500853 1.245652 0.913089 0.752711 0.996441 0.751955 0.425606 0.546860 0.660883 0.393955 0.443991 0.279147 0.210937 0.142719 0.141914 -0.120477 -0.049861 0.073068 0.042983 0.004816 0.097994 -0.053109 -0.018020 0.137598 0.210450 0.261673 0.331776 0.367769 0.633858 0.561252 0.667363 0.899847 0.977759 0.892371 1.182438 1.181112 1.258848 1.337246 1.208385 1.401188 1.199769 1.181280 1.347164 1.130329 1.077165 1.179600 0.935697 0.652264 0.689435 0.747957 0.450011 0.356753 0.264847 0.162830 0.154803 0.007391 0.117136 0.041207 -0.087042 0.065677 0.197385 0.307183 0.515989 0.518705 0.489929 0.687353 0.804713 0.557637 0.965881 0.881493 0.651130 0.778941 0.655698 0.730407 0.702238 0.428749 0.411980 0.250771 0.186618 0.128611 0.007056 0.052274 -0.104515 -0.021563 -0.028595 0.092839 -0.035593 0.198717 0.175792 0.173034 0.392762 0.473518 0.382430 0.352651 0.572114 0.570316 0.449297 0.357416 0.338219 0.300130 0.183168 0.048468 0.039917 0.003230 -0.008141 -0.119480 -0.059952 -0.117285 0.047968 0.015054 0.166508 0.226382 0.245614 0.348326 0.341815 0.396555 0.351548 0.411013 0.373924 0.257994 0.316408 0.154937 0.190618 0.063892 0.109846 0.047172 0.051367 -0.042883 0.080056 0.014187 0.119098 0.224409 0.222466 0.284280 0.281292 0.304905 0.288741 0.301770 0.191859 0.077620 0.107399 0.036241 0.024631 -0.053525 -0.046881 0.066872 0.136248 0.075651 0.084010 0.093551 0.136804 0.192078 0.186597 0.176261 0.236326 0.148659 0.094669 0.084924 0.063999 0.053367 -0.028704 0.019933 0.094307 0.004937 0.098426 0.106708 0.197563 0.208387 0.181015 0.157376 0.172249 0.092026 0.090458 0.102585 0.038275 0.020339 0.078076 0.077197 0.095321 0.061635 0.102742 0.098314 0.137233 0.158221 0.105855 0.041594 -0.004095 0.066081 0.010400 0.052927 -0.023285 -0.057676 0.011163 -0.015836 -0.016789 0.036514 0.035748 0.104570 0.114513 0.043126 0.065417 -0.074903 -0.016908 0.036081 -0.067796 -0.078026 0.052222 0.083665 -0.021034 0.053094 0.055996 0.070422 0.078087 -0.010447 0.012936 0.100560 -0.057463 0.051824 -0.036296 0.014249 -0.047803 0.081831 0.021880 0.085235 0.069088 0.069670 -0.094294 0.046967 -0.003336 -0.071669 0.011487 -0.010184 0.015616 0.035024 0.105298 0.049945 0.088949 0.054073 -0.081368 -0.023283 -0.103829 -0.024593 0.014436 0.023363 0.040062 0.013268 0.054152 0.008701 0.011938 0.020821 -0.042569 0.057933 -0.011055 -0.069564 -0.030106 0.073535 0.042046 0.058633 0.055583 -0.012258 0.079430 0.020146 -0.076181 0.006093 0.042125 0.106633 0.099260 -0.036017 -0.046256 0.083896 0.022602 0.006880 0.010426 -0.064373 0.037225 0.037696 0.064224 -0.001795 0.108271 0.019341 0.159814 -0.036952 0.165251 0.207099 -0.007901 -0.054313 -0.054112 -0.170162 0.140449 -0.031499 0.000368 0.524751 0.278321 0.136327 0.151926 0.278593 0.227449 0.334816 -0.076085 -1.752211
0.072396 0.072835 0.074150 0.076342 0.079411 0.083355 0.088173 0.093865 0.100429 0.107863 0.116164 0.125330 0.135356 0.146238 0.157971 0.170548 0.183962 0.198204 0.213263 0.229128 0.245785 0.263218 0.281409 0.300338 0.319983 0.340319 0.361317 0.382945 0.405170 0.427952 0.451251 0.475020 0.499210 0.523765 0.548629 0.573737 0.599021 0.624408 0.649821 0.675177 0.700386 0.725357 0.749989 0.774179 0.797819 0.820794 0.842986 0.864272 0.884523 0.903608 0.921391 0.937736 0.952499 0.965539 0.976710 0.985867 0.992866 0.997563 0.999814 0.999483 0.996433 0.990535 0.981668 0.969716 0.954574 0.936147 0.914355 0.889127 0.860412 0.828175 0.792397 0.753082 0.710255 0.663964 0.614282 0.561307 0.505165 0.446011 0.384027 0.319427 0.252455 0.183385 0.112523 0.040205 0.033204 0.107308 0.181685 0.255885 0.329436 0.401843 0.472593 0.541156 0.606993 0.669556 0.728295 0.782661 0.832113 0.876125 0.914188 0.945822 0.970576 0.988041 0.997852 0.999698 0.993327 0.978553 0.955262 0.923418 0.883069 0.834350 0.777490 0.712810 0.640730 0.561769 0.476541 0.385759 0.290229 0.190844 0.088582 0.015504 0.120295 0.224615 0.327248 0.426943 0.522439 0.612475 0.695809 0.771238 0.837614 0.893867 0.939021 0.972218 0.992733 0.999992 0.993591 0.973313 0.939134 0.891238 0.830028 0.756122 0.670363 0.573810 0.467731 0.353598 0.233065 0.107951 0.019782 0.148061 0.274733 0.397595 0.514443 0.623100 0.721468 0.807571 0.879591 0.935920 0.975195 0.996340 0.998600 0.981568 0.945212 0.889892 0.816368 0.725802 0.619752 0.500151 0.369287 0.229758 0.084437 0.063589 0.211082 0.354716 0.491158 0.617143 0.729557 0.825518 0.902460 0.958202 0.991027 0.999738 0.983710 0.942932 0.878028 0.790267 0.681554 0.554402 0.411888 0.257590 0.095503 0.070052 0.234540 0.393340 0.541867 0.675712 0.790782 0.883424 0.950559 0.989797 0.999529 0.979010 0.928412 0.848851 0.742382 0.611971 0.461427 0.295306 0.118789 0.062475 0.242537 0.415348 0.574955 0.715718 0.832516 0.920944 0.977494 0.999713 0.986326 0.937320 0.853986 0.738917 0.595946 0.430050 0.247183 0.054089 0.141936 0.333328 0.512527 0.672290 0.805992 0.907914 0.973505 0.999608 0.984630 0.928663 0.833529 0.702752 0.541459 0.356207 0.154736 0.054337 0.261880 0.458630 0.635623 0.784604 0.898429 0.971429 0.999718 0.981429 0.916857 0.808510 0.661052 0.481129 0.277111 0.058716 0.163429 0.378300 0.575023 0.743431 0.874604 0.961368 0.998716 0.984130 0.917779 0.802589 0.644152 0.450500 0.231733 0.000488 0.233537 0.454507 0.650925 0.811473 0.926654 0.989396 0.995516 0.944042 0.837350 0.681109 0.484033 0.257427 0.014580 0.230000 0.461436 0.665400 0.829004 0.941650 0.995749 0.987277 0.916119 0.786177 0.605209 0.384418 0.137808 0.118681 0.368182 0.593999 0.780751 0.915437 0.988380 0.993968 0.931146 0.803585 0.619553 0.391417 0.134875 0.132087 0.390447 0.621485 0.808170 0.936431 0.996276 0.982619 0.895772 0.741542 0.530927 0.279368 0.005700 0.269248 0.524226 0.739197 0.896953 0.984528 0.994326 0.924846 0.780934 0.573534 0.318915 0.037467 0.247899 0.513600 0.737338 0.899990 0.987300 0.991190 0.910584 0.751646 0.527396 0.256724 0.037140 0.328589 0.591847 0.803271 0.943509 0.999332 0.964961 0.842743 0.643104 0.383746 0.088162 0.216450 0.501652 0.740437 0.909805 0.993045 0.981465 0.875385 0.684286 0.426062 0.125435 0.188348 0.484336 0.732923 0.908840
1.000000 1.000000 1.000000 1.000000 1.000000 1.000000 1.000000 1.000000 1.000000 1.000000 1.000000 1.000000 1.000000 1.000000 1.000000 1.000000 1.000000 1.000000 1.000000 1.000000 1.000000 1.000000 1.000000 1.000000 1.000000 1.000000 1.000000 1.000000 1.000000 1.000000 1.000000 1.000000 1.000000 1.000000 1.000000 1.000000 1.000000 1.000000 1.000000 1.000000 1.000000 1.000000 1.000000 1.000000 1.000000 1.000000 1.000000 1.000000 1.000000 1.000000 1.000000 1.000000 0.821219 0.821219 0.821219 0.821219 0.821219 0.821219 0.821219 0.795314 0.795314 0.795314 0.795314 0.795314 0.795314 0.795314 0.795314 0.795314 0.795314 0.795314 0.795314 0.795314 0.795314 0.795314 0.795314 0.795314 0.795314 0.795314 0.795314 0.795314 0.795314 0.795314 0.795314 0.795314 0.795314 0.795314 0.795314 0.795314 0.795314 0.795314 0.795314 0.795314 0.795314 0.795314 0.795314 0.795314 0.795314 0.795314 0.795314 0.795314 0.795314 0.795314 0.795314 0.942775 0.943750 0.944215 0.944877 0.943306 0.943502 0.939406 0.938433 0.940866 0.940690 0.940901 0.941921 0.941513 0.942790 0.944324 0.947391 0.947861 0.956021 0.959743 0.959600 0.958722 0.957640 0.971393 0.971205 0.971030 0.971037 0.971158 0.969631 0.968193 0.968094 0.968713 0.970498 0.970964 0.969167 0.967336 0.966593 0.965997 0.965799 0.965181 0.965526 0.966339 0.966437 0.967014 0.969715 0.968862 0.969505 0.968171 0.967386 0.966342 0.965014 0.965771 0.965590 0.965102 0.962999 0.960925 0.961755 0.960664 0.961121 0.962850 0.963119 0.963393 0.963829 0.963913 0.963840 0.964673 0.961935 0.950323 0.947939 0.945332 0.945898 0.947669 0.950018 0.949296 0.947407 0.945450 0.940629 0.936777 0.924040 0.917728 0.914189 0.919131 0.917275 0.917923 0.917397 0.914104 0.912385 0.912668 0.911458 0.914441 0.914502 0.910597 0.901788 0.899801 0.895886 0.897689 0.900040 0.902100 0.902061 0.898144 0.886450 0.879819 0.883075 0.883659 0.889953 0.880849 0.879668 0.878666 0.871156 0.866843 0.858122 0.856706 0.857917 0.857347 0.860242 0.860054 0.853190 0.826933 0.821481 0.817902 0.814070 0.818454 0.828052 0.829992 0.825274 0.809474 0.799591 0.786392 0.787341 0.790449 0.789168 0.794634 0.774553 0.774560 0.750218 0.750068 0.745706 0.734391 0.731061 0.721028 0.725888 0.731740 0.738230 0.739426 0.722383 0.717297 0.678727 0.686119 0.642534 0.650984 0.649411 0.632299 0.617816 0.602872 0.614705 0.620997 0.626061 0.600671 0.591043 0.569801 0.558020 0.562433 0.548622 0.549291 0.549580 0.545060 0.535480 0.546748 0.558099 0.565716 0.547628 0.547875 0.551915 0.533206 0.516535 0.499080 0.492578 0.507878 0.527911 0.531289 0.533437 0.530612 0.496188 0.471621 0.498294 0.510344 0.524401 0.515242 0.504259 0.497350 0.506256 0.487715 0.512807 0.508343 0.510655 0.482395 0.434901 0.387088 0.330240 0.352172 0.354171 0.358207 0.352615 0.351377 0.333202 0.308542 0.308891 0.309618 0.332139 0.334204 0.298584 0.310814 0.306902 0.308132 0.310140 0.303886 0.309527 0.313229 0.341938 0.345554 0.282131 0.262198 0.215507 0.212656 0.221529 0.245476 0.264569 0.254623 0.227881 0.112721 0.136237 0.163999 0.163999 0.163999 0.163999 0.163999 0.163999 0.163999 0.163999 0.163999 0.163999 0.163999 0.099750 0.099750 0.099750 0.099750 0.099750 0.099750 0.099750 0.099750 0.099750 0.099750 0.099750 0.099750 0.099750 0.099750 0.099750 0.099750 0.099750 0.099750 0.099750
0.000000 0.000000 0.000000 0.000000 0.000000 0.000000 0.000000 0.000000 0.000000 0.000000 0.000000 0.000000 0.000000 0.000000 0.000000 0.000000 0.000000 0.000000 0.000000 0.000000 0.000000 0.000000 0.000000 0.000000 0.000000 0.000000 0.000000 0.000000 0.000000 0.000000 0.000000 0.000000 0.000000 0.000000 0.000000 0.000000 0.000000 0.000000 0.000000 0.000000 0.000000 0.000000 0.000000 0.000000 0.000000 0.000000 0.000000 0.000000 0.000000 0.000000 0.000000 0.000000 0.173422 0.173422 0.173422 0.173422 0.173422 0.173422 0.173422 0.191565 0.191565 0.191565 0.191565 0.191565 0.191565 0.191565 0.191565 0.191565 0.191565 0.191565 0.191565 0.191565 0.191565 0.191565 0.191565 0.191565 0.191565 0.191565 0.191565 0.191565 0.191565 0.191565 0.191565 0.191565 0.191565 0.191565 0.191565 0.191565 0.191565 0.191565 0.191565 0.191565 0.191565 0.191565 0.191565 0.191565 0.191565 0.191565 0.191565 0.191565 0.191565 0.191565 0.191565 0.219529 0.219529 0.219529 0.219529 0.219529 0.219529 0.219529 0.219529 0.219529 0.219529 0.219529 0.219529 0.219529 0.219529 0.219529 0.219529 0.219529 0.219529 0.219529 0.219529 0.219529 0.219529 0.219529 0.219529 0.219529 0.219529 0.219529 0.219529 0.219529 0.219529 0.219529 0.237356 0.237356 0.237356 0.237356 0.237356 0.237356 0.237356 0.237356 0.237356 0.237356 0.237356 0.237356 0.237356 0.237356 0.237356 0.237356 0.237356 0.237356 0.237356 0.237356 0.237356 0.237356 0.237356 0.237356 0.244339 0.244339 0.244339 0.244339 0.244339 0.244339 0.244339 0.244339 0.244339 0.244339 0.244339 0.244339 0.244339 0.244339 0.244339 0.244339 0.244339 0.244339 0.244339 0.244339 0.244339 0.248069 0.248069 0.248069 0.248069 0.248069 0.248069 0.248069 0.248069 0.248069 0.248069 0.248069 0.248069 0.248069 0.248069 0.248069 0.248069 0.248069 0.248069 0.248069 0.248069 0.248069 0.248069 0.248069 0.248069 0.248069 0.248069 0.248069 0.248069 0.248069 0.248069 0.248069 0.248069 0.248069 0.248069 0.248069 0.248069 0.248069 0.256074 0.256074 0.256074 0.256074 0.256074 0.256074 0.256074 0.256074 0.256074 0.256074 0.256074 0.256074 0.256074 0.256074 0.256074 0.256074 0.256074 0.256074 0.256074 0.256074 0.256074 0.256074 0.256074 0.256074 0.256074 0.256074 0.256074 0.256074 0.256074 0.256074 0.256074 0.256074 0.256074 0.256074 0.256074 0.256074 0.256074 0.256074 0.256074 0.256074 0.256074 0.256074 0.256074 0.256074 0.256074 0.260378 0.260378 0.260378 0.260378 0.260378 0.260378 0.260378 0.260378 0.260378 0.260378 0.260378 0.260378 0.260378 0.256074 0.256074 0.256074 0.256074 0.256074 0.256074 0.256074 0.256074 0.256074 0.256074 0.256074 0.256074 0.256074 0.260378 0.260378 0.260378 0.260378 0.260378 0.260378 0.260378 0.260378 0.260378 0.260378 0.260378 0.260378 0.251976 0.251976 0.251976 0.251976 0.251976 0.251976 0.251976 0.251976 0.251976 0.251976 0.251976 0.251976 0.256074 0.256074 0.256074 0.256074 0.256074 0.256074 0.256074 0.256074 0.256074 0.256074 0.256074 0.251976 0.251976 0.251976 0.251976 0.251976 0.251976 0.251976 0.251976 0.251976 0.251976 0.251976 0.248069 0.248069 0.248069 0.248069 0.248069 0.248069 0.248069 0.248069 0.248069 0.248069 0.248069 0.256074 0.256074 0.256074 0.256074 0.256074 0.256074 0.256074 0.256074 0.256074 0.256074 0.256074 0.256074 0.256074 0.256074 0.256074 0.256074 0.256074 0.256074 0.256074
