# Output from CTFFind version 4.1.9, run on 2019-11-03 19:37:36
# Input file: stack16_bm3d_averaged_1_4.25_0_3000_half.mrc ; Number of micrographs: 1
# Pixel size: 3.000 Angstroms ; acceleration voltage: 300.0 keV ; spherical aberration: 0.00 mm ; amplitude contrast: 0.07
# Box size: 512 pixels ; min. res.: 30.0 Angstroms ; max. res.: 5.0 Angstroms ; min. def.: 5000.0 um; max. def. 50000.0 um; num. frames averaged: 1
# 6 lines per micrograph: #1 - spatial frequency (1/Angstroms); #2 - 1D rotational average of spectrum (assuming no astigmatism); #3 - 1D rotational average of spectrum; #4 - CTF fit; #5 - cross-correlation between spectrum and CTF fit; #6 - 2sigma of expected cross correlation of noise
0.000000 0.000651 0.001302 0.001953 0.002604 0.003255 0.003906 0.004557 0.005208 0.005859 0.006510 0.007161 0.007812 0.008464 0.009115 0.009766 0.010417 0.011068 0.011719 0.012370 0.013021 0.013672 0.014323 0.014974 0.015625 0.016276 0.016927 0.017578 0.018229 0.018880 0.019531 0.020182 0.020833 0.021484 0.022135 0.022786 0.023438 0.024089 0.024740 0.025391 0.026042 0.026693 0.027344 0.027995 0.028646 0.029297 0.029948 0.030599 0.031250 0.031901 0.032552 0.033203 0.033854 0.034505 0.035156 0.035807 0.036458 0.037109 0.037760 0.038411 0.039062 0.039714 0.040365 0.041016 0.041667 0.042318 0.042969 0.043620 0.044271 0.044922 0.045573 0.046224 0.046875 0.047526 0.048177 0.048828 0.049479 0.050130 0.050781 0.051432 0.052083 0.052734 0.053385 0.054036 0.054688 0.055339 0.055990 0.056641 0.057292 0.057943 0.058594 0.059245 0.059896 0.060547 0.061198 0.061849 0.062500 0.063151 0.063802 0.064453 0.065104 0.065755 0.066406 0.067057 0.067708 0.068359 0.069010 0.069661 0.070312 0.070964 0.071615 0.072266 0.072917 0.073568 0.074219 0.074870 0.075521 0.076172 0.076823 0.077474 0.078125 0.078776 0.079427 0.080078 0.080729 0.081380 0.082031 0.082682 0.083333 0.083984 0.084635 0.085286 0.085938 0.086589 0.087240 0.087891 0.088542 0.089193 0.089844 0.090495 0.091146 0.091797 0.092448 0.093099 0.093750 0.094401 0.095052 0.095703 0.096354 0.097005 0.097656 0.098307 0.098958 0.099609 0.100260 0.100911 0.101562 0.102214 0.102865 0.103516 0.104167 0.104818 0.105469 0.106120 0.106771 0.107422 0.108073 0.108724 0.109375 0.110026 0.110677 0.111328 0.111979 0.112630 0.113281 0.113932 0.114583 0.115234 0.115885 0.116536 0.117188 0.117839 0.118490 0.119141 0.119792 0.120443 0.121094 0.121745 0.122396 0.123047 0.123698 0.124349 0.125000 0.125651 0.126302 0.126953 0.127604 0.128255 0.128906 0.129557 0.130208 0.130859 0.131510 0.132161 0.132812 0.133464 0.134115 0.134766 0.135417 0.136068 0.136719 0.137370 0.138021 0.138672 0.139323 0.139974 0.140625 0.141276 0.141927 0.142578 0.143229 0.143880 0.144531 0.145182 0.145833 0.146484 0.147135 0.147786 0.148438 0.149089 0.149740 0.150391 0.151042 0.151693 0.152344 0.152995 0.153646 0.154297 0.154948 0.155599 0.156250 0.156901 0.157552 0.158203 0.158854 0.159505 0.160156 0.160807 0.161458 0.162109 0.162760 0.163411 0.164062 0.164714 0.165365 0.166016 0.166667 0.167318 0.167969 0.168620 0.169271 0.169922 0.170573 0.171224 0.171875 0.172526 0.173177 0.173828 0.174479 0.175130 0.175781 0.176432 0.177083 0.177734 0.178385 0.179036 0.179688 0.180339 0.180990 0.181641 0.182292 0.182943 0.183594 0.184245 0.184896 0.185547 0.186198 0.186849 0.187500 0.188151 0.188802 0.189453 0.190104 0.190755 0.191406 0.192057 0.192708 0.193359 0.194010 0.194661 0.195312 0.195964 0.196615 0.197266 0.197917 0.198568 0.199219 0.199870 0.200521 0.201172 0.201823 0.202474 0.203125 0.203776 0.204427 0.205078 0.205729 0.206380 0.207031 0.207682 0.208333 0.208984 0.209635 0.210286 0.210938 0.211589 0.212240 0.212891 0.213542 0.214193 0.214844 0.215495 0.216146 0.216797 0.217448 0.218099 0.218750 0.219401 0.220052 0.220703 0.221354 0.222005 0.222656 0.223307 0.223958 0.224609 0.225260 0.225911 0.226562 0.227214 0.227865 0.228516 0.229167 0.229818 0.230469 0.231120 0.231771 0.232422 0.233073 0.233724 0.234375 0.235026 0.235677
       0.33099        0.33099        0.33099        0.33099        0.33099        0.33099        0.33099        0.33099        0.33099        0.33099        0.33099        0.33099        0.33099        0.33099        0.33099        0.33099        0.33099        0.33099        0.33099        0.33099        0.33099        0.33099        0.33099        0.33099        0.33099        0.33099        0.33099        0.33099        0.33099        0.33099        0.33099        0.33099        0.33099        0.33099        0.33099        0.33099        0.33099        0.33099        0.33099        0.33099        0.33099        0.33099        0.33099        0.33099        0.33099        0.33099        0.33099        0.33099        0.33099        0.33099        0.33099        0.42139        0.57126        0.35955       -0.18314       -0.45383       -0.56271       -0.65721       -0.73238       -0.75358       -0.86625       -0.91967       -0.72098       -0.88670       -0.85369       -1.00624       -1.04413       -0.92853       -0.88632       -0.82527       -0.76129       -0.67971       -0.59306       -0.50126       -0.42680       -0.20593       -0.09421       -0.00366        0.22576        0.23829        0.30099        0.36731        0.39272        0.49376        0.54147        0.57535        0.54004        0.47686        0.51640        0.49536        0.41634        0.31584        0.18311        0.16521        0.10216       -0.04040       -0.05329       -0.05447        0.02449       -0.01390        0.04165        0.02472        0.13890        0.18520        0.40166        0.45912        0.55517        0.66025        0.70852        0.72056        0.64658        0.62576        0.52958        0.44122        0.37691        0.25696        0.20141        0.18678        0.07640        0.05756        0.03668        0.05630        0.08073        0.28877        0.40443        0.50311        0.54676        0.58626        0.62946        0.60147        0.60153        0.59538        0.56615        0.46565        0.28201        0.24583        0.21130        0.11447        0.05985        0.11603        0.13563        0.25981        0.34961        0.40577        0.47449        0.54000        0.61301        0.55976        0.51444        0.48928        0.35745        0.22644        0.22046        0.15396        0.13031        0.17683        0.22855        0.26198        0.31034        0.41465        0.43251        0.51459        0.46505        0.45519        0.46768        0.37061        0.31468        0.26865        0.22207        0.20448        0.21900        0.22901        0.31686        0.42109        0.41868        0.48325        0.54056        0.45454        0.42059        0.35525        0.28835        0.23795        0.23885        0.26367        0.27593        0.29800        0.31908        0.40735        0.46554        0.44043        0.44517        0.34764        0.36204        0.34900        0.22358        0.22496        0.23728        0.28208        0.34987        0.36727        0.39356        0.43625        0.43548        0.36212        0.34266        0.30537        0.32090        0.28473        0.26569        0.26768        0.32082        0.36386        0.37284        0.39781        0.37526        0.39799        0.36321        0.28215        0.27506        0.29811        0.32777        0.35378        0.34781        0.40635        0.33956        0.36969        0.37578        0.31732        0.33180        0.28465        0.28665        0.33573        0.31964        0.31890        0.32633        0.34765        0.31162        0.33375        0.29338        0.30615        0.27158        0.28629        0.28758        0.33740        0.37293        0.35138        0.33355        0.28931        0.26918        0.27200        0.30810        0.27681        0.29993        0.35499        0.37354        0.33036        0.30385        0.30295        0.29441        0.27106        0.27427        0.27765        0.31342        0.33836        0.30774        0.27483        0.32779        0.29974        0.29341        0.33447        0.32720        0.31295        0.33169        0.29208        0.31694        0.27323        0.29539        0.29831        0.30890        0.39005        0.32022        0.34093        0.29946        0.30046        0.30133        0.31070        0.28363        0.27833        0.30390        0.30234        0.32069        0.29903        0.30877        0.28916        0.29227        0.30910        0.32734        0.31624        0.32942        0.32980        0.30059        0.27096        0.27773        0.25586        0.33178        0.31817        0.33694        0.29531        0.26853        0.29937        0.32986        0.30450        0.28844        0.26713        0.30294        0.28148        0.25040        0.30236        0.27573        0.27734        0.30599        0.29584        0.33016        0.34798        0.29012        0.25636        0.24077        0.26132        0.27572        0.26469        0.29283        0.26495        0.23638        0.28061        0.27232        0.27127        0.23334        0.31330        0.29384        0.27079        0.24958        0.24530        0.26622        0.22209        0.26669        0.32005        0.36172        0.26664        0.26555        0.25305        0.24559        0.19694        0.30087        0.22276        0.22012        0.15877        0.23195        0.23026        0.23172        0.05846        0.08943       -0.53864       -1.00097
2.995577 2.958375 2.921412 2.884688 2.848202 2.811956 2.775949 2.740181 2.704652 2.669362 2.634311 2.599498 2.564925 2.530591 2.496496 2.462640 2.429023 2.395645 2.362506 2.329605 2.296944 2.264522 2.232339 2.200395 2.168690 2.137223 2.105996 2.075008 2.044259 2.013749 1.983477 1.953445 1.923652 1.894098 1.864783 1.835706 1.806869 1.778271 1.749912 1.721792 1.693910 1.666268 1.638865 1.611701 1.584776 1.558089 1.531642 1.505434 1.479465 1.453735 1.428243 1.462705 1.573770 1.515286 0.857877 0.581120 0.432164 0.366614 0.276561 0.191402 0.141237 -0.066493 0.174555 0.037536 -0.054088 -0.132056 -0.250731 -0.167097 -0.085600 -0.096338 -0.097885 0.022445 0.017599 0.202695 0.098194 0.335816 0.448829 0.462952 0.737256 0.686046 0.678036 0.831164 0.798323 0.819597 0.917506 0.875122 0.904887 0.733679 0.819968 0.843779 0.663282 0.597998 0.446581 0.418780 0.374302 0.177143 0.169082 0.119780 0.216595 0.122829 0.216048 0.106807 0.245289 0.242463 0.475987 0.424723 0.606956 0.639958 0.690537 0.734691 0.660489 0.635918 0.487073 0.437885 0.322772 0.291655 0.121013 0.185421 -0.004178 0.029664 -0.037934 -0.035652 -0.014812 0.050075 0.301491 0.324509 0.406325 0.356430 0.440576 0.478093 0.462780 0.457914 0.386872 0.384268 0.153577 0.111113 0.071333 0.013502 -0.144518 -0.027505 -0.082543 0.044365 0.125658 0.186210 0.265788 0.267972 0.357549 0.464824 0.350120 0.397411 0.294789 0.149929 0.065502 0.073545 0.015859 0.033088 0.075130 0.114576 0.130024 0.227067 0.260341 0.304232 0.353183 0.256018 0.279020 0.241556 0.119121 0.105300 0.039436 0.041211 0.014382 0.021435 0.053505 0.177674 0.200647 0.200919 0.325864 0.210519 0.238939 0.108844 0.091125 -0.014815 -0.006406 0.004254 0.022919 0.036288 0.032968 0.088976 0.163631 0.170596 0.213901 0.114471 0.078510 0.104713 0.035678 -0.085667 -0.017593 0.008223 0.038553 0.060212 0.099904 0.158576 0.139459 0.162026 0.048668 0.064107 0.037520 0.046723 0.013377 -0.010815 0.025011 0.047966 0.087611 0.117719 0.104917 0.104118 0.122038 0.049313 -0.002462 0.005588 0.021602 0.078715 0.057035 0.101310 0.112264 0.057985 0.098436 0.066867 0.037205 0.055864 -0.029222 0.028090 0.063030 0.029541 0.030969 0.098118 0.036007 0.051000 0.035046 0.011159 0.025367 -0.024991 0.005152 0.006857 0.064610 0.092399 0.063473 0.036610 -0.013979 -0.019905 -0.007902 0.018369 -0.008931 0.018357 0.076145 0.077369 -0.002320 0.027929 -0.004913 0.004936 -0.025493 -0.022448 -0.010574 0.038832 0.001292 0.012869 -0.011078 0.024196 -0.010219 0.008470 0.032308 0.027106 0.038209 -0.024937 0.006518 0.007776 -0.041809 -0.003540 -0.000146 0.031173 0.097398 0.008788 0.025147 0.007017 0.017754 -0.014308 0.033466 -0.014751 -0.011519 0.007014 0.024444 0.021051 0.006094 0.056678 -0.030104 0.000658 0.021426 0.031718 0.045754 0.045797 0.020107 0.027260 -0.000450 -0.023173 -0.007019 0.044160 0.040246 0.045307 0.008092 -0.014399 0.002612 0.054838 0.008930 0.020130 -0.018956 0.008164 -0.013713 -0.034042 0.006128 0.003236 -0.011546 0.024129 0.013264 0.073229 0.059994 0.018516 -0.005002 -0.046945 -0.004015 0.004446 -0.046365 0.040303 -0.031443 -0.074318 0.023716 -0.017258 -0.064430 -0.065348 0.018175 -0.024363 -0.050996 -0.064895 -0.048995 -0.017362 -0.072888 -0.008272 0.035957 0.087196 -0.048006 0.002351 0.085495 0.007085 -0.055839 0.143986 0.064190 0.122079 0.038503 0.249669 0.208607 0.245840 -0.051777 0.087879 -0.930391
0.072396 0.073047 0.075001 0.078256 0.082812 0.088666 0.095818 0.104264 0.113999 0.125020 0.137318 0.150887 0.165715 0.181790 0.199097 0.217616 0.237326 0.258201 0.280210 0.303317 0.327481 0.352655 0.378785 0.405811 0.433663 0.462265 0.491532 0.521369 0.551670 0.582323 0.613201 0.644169 0.675079 0.705772 0.736079 0.765818 0.794796 0.822809 0.849643 0.875072 0.898862 0.920772 0.940551 0.957944 0.972691 0.984529 0.993197 0.998433 0.999982 0.997594 0.991033 0.980074 0.964509 0.944155 0.918850 0.888463 0.852897 0.812091 0.766027 0.714734 0.658289 0.596825 0.530530 0.459656 0.384517 0.305492 0.223028 0.137640 0.049911 0.039511 0.129912 0.220517 0.310497 0.398969 0.485010 0.567662 0.645942 0.718857 0.785413 0.844631 0.895562 0.937305 0.969023 0.989961 0.999463 0.996993 0.982150 0.954688 0.914531 0.861784 0.796751 0.719941 0.632076 0.534093 0.427147 0.312600 0.192017 0.067148 0.060088 0.187635 0.313322 0.434903 0.550095 0.656622 0.752263 0.834902 0.902580 0.953548 0.986318 0.999714 0.992920 0.965518 0.917529 0.849432 0.762191 0.657252 0.536545 0.402459 0.257816 0.105815 0.050018 0.205915 0.357942 0.502107 0.634460 0.751210 0.848837 0.924215 0.974722 0.998346 0.993780 0.960497 0.898815 0.809928 0.695915 0.559723 0.405116 0.236588 0.059259 0.121273 0.299094 0.468170 0.622553 0.756595 0.865167 0.943879 0.989273 0.999001 0.971971 0.908445 0.810098 0.680016 0.522639 0.343645 0.149777 0.051393 0.251743 0.442919 0.616688 0.765302 0.881863 0.960667 0.997516 0.989977 0.937572 0.841883 0.706570 0.537282 0.341464 0.128080 0.092779 0.310356 0.513729 0.692385 0.836772 0.938837 0.992521 0.994162 0.942786 0.840275 0.691371 0.503524 0.286579 0.052307 0.186206 0.415264 0.621359 0.791966 0.916354 0.986293 0.996664 0.945889 0.836160 0.673449 0.467247 0.230100 0.023118 0.276091 0.512107 0.715161 0.871071 0.968518 0.999933 0.962156 0.856815 0.690375 0.473842 0.222116 0.046970 0.313867 0.558724 0.762866 0.910267 0.988865 0.991634 0.917300 0.770629 0.562250 0.307985 0.027736 0.256020 0.519999 0.742036 0.902982 0.988429 0.990090 0.906711 0.744400 0.516319 0.241735 0.055516 0.349044 0.612220 0.820612 0.954329 0.999996 0.952219 0.814333 0.598345 0.324023 0.017219 0.292504 0.574680 0.800956 0.947994 0.999989 0.950498 0.803372 0.572648 0.281368 0.040590 0.359492 0.641271 0.855175 0.977218 0.992990 0.899516 0.705908 0.432658 0.109647 0.227010 0.538950 0.789919 0.950074 0.999641 0.931535 0.752534 0.482830 0.153945 0.194818 0.520985 0.784103 0.950796 0.999166 0.921834 0.727260 0.439058 0.093338 0.265678 0.591241 0.840167 0.978672 0.987116 0.863003 0.621742 0.294985 0.073324 0.432735 0.733166 0.931935 0.999976 0.926298 0.720000 0.409433 0.038545 0.339163 0.668295 0.899712 0.998004 0.947133 0.753299 0.444527 0.066874 0.322252 0.662718 0.901006 0.998762 0.939205 0.730292 0.404002 0.011716 0.383667 0.717735 0.935134 0.998885 0.896969 0.644871 0.283602 0.126730 0.516703 0.819320 0.981617 0.974164 0.796719 0.478892 0.075560 0.342364 0.700288 0.933295 0.998099 0.881412 0.602994 0.212711 0.218096 0.609454 0.887639 0.999181 0.921472 0.667702 0.285061 0.153663 0.563760 0.864866 0.996909 0.932355 0.682363 0.295339 0.152088 0.569970 0.873122 0.998605 0.919146 0.649467 0.244073 0.213414 0.627240 0.909569 0.999316 0.875729 0.563643 0.128962 0.334854 0.726714
1.000000 1.000000 1.000000 1.000000 1.000000 1.000000 1.000000 1.000000 1.000000 1.000000 1.000000 1.000000 1.000000 1.000000 1.000000 1.000000 1.000000 1.000000 1.000000 1.000000 1.000000 1.000000 1.000000 1.000000 1.000000 1.000000 1.000000 1.000000 1.000000 1.000000 1.000000 1.000000 1.000000 1.000000 1.000000 1.000000 1.000000 1.000000 1.000000 1.000000 1.000000 1.000000 1.000000 1.000000 1.000000 1.000000 1.000000 1.000000 1.000000 1.000000 1.000000 1.000000 0.934259 0.934259 0.934259 0.934259 0.934259 0.934259 0.934259 0.934259 0.934259 0.934259 0.934259 0.934259 0.934259 0.934259 0.934259 0.934259 0.934259 0.934259 0.934259 0.934259 0.934259 0.934259 0.934259 0.934259 0.934259 0.934259 0.934259 0.934259 0.934259 0.934259 0.934259 0.934259 0.934259 0.922488 0.920503 0.923337 0.924314 0.924219 0.923754 0.923479 0.923773 0.925228 0.927043 0.948416 0.950681 0.951273 0.952433 0.952496 0.955177 0.953500 0.958135 0.968815 0.968137 0.969029 0.963361 0.964209 0.963829 0.963254 0.965116 0.964832 0.963547 0.962026 0.960866 0.960540 0.960319 0.961867 0.962317 0.962594 0.962959 0.962922 0.962822 0.960394 0.958182 0.960583 0.959947 0.958890 0.964398 0.963063 0.965039 0.965034 0.965723 0.966518 0.966735 0.966910 0.960916 0.959479 0.957355 0.942608 0.936716 0.932659 0.935530 0.938765 0.936715 0.931968 0.929978 0.931939 0.923562 0.923085 0.916631 0.916542 0.903219 0.896953 0.886835 0.888307 0.889389 0.889335 0.886789 0.875825 0.866135 0.863861 0.867037 0.860793 0.857094 0.873270 0.868554 0.870549 0.873820 0.876164 0.881884 0.871873 0.866744 0.862710 0.858490 0.857703 0.859747 0.864448 0.866497 0.861375 0.853517 0.857146 0.850670 0.852535 0.858092 0.857962 0.853002 0.850777 0.850892 0.852193 0.847530 0.854128 0.842533 0.839528 0.838626 0.834225 0.832187 0.824710 0.824119 0.825371 0.828758 0.821463 0.826606 0.798464 0.807794 0.801155 0.807404 0.806479 0.805130 0.806358 0.788385 0.781407 0.778376 0.788845 0.798199 0.776517 0.773919 0.769679 0.754761 0.758906 0.766221 0.760634 0.756803 0.745001 0.753610 0.753030 0.755188 0.748757 0.728595 0.731441 0.741415 0.748416 0.722933 0.715671 0.710435 0.709471 0.710905 0.677801 0.673756 0.655539 0.642077 0.646205 0.630479 0.604811 0.609491 0.608447 0.581979 0.584437 0.575266 0.520672 0.505978 0.492230 0.496465 0.498298 0.525824 0.528914 0.510987 0.529315 0.534374 0.530082 0.547120 0.431704 0.439108 0.420575 0.428385 0.434190 0.431346 0.406196 0.416437 0.415961 0.423069 0.420313 0.420165 0.438139 0.415105 0.413951 0.429054 0.410475 0.404538 0.415959 0.431635 0.435380 0.422414 0.418592 0.422688 0.426948 0.368802 0.363395 0.393501 0.359735 0.338636 0.335040 0.354430 0.334042 0.360239 0.350516 0.359472 0.370474 0.329460 0.345777 0.333652 0.365262 0.383534 0.370356 0.353050 0.344779 0.360885 0.302667 0.315362 0.343410 0.319752 0.382381 0.340063 0.329722 0.254984 0.303384 0.267643 0.278673 0.266359 0.214367 0.212862 0.201303 0.188218 0.174404 0.189573 0.158673 0.131600 0.090150 0.098772 0.074606 0.091871 0.104748 0.078411 0.071626 0.071626 0.071626 0.071626 0.053884 0.053884 0.053884 0.053884 0.053884 0.053884 0.053884 0.053884 0.053884 0.053884 0.053884 0.053884 0.053884 0.053884 -0.042247 -0.042247 -0.042247 -0.042247 -0.042247 -0.042247 -0.042247 -0.042247 -0.042247 -0.042247 -0.042247 -0.042247
0.000000 0.000000 0.000000 0.000000 0.000000 0.000000 0.000000 0.000000 0.000000 0.000000 0.000000 0.000000 0.000000 0.000000 0.000000 0.000000 0.000000 0.000000 0.000000 0.000000 0.000000 0.000000 0.000000 0.000000 0.000000 7.000000 4.000000 0.000000 0.000000 0.000000 0.000000 0.000000 0.000000 0.000000 0.000000 0.000000 0.000000 0.000000 0.000000 0.000000 0.000000 0.000000 0.000000 0.000000 0.000000 0.000000 0.000000 0.000000 0.000000 0.000000 0.000000 0.000000 0.209657 0.209657 0.209657 0.209657 0.209657 0.209657 0.209657 0.209657 0.209657 0.209657 0.209657 0.209657 0.209657 0.209657 0.209657 0.209657 0.209657 0.209657 0.209657 0.209657 0.209657 0.209657 0.209657 0.209657 0.209657 0.209657 0.209657 0.209657 0.209657 0.209657 0.209657 0.209657 0.209657 0.244339 0.244339 0.244339 0.244339 0.244339 0.244339 0.244339 0.244339 0.244339 0.244339 0.244339 0.244339 0.244339 0.244339 0.244339 0.244339 0.244339 0.244339 0.244339 0.244339 0.244339 0.244339 0.244339 0.244339 0.244339 0.260378 0.260378 0.260378 0.260378 0.260378 0.260378 0.260378 0.260378 0.260378 0.260378 0.260378 0.260378 0.260378 0.260378 0.260378 0.260378 0.260378 0.260378 0.260378 0.260378 0.269680 0.269680 0.269680 0.269680 0.269680 0.269680 0.269680 0.269680 0.269680 0.269680 0.269680 0.269680 0.269680 0.269680 0.269680 0.269680 0.269680 0.269680 0.269680 0.269680 0.269680 0.269680 0.269680 0.269680 0.269680 0.269680 0.269680 0.269680 0.269680 0.269680 0.269680 0.269680 0.269680 0.280056 0.280056 0.280056 0.280056 0.280056 0.280056 0.280056 0.280056 0.280056 0.280056 0.280056 0.280056 0.280056 0.280056 0.280056 0.280056 0.280056 0.280056 0.280056 0.280056 0.280056 0.280056 0.280056 0.280056 0.280056 0.280056 0.280056 0.285714 0.285714 0.285714 0.285714 0.285714 0.285714 0.285714 0.285714 0.285714 0.285714 0.285714 0.285714 0.274721 0.274721 0.274721 0.274721 0.274721 0.274721 0.274721 0.274721 0.274721 0.274721 0.274721 0.274721 0.280056 0.280056 0.280056 0.280056 0.280056 0.280056 0.280056 0.280056 0.280056 0.280056 0.280056 0.285714 0.285714 0.285714 0.285714 0.285714 0.285714 0.285714 0.285714 0.285714 0.285714 0.269680 0.269680 0.269680 0.269680 0.269680 0.269680 0.269680 0.269680 0.269680 0.269680 0.269680 0.285714 0.285714 0.285714 0.285714 0.285714 0.285714 0.285714 0.285714 0.285714 0.280056 0.280056 0.280056 0.280056 0.280056 0.280056 0.280056 0.280056 0.280056 0.274721 0.274721 0.274721 0.274721 0.274721 0.274721 0.274721 0.274721 0.274721 0.269680 0.269680 0.269680 0.269680 0.269680 0.269680 0.269680 0.269680 0.269680 0.280056 0.280056 0.280056 0.280056 0.280056 0.280056 0.280056 0.280056 0.260378 0.260378 0.260378 0.260378 0.260378 0.260378 0.260378 0.260378 0.260378 0.269680 0.269680 0.269680 0.269680 0.269680 0.269680 0.269680 0.269680 0.285714 0.285714 0.285714 0.285714 0.285714 0.285714 0.285714 0.264906 0.264906 0.264906 0.264906 0.264906 0.264906 0.264906 0.264906 0.274721 0.274721 0.274721 0.274721 0.274721 0.274721 0.274721 0.256074 0.256074 0.256074 0.256074 0.256074 0.256074 0.256074 0.256074 0.264906 0.264906 0.264906 0.264906 0.264906 0.264906 0.264906 0.264906 0.264906 0.264906 0.264906 0.264906 0.264906 0.264906 0.280056 0.280056 0.280056 0.280056 0.280056 0.280056 0.280056 0.280056 0.280056 0.280056 0.280056 0.280056
