# Output from CTFFind version 4.1.9, run on 2019-11-03 19:27:15
# Input file: stack11_bm3d_averaged_1_3.75_0_1000_half.mrc ; Number of micrographs: 1
# Pixel size: 3.000 Angstroms ; acceleration voltage: 300.0 keV ; spherical aberration: 0.00 mm ; amplitude contrast: 0.07
# Box size: 512 pixels ; min. res.: 30.0 Angstroms ; max. res.: 5.0 Angstroms ; min. def.: 5000.0 um; max. def. 50000.0 um; num. frames averaged: 1
# 6 lines per micrograph: #1 - spatial frequency (1/Angstroms); #2 - 1D rotational average of spectrum (assuming no astigmatism); #3 - 1D rotational average of spectrum; #4 - CTF fit; #5 - cross-correlation between spectrum and CTF fit; #6 - 2sigma of expected cross correlation of noise
0.000000 0.000651 0.001302 0.001953 0.002604 0.003255 0.003906 0.004557 0.005208 0.005859 0.006510 0.007161 0.007812 0.008464 0.009115 0.009766 0.010417 0.011068 0.011719 0.012370 0.013021 0.013672 0.014323 0.014974 0.015625 0.016276 0.016927 0.017578 0.018229 0.018880 0.019531 0.020182 0.020833 0.021484 0.022135 0.022786 0.023438 0.024089 0.024740 0.025391 0.026042 0.026693 0.027344 0.027995 0.028646 0.029297 0.029948 0.030599 0.031250 0.031901 0.032552 0.033203 0.033854 0.034505 0.035156 0.035807 0.036458 0.037109 0.037760 0.038411 0.039062 0.039714 0.040365 0.041016 0.041667 0.042318 0.042969 0.043620 0.044271 0.044922 0.045573 0.046224 0.046875 0.047526 0.048177 0.048828 0.049479 0.050130 0.050781 0.051432 0.052083 0.052734 0.053385 0.054036 0.054688 0.055339 0.055990 0.056641 0.057292 0.057943 0.058594 0.059245 0.059896 0.060547 0.061198 0.061849 0.062500 0.063151 0.063802 0.064453 0.065104 0.065755 0.066406 0.067057 0.067708 0.068359 0.069010 0.069661 0.070312 0.070964 0.071615 0.072266 0.072917 0.073568 0.074219 0.074870 0.075521 0.076172 0.076823 0.077474 0.078125 0.078776 0.079427 0.080078 0.080729 0.081380 0.082031 0.082682 0.083333 0.083984 0.084635 0.085286 0.085938 0.086589 0.087240 0.087891 0.088542 0.089193 0.089844 0.090495 0.091146 0.091797 0.092448 0.093099 0.093750 0.094401 0.095052 0.095703 0.096354 0.097005 0.097656 0.098307 0.098958 0.099609 0.100260 0.100911 0.101562 0.102214 0.102865 0.103516 0.104167 0.104818 0.105469 0.106120 0.106771 0.107422 0.108073 0.108724 0.109375 0.110026 0.110677 0.111328 0.111979 0.112630 0.113281 0.113932 0.114583 0.115234 0.115885 0.116536 0.117188 0.117839 0.118490 0.119141 0.119792 0.120443 0.121094 0.121745 0.122396 0.123047 0.123698 0.124349 0.125000 0.125651 0.126302 0.126953 0.127604 0.128255 0.128906 0.129557 0.130208 0.130859 0.131510 0.132161 0.132812 0.133464 0.134115 0.134766 0.135417 0.136068 0.136719 0.137370 0.138021 0.138672 0.139323 0.139974 0.140625 0.141276 0.141927 0.142578 0.143229 0.143880 0.144531 0.145182 0.145833 0.146484 0.147135 0.147786 0.148438 0.149089 0.149740 0.150391 0.151042 0.151693 0.152344 0.152995 0.153646 0.154297 0.154948 0.155599 0.156250 0.156901 0.157552 0.158203 0.158854 0.159505 0.160156 0.160807 0.161458 0.162109 0.162760 0.163411 0.164062 0.164714 0.165365 0.166016 0.166667 0.167318 0.167969 0.168620 0.169271 0.169922 0.170573 0.171224 0.171875 0.172526 0.173177 0.173828 0.174479 0.175130 0.175781 0.176432 0.177083 0.177734 0.178385 0.179036 0.179688 0.180339 0.180990 0.181641 0.182292 0.182943 0.183594 0.184245 0.184896 0.185547 0.186198 0.186849 0.187500 0.188151 0.188802 0.189453 0.190104 0.190755 0.191406 0.192057 0.192708 0.193359 0.194010 0.194661 0.195312 0.195964 0.196615 0.197266 0.197917 0.198568 0.199219 0.199870 0.200521 0.201172 0.201823 0.202474 0.203125 0.203776 0.204427 0.205078 0.205729 0.206380 0.207031 0.207682 0.208333 0.208984 0.209635 0.210286 0.210938 0.211589 0.212240 0.212891 0.213542 0.214193 0.214844 0.215495 0.216146 0.216797 0.217448 0.218099 0.218750 0.219401 0.220052 0.220703 0.221354 0.222005 0.222656 0.223307 0.223958 0.224609 0.225260 0.225911 0.226562 0.227214 0.227865 0.228516 0.229167 0.229818 0.230469 0.231120 0.231771 0.232422 0.233073 0.233724 0.234375 0.235026 0.235677
       0.32819        0.32819        0.32819        0.32819        0.32819        0.32819        0.32819        0.32819        0.32819        0.32819        0.32819        0.32819        0.32819        0.32819        0.32819        0.32819        0.32819        0.32819        0.32819        0.32819        0.32819        0.32819        0.32819        0.32819        0.32819        0.32819        0.32819        0.32819        0.32819        0.32819        0.32819        0.32819        0.32819        0.32819        0.32819        0.32819        0.32819        0.32819        0.32819        0.32819        0.32819        0.32819        0.32819        0.32819        0.32819        0.32819        0.32819        0.32819        0.32819        0.32819        0.32819        0.68759        0.86025        0.52860        0.09913       -0.04243       -0.40876       -0.19009       -0.29172       -0.11377       -0.06360       -0.11324       -0.05896       -0.18731       -0.21811       -0.23494       -0.31974       -0.33080       -0.46331       -0.37148       -0.44473       -0.43699       -0.41028       -0.44009       -0.48975       -0.53452       -0.57095       -0.58614       -0.55501       -0.38431       -0.35736       -0.31534       -0.29459       -0.19898       -0.19117        0.03967        0.11208        0.14312        0.24393        0.37400        0.44997        0.51401        0.57503        0.57285        0.56757        0.69083        0.80462        0.71555        0.73457        0.63650        0.56657        0.48170        0.42003        0.50444        0.38809        0.23708        0.09500        0.07656        0.05401       -0.04244        0.00136        0.01929       -0.02977        0.00665       -0.00088        0.23213        0.26009        0.28872        0.42398        0.44714        0.40584        0.56759        0.62416        0.66341        0.73853        0.68129        0.64923        0.67532        0.56620        0.47364        0.41677        0.29335        0.23161        0.16505        0.12228        0.04977        0.03280        0.03235        0.08239        0.13657        0.22148        0.27387        0.39790        0.44615        0.48828        0.58885        0.61610        0.63321        0.61971        0.55930        0.45196        0.46085        0.36749        0.24512        0.19213        0.15153        0.14487        0.13856        0.12011        0.14643        0.27921        0.29110        0.37261        0.40555        0.43105        0.50062        0.54687        0.55061        0.48399        0.44778        0.39546        0.34750        0.31515        0.27829        0.22422        0.22059        0.20380        0.22544        0.20575        0.29352        0.35095        0.38251        0.43480        0.45182        0.47312        0.41882        0.39471        0.40494        0.36119        0.29210        0.26479        0.23932        0.24030        0.21215        0.25591        0.25773        0.33449        0.36977        0.39544        0.47324        0.42109        0.42905        0.43067        0.40285        0.34295        0.31745        0.28624        0.29287        0.25973        0.29373        0.29105        0.31425        0.32087        0.33968        0.31906        0.40216        0.41643        0.38024        0.34502        0.36980        0.29796        0.28418        0.27703        0.30421        0.28477        0.29782        0.31223        0.32496        0.33784        0.36434        0.36973        0.37889        0.36647        0.31522        0.32833        0.28596        0.26245        0.31169        0.30475        0.31714        0.32058        0.32146        0.35454        0.32453        0.32135        0.30650        0.31867        0.28728        0.29791        0.26654        0.29439        0.30508        0.29031        0.31185        0.33177        0.33651        0.27444        0.30965        0.28037        0.29392        0.27259        0.22948        0.28566        0.29036        0.34128        0.32560        0.32320        0.31832        0.32854        0.28869        0.32865        0.32361        0.28519        0.27004        0.31278        0.29887        0.34574        0.32690        0.32869        0.33306        0.29052        0.27188        0.29989        0.24495        0.21843        0.31134        0.31452        0.31826        0.31296        0.32519        0.29850        0.34127        0.33361        0.26209        0.23551        0.29869        0.30024        0.29378        0.31857        0.33563        0.33429        0.30466        0.28967        0.33347        0.31420        0.28187        0.26365        0.31557        0.35222        0.38889        0.30639        0.27755        0.27184        0.30677        0.25475        0.28863        0.26582        0.24612        0.31338        0.33365        0.33905        0.32748        0.28593        0.26590        0.27439        0.24968        0.24066        0.24240        0.31630        0.28976        0.21817        0.32801        0.32262        0.25880        0.26514        0.20143        0.20369        0.24890        0.18194        0.24004        0.26970        0.22129        0.20061        0.29062        0.34120        0.33419        0.33539        0.24478        0.20585        0.17770        0.22767        0.21296        0.15817        0.18935        0.24287        0.22538        0.21434        0.16288        0.10286        0.12879        0.03124       -0.10011       -0.61887
2.658915 2.631060 2.603357 2.575804 2.548403 2.521153 2.494054 2.467106 2.440309 2.413663 2.387169 2.360825 2.334633 2.308592 2.282702 2.256963 2.231376 2.205939 2.180654 2.155519 2.130536 2.105704 2.081023 2.056494 2.032115 2.007888 1.983811 1.959886 1.936112 1.912489 1.889017 1.865697 1.842527 1.819509 1.796642 1.773925 1.751361 1.728947 1.706684 1.684572 1.662612 1.640803 1.619145 1.597638 1.576282 1.555077 1.534023 1.513121 1.492370 1.471770 1.451320 1.668811 2.087387 1.651061 1.155338 1.019574 0.426344 0.830291 0.555999 0.839161 0.790019 0.803884 0.752586 0.727074 0.580045 0.537138 0.489596 0.428556 0.229765 0.372426 0.200184 0.317689 0.225086 0.192384 0.160183 0.025949 0.024426 0.004861 -0.067046 0.120861 0.218797 0.186727 0.163705 0.333511 0.185945 0.505619 0.609689 0.599085 0.621961 0.876138 0.828194 0.942128 0.907961 1.007431 0.967995 1.082182 1.148256 1.050687 1.151733 0.926840 0.933347 0.792846 0.657794 0.794815 0.711392 0.479850 0.327110 0.251559 0.253066 0.149310 0.115549 0.153528 0.101474 0.139125 0.068289 0.266644 0.375126 0.353217 0.479861 0.558551 0.437925 0.583476 0.721563 0.712270 0.758125 0.716732 0.733802 0.683702 0.614771 0.536489 0.402636 0.285167 0.229083 0.086570 0.130868 -0.062817 -0.036648 -0.059794 -0.056959 -0.014245 0.151686 0.070432 0.264676 0.307480 0.353494 0.428028 0.520608 0.487606 0.519223 0.512219 0.329021 0.311023 0.294496 0.099542 0.053209 -0.038871 -0.005596 -0.041505 -0.073889 -0.084624 0.040202 0.079600 0.131408 0.201945 0.238044 0.280791 0.319462 0.424716 0.402901 0.293805 0.250722 0.226918 0.172353 0.140454 0.113127 0.012789 0.023282 0.055902 0.003943 0.078411 0.157529 0.153705 0.254043 0.253951 0.307183 0.188039 0.228606 0.155730 0.201950 0.117085 0.052722 0.005854 0.005843 -0.001643 -0.037421 0.050334 0.026700 0.140392 0.152864 0.186257 0.237412 0.166943 0.172710 0.180482 0.134296 0.065148 0.014428 0.053914 0.005806 -0.012329 0.023279 0.042373 0.058305 0.051961 0.062417 0.097060 0.131097 0.174064 0.071328 0.074723 0.065899 0.014195 -0.014154 0.015386 0.017884 0.012582 0.015454 0.036616 0.059321 0.070606 0.115154 0.066420 0.137279 0.067828 0.029004 0.053364 -0.025151 0.004133 0.051576 0.008272 0.054223 0.057845 0.032359 0.103452 0.059839 0.027547 0.057698 0.021499 0.031537 0.020667 -0.005087 0.055384 0.013874 0.021979 0.067292 0.076778 0.038811 0.046108 0.039982 0.041014 0.030361 -0.006126 -0.018548 0.038758 0.062048 0.097372 0.084350 0.084538 0.068595 0.098797 0.046688 0.107382 0.097299 0.023779 0.035084 0.091120 0.074573 0.105073 0.092336 0.122471 0.098831 0.062975 0.016945 0.086167 -0.028903 0.000003 0.095726 0.066866 0.098636 0.077293 0.075411 0.021654 0.117084 0.077659 -0.011522 -0.038693 0.053511 0.068901 0.037857 0.039685 0.088011 0.096986 0.012976 0.051215 0.074188 0.058096 0.031018 -0.018278 0.070343 0.108257 0.114219 0.011463 -0.002938 -0.012965 0.052288 -0.045299 0.023046 -0.024824 -0.026542 0.028731 0.071018 0.012146 0.017911 -0.028968 -0.032509 -0.055505 -0.029312 -0.079389 -0.073264 0.039366 0.033758 -0.087351 0.058360 0.008341 -0.053463 0.018611 -0.111072 -0.067307 -0.047478 -0.088739 -0.021641 0.017084 -0.016670 -0.110815 0.050361 0.167856 0.004891 0.128057 0.019176 0.224107 0.161169 0.247116 0.252727 0.164379 0.196334 0.284541 0.210761 0.243207 0.149738 0.163353 0.194167 0.029999 -0.663482
0.072396 0.072898 0.074405 0.076915 0.080429 0.084945 0.090462 0.096978 0.104492 0.113001 0.122501 0.132988 0.144456 0.156900 0.170311 0.184681 0.199998 0.216249 0.233420 0.251494 0.270449 0.290265 0.310913 0.332366 0.354590 0.377549 0.401199 0.425497 0.450392 0.475827 0.501741 0.528068 0.554735 0.581663 0.608768 0.635957 0.663133 0.690190 0.717018 0.743497 0.769502 0.794901 0.819555 0.843320 0.866045 0.887572 0.907741 0.926383 0.943330 0.958406 0.971437 0.982243 0.990648 0.996474 0.999546 0.999694 0.996750 0.990557 0.980962 0.967827 0.951024 0.930438 0.905975 0.877555 0.845123 0.808644 0.768110 0.723541 0.674986 0.622526 0.566276 0.506384 0.443039 0.376466 0.306928 0.234731 0.160220 0.083780 0.005835 0.073149 0.152671 0.232196 0.311152 0.388942 0.464940 0.538502 0.608967 0.675663 0.737915 0.795053 0.846418 0.891369 0.929294 0.959619 0.981815 0.995411 1.000000 0.995250 0.980914 0.956837 0.922967 0.879360 0.826187 0.763741 0.692438 0.612826 0.525577 0.431493 0.331502 0.226648 0.118092 0.007095 0.104992 0.216740 0.326661 0.433227 0.534891 0.630109 0.717368 0.795206 0.862244 0.917213 0.958979 0.986572 0.999212 0.996332 0.977601 0.942942 0.892548 0.826896 0.746747 0.653156 0.547458 0.431267 0.306450 0.175112 0.039560 0.097728 0.234153 0.367032 0.493660 0.611359 0.717543 0.809773 0.885826 0.943746 0.981910 0.999077 0.994433 0.967638 0.918847 0.848738 0.758516 0.649910 0.525149 0.386938 0.238402 0.083029 0.075406 0.232928 0.385458 0.528921 0.659354 0.773026 0.866547 0.936983 0.981958 0.999745 0.989347 0.950557 0.883993 0.791123 0.674245 0.536458 0.381593 0.214127 0.039059 0.138223 0.312107 0.476930 0.627171 0.757633 0.863642 0.941221 0.987262 0.999662 0.977442 0.920822 0.831260 0.711444 0.565241 0.397593 0.214372 0.022200 0.171797 0.360231 0.535738 0.691279 0.820418 0.917612 0.978473 0.999982 0.980669 0.920724 0.822054 0.688251 0.524509 0.337435 0.134827 0.074652 0.281817 0.477372 0.652321 0.798398 0.908477 0.976940 0.999998 0.975929 0.905229 0.790662 0.637194 0.451824 0.243291 0.021698 0.201965 0.416358 0.610361 0.773662 0.897335 0.974346 0.999992 0.972230 0.891868 0.762605 0.590917 0.385780 0.158237 0.079167 0.313061 0.529986 0.717189 0.863387 0.959476 0.999141 0.979316 0.900467 0.766660 0.585421 0.367357 0.125593 0.124994 0.368667 0.589818 0.773980 0.908791 0.984877 0.996545 0.942271 0.824911 0.651634 0.433541 0.185021 0.077158 0.334971 0.570338 0.766434 0.908895 0.986939 0.994220 0.929422 0.796485 0.604440 0.366890 0.101084 0.173281 0.435488 0.665384 0.844937 0.959688 0.999990 0.961881 0.847540 0.665275 0.428999 0.157245 0.128237 0.404187 0.647725 0.838273 0.959332 0.999986 0.955956 0.830143 0.632530 0.379504 0.092566 0.203441 0.482448 0.719464 0.892844 0.986323 0.990627 0.904481 0.734916 0.496808 0.211674 0.094213 0.392180 0.653841 0.853837 0.972323 0.997048 0.924704 0.761467 0.522581 0.231069 0.084434 0.392409 0.661618 0.864273 0.978988 0.993118 0.904267 0.720763 0.461012 0.151775 0.174516 0.483109 0.740621 0.918707 0.997249 0.966745 0.829582 0.600021 0.302861 0.029144 0.358814 0.648683 0.865283 0.983081 0.987596 0.877319 0.664149 0.372273 0.035544 0.306354 0.612545 0.845875 0.977473 0.990454 0.882225 0.665092 0.365020 0.018684 0.330928 0.639825 0.868546 0.987301 0.979975 0.846474 0.603038 0.280469 0.079662
1.000000 1.000000 1.000000 1.000000 1.000000 1.000000 1.000000 1.000000 1.000000 1.000000 1.000000 1.000000 1.000000 1.000000 1.000000 1.000000 1.000000 1.000000 1.000000 1.000000 1.000000 1.000000 1.000000 1.000000 1.000000 1.000000 1.000000 1.000000 1.000000 1.000000 1.000000 1.000000 1.000000 1.000000 1.000000 1.000000 1.000000 1.000000 1.000000 1.000000 1.000000 1.000000 1.000000 1.000000 1.000000 1.000000 1.000000 1.000000 1.000000 1.000000 1.000000 1.000000 0.922999 0.922999 0.922999 0.914458 0.914458 0.914458 0.914458 0.914458 0.914458 0.914458 0.914458 0.914458 0.914458 0.914458 0.914458 0.914458 0.914458 0.914458 0.914458 0.914458 0.914458 0.914458 0.914458 0.914458 0.914458 0.914458 0.914458 0.914458 0.914458 0.914458 0.914458 0.914458 0.914458 0.914458 0.914458 0.914458 0.914458 0.914458 0.914458 0.914458 0.914458 0.914458 0.914458 0.914458 0.941801 0.943307 0.951385 0.951212 0.950572 0.948301 0.947237 0.946735 0.946596 0.946897 0.947585 0.948536 0.957464 0.958656 0.961524 0.962455 0.963284 0.964051 0.964840 0.965740 0.961546 0.958717 0.955132 0.954989 0.957861 0.957470 0.957622 0.958717 0.958598 0.958288 0.958792 0.958546 0.957798 0.956922 0.956094 0.955709 0.955487 0.956189 0.956558 0.958018 0.961362 0.961867 0.961951 0.962104 0.962187 0.963504 0.961801 0.961602 0.957349 0.957847 0.957534 0.955152 0.961655 0.958568 0.959178 0.959712 0.961180 0.961457 0.951859 0.949133 0.938868 0.937315 0.931574 0.924182 0.919689 0.921561 0.923894 0.925480 0.926142 0.921620 0.921638 0.918453 0.913811 0.917066 0.915669 0.915482 0.916949 0.917477 0.917853 0.916587 0.915091 0.907856 0.897469 0.896529 0.899730 0.904533 0.906521 0.906793 0.905089 0.875322 0.875397 0.881917 0.875699 0.865005 0.860563 0.859324 0.864694 0.865138 0.867969 0.867466 0.858556 0.845230 0.831253 0.824666 0.825876 0.820487 0.820990 0.819836 0.816418 0.826711 0.823628 0.829412 0.835291 0.843508 0.843975 0.834533 0.830816 0.829303 0.822928 0.806997 0.810263 0.795053 0.795746 0.794780 0.792222 0.786296 0.791786 0.773519 0.768066 0.756405 0.758529 0.761987 0.756860 0.753935 0.754646 0.756322 0.760886 0.745238 0.735392 0.720519 0.725539 0.735495 0.735223 0.730393 0.707857 0.674372 0.632330 0.650345 0.676874 0.626115 0.649626 0.659968 0.638471 0.636758 0.628061 0.625866 0.627788 0.629551 0.634559 0.641482 0.642240 0.661697 0.640618 0.631497 0.640719 0.634600 0.637881 0.622047 0.625427 0.603603 0.597088 0.622363 0.597577 0.596778 0.593759 0.604293 0.631462 0.594073 0.597199 0.610538 0.599734 0.603908 0.602421 0.591549 0.591447 0.599438 0.587882 0.603373 0.619011 0.593924 0.564897 0.545504 0.522869 0.512691 0.558138 0.559284 0.547696 0.517081 0.521034 0.538651 0.541452 0.534094 0.503525 0.516710 0.518406 0.555720 0.543258 0.496779 0.516870 0.513621 0.513245 0.463100 0.457445 0.440874 0.426031 0.382608 0.384015 0.397406 0.384043 0.345572 0.324346 0.324990 0.324210 0.331062 0.319086 0.289881 0.283400 0.306407 0.313836 0.300206 0.263384 0.257077 0.241290 0.227706 0.227162 0.191545 0.226101 0.291021 0.292586 0.292586 0.292586 0.292586 0.292586 0.292586 0.297098 0.297098 0.297098 0.297098 0.297098 0.297098 0.297098 0.297098 0.297098 0.312376 0.312376 0.312376 0.312376 0.312376 0.312376 0.312376 0.312376 0.312376 0.312376 0.312376 0.312376 0.312376 0.312376
0.000000 0.000000 0.000000 0.000000 0.000000 0.000000 0.000000 0.000000 0.000000 0.000000 0.000000 0.000000 0.000000 0.000000 0.000000 0.000000 0.000000 0.000000 0.000000 0.000000 0.000000 0.000000 0.000000 0.000000 0.000000 7.000000 4.000000 0.000000 0.000000 0.000000 0.000000 0.000000 0.000000 0.000000 0.000000 0.000000 0.000000 0.000000 0.000000 0.000000 0.000000 0.000000 0.000000 0.000000 0.000000 0.000000 0.000000 0.000000 0.000000 0.000000 0.000000 0.000000 0.180334 0.180334 0.180334 0.199007 0.199007 0.199007 0.199007 0.199007 0.199007 0.199007 0.199007 0.199007 0.199007 0.199007 0.199007 0.199007 0.199007 0.199007 0.199007 0.199007 0.199007 0.199007 0.199007 0.199007 0.199007 0.199007 0.199007 0.199007 0.199007 0.199007 0.199007 0.199007 0.199007 0.199007 0.199007 0.199007 0.199007 0.199007 0.199007 0.199007 0.199007 0.199007 0.199007 0.199007 0.225018 0.225018 0.225018 0.225018 0.225018 0.225018 0.225018 0.225018 0.225018 0.225018 0.225018 0.225018 0.225018 0.225018 0.225018 0.225018 0.225018 0.225018 0.225018 0.225018 0.225018 0.225018 0.225018 0.225018 0.225018 0.225018 0.225018 0.225018 0.225018 0.244339 0.244339 0.244339 0.244339 0.244339 0.244339 0.244339 0.244339 0.244339 0.244339 0.244339 0.244339 0.244339 0.244339 0.244339 0.244339 0.244339 0.244339 0.244339 0.244339 0.244339 0.244339 0.244339 0.251976 0.251976 0.251976 0.251976 0.251976 0.251976 0.251976 0.251976 0.251976 0.251976 0.251976 0.251976 0.251976 0.251976 0.251976 0.251976 0.251976 0.251976 0.251976 0.251976 0.264906 0.264906 0.264906 0.264906 0.264906 0.264906 0.264906 0.264906 0.264906 0.264906 0.264906 0.264906 0.264906 0.264906 0.264906 0.264906 0.264906 0.256074 0.256074 0.256074 0.256074 0.256074 0.256074 0.256074 0.256074 0.256074 0.256074 0.256074 0.256074 0.256074 0.256074 0.256074 0.256074 0.256074 0.269680 0.269680 0.269680 0.269680 0.269680 0.269680 0.269680 0.269680 0.269680 0.269680 0.269680 0.269680 0.269680 0.269680 0.264906 0.264906 0.264906 0.264906 0.264906 0.264906 0.264906 0.264906 0.264906 0.264906 0.264906 0.264906 0.264906 0.264906 0.256074 0.256074 0.256074 0.256074 0.256074 0.256074 0.256074 0.256074 0.256074 0.256074 0.256074 0.256074 0.256074 0.256074 0.269680 0.269680 0.269680 0.269680 0.269680 0.269680 0.269680 0.269680 0.269680 0.269680 0.269680 0.269680 0.264906 0.264906 0.264906 0.264906 0.264906 0.264906 0.264906 0.264906 0.264906 0.264906 0.264906 0.264906 0.260378 0.260378 0.260378 0.260378 0.260378 0.260378 0.260378 0.260378 0.260378 0.260378 0.260378 0.260378 0.274721 0.274721 0.274721 0.274721 0.274721 0.274721 0.274721 0.274721 0.274721 0.274721 0.256074 0.256074 0.256074 0.256074 0.256074 0.256074 0.256074 0.256074 0.256074 0.256074 0.256074 0.264906 0.264906 0.264906 0.264906 0.264906 0.264906 0.264906 0.264906 0.264906 0.264906 0.260378 0.260378 0.260378 0.260378 0.260378 0.260378 0.260378 0.260378 0.260378 0.260378 0.256074 0.256074 0.256074 0.256074 0.256074 0.256074 0.256074 0.256074 0.256074 0.256074 0.260378 0.260378 0.260378 0.260378 0.260378 0.260378 0.260378 0.260378 0.260378 0.256074 0.256074 0.256074 0.256074 0.256074 0.256074 0.256074 0.256074 0.256074 0.251976 0.251976 0.251976 0.251976 0.251976 0.251976 0.251976 0.251976 0.251976 0.251976 0.251976 0.251976 0.251976 0.251976
