# Output from CTFFind version 4.1.9, run on 2019-11-02 17:50:32
# Input file: stack16_bm3d_averaged_1_0.5_0_3000_half.mrc ; Number of micrographs: 1
# Pixel size: 3.000 Angstroms ; acceleration voltage: 300.0 keV ; spherical aberration: 0.00 mm ; amplitude contrast: 0.07
# Box size: 512 pixels ; min. res.: 30.0 Angstroms ; max. res.: 5.0 Angstroms ; min. def.: 5000.0 um; max. def. 50000.0 um; num. frames averaged: 1
# 6 lines per micrograph: #1 - spatial frequency (1/Angstroms); #2 - 1D rotational average of spectrum (assuming no astigmatism); #3 - 1D rotational average of spectrum; #4 - CTF fit; #5 - cross-correlation between spectrum and CTF fit; #6 - 2sigma of expected cross correlation of noise
0.000000 0.000651 0.001302 0.001953 0.002604 0.003255 0.003906 0.004557 0.005208 0.005859 0.006510 0.007161 0.007812 0.008464 0.009115 0.009766 0.010417 0.011068 0.011719 0.012370 0.013021 0.013672 0.014323 0.014974 0.015625 0.016276 0.016927 0.017578 0.018229 0.018880 0.019531 0.020182 0.020833 0.021484 0.022135 0.022786 0.023438 0.024089 0.024740 0.025391 0.026042 0.026693 0.027344 0.027995 0.028646 0.029297 0.029948 0.030599 0.031250 0.031901 0.032552 0.033203 0.033854 0.034505 0.035156 0.035807 0.036458 0.037109 0.037760 0.038411 0.039062 0.039714 0.040365 0.041016 0.041667 0.042318 0.042969 0.043620 0.044271 0.044922 0.045573 0.046224 0.046875 0.047526 0.048177 0.048828 0.049479 0.050130 0.050781 0.051432 0.052083 0.052734 0.053385 0.054036 0.054688 0.055339 0.055990 0.056641 0.057292 0.057943 0.058594 0.059245 0.059896 0.060547 0.061198 0.061849 0.062500 0.063151 0.063802 0.064453 0.065104 0.065755 0.066406 0.067057 0.067708 0.068359 0.069010 0.069661 0.070312 0.070964 0.071615 0.072266 0.072917 0.073568 0.074219 0.074870 0.075521 0.076172 0.076823 0.077474 0.078125 0.078776 0.079427 0.080078 0.080729 0.081380 0.082031 0.082682 0.083333 0.083984 0.084635 0.085286 0.085938 0.086589 0.087240 0.087891 0.088542 0.089193 0.089844 0.090495 0.091146 0.091797 0.092448 0.093099 0.093750 0.094401 0.095052 0.095703 0.096354 0.097005 0.097656 0.098307 0.098958 0.099609 0.100260 0.100911 0.101562 0.102214 0.102865 0.103516 0.104167 0.104818 0.105469 0.106120 0.106771 0.107422 0.108073 0.108724 0.109375 0.110026 0.110677 0.111328 0.111979 0.112630 0.113281 0.113932 0.114583 0.115234 0.115885 0.116536 0.117188 0.117839 0.118490 0.119141 0.119792 0.120443 0.121094 0.121745 0.122396 0.123047 0.123698 0.124349 0.125000 0.125651 0.126302 0.126953 0.127604 0.128255 0.128906 0.129557 0.130208 0.130859 0.131510 0.132161 0.132812 0.133464 0.134115 0.134766 0.135417 0.136068 0.136719 0.137370 0.138021 0.138672 0.139323 0.139974 0.140625 0.141276 0.141927 0.142578 0.143229 0.143880 0.144531 0.145182 0.145833 0.146484 0.147135 0.147786 0.148438 0.149089 0.149740 0.150391 0.151042 0.151693 0.152344 0.152995 0.153646 0.154297 0.154948 0.155599 0.156250 0.156901 0.157552 0.158203 0.158854 0.159505 0.160156 0.160807 0.161458 0.162109 0.162760 0.163411 0.164062 0.164714 0.165365 0.166016 0.166667 0.167318 0.167969 0.168620 0.169271 0.169922 0.170573 0.171224 0.171875 0.172526 0.173177 0.173828 0.174479 0.175130 0.175781 0.176432 0.177083 0.177734 0.178385 0.179036 0.179688 0.180339 0.180990 0.181641 0.182292 0.182943 0.183594 0.184245 0.184896 0.185547 0.186198 0.186849 0.187500 0.188151 0.188802 0.189453 0.190104 0.190755 0.191406 0.192057 0.192708 0.193359 0.194010 0.194661 0.195312 0.195964 0.196615 0.197266 0.197917 0.198568 0.199219 0.199870 0.200521 0.201172 0.201823 0.202474 0.203125 0.203776 0.204427 0.205078 0.205729 0.206380 0.207031 0.207682 0.208333 0.208984 0.209635 0.210286 0.210938 0.211589 0.212240 0.212891 0.213542 0.214193 0.214844 0.215495 0.216146 0.216797 0.217448 0.218099 0.218750 0.219401 0.220052 0.220703 0.221354 0.222005 0.222656 0.223307 0.223958 0.224609 0.225260 0.225911 0.226562 0.227214 0.227865 0.228516 0.229167 0.229818 0.230469 0.231120 0.231771 0.232422 0.233073 0.233724 0.234375 0.235026 0.235677
       0.34379        0.34379        0.34379        0.34379        0.34379        0.34379        0.34379        0.34379        0.34379        0.34379        0.34379        0.34379        0.34379        0.34379        0.34379        0.34379        0.34379        0.34379        0.34379        0.34379        0.34379        0.34379        0.34379        0.34379        0.34379        0.34379        0.34379        0.34379        0.34379        0.34379        0.34379        0.34379        0.34379        0.34379        0.34379        0.34379        0.34379        0.34379        0.34379        0.34379        0.34379        0.34379        0.34379        0.34379        0.34379        0.34379        0.34379        0.34379        0.34379        0.34379        0.34379        0.48974        0.70535        0.45657       -0.10895       -0.41441       -0.57057       -0.65963       -0.74566       -0.76164       -0.86885       -0.91317       -0.76125       -0.92443       -0.87119       -1.02415       -1.09429       -0.98857       -0.96009       -0.88310       -0.86416       -0.75144       -0.64110       -0.49940       -0.42228       -0.21807       -0.11942       -0.02392        0.20397        0.24418        0.30908        0.38689        0.44109        0.51742        0.58192        0.59703        0.59498        0.50318        0.54638        0.48610        0.39002        0.32452        0.20842        0.17538        0.10341       -0.06366       -0.11286       -0.09253        0.00910       -0.01657        0.00828        0.03049        0.21254        0.22053        0.39068        0.45892        0.56429        0.70332        0.76226        0.72711        0.70942        0.70793        0.58743        0.54491        0.40076        0.27374        0.19339        0.14308        0.06616        0.02065        0.02456        0.06189        0.07997        0.27350        0.41793        0.50374        0.58641        0.64040        0.70781        0.66238        0.65146        0.67317        0.61167        0.47960        0.28430        0.23175        0.20522        0.13200        0.04996        0.09438        0.12394        0.24953        0.33934        0.41579        0.50221        0.54220        0.66579        0.61077        0.55597        0.50665        0.36763        0.21132        0.21223        0.15324        0.11213        0.11891        0.21338        0.25607        0.36396        0.44523        0.44086        0.56975        0.51397        0.44455        0.45191        0.38708        0.32441        0.27821        0.22173        0.23914        0.21019        0.21491        0.32729        0.44903        0.48964        0.48023        0.55190        0.49607        0.45687        0.39552        0.29129        0.22383        0.23297        0.24770        0.26847        0.26975        0.32536        0.44233        0.49721        0.48760        0.45861        0.41928        0.38516        0.36253        0.24960        0.23246        0.24870        0.29612        0.35404        0.36545        0.39663        0.40810        0.44669        0.37175        0.34841        0.31265        0.30221        0.26579        0.26149        0.31450        0.34671        0.41701        0.41777        0.39998        0.39571        0.40890        0.35194        0.28869        0.29033        0.27390        0.31023        0.36119        0.36474        0.41561        0.36273        0.36652        0.38989        0.34502        0.31451        0.27968        0.29834        0.34097        0.33532        0.32833        0.37761        0.39716        0.33828        0.35428        0.29437        0.30882        0.29210        0.28219        0.30082        0.33059        0.38294        0.36779        0.34917        0.33100        0.28808        0.27802        0.29731        0.28202        0.31411        0.37056        0.39445        0.33874        0.31842        0.31383        0.29739        0.28233        0.27938        0.29957        0.34289        0.33719        0.34772        0.31936        0.34336        0.32587        0.29023        0.31465        0.32079        0.32842        0.33219        0.31748        0.31731        0.30959        0.32981        0.31657        0.33444        0.39251        0.34145        0.36036        0.32472        0.31703        0.28907        0.31178        0.28938        0.31126        0.31872        0.35333        0.36588        0.32006        0.32126        0.31172        0.29484        0.29461        0.28978        0.33800        0.33994        0.36053        0.33941        0.32860        0.25721        0.27027        0.31324        0.35352        0.31394        0.30222        0.29202        0.29090        0.32297        0.30474        0.30378        0.33238        0.34552        0.31732        0.24672        0.28700        0.28179        0.28888        0.31893        0.32096        0.34837        0.34135        0.28001        0.26380        0.29112        0.26224        0.28707        0.27430        0.24618        0.26840        0.24251        0.27850        0.27362        0.27671        0.27170        0.31307        0.32921        0.32011        0.30055        0.31932        0.25064        0.27343        0.25400        0.33637        0.33839        0.23824        0.26594        0.27963        0.25006        0.24744        0.29786        0.22754        0.14425        0.16691        0.25613        0.28010        0.23432        0.15574        0.03017       -0.39254       -0.74646
3.060692 3.022688 2.984927 2.947411 2.910139 2.873110 2.836326 2.799785 2.763489 2.727436 2.691628 2.656063 2.620743 2.585666 2.550833 2.516245 2.481900 2.447799 2.413942 2.380329 2.346960 2.313835 2.280954 2.248317 2.215924 2.183775 2.151870 2.120209 2.088792 2.057619 2.026690 1.996004 1.965563 1.935366 1.905412 1.875703 1.846238 1.817016 1.788039 1.759305 1.730816 1.702570 1.674568 1.646811 1.619297 1.592027 1.565002 1.538220 1.511682 1.485388 1.459338 1.514864 1.708568 1.617513 0.971157 0.682681 0.477904 0.434635 0.320742 0.265574 0.200667 0.022097 0.196095 0.081060 -0.005358 -0.060070 -0.196579 -0.151083 -0.090699 -0.091218 -0.100216 0.009918 0.031148 0.235391 0.151066 0.366287 0.446750 0.477114 0.718520 0.702780 0.711590 0.841803 0.826495 0.858603 0.925822 0.896267 0.945466 0.756313 0.839110 0.843981 0.621406 0.610637 0.460129 0.440167 0.390587 0.207984 0.119772 0.101006 0.205743 0.148529 0.191320 0.111947 0.317949 0.290932 0.459637 0.418595 0.583817 0.648942 0.771286 0.692051 0.665276 0.675599 0.538360 0.507908 0.373429 0.294385 0.118396 0.146309 0.001740 -0.014777 -0.037623 -0.027743 -0.000284 0.036801 0.274646 0.333610 0.386272 0.397924 0.472688 0.525921 0.468699 0.508203 0.403527 0.389693 0.156351 0.064402 0.071272 0.000988 -0.121365 -0.041199 -0.108223 0.017953 0.134477 0.157849 0.253963 0.259238 0.387656 0.462887 0.358268 0.387305 0.284900 0.128996 0.050052 0.052851 0.010735 0.001701 0.004264 0.107671 0.134255 0.265454 0.238570 0.307612 0.375795 0.234022 0.241753 0.219843 0.134491 0.080846 0.056776 0.027327 0.039223 -0.013033 0.030370 0.186797 0.223492 0.251609 0.280289 0.232128 0.237917 0.149866 0.103525 -0.026274 -0.015475 -0.006430 0.018635 0.005935 0.027900 0.106182 0.183732 0.201068 0.222119 0.138721 0.144743 0.078701 0.054383 -0.055817 -0.011035 -0.008930 0.054497 0.065574 0.081729 0.157931 0.086069 0.165365 0.069120 0.053555 0.042088 0.026886 0.000872 0.012359 0.057351 0.082801 0.136518 0.142577 0.068891 0.133884 0.101743 0.021282 0.006574 0.004145 -0.006600 0.059015 0.061569 0.098168 0.099597 0.072328 0.069420 0.083503 0.033039 0.012198 -0.010654 0.014935 0.061637 0.030079 0.042325 0.083720 0.085685 0.058513 0.033627 0.005173 0.015416 -0.004181 -0.013663 0.014837 0.051788 0.102869 0.060496 0.059836 0.041407 -0.014294 -0.000248 0.013293 0.008687 0.026367 0.104999 0.059753 0.023560 0.043757 0.003163 0.024737 -0.012688 -0.005790 0.022841 0.066237 0.030534 0.047214 0.030018 0.051201 0.028599 -0.004261 0.025499 0.041747 0.034176 0.032922 0.021548 0.006746 -0.005138 0.027220 0.010852 0.041651 0.081681 0.045880 0.029933 0.018192 0.002240 -0.003602 0.008326 0.001202 0.014786 -0.004042 0.084680 0.057944 0.033561 0.038019 0.002783 0.010612 0.012082 -0.005932 0.058600 0.060957 0.088486 0.051989 0.051863 -0.026535 0.018887 0.037144 0.077775 0.030535 0.037679 0.014854 0.008971 0.046757 0.042449 0.035445 0.059882 0.079658 0.063841 -0.017984 0.018837 0.042704 0.027865 0.044138 0.076336 0.077869 0.073840 0.017166 0.002013 0.016015 -0.003051 0.016587 -0.013692 -0.031760 -0.003877 -0.049542 0.001829 -0.009212 0.008054 -0.065883 -0.000823 0.019842 0.007279 -0.024072 0.040363 -0.087673 -0.017187 -0.038195 0.037883 0.065294 -0.094236 -0.008242 0.045590 0.021568 -0.044261 0.047825 0.031345 0.004141 -0.046391 0.081949 0.241277 0.211059 0.122612 0.029168 -0.657054
0.072396 0.073046 0.074995 0.078242 0.082787 0.088629 0.095764 0.104190 0.113903 0.124898 0.137168 0.150705 0.165499 0.181538 0.198805 0.217282 0.236948 0.257777 0.279737 0.302794 0.326907 0.352028 0.378105 0.405076 0.432874 0.461423 0.490637 0.520423 0.550677 0.581284 0.612121 0.643052 0.673930 0.704599 0.734890 0.764620 0.793600 0.821626 0.848484 0.873951 0.897794 0.919773 0.939637 0.957134 0.972004 0.983985 0.992817 0.998240 0.999997 0.997841 0.991533 0.980851 0.965586 0.945552 0.920589 0.890562 0.855374 0.814961 0.769302 0.718422 0.662396 0.601351 0.535471 0.465003 0.390254 0.311597 0.229474 0.144392 0.056925 0.032283 0.122528 0.213042 0.303002 0.391533 0.477719 0.560606 0.639219 0.712567 0.779659 0.839517 0.891194 0.933785 0.966450 0.988428 0.999054 0.997783 0.984201 0.958047 0.919226 0.867825 0.804126 0.728614 0.641987 0.545155 0.439244 0.325593 0.205737 0.081402 0.045519 0.172990 0.298860 0.420897 0.536828 0.644382 0.741336 0.825567 0.895100 0.948164 0.983242 0.999119 0.994935 0.970221 0.924939 0.859508 0.774821 0.672260 0.553681 0.421408 0.278193 0.127181 0.028160 0.184101 0.336740 0.482101 0.616234 0.735332 0.835841 0.914582 0.968860 0.996575 0.996311 0.967425 0.910101 0.825394 0.715242 0.582449 0.430641 0.264190 0.088109 0.092090 0.270554 0.441273 0.598294 0.735921 0.848944 0.932850 0.984024 0.999929 0.979254 0.922024 0.829661 0.704999 0.552233 0.376816 0.185293 0.014918 0.215801 0.409044 0.586398 0.740024 0.862864 0.948990 0.993915 0.994869 0.950995 0.863476 0.735565 0.572521 0.381436 0.170977 0.048992 0.267837 0.474665 0.658876 0.810712 0.921806 0.985681 0.998169 0.957735 0.865658 0.726080 0.545882 0.334405 0.103022 0.135450 0.367429 0.579341 0.758430 0.893547 0.975892 0.999639 0.962410 0.865550 0.714178 0.517004 0.285899 0.035232 0.218982 0.460077 0.671845 0.839636 0.951426 0.998728 0.977319 0.887679 0.735123 0.529586 0.285066 0.018735 0.250219 0.501952 0.717427 0.879901 0.976270 0.998208 0.942978 0.813824 0.619917 0.375809 0.100428 0.184317 0.455251 0.689817 0.867979 0.974009 0.997953 0.936674 0.794338 0.582270 0.318190 0.024813 0.272021 0.545594 0.770746 0.926207 0.996717 0.974623 0.860834 0.664991 0.404792 0.104530 0.207101 0.499698 0.744101 0.915373 0.995413 0.975010 0.855033 0.646633 0.370367 0.054320 0.268674 0.564381 0.800813 0.951761 0.999806 0.938487 0.773306 0.521458 0.210191 0.125979 0.449056 0.721802 0.912108 0.996873 0.964961 0.818841 0.574652 0.260623 0.086041 0.423462 0.710128 0.910051 0.997383 0.959953 0.801145 0.539859 0.208491 0.150927 0.491968 0.769777 0.947056 0.999204 0.917936 0.712807 0.410343 0.050848 0.316838 0.641892 0.878557 0.992714 0.966981 0.803607 0.524601 0.169045 0.212200 0.563665 0.833334 0.980444 0.981851 0.835909 0.563222 0.204031 0.187521 0.551408 0.830925 0.981623 0.978588 0.820827 0.531977 0.157048 0.244334 0.607307 0.872261 0.994747 0.953185 0.752961 0.426124 0.026543 0.378716 0.720601 0.939862 0.997530 0.882114 0.612217 0.233899 0.186881 0.575627 0.862431 0.994724 0.947163 0.726822 0.372583 0.051383 0.467011 0.796634 0.977615 0.974476 0.786217 0.447219 0.021330 0.409848 0.762522 0.967064 0.981974 0.802699 0.463262 0.030229 0.410044 0.768531 0.971597 0.976388 0.780277 0.422187 0.024697 0.467588 0.813251 0.987762 0.952590 0.713566 0.320444 0.142983 0.576511
1.000000 1.000000 1.000000 1.000000 1.000000 1.000000 1.000000 1.000000 1.000000 1.000000 1.000000 1.000000 1.000000 1.000000 1.000000 1.000000 1.000000 1.000000 1.000000 1.000000 1.000000 1.000000 1.000000 1.000000 1.000000 1.000000 1.000000 1.000000 1.000000 1.000000 1.000000 1.000000 1.000000 1.000000 1.000000 1.000000 1.000000 1.000000 1.000000 1.000000 1.000000 1.000000 1.000000 1.000000 1.000000 1.000000 1.000000 1.000000 1.000000 1.000000 1.000000 1.000000 0.932979 0.932979 0.932979 0.932979 0.932979 0.932979 0.932979 0.932979 0.932979 0.932979 0.932979 0.932979 0.932979 0.932979 0.932979 0.932979 0.932979 0.932979 0.932979 0.932979 0.932979 0.932979 0.932979 0.932979 0.932979 0.932979 0.932979 0.932979 0.932979 0.932979 0.932979 0.932979 0.932979 0.922319 0.923807 0.926786 0.927861 0.927820 0.927362 0.927044 0.927261 0.928978 0.931300 0.947918 0.950098 0.950670 0.951963 0.952205 0.954723 0.952970 0.952774 0.963332 0.962143 0.962853 0.955894 0.957479 0.956561 0.955630 0.956136 0.956385 0.954449 0.952296 0.950604 0.949964 0.949588 0.951357 0.951834 0.951796 0.953271 0.953235 0.952956 0.949592 0.948170 0.949642 0.951687 0.950835 0.956544 0.956371 0.964407 0.965195 0.963783 0.963687 0.963886 0.964083 0.952619 0.945396 0.939569 0.927853 0.918176 0.916349 0.919350 0.921459 0.920549 0.916175 0.915054 0.912347 0.906901 0.906031 0.906004 0.907637 0.904419 0.900813 0.884515 0.884306 0.886625 0.885602 0.883438 0.875425 0.870973 0.871560 0.874702 0.872110 0.868532 0.884489 0.879328 0.884231 0.887134 0.890528 0.894531 0.890791 0.890366 0.886766 0.882958 0.878135 0.879732 0.868312 0.871097 0.866640 0.857842 0.850367 0.853459 0.862930 0.870831 0.879011 0.878040 0.877714 0.876888 0.869556 0.870167 0.864082 0.865187 0.870542 0.876763 0.872575 0.869866 0.873809 0.871911 0.874340 0.876583 0.872460 0.870787 0.861698 0.861710 0.864531 0.881682 0.880986 0.869332 0.863712 0.854868 0.861336 0.864279 0.863762 0.865508 0.855337 0.856366 0.846082 0.835296 0.836839 0.841299 0.836326 0.838245 0.835281 0.838298 0.840685 0.838550 0.833317 0.832125 0.837890 0.815002 0.821919 0.825042 0.820969 0.825100 0.816925 0.811182 0.806198 0.806348 0.801104 0.812572 0.811096 0.779398 0.762621 0.770639 0.755659 0.746898 0.742158 0.741888 0.708079 0.680804 0.653857 0.648790 0.641517 0.642956 0.652491 0.647748 0.633204 0.619963 0.614035 0.630180 0.632336 0.599263 0.599181 0.593979 0.588858 0.583413 0.584497 0.584010 0.590442 0.595422 0.560778 0.556913 0.562163 0.537610 0.536603 0.533953 0.524632 0.495708 0.501904 0.498591 0.515926 0.539043 0.511958 0.508443 0.514586 0.526308 0.537860 0.537413 0.523652 0.508765 0.514720 0.491622 0.477182 0.494837 0.512546 0.504824 0.518608 0.506127 0.533827 0.528251 0.515730 0.546226 0.565567 0.564230 0.538294 0.550514 0.526324 0.529338 0.509542 0.462183 0.468867 0.456183 0.407484 0.401891 0.419631 0.404720 0.401785 0.374664 0.377333 0.352798 0.317229 0.328792 0.322234 0.287935 0.252065 0.253584 0.255532 0.223056 0.196448 0.217681 0.168269 0.161833 0.180036 0.189035 0.187873 0.179762 0.202218 0.202218 0.202218 0.202218 0.202218 0.202218 0.202218 0.202218 0.202218 0.202218 0.202218 0.202218 0.202218 0.202218 0.227474 0.227474 0.227474 0.227474 0.227474 0.227474 0.227474 0.227474 0.227474 0.227474 0.227474 0.227474
0.000000 0.000000 0.000000 0.000000 0.000000 0.000000 0.000000 0.000000 0.000000 0.000000 0.000000 0.000000 0.000000 0.000000 0.000000 0.000000 0.000000 0.000000 0.000000 0.000000 0.000000 0.000000 0.000000 0.000000 0.000000 0.000000 0.000000 0.000000 0.000000 0.000000 0.000000 0.000000 0.000000 0.000000 0.000000 0.000000 0.000000 0.000000 0.000000 0.000000 0.000000 0.000000 0.000000 0.000000 0.000000 0.000000 0.000000 0.000000 0.000000 0.000000 0.000000 0.000000 0.209657 0.209657 0.209657 0.209657 0.209657 0.209657 0.209657 0.209657 0.209657 0.209657 0.209657 0.209657 0.209657 0.209657 0.209657 0.209657 0.209657 0.209657 0.209657 0.209657 0.209657 0.209657 0.209657 0.209657 0.209657 0.209657 0.209657 0.209657 0.209657 0.209657 0.209657 0.209657 0.209657 0.244339 0.244339 0.244339 0.244339 0.244339 0.244339 0.244339 0.244339 0.244339 0.244339 0.244339 0.244339 0.244339 0.244339 0.244339 0.244339 0.244339 0.244339 0.244339 0.244339 0.244339 0.244339 0.244339 0.244339 0.244339 0.260378 0.260378 0.260378 0.260378 0.260378 0.260378 0.260378 0.260378 0.260378 0.260378 0.260378 0.260378 0.260378 0.260378 0.260378 0.260378 0.260378 0.260378 0.260378 0.260378 0.269680 0.269680 0.269680 0.269680 0.269680 0.269680 0.269680 0.269680 0.269680 0.269680 0.269680 0.269680 0.269680 0.269680 0.269680 0.269680 0.269680 0.269680 0.269680 0.269680 0.269680 0.269680 0.269680 0.269680 0.269680 0.269680 0.269680 0.269680 0.269680 0.269680 0.269680 0.269680 0.269680 0.280056 0.280056 0.280056 0.280056 0.280056 0.280056 0.280056 0.280056 0.280056 0.280056 0.280056 0.280056 0.280056 0.280056 0.280056 0.280056 0.280056 0.280056 0.280056 0.280056 0.280056 0.280056 0.280056 0.280056 0.280056 0.280056 0.280056 0.274721 0.274721 0.274721 0.274721 0.274721 0.274721 0.274721 0.274721 0.274721 0.274721 0.274721 0.274721 0.274721 0.285714 0.285714 0.285714 0.285714 0.285714 0.285714 0.285714 0.285714 0.285714 0.285714 0.285714 0.280056 0.280056 0.280056 0.280056 0.280056 0.280056 0.280056 0.280056 0.280056 0.280056 0.280056 0.274721 0.274721 0.274721 0.274721 0.274721 0.274721 0.274721 0.274721 0.274721 0.274721 0.274721 0.280056 0.280056 0.280056 0.280056 0.280056 0.280056 0.280056 0.280056 0.280056 0.280056 0.285714 0.285714 0.285714 0.285714 0.285714 0.285714 0.285714 0.285714 0.285714 0.269680 0.269680 0.269680 0.269680 0.269680 0.269680 0.269680 0.269680 0.269680 0.269680 0.274721 0.274721 0.274721 0.274721 0.274721 0.274721 0.274721 0.274721 0.274721 0.285714 0.285714 0.285714 0.285714 0.285714 0.285714 0.285714 0.285714 0.264906 0.264906 0.264906 0.264906 0.264906 0.264906 0.264906 0.264906 0.264906 0.274721 0.274721 0.274721 0.274721 0.274721 0.274721 0.274721 0.274721 0.269680 0.269680 0.269680 0.269680 0.269680 0.269680 0.269680 0.269680 0.269680 0.269680 0.269680 0.269680 0.269680 0.269680 0.269680 0.269680 0.280056 0.280056 0.280056 0.280056 0.280056 0.280056 0.280056 0.260378 0.260378 0.260378 0.260378 0.260378 0.260378 0.260378 0.260378 0.269680 0.269680 0.269680 0.269680 0.269680 0.269680 0.269680 0.264906 0.264906 0.264906 0.264906 0.264906 0.264906 0.264906 0.264906 0.264906 0.264906 0.264906 0.264906 0.264906 0.264906 0.260378 0.260378 0.260378 0.260378 0.260378 0.260378 0.260378 0.260378 0.260378 0.260378 0.260378 0.260378
