# Output from CTFFind version 4.1.9, run on 2019-11-03 20:02:16
# Input file: stack1_bm3d_averaged_1_7.5_0_50_half.mrc ; Number of micrographs: 1
# Pixel size: 3.000 Angstroms ; acceleration voltage: 300.0 keV ; spherical aberration: 0.00 mm ; amplitude contrast: 0.07
# Box size: 512 pixels ; min. res.: 30.0 Angstroms ; max. res.: 5.0 Angstroms ; min. def.: 5000.0 um; max. def. 50000.0 um; num. frames averaged: 1
# 6 lines per micrograph: #1 - spatial frequency (1/Angstroms); #2 - 1D rotational average of spectrum (assuming no astigmatism); #3 - 1D rotational average of spectrum; #4 - CTF fit; #5 - cross-correlation between spectrum and CTF fit; #6 - 2sigma of expected cross correlation of noise
0.000000 0.000651 0.001302 0.001953 0.002604 0.003255 0.003906 0.004557 0.005208 0.005859 0.006510 0.007161 0.007812 0.008464 0.009115 0.009766 0.010417 0.011068 0.011719 0.012370 0.013021 0.013672 0.014323 0.014974 0.015625 0.016276 0.016927 0.017578 0.018229 0.018880 0.019531 0.020182 0.020833 0.021484 0.022135 0.022786 0.023438 0.024089 0.024740 0.025391 0.026042 0.026693 0.027344 0.027995 0.028646 0.029297 0.029948 0.030599 0.031250 0.031901 0.032552 0.033203 0.033854 0.034505 0.035156 0.035807 0.036458 0.037109 0.037760 0.038411 0.039062 0.039714 0.040365 0.041016 0.041667 0.042318 0.042969 0.043620 0.044271 0.044922 0.045573 0.046224 0.046875 0.047526 0.048177 0.048828 0.049479 0.050130 0.050781 0.051432 0.052083 0.052734 0.053385 0.054036 0.054688 0.055339 0.055990 0.056641 0.057292 0.057943 0.058594 0.059245 0.059896 0.060547 0.061198 0.061849 0.062500 0.063151 0.063802 0.064453 0.065104 0.065755 0.066406 0.067057 0.067708 0.068359 0.069010 0.069661 0.070312 0.070964 0.071615 0.072266 0.072917 0.073568 0.074219 0.074870 0.075521 0.076172 0.076823 0.077474 0.078125 0.078776 0.079427 0.080078 0.080729 0.081380 0.082031 0.082682 0.083333 0.083984 0.084635 0.085286 0.085938 0.086589 0.087240 0.087891 0.088542 0.089193 0.089844 0.090495 0.091146 0.091797 0.092448 0.093099 0.093750 0.094401 0.095052 0.095703 0.096354 0.097005 0.097656 0.098307 0.098958 0.099609 0.100260 0.100911 0.101562 0.102214 0.102865 0.103516 0.104167 0.104818 0.105469 0.106120 0.106771 0.107422 0.108073 0.108724 0.109375 0.110026 0.110677 0.111328 0.111979 0.112630 0.113281 0.113932 0.114583 0.115234 0.115885 0.116536 0.117188 0.117839 0.118490 0.119141 0.119792 0.120443 0.121094 0.121745 0.122396 0.123047 0.123698 0.124349 0.125000 0.125651 0.126302 0.126953 0.127604 0.128255 0.128906 0.129557 0.130208 0.130859 0.131510 0.132161 0.132812 0.133464 0.134115 0.134766 0.135417 0.136068 0.136719 0.137370 0.138021 0.138672 0.139323 0.139974 0.140625 0.141276 0.141927 0.142578 0.143229 0.143880 0.144531 0.145182 0.145833 0.146484 0.147135 0.147786 0.148438 0.149089 0.149740 0.150391 0.151042 0.151693 0.152344 0.152995 0.153646 0.154297 0.154948 0.155599 0.156250 0.156901 0.157552 0.158203 0.158854 0.159505 0.160156 0.160807 0.161458 0.162109 0.162760 0.163411 0.164062 0.164714 0.165365 0.166016 0.166667 0.167318 0.167969 0.168620 0.169271 0.169922 0.170573 0.171224 0.171875 0.172526 0.173177 0.173828 0.174479 0.175130 0.175781 0.176432 0.177083 0.177734 0.178385 0.179036 0.179688 0.180339 0.180990 0.181641 0.182292 0.182943 0.183594 0.184245 0.184896 0.185547 0.186198 0.186849 0.187500 0.188151 0.188802 0.189453 0.190104 0.190755 0.191406 0.192057 0.192708 0.193359 0.194010 0.194661 0.195312 0.195964 0.196615 0.197266 0.197917 0.198568 0.199219 0.199870 0.200521 0.201172 0.201823 0.202474 0.203125 0.203776 0.204427 0.205078 0.205729 0.206380 0.207031 0.207682 0.208333 0.208984 0.209635 0.210286 0.210938 0.211589 0.212240 0.212891 0.213542 0.214193 0.214844 0.215495 0.216146 0.216797 0.217448 0.218099 0.218750 0.219401 0.220052 0.220703 0.221354 0.222005 0.222656 0.223307 0.223958 0.224609 0.225260 0.225911 0.226562 0.227214 0.227865 0.228516 0.229167 0.229818 0.230469 0.231120 0.231771 0.232422 0.233073 0.233724 0.234375 0.235026 0.235677
       0.33851        0.33851        0.33851        0.33851        0.33851        0.33851        0.33851        0.33851        0.33851        0.33851        0.33851        0.33851        0.33851        0.33851        0.33851        0.33851        0.33851        0.33851        0.33851        0.33851        0.33851        0.33851        0.33851        0.33851        0.33851        0.33851        0.33851        0.33851        0.33851        0.33851        0.33851        0.33851        0.33851        0.33851        0.33851        0.33851        0.33851        0.33851        0.33851        0.33851        0.33851        0.33851        0.33851        0.33851        0.33851        0.33851        0.33851        0.33851        0.33851        0.33851        0.33851        0.32351        0.45347        0.21338        0.06604        0.00056       -0.26986       -0.11967       -0.15095       -0.22298        0.00103       -0.14871       -0.05715       -0.06508       -0.04953       -0.12138       -0.16764       -0.24384       -0.28507       -0.39563       -0.32807       -0.23166       -0.21398       -0.30974       -0.22946       -0.27965       -0.25117       -0.27327       -0.12139       -0.13844       -0.19287       -0.03015        0.03864       -0.01933        0.06248        0.04004        0.23995        0.24470        0.33064        0.34657        0.36543        0.40155        0.47849        0.53329        0.53613        0.49268        0.48262        0.50762        0.46613        0.50167        0.42555        0.40494        0.40889        0.35468        0.29376        0.30580        0.32438        0.21332        0.19594        0.13160        0.15711        0.16146        0.17094        0.16169        0.24141        0.30260        0.31198        0.28151        0.39405        0.46907        0.39265        0.48231        0.57962        0.52656        0.50695        0.56559        0.59069        0.41471        0.47255        0.40189        0.33198        0.30684        0.27954        0.24952        0.19502        0.18552        0.15755        0.19917        0.24931        0.27760        0.33227        0.30167        0.40084        0.40521        0.44795        0.49360        0.46806        0.49086        0.43546        0.42576        0.40036        0.33434        0.30492        0.31229        0.31344        0.24697        0.24567        0.24866        0.24677        0.26918        0.31612        0.42119        0.46925        0.41234        0.42826        0.45812        0.43282        0.46067        0.45016        0.38673        0.35682        0.38576        0.35474        0.31040        0.29891        0.30374        0.27050        0.29393        0.30276        0.31842        0.37269        0.37166        0.40045        0.40716        0.35418        0.43819        0.40539        0.34288        0.30765        0.33605        0.32385        0.29085        0.30834        0.29401        0.30169        0.32303        0.32768        0.42455        0.39673        0.37668        0.39807        0.43400        0.36911        0.34639        0.33895        0.34819        0.27325        0.26909        0.30540        0.38020        0.37940        0.33724        0.34696        0.39323        0.38409        0.45066        0.37487        0.36654        0.33097        0.30935        0.31003        0.31260        0.33947        0.37054        0.36465        0.37060        0.32317        0.42846        0.34302        0.34953        0.33962        0.37739        0.36223        0.28600        0.30505        0.26237        0.31458        0.32208        0.31562        0.33644        0.31714        0.34639        0.33246        0.33884        0.31889        0.29755        0.27323        0.31336        0.34124        0.31273        0.29097        0.33156        0.32105        0.32912        0.33269        0.29911        0.28632        0.29305        0.32070        0.31257        0.31019        0.28176        0.29823        0.34809        0.32332        0.31072        0.38457        0.32285        0.27105        0.31083        0.32652        0.30986        0.33893        0.30036        0.32363        0.26642        0.31709        0.34289        0.35669        0.29876        0.31631        0.31001        0.29216        0.35452        0.35194        0.30575        0.29942        0.29095        0.28274        0.34310        0.34431        0.28191        0.32746        0.28923        0.26922        0.25301        0.29837        0.33764        0.31861        0.24136        0.27490        0.34086        0.29876        0.31745        0.33569        0.30302        0.31631        0.32309        0.30051        0.28521        0.27728        0.28470        0.32926        0.32844        0.29543        0.31786        0.35486        0.33422        0.28003        0.30332        0.29353        0.30383        0.28527        0.22893        0.25180        0.31359        0.35470        0.25380        0.22138        0.18161        0.28730        0.29221        0.28224        0.31310        0.28584        0.27353        0.24597        0.28455        0.26437        0.31733        0.23278        0.25995        0.26114        0.22216        0.25497        0.32551        0.30562        0.26523        0.21334        0.23124        0.15012        0.22985        0.23882        0.37052        0.28722        0.21709        0.30603        0.35725        0.15236       -0.08367       -0.15097       -0.63602       -0.78275
3.478624 3.439618 3.400835 3.362273 3.323934 3.285817 3.247922 3.210249 3.172799 3.135571 3.098564 3.061780 3.025218 2.988879 2.952761 2.916866 2.881193 2.845742 2.810513 2.775506 2.740721 2.706159 2.671819 2.637701 2.603805 2.570131 2.536680 2.503450 2.470443 2.437658 2.405095 2.372755 2.340636 2.308740 2.277066 2.245614 2.214384 2.183376 2.152591 2.122027 2.091686 2.061567 2.031670 2.001996 1.972543 1.943313 1.914304 1.885518 1.856955 1.828613 1.800493 1.679531 1.974815 1.724764 1.085811 1.160539 0.349173 0.896947 0.535858 0.640535 0.922677 0.656242 0.693837 0.751729 0.689674 0.653421 0.435375 0.341981 0.200754 0.003779 0.008123 0.144063 0.402296 -0.034680 0.160375 0.041518 0.177407 -0.059974 0.264690 0.171576 0.103505 0.304530 0.519261 0.305185 0.436746 0.360520 0.818087 0.660031 0.863653 0.912109 0.799146 1.030607 0.934963 1.257392 1.058600 1.105280 1.020767 1.035887 0.991198 0.901671 0.936713 0.772408 0.745791 0.672272 0.645157 0.460786 0.568922 0.437195 0.264240 0.212568 0.140643 0.176333 0.203777 0.139097 0.201429 0.405391 0.355086 0.365921 0.469238 0.570308 0.550967 0.430377 0.825685 0.773824 0.645595 0.692922 0.783533 0.568007 0.407224 0.530138 0.212336 0.274694 0.105555 0.145654 -0.010082 -0.043176 -0.106195 -0.098988 0.085019 -0.025651 0.115591 0.204544 0.153395 0.299788 0.298270 0.377560 0.464179 0.385657 0.322003 0.254957 0.241685 0.156824 0.062352 0.048450 0.026023 -0.003288 -0.045602 -0.125241 -0.119813 -0.043179 -0.077361 0.139092 0.328344 0.234000 0.195605 0.279361 0.344781 0.227501 0.356028 0.289620 0.159551 0.143037 0.253474 0.016973 0.050143 0.010669 0.051914 -0.027430 0.091239 0.008802 0.160615 0.023349 0.209439 0.238368 0.162804 0.275920 0.181826 0.153883 0.045931 0.078191 0.067626 0.034459 -0.017970 0.032676 -0.023150 0.018762 0.033507 0.112515 0.274950 0.148987 0.163421 0.289008 0.148151 0.192045 0.040493 0.113231 0.080180 -0.094749 0.008561 0.053804 0.197135 0.132197 0.054338 0.137740 0.187721 0.191379 0.277399 0.132302 0.136460 0.045894 0.007239 0.063891 0.057609 0.104434 0.170724 0.142788 0.095660 0.164981 0.177730 0.022550 0.119604 0.081810 0.168167 0.060954 -0.001802 -0.003165 -0.055989 0.053855 0.060181 0.052084 0.036203 -0.012347 0.046699 0.008908 0.036806 -0.005023 -0.073055 -0.036793 -0.048783 0.082885 -0.062565 -0.016496 0.028082 0.016846 0.022779 0.051637 -0.038397 -0.031096 -0.034037 0.037635 0.000343 0.022349 -0.063832 -0.031246 0.096644 0.002537 -0.032604 0.170344 -0.074138 -0.082050 0.007783 0.006519 -0.018015 -0.002452 -0.039662 0.013031 -0.109205 0.023233 0.072752 0.061888 -0.065111 0.011349 -0.045752 -0.024851 0.064618 0.068072 -0.078885 -0.025141 -0.069443 -0.072676 0.049762 0.004804 -0.076373 0.049852 -0.094591 -0.086746 -0.119619 -0.040692 0.052416 -0.071549 -0.215479 -0.033664 0.064284 -0.059188 -0.043937 0.048882 -0.053155 -0.029033 0.027396 -0.070168 -0.086299 -0.090798 -0.115741 0.062161 0.005066 -0.077347 0.010152 0.097692 -0.123373 -0.001406 0.043853 -0.080682 0.050491 -0.017810 -0.126767 -0.070176 0.048494 0.152832 -0.034366 -0.197475 -0.120862 0.124082 -0.002500 0.000088 0.165271 0.089001 0.007774 0.019446 0.011626 0.076744 0.130937 -0.027403 0.061700 0.126538 -0.057869 0.086867 0.271486 0.101042 0.142157 0.064374 -0.005040 0.039362 -0.041208 0.029280 0.343137 0.482662 0.394419 0.609148 0.858256 0.289581 -0.367990 -0.262069 -1.418992
0.072396 0.072907 0.074440 0.076994 0.080569 0.085164 0.090778 0.097409 0.105054 0.113711 0.123376 0.134046 0.145713 0.158372 0.172014 0.186631 0.202209 0.218737 0.236198 0.254574 0.273844 0.293984 0.314967 0.336763 0.359336 0.382647 0.406653 0.431307 0.456554 0.482337 0.508591 0.535246 0.562226 0.589448 0.616824 0.644257 0.671644 0.698876 0.725836 0.752400 0.778436 0.803808 0.828370 0.851971 0.874455 0.895657 0.915411 0.933543 0.949878 0.964234 0.976432 0.986288 0.993620 0.998246 0.999990 0.998678 0.994142 0.986222 0.974770 0.959648 0.940732 0.917914 0.891106 0.860238 0.825265 0.786167 0.742951 0.695654 0.644345 0.589127 0.530140 0.467560 0.401604 0.332526 0.260625 0.186240 0.109752 0.031584 0.047802 0.127903 0.208180 0.288057 0.366929 0.444161 0.519098 0.591064 0.659373 0.723332 0.782251 0.835450 0.882267 0.922067 0.954250 0.978265 0.993614 0.999868 0.996672 0.983756 0.960948 0.928175 0.885481 0.833024 0.771090 0.700091 0.620574 0.533218 0.438834 0.338363 0.232870 0.123538 0.011656 0.101392 0.214142 0.325070 0.432607 0.535165 0.631161 0.719040 0.797304 0.864540 0.919450 0.960876 0.987833 0.999531 0.995404 0.975133 0.938662 0.886216 0.818313 0.735771 0.639704 0.531523 0.412920 0.285850 0.152506 0.015290 0.123234 0.260377 0.393375 0.519454 0.635881 0.740028 0.829436 0.901883 0.955439 0.988532 0.999997 0.989126 0.955709 0.900057 0.823025 0.726014 0.610961 0.480317 0.337005 0.184367 0.026093 0.133857 0.291352 0.442197 0.582235 0.707483 0.814235 0.899189 0.959562 0.993187 0.998608 0.975154 0.922994 0.843162 0.737568 0.608969 0.460923 0.297702 0.124188 0.054264 0.231982 0.403156 0.562029 0.703091 0.821284 0.912194 0.972230 0.998789 0.990383 0.946738 0.868853 0.759007 0.620723 0.458690 0.278614 0.087048 0.108844 0.301538 0.483433 0.647169 0.785919 0.893699 0.965639 0.998229 0.989520 0.939256 0.848948 0.721871 0.562981 0.378754 0.176949 0.033696 0.243831 0.443906 0.624597 0.777261 0.894367 0.969883 0.999628 0.981530 0.915798 0.804988 0.653951 0.469666 0.260947 0.038061 0.187766 0.404901 0.601899 0.768126 0.894345 0.973266 0.999999 0.972401 0.891278 0.760432 0.586535 0.378841 0.148736 0.090861 0.326207 0.543514 0.729758 0.873500 0.965602 0.999862 0.973478 0.887317 0.745974 0.557583 0.333412 0.087237 0.165485 0.408558 0.626085 0.803526 0.928699 0.992666 0.990415 0.921321 0.789301 0.602674 0.373709 0.117860 0.147224 0.402896 0.630828 0.814340 0.939642 0.996944 0.981271 0.892963 0.737794 0.526671 0.274950 0.001373 0.273296 0.527819 0.742148 0.899024 0.985420 0.993697 0.922350 0.776290 0.566600 0.309778 0.026523 0.259918 0.525602 0.747925 0.907573 0.990248 0.988040 0.900263 0.733694 0.502149 0.225448 0.072243 0.364446 0.624735 0.829145 0.958410 0.999881 0.948835 0.809116 0.592970 0.320079 0.015861 0.290851 0.570505 0.795691 0.943884 0.999768 0.956924 0.818669 0.597949 0.316241 0.001563 0.314245 0.598725 0.822154 0.960692 0.999032 0.932199 0.766303 0.518137 0.213591 0.114944 0.431964 0.702684 0.896889 0.992375 0.977612 0.853258 0.632349 0.339081 0.006271 0.328224 0.625787 0.851523 0.978415 0.990679 0.885856 0.675392 0.383543 0.044726 0.300459 0.610039 0.845808 0.978086 0.989609 0.877909 0.655932 0.350708 0.000219 0.351263 0.658693 0.882082 0.991778 0.972534 0.825802 0.569865 0.237734 0.126957 0.475615 0.761121 0.944295
1.000000 1.000000 1.000000 1.000000 1.000000 1.000000 1.000000 1.000000 1.000000 1.000000 1.000000 1.000000 1.000000 1.000000 1.000000 1.000000 1.000000 1.000000 1.000000 1.000000 1.000000 1.000000 1.000000 1.000000 1.000000 1.000000 1.000000 1.000000 1.000000 1.000000 1.000000 1.000000 1.000000 1.000000 1.000000 1.000000 1.000000 1.000000 1.000000 1.000000 1.000000 1.000000 1.000000 1.000000 1.000000 1.000000 1.000000 1.000000 1.000000 1.000000 1.000000 1.000000 0.826436 0.826436 0.826436 0.800559 0.800559 0.800559 0.800559 0.800559 0.800559 0.800559 0.800559 0.800559 0.800559 0.800559 0.800559 0.800559 0.800559 0.800559 0.800559 0.800559 0.800559 0.800559 0.800559 0.800559 0.800559 0.800559 0.800559 0.800559 0.800559 0.800559 0.800559 0.800559 0.800559 0.800559 0.800559 0.800559 0.800559 0.800559 0.800559 0.800559 0.800559 0.800559 0.800559 0.800559 0.853336 0.859942 0.865171 0.869090 0.869614 0.867521 0.866011 0.865695 0.865546 0.866145 0.874616 0.900141 0.913502 0.915129 0.928637 0.930366 0.935815 0.937075 0.957275 0.959178 0.960909 0.960146 0.961038 0.962941 0.969472 0.969563 0.966938 0.967050 0.971481 0.971483 0.968081 0.967033 0.966145 0.963594 0.963500 0.962449 0.962546 0.962962 0.957324 0.957376 0.957528 0.955913 0.954305 0.948638 0.948432 0.947073 0.948370 0.930710 0.924218 0.917815 0.909642 0.927633 0.922289 0.913830 0.913552 0.902054 0.904384 0.900961 0.885353 0.885480 0.879861 0.875093 0.861500 0.861783 0.864287 0.869340 0.875687 0.877397 0.864728 0.845394 0.814411 0.796653 0.797647 0.793943 0.789150 0.792732 0.792617 0.791429 0.788993 0.781531 0.769780 0.776903 0.774452 0.770223 0.763381 0.760792 0.746728 0.743773 0.736798 0.716926 0.705191 0.701257 0.712382 0.707290 0.708628 0.712407 0.719610 0.718196 0.716901 0.709357 0.704872 0.697941 0.680453 0.689050 0.699090 0.696802 0.694221 0.695530 0.654575 0.681638 0.682747 0.701655 0.710420 0.710381 0.712075 0.701452 0.683119 0.665185 0.663664 0.658096 0.662845 0.656856 0.648121 0.626850 0.628591 0.636655 0.658651 0.626809 0.620961 0.602609 0.604631 0.590280 0.589478 0.550201 0.543995 0.533551 0.505976 0.486100 0.499382 0.482757 0.463859 0.481733 0.436741 0.432201 0.432353 0.433530 0.427979 0.418425 0.395678 0.401356 0.401916 0.388209 0.364263 0.308725 0.308688 0.325502 0.331597 0.332970 0.316389 0.318400 0.276848 0.252911 0.244025 0.234885 0.220311 0.223058 0.231450 0.207659 0.202276 0.109585 0.109375 0.121523 0.123176 0.112118 0.103471 0.133927 0.133043 0.116689 0.093279 0.039212 0.003203 -0.010204 0.013649 0.021378 0.047758 0.029006 0.021336 0.021852 0.035923 -0.011876 -0.021253 -0.033059 -0.030594 -0.023381 0.003886 -0.010430 -0.033335 -0.019169 0.004848 -0.033426 -0.016782 -0.008400 0.024102 0.003802 -0.006036 -0.013722 -0.020657 -0.035320 -0.043438 -0.042295 -0.034002 -0.028967 0.000671 -0.045476 -0.066083 -0.073187 -0.062161 -0.094369 -0.042794 -0.048562 -0.034677 -0.043786 -0.038565 -0.017439 0.033307 0.036318 0.036072 0.006653 0.045579 0.016916 0.007380 0.025021 -0.009542 -0.009998 0.035574 0.050919 0.062476 0.006513 -0.003375 -0.003375 -0.003375 -0.028619 -0.028619 -0.028619 -0.028619 -0.028619 -0.028619 -0.028619 -0.028619 -0.028619 -0.036299 -0.036299 -0.036299 -0.036299 -0.036299 -0.036299 -0.036299 -0.036299 -0.036299 -0.036299 -0.036299 -0.036299 -0.036299 -0.036299 -0.036299 -0.036299 -0.036299
0.000000 0.000000 0.000000 0.000000 0.000000 0.000000 0.000000 0.000000 0.000000 0.000000 0.000000 0.000000 0.000000 0.000000 0.000000 0.000000 0.000000 0.000000 2.000000 0.000000 0.000000 0.000000 0.000000 0.000000 0.000000 0.000000 0.000000 0.000000 0.000000 0.000000 0.000000 0.000000 0.000000 0.000000 0.000000 0.000000 0.000000 0.000000 0.000000 0.000000 0.000000 0.000000 0.000000 0.000000 0.000000 0.000000 0.000000 0.000000 0.000000 0.000000 0.000000 0.000000 0.180334 0.180334 0.180334 0.199007 0.199007 0.199007 0.199007 0.199007 0.199007 0.199007 0.199007 0.199007 0.199007 0.199007 0.199007 0.199007 0.199007 0.199007 0.199007 0.199007 0.199007 0.199007 0.199007 0.199007 0.199007 0.199007 0.199007 0.199007 0.199007 0.199007 0.199007 0.199007 0.199007 0.199007 0.199007 0.199007 0.199007 0.199007 0.199007 0.199007 0.199007 0.199007 0.199007 0.199007 0.230940 0.230940 0.230940 0.230940 0.230940 0.230940 0.230940 0.230940 0.230940 0.230940 0.230940 0.230940 0.230940 0.230940 0.230940 0.230940 0.230940 0.230940 0.230940 0.230940 0.230940 0.230940 0.230940 0.230940 0.230940 0.230940 0.230940 0.230940 0.244339 0.244339 0.244339 0.244339 0.244339 0.244339 0.244339 0.244339 0.244339 0.244339 0.244339 0.244339 0.244339 0.244339 0.244339 0.244339 0.244339 0.244339 0.244339 0.244339 0.244339 0.244339 0.244339 0.256074 0.256074 0.256074 0.256074 0.256074 0.256074 0.256074 0.256074 0.256074 0.256074 0.256074 0.256074 0.256074 0.256074 0.256074 0.256074 0.256074 0.256074 0.256074 0.256074 0.256074 0.256074 0.256074 0.256074 0.256074 0.256074 0.256074 0.256074 0.256074 0.256074 0.256074 0.256074 0.256074 0.256074 0.256074 0.256074 0.256074 0.264906 0.264906 0.264906 0.264906 0.264906 0.264906 0.264906 0.264906 0.264906 0.264906 0.264906 0.264906 0.264906 0.264906 0.264906 0.264906 0.264906 0.264906 0.264906 0.264906 0.264906 0.264906 0.264906 0.264906 0.264906 0.264906 0.264906 0.264906 0.264906 0.264906 0.264906 0.274721 0.274721 0.274721 0.274721 0.274721 0.274721 0.274721 0.274721 0.274721 0.274721 0.274721 0.274721 0.274721 0.256074 0.256074 0.256074 0.256074 0.256074 0.256074 0.256074 0.256074 0.256074 0.256074 0.256074 0.256074 0.256074 0.256074 0.269680 0.269680 0.269680 0.269680 0.269680 0.269680 0.269680 0.269680 0.269680 0.269680 0.269680 0.269680 0.264906 0.264906 0.264906 0.264906 0.264906 0.264906 0.264906 0.264906 0.264906 0.264906 0.264906 0.264906 0.269680 0.269680 0.269680 0.269680 0.269680 0.269680 0.269680 0.269680 0.269680 0.269680 0.269680 0.264906 0.264906 0.264906 0.264906 0.264906 0.264906 0.264906 0.264906 0.264906 0.264906 0.264906 0.269680 0.269680 0.269680 0.269680 0.269680 0.269680 0.269680 0.269680 0.269680 0.269680 0.251976 0.251976 0.251976 0.251976 0.251976 0.251976 0.251976 0.251976 0.251976 0.251976 0.251976 0.269680 0.269680 0.269680 0.269680 0.269680 0.269680 0.269680 0.269680 0.269680 0.256074 0.256074 0.256074 0.256074 0.256074 0.256074 0.256074 0.256074 0.256074 0.256074 0.260378 0.260378 0.260378 0.260378 0.260378 0.260378 0.260378 0.260378 0.260378 0.256074 0.256074 0.256074 0.256074 0.256074 0.256074 0.256074 0.256074 0.256074 0.251976 0.251976 0.251976 0.251976 0.251976 0.251976 0.251976 0.251976 0.251976 0.251976 0.251976 0.251976 0.251976 0.251976 0.251976 0.251976 0.251976
