# Output from CTFFind version 4.1.9, run on 2019-11-03 20:02:29
# Input file: stack6_bm3d_averaged_1_6.0_0_50_half.mrc ; Number of micrographs: 1
# Pixel size: 3.000 Angstroms ; acceleration voltage: 300.0 keV ; spherical aberration: 0.00 mm ; amplitude contrast: 0.07
# Box size: 512 pixels ; min. res.: 30.0 Angstroms ; max. res.: 5.0 Angstroms ; min. def.: 5000.0 um; max. def. 50000.0 um; num. frames averaged: 1
# 6 lines per micrograph: #1 - spatial frequency (1/Angstroms); #2 - 1D rotational average of spectrum (assuming no astigmatism); #3 - 1D rotational average of spectrum; #4 - CTF fit; #5 - cross-correlation between spectrum and CTF fit; #6 - 2sigma of expected cross correlation of noise
0.000000 0.000651 0.001302 0.001953 0.002604 0.003255 0.003906 0.004557 0.005208 0.005859 0.006510 0.007161 0.007812 0.008464 0.009115 0.009766 0.010417 0.011068 0.011719 0.012370 0.013021 0.013672 0.014323 0.014974 0.015625 0.016276 0.016927 0.017578 0.018229 0.018880 0.019531 0.020182 0.020833 0.021484 0.022135 0.022786 0.023438 0.024089 0.024740 0.025391 0.026042 0.026693 0.027344 0.027995 0.028646 0.029297 0.029948 0.030599 0.031250 0.031901 0.032552 0.033203 0.033854 0.034505 0.035156 0.035807 0.036458 0.037109 0.037760 0.038411 0.039062 0.039714 0.040365 0.041016 0.041667 0.042318 0.042969 0.043620 0.044271 0.044922 0.045573 0.046224 0.046875 0.047526 0.048177 0.048828 0.049479 0.050130 0.050781 0.051432 0.052083 0.052734 0.053385 0.054036 0.054688 0.055339 0.055990 0.056641 0.057292 0.057943 0.058594 0.059245 0.059896 0.060547 0.061198 0.061849 0.062500 0.063151 0.063802 0.064453 0.065104 0.065755 0.066406 0.067057 0.067708 0.068359 0.069010 0.069661 0.070312 0.070964 0.071615 0.072266 0.072917 0.073568 0.074219 0.074870 0.075521 0.076172 0.076823 0.077474 0.078125 0.078776 0.079427 0.080078 0.080729 0.081380 0.082031 0.082682 0.083333 0.083984 0.084635 0.085286 0.085938 0.086589 0.087240 0.087891 0.088542 0.089193 0.089844 0.090495 0.091146 0.091797 0.092448 0.093099 0.093750 0.094401 0.095052 0.095703 0.096354 0.097005 0.097656 0.098307 0.098958 0.099609 0.100260 0.100911 0.101562 0.102214 0.102865 0.103516 0.104167 0.104818 0.105469 0.106120 0.106771 0.107422 0.108073 0.108724 0.109375 0.110026 0.110677 0.111328 0.111979 0.112630 0.113281 0.113932 0.114583 0.115234 0.115885 0.116536 0.117188 0.117839 0.118490 0.119141 0.119792 0.120443 0.121094 0.121745 0.122396 0.123047 0.123698 0.124349 0.125000 0.125651 0.126302 0.126953 0.127604 0.128255 0.128906 0.129557 0.130208 0.130859 0.131510 0.132161 0.132812 0.133464 0.134115 0.134766 0.135417 0.136068 0.136719 0.137370 0.138021 0.138672 0.139323 0.139974 0.140625 0.141276 0.141927 0.142578 0.143229 0.143880 0.144531 0.145182 0.145833 0.146484 0.147135 0.147786 0.148438 0.149089 0.149740 0.150391 0.151042 0.151693 0.152344 0.152995 0.153646 0.154297 0.154948 0.155599 0.156250 0.156901 0.157552 0.158203 0.158854 0.159505 0.160156 0.160807 0.161458 0.162109 0.162760 0.163411 0.164062 0.164714 0.165365 0.166016 0.166667 0.167318 0.167969 0.168620 0.169271 0.169922 0.170573 0.171224 0.171875 0.172526 0.173177 0.173828 0.174479 0.175130 0.175781 0.176432 0.177083 0.177734 0.178385 0.179036 0.179688 0.180339 0.180990 0.181641 0.182292 0.182943 0.183594 0.184245 0.184896 0.185547 0.186198 0.186849 0.187500 0.188151 0.188802 0.189453 0.190104 0.190755 0.191406 0.192057 0.192708 0.193359 0.194010 0.194661 0.195312 0.195964 0.196615 0.197266 0.197917 0.198568 0.199219 0.199870 0.200521 0.201172 0.201823 0.202474 0.203125 0.203776 0.204427 0.205078 0.205729 0.206380 0.207031 0.207682 0.208333 0.208984 0.209635 0.210286 0.210938 0.211589 0.212240 0.212891 0.213542 0.214193 0.214844 0.215495 0.216146 0.216797 0.217448 0.218099 0.218750 0.219401 0.220052 0.220703 0.221354 0.222005 0.222656 0.223307 0.223958 0.224609 0.225260 0.225911 0.226562 0.227214 0.227865 0.228516 0.229167 0.229818 0.230469 0.231120 0.231771 0.232422 0.233073 0.233724 0.234375 0.235026 0.235677
       0.32183        0.32183        0.32183        0.32183        0.32183        0.32183        0.32183        0.32183        0.32183        0.32183        0.32183        0.32183        0.32183        0.32183        0.32183        0.32183        0.32183        0.32183        0.32183        0.32183        0.32183        0.32183        0.32183        0.32183        0.32183        0.32183        0.32183        0.32183        0.32183        0.32183        0.32183        0.32183        0.32183        0.32183        0.32183        0.32183        0.32183        0.32183        0.32183        0.32183        0.32183        0.32183        0.32183        0.32183        0.32183        0.32183        0.32183        0.32183        0.32183        0.32183        0.32183        0.59789        0.71634        0.36111        0.17801        0.13284       -0.13875        0.10997        0.03578        0.03837        0.09180        0.30807        0.31617        0.24335        0.14403       -0.03851       -0.01232        0.04603       -0.10958       -0.11642       -0.07635       -0.08859       -0.19831       -0.12870       -0.24042       -0.25828       -0.25579       -0.31759       -0.39212       -0.32669       -0.23394       -0.20166       -0.30548       -0.22479       -0.27341       -0.21414       -0.14483       -0.08942       -0.05676        0.00559        0.04655        0.13790        0.18045        0.22185        0.34098        0.40772        0.35810        0.47175        0.54606        0.55464        0.63464        0.56427        0.59573        0.60109        0.60769        0.60564        0.55637        0.58432        0.54593        0.39336        0.34001        0.37099        0.34402        0.20287        0.18196        0.15434        0.10164        0.10293        0.02369        0.08420        0.06437        0.02541        0.11496        0.17360        0.26802        0.35252        0.35488        0.38228        0.45079        0.48552        0.41877        0.64508        0.54377        0.48294        0.57188        0.50008        0.54660        0.50847        0.37822        0.31452        0.29362        0.24491        0.23532        0.20603        0.18590        0.15344        0.23737        0.21781        0.24952        0.21746        0.26969        0.32510        0.33630        0.44620        0.43928        0.41928        0.42148        0.47403        0.43729        0.42577        0.39933        0.40003        0.33616        0.28418        0.25846        0.25812        0.25702        0.20305        0.18042        0.23570        0.24830        0.28112        0.34910        0.37103        0.42031        0.40361        0.43008        0.47176        0.46294        0.42800        0.38727        0.41485        0.37297        0.32681        0.33552        0.32117        0.26205        0.27901        0.27728        0.24415        0.31182        0.28809        0.30393        0.32796        0.38577        0.41573        0.40833        0.43422        0.38077        0.42220        0.39602        0.31682        0.29252        0.25575        0.27142        0.23695        0.21183        0.30156        0.35999        0.32666        0.29866        0.35313        0.27568        0.33530        0.38891        0.37751        0.36123        0.38169        0.33558        0.35292        0.33306        0.29504        0.28472        0.25234        0.30359        0.31634        0.33208        0.34976        0.38440        0.37403        0.37406        0.32643        0.35209        0.35033        0.33322        0.32435        0.29214        0.28739        0.26079        0.33173        0.33263        0.33298        0.30300        0.33955        0.34829        0.33400        0.35160        0.33446        0.30178        0.29798        0.29960        0.27200        0.25711        0.24786        0.24868        0.26738        0.25676        0.29706        0.28185        0.32043        0.33886        0.26403        0.29759        0.27830        0.22617        0.27771        0.25942        0.25920        0.29034        0.31469        0.31435        0.30479        0.30708        0.30429        0.32914        0.34393        0.28882        0.32188        0.31582        0.36582        0.28470        0.27303        0.27683        0.31185        0.32571        0.34194        0.35367        0.30778        0.23264        0.29414        0.25643        0.25443        0.25271        0.25803        0.29118        0.22674        0.29760        0.31852        0.35726        0.31380        0.29929        0.26391        0.28446        0.28587        0.24510        0.26921        0.27509        0.30376        0.34323        0.32899        0.29258        0.29578        0.32520        0.26515        0.23311        0.18884        0.31181        0.33555        0.34376        0.32588        0.29661        0.23262        0.21203        0.25710        0.25373        0.25474        0.27607        0.28495        0.24515        0.25834        0.24911        0.29486        0.26184        0.26005        0.26712        0.25333        0.19646        0.25177        0.24676        0.22966        0.28406        0.25015        0.25415        0.21401        0.21299        0.26760        0.24529        0.24821        0.16958        0.15261        0.31338        0.20883        0.22261        0.27831        0.17169        0.16996        0.16435        0.25318        0.22032        0.14415       -0.05785       -0.59116       -0.93992
2.342896 2.323024 2.303240 2.283544 2.263936 2.244417 2.224987 2.205644 2.186390 2.167225 2.148147 2.129158 2.110258 2.091445 2.072722 2.054086 2.035539 2.017080 1.998709 1.980427 1.962233 1.944128 1.926110 1.908181 1.890341 1.872589 1.854925 1.837350 1.819862 1.802464 1.785153 1.767931 1.750797 1.733752 1.716795 1.699926 1.683146 1.666454 1.649850 1.633335 1.616908 1.600569 1.584319 1.568157 1.552083 1.536098 1.520201 1.504392 1.488672 1.473040 1.457497 1.816619 2.150770 1.489861 1.324509 1.083602 0.520007 0.915183 0.813488 0.833781 0.699276 1.386345 1.196036 1.211138 0.976209 0.616049 0.479029 0.744776 0.579345 0.260261 0.288580 0.480490 0.233510 0.255074 0.110661 0.001825 -0.016745 -0.011951 -0.305973 -0.163685 0.000024 -0.021508 -0.093030 -0.016519 -0.124346 -0.103899 0.065884 0.174928 0.242954 0.274955 0.365185 0.607993 0.551845 0.636703 0.820301 1.029606 0.797741 1.221649 1.168814 1.238782 1.341741 1.241187 1.172096 1.336294 1.214946 1.339152 1.177147 1.145503 1.198066 0.954339 0.677212 0.732595 0.781322 0.482314 0.418543 0.359984 0.218313 0.195539 0.039787 0.199590 0.159360 0.033036 0.120034 0.228516 0.349554 0.605843 0.601388 0.587283 0.699343 0.875364 0.583782 1.020634 1.025825 0.763301 0.916532 0.758250 0.852528 0.888030 0.619046 0.394653 0.408821 0.349059 0.215510 0.205890 0.171805 -0.011910 0.216099 0.187206 0.245144 0.134256 0.256394 0.324053 0.282805 0.491577 0.594256 0.525100 0.361942 0.666414 0.552914 0.455465 0.519446 0.440844 0.290807 0.327795 0.124350 0.196956 0.036884 0.205247 -0.063371 0.051913 0.047921 0.250480 0.077908 0.386334 0.328855 0.388601 0.393314 0.401668 0.566661 0.404098 0.367293 0.420179 0.214234 0.335453 0.139103 0.266530 0.074522 0.108779 0.094503 0.076806 0.047238 0.160651 0.066376 0.151359 0.239027 0.279266 0.339855 0.268482 0.340600 0.260469 0.294594 0.180639 0.101978 0.030301 -0.012208 0.019928 -0.080528 -0.060879 0.113241 0.209329 0.065899 0.108712 0.108728 0.016471 0.176099 0.239898 0.182338 0.207829 0.135599 0.145248 0.111843 0.103901 0.050748 -0.076664 -0.020527 0.137657 0.020371 0.138089 0.117745 0.227684 0.207223 0.181702 0.122571 0.190626 0.101909 0.128061 0.108469 0.040848 -0.006969 0.008506 0.130651 0.131915 0.116845 0.055747 0.150337 0.126798 0.061213 0.137013 0.041353 -0.007900 0.026616 -0.000914 -0.048996 -0.069568 -0.106233 -0.038235 -0.057096 -0.081944 0.016386 -0.004042 0.072414 0.082279 -0.073909 0.051898 -0.048218 -0.111443 0.030804 -0.057931 -0.073032 0.039224 0.079037 0.028744 0.057069 -0.032304 0.046665 0.149690 -0.007634 -0.024552 0.092941 0.042046 0.128032 -0.064645 -0.034170 -0.029495 0.089852 0.044761 0.075835 0.149124 -0.000022 -0.092664 0.008880 -0.054811 -0.054998 -0.051868 -0.055031 0.020297 -0.156371 0.107164 0.081032 0.180561 0.038458 0.010641 -0.000216 0.021516 0.066425 -0.064731 0.030690 0.011729 0.099704 0.121707 0.154061 0.067901 0.103015 0.178349 -0.030061 0.000296 -0.138725 0.189289 0.160630 0.183722 0.150215 0.056411 -0.045087 -0.080885 -0.013006 -0.000664 -0.006978 0.033632 0.074908 -0.041369 0.000024 0.054175 0.076677 0.050463 0.045388 0.067407 -0.023232 -0.037056 0.031185 0.034538 -0.020684 0.122776 0.037786 -0.008026 0.023096 -0.001069 0.092231 0.126493 0.062519 -0.069976 -0.217836 0.356799 0.457509 0.373015 0.549922 0.263359 0.316558 0.273771 0.530741 0.415913 0.243415 0.171213 -0.857200
0.072396 0.072838 0.074163 0.076371 0.079462 0.083435 0.088289 0.094022 0.100634 0.108122 0.116484 0.125716 0.135815 0.146776 0.158594 0.171262 0.184772 0.199116 0.214282 0.230259 0.247032 0.264586 0.282903 0.301961 0.321739 0.342209 0.363344 0.385111 0.407474 0.430396 0.453833 0.477738 0.502061 0.526747 0.551735 0.576960 0.602354 0.627843 0.653346 0.678779 0.704051 0.729069 0.753731 0.777931 0.801559 0.824499 0.846629 0.867825 0.887956 0.906890 0.924488 0.940610 0.955112 0.967851 0.978680 0.987451 0.994019 0.998237 0.999964 0.999060 0.995388 0.988821 0.979236 0.966518 0.950564 0.931282 0.908590 0.882425 0.852736 0.819493 0.782682 0.742313 0.698416 0.651047 0.600285 0.546238 0.489041 0.428857 0.365881 0.300336 0.232478 0.162594 0.091002 0.018050 0.055883 0.130388 0.205031 0.279348 0.352856 0.425047 0.495396 0.563366 0.628407 0.689964 0.747479 0.800402 0.848190 0.890315 0.926273 0.955588 0.977820 0.992569 0.999485 0.998277 0.988713 0.970632 0.943948 0.908657 0.864842 0.812675 0.752424 0.684454 0.609231 0.527317 0.439375 0.346165 0.248540 0.147440 0.043885 0.061028 0.166143 0.270251 0.372106 0.470437 0.563965 0.651424 0.731572 0.803218 0.865233 0.916578 0.956321 0.983654 0.997916 0.998607 0.985407 0.958192 0.917039 0.862242 0.794319 0.714007 0.622269 0.520285 0.409446 0.291336 0.167716 0.040506 0.088250 0.216406 0.341757 0.462066 0.575119 0.678750 0.770902 0.849658 0.913296 0.960323 0.989521 0.999980 0.991137 0.962795 0.915150 0.848800 0.764752 0.664419 0.549605 0.422480 0.285552 0.141622 0.006269 0.154897 0.300927 0.440980 0.571721 0.689935 0.792613 0.877034 0.940842 0.982127 0.999484 0.992074 0.959665 0.902665 0.822136 0.719788 0.597962 0.459586 0.308120 0.147478 0.018066 0.183983 0.345614 0.498297 0.637510 0.759000 0.858929 0.934004 0.981593 0.999836 0.987727 0.945176 0.873050 0.773168 0.648289 0.502048 0.338864 0.163824 0.017463 0.199040 0.374797 0.538674 0.684877 0.808085 0.903659 0.967832 0.997874 0.992225 0.950588 0.873990 0.764777 0.626575 0.464192 0.283467 0.091080 0.105682 0.299199 0.481803 0.646095 0.785242 0.893285 0.965408 0.998170 0.989698 0.939809 0.850073 0.723801 0.565943 0.382939 0.182460 0.026882 0.235900 0.435226 0.615737 0.768976 0.887568 0.965597 0.998919 0.985421 0.925170 0.820481 0.675864 0.497862 0.294798 0.076395 0.146661 0.363236 0.562304 0.733521 0.867767 0.957665 0.998014 0.986118 0.922006 0.808499 0.651135 0.457938 0.239048 0.006209 0.227834 0.450029 0.647754 0.809529 0.925727 0.989163 0.995583 0.943987 0.836772 0.679681 0.481538 0.253798 0.009912 0.235431 0.467203 0.670938 0.833664 0.944749 0.996643 0.985427 0.911160 0.777971 0.593885 0.370404 0.121820 0.135662 0.384967 0.609279 0.793179 0.923751 0.991510 0.991152 0.922021 0.788260 0.598637 0.366026 0.106581 0.161341 0.418481 0.646035 0.827068 0.947796 0.998685 0.975268 0.878586 0.715243 0.497021 0.240102 0.036101 0.310362 0.561273 0.768927 0.916516 0.991754 0.987952 0.904681 0.747947 0.529842 0.267673 0.017345 0.301778 0.561874 0.775578 0.924413 0.995148 0.981031 0.882517 0.707374 0.470168 0.191118 0.105567 0.393759 0.647693 0.844311 0.965377 0.999256 0.942097 0.798357 0.580554 0.308267 0.006448 0.296823 0.572914 0.795383 0.942524 0.999570 0.960250 0.827572 0.613716 0.339009 0.030078 0.282680 0.568056 0.797160 0.946401 0.999962
1.000000 1.000000 1.000000 1.000000 1.000000 1.000000 1.000000 1.000000 1.000000 1.000000 1.000000 1.000000 1.000000 1.000000 1.000000 1.000000 1.000000 1.000000 1.000000 1.000000 1.000000 1.000000 1.000000 1.000000 1.000000 1.000000 1.000000 1.000000 1.000000 1.000000 1.000000 1.000000 1.000000 1.000000 1.000000 1.000000 1.000000 1.000000 1.000000 1.000000 1.000000 1.000000 1.000000 1.000000 1.000000 1.000000 1.000000 1.000000 1.000000 1.000000 1.000000 1.000000 0.781072 0.781072 0.781072 0.781072 0.781072 0.781072 0.781072 0.764143 0.764143 0.764143 0.764143 0.764143 0.764143 0.764143 0.764143 0.764143 0.764143 0.764143 0.764143 0.764143 0.764143 0.764143 0.764143 0.764143 0.764143 0.764143 0.764143 0.764143 0.764143 0.764143 0.764143 0.764143 0.764143 0.764143 0.764143 0.764143 0.764143 0.764143 0.764143 0.764143 0.764143 0.764143 0.764143 0.764143 0.764143 0.764143 0.764143 0.764143 0.764143 0.764143 0.764143 0.907033 0.908401 0.911254 0.906592 0.908456 0.906361 0.899866 0.902817 0.902631 0.902461 0.903466 0.905025 0.906929 0.911985 0.920787 0.922617 0.930464 0.933878 0.935115 0.935098 0.932770 0.940302 0.937928 0.936185 0.924301 0.927577 0.929407 0.930321 0.929132 0.929244 0.929904 0.930528 0.928436 0.926642 0.924487 0.922743 0.924496 0.924109 0.924292 0.924451 0.924621 0.924518 0.925095 0.921242 0.923496 0.922370 0.918791 0.915339 0.914837 0.915873 0.909027 0.905699 0.896531 0.897804 0.896806 0.902253 0.897183 0.896933 0.898143 0.898897 0.899546 0.897101 0.897152 0.894752 0.896561 0.893030 0.888800 0.884381 0.884532 0.886367 0.893545 0.896065 0.895095 0.891486 0.884221 0.874458 0.872306 0.858597 0.827646 0.828746 0.832265 0.834148 0.835173 0.834457 0.832170 0.827591 0.818613 0.809888 0.814563 0.814306 0.806459 0.798481 0.799066 0.798135 0.805652 0.809110 0.800824 0.798063 0.797468 0.793943 0.794263 0.794371 0.792645 0.787996 0.790965 0.799658 0.800278 0.788028 0.782347 0.778903 0.761007 0.765100 0.771787 0.777710 0.778824 0.775120 0.762579 0.770871 0.765022 0.780911 0.793021 0.791595 0.787607 0.768699 0.727546 0.715456 0.701729 0.704469 0.705699 0.685791 0.680691 0.681829 0.686459 0.633338 0.617810 0.606104 0.605002 0.612560 0.618107 0.610324 0.578113 0.596953 0.594710 0.578800 0.575259 0.545567 0.529753 0.494403 0.496638 0.494007 0.476713 0.456609 0.449027 0.464020 0.474062 0.471544 0.469404 0.440779 0.422405 0.425220 0.420640 0.424037 0.425070 0.431024 0.381370 0.357481 0.340338 0.364577 0.365582 0.364958 0.375929 0.376057 0.373060 0.352532 0.334390 0.321005 0.334852 0.354056 0.361621 0.363844 0.328729 0.314271 0.295160 0.300959 0.343752 0.332251 0.338529 0.335296 0.339867 0.361707 0.341418 0.319035 0.296523 0.339287 0.335266 0.322994 0.299804 0.309279 0.328753 0.329925 0.324538 0.316396 0.365355 0.396139 0.386762 0.391213 0.361344 0.392634 0.435333 0.425384 0.423812 0.439798 0.435663 0.422905 0.385995 0.368233 0.368051 0.343477 0.338112 0.320056 0.305820 0.298410 0.306248 0.328189 0.334114 0.367516 0.343402 0.311193 0.216390 0.289141 0.207846 0.211737 0.211737 0.211737 0.211737 0.211737 0.211737 0.211737 0.211737 0.230700 0.230700 0.230700 0.230700 0.230700 0.230700 0.230700 0.230700 0.230700 0.230700 0.230700 0.230700 0.230700 0.230700 0.230700 0.230700 0.230700 0.230700 0.230700 0.230700 0.230700
0.000000 0.000000 0.000000 0.000000 0.000000 0.000000 0.000000 0.000000 0.000000 0.000000 0.000000 0.000000 0.000000 0.000000 0.000000 0.000000 0.000000 0.000000 2.000000 0.000000 0.000000 0.000000 0.000000 0.000000 0.000000 0.000000 0.000000 0.000000 0.000000 0.000000 0.000000 0.000000 0.000000 0.000000 0.000000 0.000000 0.000000 0.000000 0.000000 0.000000 0.000000 0.000000 0.000000 0.000000 0.000000 0.000000 0.000000 0.000000 0.000000 0.000000 0.000000 0.000000 0.173422 0.173422 0.173422 0.173422 0.173422 0.173422 0.173422 0.191565 0.191565 0.191565 0.191565 0.191565 0.191565 0.191565 0.191565 0.191565 0.191565 0.191565 0.191565 0.191565 0.191565 0.191565 0.191565 0.191565 0.191565 0.191565 0.191565 0.191565 0.191565 0.191565 0.191565 0.191565 0.191565 0.191565 0.191565 0.191565 0.191565 0.191565 0.191565 0.191565 0.191565 0.191565 0.191565 0.191565 0.191565 0.191565 0.191565 0.191565 0.191565 0.191565 0.191565 0.222222 0.222222 0.222222 0.222222 0.222222 0.222222 0.222222 0.222222 0.222222 0.222222 0.222222 0.222222 0.222222 0.222222 0.222222 0.222222 0.222222 0.222222 0.222222 0.222222 0.222222 0.222222 0.222222 0.222222 0.222222 0.222222 0.222222 0.222222 0.222222 0.222222 0.234082 0.234082 0.234082 0.234082 0.234082 0.234082 0.234082 0.234082 0.234082 0.234082 0.234082 0.234082 0.234082 0.234082 0.234082 0.234082 0.234082 0.234082 0.234082 0.234082 0.234082 0.234082 0.234082 0.234082 0.234082 0.244339 0.244339 0.244339 0.244339 0.244339 0.244339 0.244339 0.244339 0.244339 0.244339 0.244339 0.244339 0.244339 0.244339 0.244339 0.244339 0.244339 0.244339 0.244339 0.244339 0.244339 0.248069 0.248069 0.248069 0.248069 0.248069 0.248069 0.248069 0.248069 0.248069 0.248069 0.248069 0.248069 0.248069 0.248069 0.248069 0.248069 0.248069 0.248069 0.248069 0.256074 0.256074 0.256074 0.256074 0.256074 0.256074 0.256074 0.256074 0.256074 0.256074 0.256074 0.256074 0.256074 0.256074 0.256074 0.256074 0.256074 0.256074 0.256074 0.256074 0.256074 0.256074 0.256074 0.256074 0.256074 0.256074 0.256074 0.256074 0.256074 0.256074 0.256074 0.256074 0.256074 0.256074 0.256074 0.256074 0.256074 0.256074 0.256074 0.256074 0.256074 0.256074 0.256074 0.256074 0.256074 0.256074 0.256074 0.256074 0.256074 0.256074 0.256074 0.256074 0.256074 0.256074 0.256074 0.256074 0.256074 0.256074 0.256074 0.256074 0.256074 0.256074 0.260378 0.260378 0.260378 0.260378 0.260378 0.260378 0.260378 0.260378 0.260378 0.260378 0.260378 0.260378 0.260378 0.256074 0.256074 0.256074 0.256074 0.256074 0.256074 0.256074 0.256074 0.256074 0.256074 0.256074 0.256074 0.256074 0.260378 0.260378 0.260378 0.260378 0.260378 0.260378 0.260378 0.260378 0.260378 0.260378 0.260378 0.260378 0.251976 0.251976 0.251976 0.251976 0.251976 0.251976 0.251976 0.251976 0.251976 0.251976 0.251976 0.251976 0.256074 0.256074 0.256074 0.256074 0.256074 0.256074 0.256074 0.256074 0.256074 0.256074 0.256074 0.251976 0.251976 0.251976 0.251976 0.251976 0.251976 0.251976 0.251976 0.251976 0.251976 0.251976 0.260378 0.260378 0.260378 0.260378 0.260378 0.260378 0.260378 0.260378 0.260378 0.260378 0.244339 0.244339 0.244339 0.244339 0.244339 0.244339 0.244339 0.244339 0.244339 0.244339 0.244339 0.244339 0.244339 0.244339 0.244339 0.244339 0.244339 0.244339 0.244339 0.244339 0.244339
