# Output from CTFFind version 4.1.9, run on 2019-11-03 20:06:12
# Input file: stack11_bm3d_averaged_1_6.0_0_1000_half.mrc ; Number of micrographs: 1
# Pixel size: 3.000 Angstroms ; acceleration voltage: 300.0 keV ; spherical aberration: 0.00 mm ; amplitude contrast: 0.07
# Box size: 512 pixels ; min. res.: 30.0 Angstroms ; max. res.: 5.0 Angstroms ; min. def.: 5000.0 um; max. def. 50000.0 um; num. frames averaged: 1
# 6 lines per micrograph: #1 - spatial frequency (1/Angstroms); #2 - 1D rotational average of spectrum (assuming no astigmatism); #3 - 1D rotational average of spectrum; #4 - CTF fit; #5 - cross-correlation between spectrum and CTF fit; #6 - 2sigma of expected cross correlation of noise
0.000000 0.000651 0.001302 0.001953 0.002604 0.003255 0.003906 0.004557 0.005208 0.005859 0.006510 0.007161 0.007812 0.008464 0.009115 0.009766 0.010417 0.011068 0.011719 0.012370 0.013021 0.013672 0.014323 0.014974 0.015625 0.016276 0.016927 0.017578 0.018229 0.018880 0.019531 0.020182 0.020833 0.021484 0.022135 0.022786 0.023438 0.024089 0.024740 0.025391 0.026042 0.026693 0.027344 0.027995 0.028646 0.029297 0.029948 0.030599 0.031250 0.031901 0.032552 0.033203 0.033854 0.034505 0.035156 0.035807 0.036458 0.037109 0.037760 0.038411 0.039062 0.039714 0.040365 0.041016 0.041667 0.042318 0.042969 0.043620 0.044271 0.044922 0.045573 0.046224 0.046875 0.047526 0.048177 0.048828 0.049479 0.050130 0.050781 0.051432 0.052083 0.052734 0.053385 0.054036 0.054688 0.055339 0.055990 0.056641 0.057292 0.057943 0.058594 0.059245 0.059896 0.060547 0.061198 0.061849 0.062500 0.063151 0.063802 0.064453 0.065104 0.065755 0.066406 0.067057 0.067708 0.068359 0.069010 0.069661 0.070312 0.070964 0.071615 0.072266 0.072917 0.073568 0.074219 0.074870 0.075521 0.076172 0.076823 0.077474 0.078125 0.078776 0.079427 0.080078 0.080729 0.081380 0.082031 0.082682 0.083333 0.083984 0.084635 0.085286 0.085938 0.086589 0.087240 0.087891 0.088542 0.089193 0.089844 0.090495 0.091146 0.091797 0.092448 0.093099 0.093750 0.094401 0.095052 0.095703 0.096354 0.097005 0.097656 0.098307 0.098958 0.099609 0.100260 0.100911 0.101562 0.102214 0.102865 0.103516 0.104167 0.104818 0.105469 0.106120 0.106771 0.107422 0.108073 0.108724 0.109375 0.110026 0.110677 0.111328 0.111979 0.112630 0.113281 0.113932 0.114583 0.115234 0.115885 0.116536 0.117188 0.117839 0.118490 0.119141 0.119792 0.120443 0.121094 0.121745 0.122396 0.123047 0.123698 0.124349 0.125000 0.125651 0.126302 0.126953 0.127604 0.128255 0.128906 0.129557 0.130208 0.130859 0.131510 0.132161 0.132812 0.133464 0.134115 0.134766 0.135417 0.136068 0.136719 0.137370 0.138021 0.138672 0.139323 0.139974 0.140625 0.141276 0.141927 0.142578 0.143229 0.143880 0.144531 0.145182 0.145833 0.146484 0.147135 0.147786 0.148438 0.149089 0.149740 0.150391 0.151042 0.151693 0.152344 0.152995 0.153646 0.154297 0.154948 0.155599 0.156250 0.156901 0.157552 0.158203 0.158854 0.159505 0.160156 0.160807 0.161458 0.162109 0.162760 0.163411 0.164062 0.164714 0.165365 0.166016 0.166667 0.167318 0.167969 0.168620 0.169271 0.169922 0.170573 0.171224 0.171875 0.172526 0.173177 0.173828 0.174479 0.175130 0.175781 0.176432 0.177083 0.177734 0.178385 0.179036 0.179688 0.180339 0.180990 0.181641 0.182292 0.182943 0.183594 0.184245 0.184896 0.185547 0.186198 0.186849 0.187500 0.188151 0.188802 0.189453 0.190104 0.190755 0.191406 0.192057 0.192708 0.193359 0.194010 0.194661 0.195312 0.195964 0.196615 0.197266 0.197917 0.198568 0.199219 0.199870 0.200521 0.201172 0.201823 0.202474 0.203125 0.203776 0.204427 0.205078 0.205729 0.206380 0.207031 0.207682 0.208333 0.208984 0.209635 0.210286 0.210938 0.211589 0.212240 0.212891 0.213542 0.214193 0.214844 0.215495 0.216146 0.216797 0.217448 0.218099 0.218750 0.219401 0.220052 0.220703 0.221354 0.222005 0.222656 0.223307 0.223958 0.224609 0.225260 0.225911 0.226562 0.227214 0.227865 0.228516 0.229167 0.229818 0.230469 0.231120 0.231771 0.232422 0.233073 0.233724 0.234375 0.235026 0.235677
       0.34386        0.34386        0.34386        0.34386        0.34386        0.34386        0.34386        0.34386        0.34386        0.34386        0.34386        0.34386        0.34386        0.34386        0.34386        0.34386        0.34386        0.34386        0.34386        0.34386        0.34386        0.34386        0.34386        0.34386        0.34386        0.34386        0.34386        0.34386        0.34386        0.34386        0.34386        0.34386        0.34386        0.34386        0.34386        0.34386        0.34386        0.34386        0.34386        0.34386        0.34386        0.34386        0.34386        0.34386        0.34386        0.34386        0.34386        0.34386        0.34386        0.34386        0.34386        0.69857        0.85852        0.53767        0.10543       -0.02931       -0.38788       -0.18035       -0.28810       -0.11469       -0.05498       -0.11171       -0.05327       -0.16807       -0.20629       -0.21538       -0.30767       -0.31912       -0.44536       -0.36244       -0.42727       -0.42186       -0.39536       -0.41056       -0.45108       -0.51011       -0.55967       -0.55349       -0.52732       -0.35850       -0.32886       -0.29290       -0.27286       -0.18604       -0.17147        0.05990        0.14033        0.17284        0.26447        0.38150        0.45795        0.52340        0.59946        0.59684        0.58326        0.69959        0.80438        0.70477        0.74370        0.62138        0.56898        0.48385        0.43207        0.51245        0.39710        0.26872        0.11567        0.11011        0.09007       -0.01627        0.04120        0.05020        0.00837        0.02700        0.02844        0.23744        0.27128        0.29627        0.43514        0.45375        0.41470        0.59766        0.62116        0.63934        0.72615        0.67734        0.64778        0.65930        0.56106        0.46253        0.41925        0.30377        0.26718        0.18270        0.13556        0.05268        0.06307        0.07198        0.09864        0.15752        0.24375        0.29588        0.41996        0.46505        0.48155        0.56771        0.60446        0.63769        0.61698        0.56022        0.46115        0.47362        0.37925        0.27510        0.21113        0.15719        0.17085        0.15256        0.15736        0.18606        0.32048        0.33438        0.40451        0.44506        0.42749        0.48301        0.56316        0.55500        0.50221        0.45742        0.41277        0.37010        0.34008        0.30733        0.26131        0.24629        0.25148        0.25523        0.22533        0.30908        0.36439        0.38529        0.43965        0.45642        0.46907        0.42692        0.41034        0.40247        0.36320        0.33355        0.27437        0.27820        0.26805        0.24312        0.29374        0.29062        0.35065        0.38184        0.43213        0.47683        0.40884        0.42363        0.43325        0.41156        0.34957        0.32724        0.29365        0.32464        0.27454        0.32125        0.31356        0.33118        0.33955        0.36356        0.31630        0.39089        0.41396        0.38099        0.35074        0.37052        0.31758        0.29460        0.30633        0.32044        0.30820        0.32020        0.34342        0.35496        0.34067        0.36542        0.36421        0.41978        0.38888        0.33906        0.34713        0.29953        0.29298        0.32602        0.32005        0.33030        0.34228        0.34111        0.38642        0.33096        0.33057        0.33817        0.34666        0.30471        0.31297        0.28154        0.30368        0.33019        0.30570        0.33055        0.35663        0.36671        0.29705        0.33952        0.29862        0.29688        0.27964        0.24693        0.30518        0.30558        0.34300        0.33888        0.34283        0.32700        0.34993        0.31475        0.34611        0.30966        0.32328        0.28946        0.33553        0.32635        0.36834        0.32825        0.33597        0.33940        0.29327        0.27572        0.31120        0.25059        0.22907        0.34164        0.32266        0.36563        0.34690        0.36195        0.33311        0.33552        0.34948        0.26528        0.26393        0.31717        0.30138        0.31172        0.31761        0.34043        0.33154        0.29226        0.29099        0.34494        0.32181        0.31793        0.29465        0.32248        0.34045        0.39524        0.35949        0.31837        0.28240        0.30386        0.28913        0.30316        0.27563        0.26689        0.31311        0.33072        0.34492        0.35501        0.33091        0.29248        0.30130        0.26940        0.27637        0.25575        0.30933        0.26492        0.24338        0.29659        0.29140        0.26398        0.29591        0.21695        0.21440        0.24406        0.19258        0.27091        0.34672        0.25235        0.23784        0.31731        0.30584        0.31450        0.31523        0.26797        0.25011        0.19050        0.21149        0.20078        0.26835        0.23510        0.28136        0.35809        0.35591        0.24891        0.16662        0.10219       -0.01303       -0.11640       -0.63044
2.781041 2.751544 2.722208 2.693032 2.664017 2.635163 2.606469 2.577936 2.549564 2.521352 2.493301 2.465411 2.437681 2.410112 2.382703 2.355456 2.328368 2.301442 2.274676 2.248071 2.221626 2.195342 2.169218 2.143256 2.117454 2.091812 2.066331 2.041011 2.015852 1.990853 1.966015 1.941337 1.916820 1.892464 1.868268 1.844233 1.820359 1.796645 1.773092 1.749699 1.726468 1.703396 1.680486 1.657736 1.635147 1.612718 1.590450 1.568343 1.546396 1.524610 1.502985 1.719847 2.142834 1.701166 1.185644 1.049929 0.451868 0.848179 0.561542 0.845275 0.812812 0.817950 0.756940 0.752353 0.595757 0.559024 0.500779 0.428353 0.248111 0.366155 0.200477 0.329907 0.220128 0.208408 0.182733 0.040819 0.005784 0.018280 -0.069204 0.132998 0.231863 0.188862 0.178225 0.326352 0.184507 0.519445 0.623484 0.630614 0.647079 0.875932 0.834286 0.942732 0.935598 1.032540 1.000458 1.084912 1.168262 1.044064 1.162332 0.909326 0.928565 0.795030 0.653008 0.806052 0.695815 0.492818 0.332910 0.250681 0.266984 0.148080 0.134493 0.164643 0.107926 0.121975 0.080718 0.250075 0.352680 0.341147 0.476234 0.544894 0.417351 0.591841 0.729224 0.651947 0.720854 0.709743 0.717835 0.647648 0.595783 0.493679 0.369156 0.276354 0.220279 0.089394 0.116288 -0.111065 -0.048868 -0.063326 -0.081724 -0.020086 0.129877 0.069396 0.241337 0.306359 0.335331 0.376645 0.497370 0.467597 0.479632 0.491714 0.305217 0.293323 0.286638 0.086850 0.045636 -0.078355 -0.013890 -0.062345 -0.095128 -0.075235 0.038986 0.093131 0.124015 0.221394 0.225331 0.223450 0.273522 0.445292 0.393098 0.256636 0.232722 0.223376 0.143223 0.144340 0.116941 -0.004212 0.016054 0.073699 -0.009448 0.047474 0.133731 0.135923 0.215392 0.233666 0.257005 0.167943 0.210049 0.127010 0.133022 0.111121 0.029082 -0.026156 -0.000025 -0.019878 -0.053628 0.054037 0.005471 0.106304 0.138509 0.190303 0.168966 0.118581 0.141204 0.161552 0.111475 0.037596 -0.023475 0.032149 0.025486 -0.040355 0.033947 0.022224 0.047382 0.038849 0.051857 0.035631 0.135167 0.123836 0.046895 0.039935 0.044509 0.006217 -0.030362 0.010138 0.007487 -0.001624 0.006280 0.053358 0.053755 0.039993 0.078958 0.059261 0.158877 0.062875 0.039239 0.041725 -0.033765 0.011279 0.046187 0.007415 0.034242 0.054614 0.079211 0.048853 0.042396 0.010300 0.078262 0.023988 0.022366 0.023356 -0.006264 0.035046 0.025969 0.022005 0.067948 0.078016 0.066967 0.040180 0.049755 0.027420 0.018535 -0.021051 -0.023306 0.035233 0.053167 0.082117 0.084476 0.051702 0.074171 0.103093 0.045760 0.094666 0.063670 0.042075 0.020837 0.102725 0.061104 0.116062 0.081308 0.051849 0.106620 0.036574 0.005244 0.086255 -0.036072 -0.023285 0.099799 0.045971 0.159378 0.094605 0.090758 0.066518 0.041719 0.092394 -0.024267 -0.026160 0.051899 0.039624 0.037893 0.026885 0.102494 0.042443 -0.007447 0.053295 0.046656 0.052432 0.059519 -0.010528 0.063241 0.057973 0.118707 0.054680 0.026280 -0.025274 -0.018678 -0.004953 0.004582 -0.052637 -0.025521 0.003821 0.023255 0.029084 0.052216 0.005926 -0.035734 -0.031292 -0.020592 -0.068515 -0.049770 -0.027284 -0.126833 -0.103070 -0.046238 -0.083443 -0.100733 -0.020618 -0.151703 -0.105815 -0.098984 -0.189543 -0.068230 0.060321 -0.064939 -0.143053 0.052239 0.043099 -0.019014 0.080938 -0.025746 0.000868 -0.092448 -0.030397 0.040906 0.114099 0.056527 0.137542 0.172924 0.413833 0.229931 0.302679 0.125892 -0.018693 -0.697514
0.072396 0.072899 0.074408 0.076922 0.080441 0.084964 0.090490 0.097017 0.104543 0.113065 0.122579 0.133082 0.144569 0.157032 0.170464 0.184855 0.200196 0.216472 0.233669 0.251769 0.270753 0.290597 0.311276 0.332759 0.355015 0.378005 0.401687 0.426017 0.450943 0.476409 0.502354 0.528711 0.555406 0.582361 0.609490 0.636702 0.663897 0.690971 0.717811 0.744298 0.770306 0.795704 0.820351 0.844103 0.866807 0.888306 0.908439 0.927037 0.943931 0.958945 0.971902 0.982625 0.990936 0.996657 0.999613 0.999632 0.996548 0.990202 0.980444 0.967133 0.950143 0.929360 0.904688 0.876051 0.843393 0.806680 0.765907 0.721095 0.672293 0.619585 0.563089 0.502954 0.439373 0.372571 0.302818 0.230420 0.155725 0.079122 0.001041 0.078053 0.157654 0.237222 0.316184 0.393938 0.469857 0.543292 0.613580 0.680048 0.742020 0.798824 0.849800 0.894308 0.931737 0.961514 0.983113 0.996067 0.999971 0.994501 0.979414 0.954564 0.919905 0.875503 0.821539 0.758316 0.686263 0.605937 0.518023 0.423336 0.322815 0.217519 0.108617 0.002616 0.114818 0.226553 0.336324 0.442597 0.543821 0.638450 0.724970 0.801923 0.867936 0.921749 0.962238 0.988449 0.999620 0.995203 0.974891 0.938633 0.886651 0.819450 0.737823 0.642855 0.535916 0.418647 0.292949 0.160953 0.024991 0.112438 0.248718 0.381154 0.507034 0.623683 0.728520 0.819124 0.893290 0.949096 0.984953 0.999664 0.992466 0.963074 0.911705 0.839099 0.746525 0.635778 0.509152 0.369411 0.219733 0.063655 0.095009 0.252257 0.403996 0.546147 0.674762 0.786138 0.876931 0.944263 0.985833 1.000000 0.985865 0.943326 0.873117 0.776818 0.656845 0.516404 0.359431 0.190490 0.014656 0.162632 0.335729 0.498972 0.646854 0.774231 0.876507 0.949808 0.991155 0.998597 0.971321 0.909726 0.815456 0.691381 0.541544 0.371051 0.185909 0.007154 0.200937 0.388021 0.561055 0.713054 0.837689 0.929569 0.984492 0.999665 0.973870 0.907568 0.802939 0.663850 0.495745 0.305460 0.100969 0.108931 0.314988 0.507903 0.678753 0.819413 0.922966 0.984069 0.999255 0.967166 0.888683 0.766960 0.607339 0.417158 0.205443 0.017492 0.240527 0.452293 0.641743 0.798748 0.914659 0.982812 0.998952 0.961532 0.871885 0.734238 0.555564 0.345273 0.114756 0.123206 0.355133 0.567611 0.748075 0.885570 0.971456 0.999987 0.968748 0.878893 0.735179 0.545778 0.321859 0.076985 0.173694 0.414348 0.629479 0.804924 0.928823 0.992459 0.990928 0.923571 0.794136 0.610641 0.384940 0.132019 0.130958 0.385811 0.614576 0.800791 0.930727 0.994428 0.986553 0.906878 0.760450 0.557343 0.312056 0.042506 0.231218 0.488336 0.708975 0.875716 0.975017 0.998382 0.943158 0.812893 0.617209 0.371168 0.094192 0.191417 0.462271 0.695786 0.872101 0.975823 0.997435 0.934254 0.790830 0.578717 0.315646 0.024108 0.270512 0.542127 0.766272 0.922334 0.995524 0.978357 0.871514 0.683966 0.432337 0.139516 0.167357 0.459361 0.708531 0.890553 0.987215 0.988305 0.892808 0.709197 0.454820 0.154355 0.162508 0.463948 0.719214 0.901794 0.992241 0.980345 0.866399 0.661394 0.386101 0.069065 0.256281 0.555092 0.794864 0.949017 0.999932 0.941087 0.778007 0.527909 0.218011 0.117325 0.440334 0.714113 0.906852 0.995619 0.969215 0.829718 0.592511 0.284742 0.057678 0.394170 0.684290 0.892610 0.993138 0.972683 0.832733 0.589563 0.272511 0.079436 0.422365 0.712878 0.913636 0.998254 0.954902 0.788120 0.518563 0.180579 0.182005
1.000000 1.000000 1.000000 1.000000 1.000000 1.000000 1.000000 1.000000 1.000000 1.000000 1.000000 1.000000 1.000000 1.000000 1.000000 1.000000 1.000000 1.000000 1.000000 1.000000 1.000000 1.000000 1.000000 1.000000 1.000000 1.000000 1.000000 1.000000 1.000000 1.000000 1.000000 1.000000 1.000000 1.000000 1.000000 1.000000 1.000000 1.000000 1.000000 1.000000 1.000000 1.000000 1.000000 1.000000 1.000000 1.000000 1.000000 1.000000 1.000000 1.000000 1.000000 1.000000 0.918872 0.918872 0.918872 0.912144 0.912144 0.912144 0.912144 0.912144 0.912144 0.912144 0.912144 0.912144 0.912144 0.912144 0.912144 0.912144 0.912144 0.912144 0.912144 0.912144 0.912144 0.912144 0.912144 0.912144 0.912144 0.912144 0.912144 0.912144 0.912144 0.912144 0.912144 0.912144 0.912144 0.912144 0.912144 0.912144 0.912144 0.912144 0.912144 0.912144 0.912144 0.912144 0.912144 0.912144 0.940940 0.942355 0.950646 0.950201 0.949612 0.947612 0.946384 0.946042 0.945952 0.946294 0.947013 0.947988 0.954209 0.955126 0.959542 0.962240 0.962424 0.964171 0.964891 0.964522 0.956119 0.955888 0.954475 0.953947 0.956473 0.955588 0.954854 0.955827 0.955734 0.956049 0.956046 0.955400 0.954370 0.953324 0.952424 0.952033 0.951842 0.952561 0.952970 0.954406 0.957646 0.958243 0.958381 0.956801 0.955570 0.956839 0.956084 0.955387 0.943660 0.943151 0.941813 0.941860 0.944962 0.945045 0.945635 0.946252 0.948029 0.948391 0.943431 0.943150 0.935771 0.932788 0.930678 0.924983 0.920193 0.922071 0.924109 0.924626 0.924831 0.919158 0.919111 0.917031 0.913074 0.915485 0.915733 0.917081 0.918467 0.914061 0.913449 0.912177 0.910560 0.903018 0.891009 0.889784 0.884785 0.889795 0.889656 0.888572 0.891576 0.880961 0.866037 0.835119 0.837531 0.840938 0.831967 0.827578 0.827667 0.828484 0.832856 0.825966 0.824243 0.818807 0.806843 0.801864 0.795263 0.781093 0.782899 0.774407 0.764290 0.759845 0.783887 0.777855 0.788865 0.793191 0.792902 0.789771 0.781848 0.771749 0.770762 0.766375 0.763051 0.741187 0.732828 0.733049 0.730009 0.718984 0.722751 0.710258 0.710293 0.698542 0.703067 0.708011 0.711635 0.707532 0.702409 0.694402 0.690878 0.703030 0.717039 0.712537 0.708708 0.710530 0.700377 0.689827 0.686645 0.690699 0.685243 0.666616 0.674196 0.699937 0.667750 0.657241 0.664085 0.668760 0.658649 0.660431 0.640251 0.633998 0.612999 0.630317 0.635280 0.651647 0.651186 0.651404 0.662598 0.668223 0.679103 0.683553 0.683357 0.644082 0.647079 0.667523 0.674855 0.662083 0.651247 0.652146 0.648800 0.684094 0.673137 0.629181 0.625656 0.622880 0.583293 0.560881 0.559751 0.563721 0.589778 0.584299 0.564050 0.540270 0.543876 0.547867 0.549563 0.548299 0.534329 0.541180 0.527421 0.503969 0.513422 0.519911 0.517666 0.502872 0.499100 0.509495 0.485260 0.518868 0.492974 0.469588 0.489272 0.486619 0.474869 0.400545 0.416086 0.403356 0.395575 0.350289 0.360153 0.368857 0.352831 0.277904 0.269765 0.270770 0.268456 0.250225 0.231770 0.218427 0.206173 0.184869 0.124201 0.083471 0.083594 0.086232 0.110991 0.070819 0.120580 0.185370 0.185490 0.185490 0.185490 0.185490 0.185490 0.185490 0.185490 0.185490 0.160944 0.160944 0.160944 0.160944 0.160944 0.160944 0.160944 0.160944 0.160944 0.185490 0.185490 0.185490 0.185490 0.185490 0.185490 0.185490 0.185490 0.185490 0.185490 0.185490 0.185490 0.185490 0.185490
0.000000 0.000000 0.000000 0.000000 0.000000 0.000000 0.000000 0.000000 0.000000 0.000000 0.000000 0.000000 0.000000 0.000000 0.000000 0.000000 0.000000 0.000000 0.000000 0.000000 0.000000 0.000000 0.000000 0.000000 0.000000 0.000000 0.000000 0.000000 0.000000 0.000000 0.000000 0.000000 0.000000 0.000000 0.000000 0.000000 0.000000 0.000000 0.000000 0.000000 0.000000 0.000000 0.000000 0.000000 0.000000 0.000000 0.000000 0.000000 0.000000 0.000000 0.000000 0.000000 0.180334 0.180334 0.180334 0.199007 0.199007 0.199007 0.199007 0.199007 0.199007 0.199007 0.199007 0.199007 0.199007 0.199007 0.199007 0.199007 0.199007 0.199007 0.199007 0.199007 0.199007 0.199007 0.199007 0.199007 0.199007 0.199007 0.199007 0.199007 0.199007 0.199007 0.199007 0.199007 0.199007 0.199007 0.199007 0.199007 0.199007 0.199007 0.199007 0.199007 0.199007 0.199007 0.199007 0.199007 0.225018 0.225018 0.225018 0.225018 0.225018 0.225018 0.225018 0.225018 0.225018 0.225018 0.225018 0.225018 0.225018 0.225018 0.225018 0.225018 0.225018 0.225018 0.225018 0.225018 0.225018 0.225018 0.225018 0.225018 0.225018 0.225018 0.225018 0.225018 0.225018 0.244339 0.244339 0.244339 0.244339 0.244339 0.244339 0.244339 0.244339 0.244339 0.244339 0.244339 0.244339 0.244339 0.244339 0.244339 0.244339 0.244339 0.244339 0.244339 0.244339 0.244339 0.244339 0.244339 0.251976 0.251976 0.251976 0.251976 0.251976 0.251976 0.251976 0.251976 0.251976 0.251976 0.251976 0.251976 0.251976 0.251976 0.251976 0.251976 0.251976 0.251976 0.251976 0.251976 0.264906 0.264906 0.264906 0.264906 0.264906 0.264906 0.264906 0.264906 0.264906 0.264906 0.264906 0.264906 0.264906 0.264906 0.264906 0.264906 0.264906 0.264906 0.264906 0.264906 0.264906 0.264906 0.264906 0.264906 0.264906 0.264906 0.264906 0.264906 0.264906 0.264906 0.264906 0.264906 0.264906 0.264906 0.264906 0.264906 0.264906 0.264906 0.264906 0.264906 0.264906 0.264906 0.264906 0.264906 0.264906 0.264906 0.264906 0.264906 0.264906 0.264906 0.264906 0.264906 0.264906 0.264906 0.264906 0.264906 0.264906 0.264906 0.264906 0.264906 0.264906 0.264906 0.264906 0.264906 0.264906 0.264906 0.264906 0.264906 0.264906 0.264906 0.264906 0.264906 0.264906 0.264906 0.264906 0.260378 0.260378 0.260378 0.260378 0.260378 0.260378 0.260378 0.260378 0.260378 0.260378 0.260378 0.260378 0.260378 0.264906 0.264906 0.264906 0.264906 0.264906 0.264906 0.264906 0.264906 0.264906 0.264906 0.264906 0.264906 0.269680 0.269680 0.269680 0.269680 0.269680 0.269680 0.269680 0.269680 0.269680 0.269680 0.269680 0.264906 0.264906 0.264906 0.264906 0.264906 0.264906 0.264906 0.264906 0.264906 0.264906 0.264906 0.256074 0.256074 0.256074 0.256074 0.256074 0.256074 0.256074 0.256074 0.256074 0.256074 0.256074 0.264906 0.264906 0.264906 0.264906 0.264906 0.264906 0.264906 0.264906 0.264906 0.264906 0.260378 0.260378 0.260378 0.260378 0.260378 0.260378 0.260378 0.260378 0.260378 0.260378 0.264906 0.264906 0.264906 0.264906 0.264906 0.264906 0.264906 0.264906 0.264906 0.251976 0.251976 0.251976 0.251976 0.251976 0.251976 0.251976 0.251976 0.251976 0.251976 0.256074 0.256074 0.256074 0.256074 0.256074 0.256074 0.256074 0.256074 0.256074 0.251976 0.251976 0.251976 0.251976 0.251976 0.251976 0.251976 0.251976 0.251976 0.251976 0.251976 0.251976 0.251976 0.251976
