# Output from CTFFind version 4.1.9, run on 2019-11-03 19:00:06
# Input file: stack1_bm3d_averaged_1_2.25_0_2000_half.mrc ; Number of micrographs: 1
# Pixel size: 3.000 Angstroms ; acceleration voltage: 300.0 keV ; spherical aberration: 0.00 mm ; amplitude contrast: 0.07
# Box size: 512 pixels ; min. res.: 30.0 Angstroms ; max. res.: 5.0 Angstroms ; min. def.: 5000.0 um; max. def. 50000.0 um; num. frames averaged: 1
# 6 lines per micrograph: #1 - spatial frequency (1/Angstroms); #2 - 1D rotational average of spectrum (assuming no astigmatism); #3 - 1D rotational average of spectrum; #4 - CTF fit; #5 - cross-correlation between spectrum and CTF fit; #6 - 2sigma of expected cross correlation of noise
0.000000 0.000651 0.001302 0.001953 0.002604 0.003255 0.003906 0.004557 0.005208 0.005859 0.006510 0.007161 0.007812 0.008464 0.009115 0.009766 0.010417 0.011068 0.011719 0.012370 0.013021 0.013672 0.014323 0.014974 0.015625 0.016276 0.016927 0.017578 0.018229 0.018880 0.019531 0.020182 0.020833 0.021484 0.022135 0.022786 0.023438 0.024089 0.024740 0.025391 0.026042 0.026693 0.027344 0.027995 0.028646 0.029297 0.029948 0.030599 0.031250 0.031901 0.032552 0.033203 0.033854 0.034505 0.035156 0.035807 0.036458 0.037109 0.037760 0.038411 0.039062 0.039714 0.040365 0.041016 0.041667 0.042318 0.042969 0.043620 0.044271 0.044922 0.045573 0.046224 0.046875 0.047526 0.048177 0.048828 0.049479 0.050130 0.050781 0.051432 0.052083 0.052734 0.053385 0.054036 0.054688 0.055339 0.055990 0.056641 0.057292 0.057943 0.058594 0.059245 0.059896 0.060547 0.061198 0.061849 0.062500 0.063151 0.063802 0.064453 0.065104 0.065755 0.066406 0.067057 0.067708 0.068359 0.069010 0.069661 0.070312 0.070964 0.071615 0.072266 0.072917 0.073568 0.074219 0.074870 0.075521 0.076172 0.076823 0.077474 0.078125 0.078776 0.079427 0.080078 0.080729 0.081380 0.082031 0.082682 0.083333 0.083984 0.084635 0.085286 0.085938 0.086589 0.087240 0.087891 0.088542 0.089193 0.089844 0.090495 0.091146 0.091797 0.092448 0.093099 0.093750 0.094401 0.095052 0.095703 0.096354 0.097005 0.097656 0.098307 0.098958 0.099609 0.100260 0.100911 0.101562 0.102214 0.102865 0.103516 0.104167 0.104818 0.105469 0.106120 0.106771 0.107422 0.108073 0.108724 0.109375 0.110026 0.110677 0.111328 0.111979 0.112630 0.113281 0.113932 0.114583 0.115234 0.115885 0.116536 0.117188 0.117839 0.118490 0.119141 0.119792 0.120443 0.121094 0.121745 0.122396 0.123047 0.123698 0.124349 0.125000 0.125651 0.126302 0.126953 0.127604 0.128255 0.128906 0.129557 0.130208 0.130859 0.131510 0.132161 0.132812 0.133464 0.134115 0.134766 0.135417 0.136068 0.136719 0.137370 0.138021 0.138672 0.139323 0.139974 0.140625 0.141276 0.141927 0.142578 0.143229 0.143880 0.144531 0.145182 0.145833 0.146484 0.147135 0.147786 0.148438 0.149089 0.149740 0.150391 0.151042 0.151693 0.152344 0.152995 0.153646 0.154297 0.154948 0.155599 0.156250 0.156901 0.157552 0.158203 0.158854 0.159505 0.160156 0.160807 0.161458 0.162109 0.162760 0.163411 0.164062 0.164714 0.165365 0.166016 0.166667 0.167318 0.167969 0.168620 0.169271 0.169922 0.170573 0.171224 0.171875 0.172526 0.173177 0.173828 0.174479 0.175130 0.175781 0.176432 0.177083 0.177734 0.178385 0.179036 0.179688 0.180339 0.180990 0.181641 0.182292 0.182943 0.183594 0.184245 0.184896 0.185547 0.186198 0.186849 0.187500 0.188151 0.188802 0.189453 0.190104 0.190755 0.191406 0.192057 0.192708 0.193359 0.194010 0.194661 0.195312 0.195964 0.196615 0.197266 0.197917 0.198568 0.199219 0.199870 0.200521 0.201172 0.201823 0.202474 0.203125 0.203776 0.204427 0.205078 0.205729 0.206380 0.207031 0.207682 0.208333 0.208984 0.209635 0.210286 0.210938 0.211589 0.212240 0.212891 0.213542 0.214193 0.214844 0.215495 0.216146 0.216797 0.217448 0.218099 0.218750 0.219401 0.220052 0.220703 0.221354 0.222005 0.222656 0.223307 0.223958 0.224609 0.225260 0.225911 0.226562 0.227214 0.227865 0.228516 0.229167 0.229818 0.230469 0.231120 0.231771 0.232422 0.233073 0.233724 0.234375 0.235026 0.235677
       0.34228        0.34228        0.34228        0.34228        0.34228        0.34228        0.34228        0.34228        0.34228        0.34228        0.34228        0.34228        0.34228        0.34228        0.34228        0.34228        0.34228        0.34228        0.34228        0.34228        0.34228        0.34228        0.34228        0.34228        0.34228        0.34228        0.34228        0.34228        0.34228        0.34228        0.34228        0.34228        0.34228        0.34228        0.34228        0.34228        0.34228        0.34228        0.34228        0.34228        0.34228        0.34228        0.34228        0.34228        0.34228        0.34228        0.34228        0.34228        0.34228        0.34228        0.34228        0.50673        0.72326        0.42592        0.20233       -0.06454       -0.24825       -0.06064       -0.11993       -0.06346        0.00631       -0.14091       -0.10362       -0.03417        0.01018       -0.14565       -0.21790       -0.32688       -0.46380       -0.57530       -0.52393       -0.46023       -0.36657       -0.55493       -0.44493       -0.61005       -0.49674       -0.47077       -0.39616       -0.36668       -0.32144       -0.23056       -0.15996       -0.13142        0.03320       -0.01019        0.12293        0.18273        0.32709        0.43154        0.48751        0.51576        0.55608        0.56659        0.71047        0.66239        0.68954        0.59471        0.56768        0.65582        0.53105        0.45503        0.41760        0.30925        0.25484        0.27689        0.26076        0.10618        0.09103        0.01137       -0.00001        0.03246       -0.00982        0.07550        0.09563        0.22624        0.29064        0.30089        0.40875        0.57448        0.55601        0.57712        0.67467        0.68725        0.63783        0.65713        0.64938        0.54123        0.56987        0.39885        0.36706        0.27889        0.19120        0.08960        0.15049        0.12044        0.12401        0.13546        0.21198        0.19436        0.32098        0.35707        0.41230        0.50519        0.55832        0.55341        0.56451        0.61601        0.54853        0.48372        0.48790        0.33158        0.26583        0.26568        0.25685        0.15898        0.15766        0.16234        0.23611        0.27638        0.34525        0.39056        0.41751        0.45744        0.45344        0.48434        0.44583        0.48435        0.44930        0.39340        0.36952        0.38108        0.34635        0.30150        0.21976        0.22962        0.23474        0.28157        0.26942        0.35842        0.39235        0.36960        0.42012        0.45517        0.44880        0.43838        0.44290        0.35795        0.34564        0.29464        0.26232        0.30414        0.27212        0.30358        0.31942        0.35677        0.33982        0.41294        0.40179        0.44327        0.40391        0.46370        0.41778        0.37976        0.29039        0.28797        0.29157        0.28530        0.28746        0.34925        0.36817        0.33961        0.37018        0.38032        0.35671        0.42254        0.41128        0.37082        0.35737        0.30806        0.30646        0.32650        0.31939        0.31966        0.30483        0.34504        0.36659        0.38623        0.35332        0.34013        0.33535        0.35926        0.32586        0.30488        0.33083        0.33050        0.33177        0.33760        0.34920        0.37571        0.33915        0.32947        0.35283        0.32379        0.27710        0.26686        0.28440        0.31123        0.32404        0.36219        0.30134        0.31397        0.33921        0.30631        0.33311        0.30240        0.28700        0.28282        0.28432        0.29334        0.34842        0.32064        0.33538        0.31908        0.35414        0.35623        0.32285        0.33054        0.33815        0.27795        0.30919        0.32794        0.29230        0.33795        0.33205        0.33667        0.32643        0.35933        0.34798        0.29416        0.25306        0.29207        0.35239        0.36471        0.36129        0.31275        0.30737        0.30248        0.31280        0.27007        0.30237        0.31180        0.33706        0.31593        0.30182        0.27344        0.34717        0.33973        0.34314        0.29869        0.30893        0.31876        0.40338        0.35559        0.34931        0.33836        0.30982        0.29575        0.31645        0.31928        0.28896        0.23249        0.27494        0.31044        0.31227        0.30243        0.28342        0.26378        0.24413        0.23689        0.28885        0.32722        0.30735        0.31978        0.32478        0.36543        0.23985        0.21112        0.26811        0.26052        0.28884        0.30148        0.33026        0.26922        0.29799        0.28138        0.23826        0.28292        0.28133        0.23902        0.20230        0.25751        0.25842        0.24011        0.30656        0.29026        0.35953        0.33850        0.28728        0.28625        0.22220        0.27273        0.30287        0.27020        0.17769        0.22853        0.26501        0.20047        0.25871        0.17864        0.12187       -0.50590       -0.83331
2.705008 2.676337 2.647822 2.619462 2.591257 2.563208 2.535313 2.507575 2.479991 2.452563 2.425291 2.398173 2.371211 2.344405 2.317754 2.291258 2.264917 2.238732 2.212702 2.186828 2.161108 2.135545 2.110136 2.084883 2.059785 2.034843 2.010056 1.985424 1.960948 1.936627 1.912461 1.888451 1.864596 1.840896 1.817352 1.793963 1.770730 1.747652 1.724729 1.701961 1.679349 1.656892 1.634591 1.612445 1.590454 1.568619 1.546939 1.525414 1.504045 1.482831 1.461772 1.523685 1.838157 1.512751 1.196414 0.946438 0.549023 0.915572 0.645468 0.849494 0.917698 0.599827 0.678559 0.789065 0.831443 0.616560 0.528439 0.364874 0.093856 0.049971 0.031714 0.041579 0.296727 -0.046885 0.061853 -0.125008 -0.029021 -0.015442 0.051974 0.073752 0.111384 0.184474 0.277906 0.247131 0.469232 0.392765 0.541580 0.536972 0.786975 0.793376 0.895005 0.953490 0.933343 0.965748 1.127481 0.962803 1.146496 0.939469 0.862194 1.012723 0.844637 0.770939 0.663717 0.570554 0.465898 0.434856 0.504388 0.258995 0.201918 0.165900 0.013448 0.187523 -0.021703 0.118516 0.163159 0.243436 0.336801 0.339905 0.443431 0.550831 0.688797 0.527869 0.735180 0.842318 0.625586 0.724354 0.688299 0.577026 0.527233 0.457282 0.316963 0.219014 0.123121 -0.021509 -0.020474 0.043512 -0.065958 -0.040397 0.071574 0.031001 0.095659 0.217903 0.234521 0.321641 0.430667 0.435004 0.452857 0.451951 0.466238 0.338785 0.335992 0.242335 0.053972 0.070427 0.021692 -0.033814 -0.092475 -0.085674 -0.027469 -0.010275 0.088138 0.140183 0.161166 0.250672 0.223239 0.253261 0.270779 0.232354 0.237659 0.216822 0.132818 0.122802 0.134069 0.036993 0.023804 -0.102815 -0.024707 0.006077 0.004516 0.020984 0.119755 0.090946 0.133758 0.203111 0.274355 0.168232 0.215269 0.115898 0.140323 0.038340 -0.023870 0.023090 0.004566 0.013744 0.010256 0.069188 0.072004 0.078463 0.163365 0.143145 0.169646 0.110511 0.206294 0.109287 0.028179 -0.024782 -0.020280 -0.015196 -0.038605 -0.010963 0.086053 0.074446 0.004405 0.115642 0.096250 0.076471 0.170833 0.093576 0.101283 0.070104 -0.015679 0.038772 0.025117 0.026252 0.041197 0.026784 0.065180 0.075150 0.092571 0.055854 0.054408 0.015709 0.095626 0.009734 0.016772 0.040605 0.029684 0.061920 0.057476 0.071112 0.081575 0.047134 0.027593 0.055198 0.013988 -0.049087 -0.023052 -0.006808 0.003523 0.026121 0.105095 -0.021901 0.047970 0.060965 0.006776 0.060642 0.021866 -0.004327 0.006749 0.020004 0.021609 0.085570 0.021523 0.080608 0.052450 0.115439 0.087259 0.081664 0.089316 0.063703 -0.000458 0.078019 0.066486 0.033685 0.113350 0.071598 0.043372 0.065547 0.098444 0.051892 0.020067 -0.062266 0.034160 0.112402 0.094965 0.087087 0.032898 0.014152 0.037644 0.032928 -0.037161 0.044259 0.035386 0.073456 0.066510 -0.023262 0.049653 0.026253 0.042536 0.032802 0.009895 -0.021430 0.068010 0.128101 0.045168 0.032088 0.051545 0.019755 -0.047240 0.007919 -0.005554 -0.051870 -0.107909 -0.039390 -0.023821 0.007962 -0.034885 -0.051622 -0.030469 -0.065328 -0.038179 -0.047548 0.054395 0.021627 0.028270 0.042133 0.096157 -0.082299 -0.074156 -0.019673 -0.046547 0.028901 0.005547 0.079187 -0.048440 0.010547 0.015163 -0.043555 0.022553 0.030982 -0.046009 -0.114906 -0.003837 0.022181 -0.029737 0.033132 0.025250 0.163403 0.070076 0.052743 0.052956 -0.033661 0.020630 0.046952 0.322955 0.218139 0.280095 0.292609 0.250337 0.292171 0.101261 0.151568 -0.981067
0.072396 0.072910 0.074453 0.077024 0.080622 0.085247 0.090897 0.097570 0.105264 0.113977 0.123705 0.134442 0.146184 0.158924 0.172653 0.187362 0.203039 0.219670 0.237240 0.255729 0.275117 0.295379 0.316487 0.338411 0.361114 0.384557 0.408696 0.433482 0.458861 0.484773 0.511153 0.537930 0.565026 0.592356 0.619831 0.647353 0.674816 0.702110 0.729116 0.755706 0.781750 0.807105 0.831627 0.855160 0.877545 0.898618 0.918208 0.936139 0.952234 0.966310 0.978184 0.987672 0.994589 0.998754 0.999986 0.998113 0.992966 0.984386 0.972225 0.956344 0.936624 0.912958 0.885260 0.853465 0.817533 0.777448 0.733223 0.684904 0.632566 0.576322 0.516320 0.452747 0.385832 0.315841 0.243085 0.167917 0.090732 0.011965 0.067905 0.148362 0.228850 0.308783 0.387539 0.464473 0.538916 0.610183 0.677577 0.740402 0.797960 0.849570 0.894570 0.932327 0.962251 0.983799 0.996489 0.999907 0.993722 0.977690 0.951667 0.915617 0.869619 0.813874 0.748711 0.674591 0.592111 0.502000 0.405121 0.302469 0.195161 0.084430 0.028389 0.141867 0.254502 0.364736 0.470976 0.571618 0.665069 0.749779 0.824264 0.887138 0.937140 0.973165 0.994293 0.999811 0.989244 0.962373 0.919254 0.860234 0.785957 0.697373 0.595733 0.482580 0.359738 0.229288 0.093536 0.045016 0.183717 0.319815 0.450506 0.573000 0.684577 0.782652 0.864843 0.929033 0.973434 0.996640 0.997686 0.976088 0.931880 0.865635 0.778482 0.672099 0.548697 0.410987 0.262139 0.105711 0.054424 0.214171 0.369310 0.515612 0.648953 0.765440 0.861529 0.934144 0.980789 0.999644 0.989652 0.950583 0.883074 0.788647 0.669702 0.529472 0.371958 0.201828 0.024298 0.155026 0.330318 0.495714 0.645521 0.774412 0.877631 0.951181 0.991999 0.998102 0.968700 0.904273 0.806598 0.678739 0.524972 0.350673 0.162147 0.033582 0.229024 0.416500 0.588450 0.737742 0.857984 0.943810 0.991149 0.997441 0.961800 0.885112 0.770061 0.621070 0.444168 0.246778 0.037422 0.174625 0.379736 0.568375 0.731539 0.861216 0.950788 0.995407 0.992286 0.940908 0.843124 0.703136 0.527368 0.324203 0.103620 0.123271 0.344785 0.549248 0.725631 0.864155 0.956866 0.998128 0.985002 0.917497 0.798660 0.634499 0.433727 0.207341 0.031937 0.270364 0.493956 0.689303 0.844404 0.949427 0.997380 0.984619 0.911178 0.780867 0.601152 0.382775 0.139171 0.114331 0.361445 0.585977 0.772892 0.909349 0.985632 0.995892 0.938651 0.817031 0.638662 0.415270 0.161974 0.103705 0.363018 0.597313 0.789393 0.924806 0.992983 0.988129 0.909783 0.762993 0.558081 0.309986 0.037242 0.239357 0.498346 0.719240 0.884191 0.979475 0.996709 0.933661 0.794586 0.590047 0.336203 0.053589 0.234481 0.503821 0.731404 0.897369 0.986810 0.991188 0.909240 0.747263 0.518747 0.243337 0.054781 0.348951 0.612425 0.820813 0.954378 0.999997 0.952534 0.815519 0.601010 0.328646 0.023942 0.284045 0.565466 0.792572 0.942510 0.999696 0.957537 0.819300 0.598010 0.315336 0.000429 0.317127 0.601995 0.825070 0.962396 0.998685 0.929142 0.760206 0.509103 0.202218 0.127580 0.444404 0.713247 0.903884 0.994349 0.973587 0.842931 0.616225 0.318496 0.016689 0.350918 0.645324 0.865111 0.983760 0.986333 0.871504 0.651991 0.353330 0.011015 0.333607 0.638313 0.865181 0.985407 0.983079 0.857440 0.623291 0.309421 0.044795 0.394237 0.693757 0.904062 0.996952 0.959252 0.794849 0.524519 0.183460 0.183131 0.525987 0.798391 0.962584 0.995164
1.000000 1.000000 1.000000 1.000000 1.000000 1.000000 1.000000 1.000000 1.000000 1.000000 1.000000 1.000000 1.000000 1.000000 1.000000 1.000000 1.000000 1.000000 1.000000 1.000000 1.000000 1.000000 1.000000 1.000000 1.000000 1.000000 1.000000 1.000000 1.000000 1.000000 1.000000 1.000000 1.000000 1.000000 1.000000 1.000000 1.000000 1.000000 1.000000 1.000000 1.000000 1.000000 1.000000 1.000000 1.000000 1.000000 1.000000 1.000000 1.000000 1.000000 1.000000 1.000000 0.913117 0.913117 0.902206 0.902206 0.902206 0.902206 0.902206 0.902206 0.902206 0.902206 0.902206 0.902206 0.902206 0.902206 0.902206 0.902206 0.902206 0.902206 0.902206 0.902206 0.902206 0.902206 0.902206 0.902206 0.902206 0.902206 0.902206 0.902206 0.902206 0.902206 0.902206 0.902206 0.902206 0.902206 0.902206 0.902206 0.902206 0.902206 0.902206 0.902206 0.902206 0.902206 0.902206 0.898385 0.903450 0.906004 0.904603 0.908154 0.908207 0.906155 0.905587 0.905242 0.905603 0.907048 0.917546 0.928546 0.938908 0.940974 0.946191 0.950421 0.952858 0.953570 0.957284 0.967454 0.964765 0.964300 0.965009 0.966480 0.968591 0.968791 0.970163 0.969332 0.970005 0.970101 0.969675 0.969078 0.968497 0.968615 0.968272 0.968152 0.969571 0.970044 0.969618 0.969719 0.969862 0.967901 0.966588 0.961674 0.964364 0.965707 0.965626 0.964352 0.962068 0.965852 0.966256 0.966042 0.966059 0.965743 0.966052 0.951926 0.947259 0.947356 0.941330 0.940322 0.936853 0.935612 0.934736 0.935719 0.936133 0.937129 0.933512 0.920943 0.911146 0.894556 0.914965 0.907222 0.889943 0.868933 0.866993 0.863439 0.863211 0.856958 0.848001 0.844045 0.841396 0.843834 0.849116 0.854223 0.850829 0.841986 0.845175 0.838484 0.801283 0.790973 0.781156 0.772011 0.770749 0.772055 0.767759 0.761642 0.770311 0.762823 0.759235 0.750360 0.737753 0.714696 0.704490 0.711416 0.718878 0.733112 0.727820 0.703113 0.651760 0.667818 0.683716 0.685548 0.687999 0.686322 0.679721 0.684560 0.686442 0.683226 0.679627 0.680030 0.679855 0.688553 0.689626 0.674964 0.670921 0.661486 0.649053 0.625064 0.635708 0.649693 0.629616 0.625094 0.617369 0.612662 0.619569 0.623915 0.627557 0.602642 0.583934 0.578342 0.568845 0.572786 0.579369 0.580009 0.571581 0.593741 0.583277 0.610356 0.581395 0.576695 0.575610 0.587114 0.570051 0.567620 0.565806 0.564617 0.566307 0.588244 0.595036 0.580769 0.573686 0.568167 0.572196 0.560181 0.573031 0.606169 0.583966 0.534767 0.498240 0.494939 0.458397 0.447326 0.413238 0.392015 0.369075 0.352750 0.343372 0.327174 0.323844 0.288444 0.250121 0.235714 0.231282 0.247956 0.266849 0.265191 0.252350 0.288078 0.328319 0.329745 0.319927 0.270639 0.266723 0.266117 0.238010 0.204519 0.183492 0.165956 0.185253 0.131068 0.127746 0.118604 0.111321 0.124837 0.118353 0.122665 0.077167 0.069738 0.091452 0.113683 0.098030 0.091780 0.045924 0.017711 0.019136 0.032025 0.000944 -0.006905 0.012447 0.018694 0.027609 -0.012094 -0.007871 -0.005931 -0.004711 -0.019043 -0.018430 0.022609 0.068022 0.071704 0.076125 0.101460 0.084417 0.081422 0.076683 0.035037 0.017699 -0.029392 -0.053025 -0.053025 -0.035580 -0.035580 -0.035580 -0.035580 -0.035580 -0.035580 -0.035580 -0.035580 -0.035580 -0.038234 -0.038234 -0.038234 -0.038234 -0.038234 -0.038234 -0.038234 -0.038234 -0.038234 -0.029137 -0.029137 -0.029137 -0.029137 -0.029137 -0.029137 -0.029137 -0.029137 -0.029137
0.000000 0.000000 0.000000 0.000000 0.000000 0.000000 0.000000 0.000000 0.000000 0.000000 0.000000 0.000000 0.000000 0.000000 0.000000 0.000000 0.000000 0.000000 0.000000 0.000000 0.000000 0.000000 0.000000 0.000000 0.000000 0.000000 0.000000 0.000000 0.000000 0.000000 0.000000 0.000000 0.000000 0.000000 0.000000 0.000000 0.000000 0.000000 0.000000 0.000000 0.000000 0.000000 0.000000 0.000000 0.000000 0.000000 0.000000 0.000000 0.000000 0.000000 0.000000 0.000000 0.181818 0.181818 0.199007 0.199007 0.199007 0.199007 0.199007 0.199007 0.199007 0.199007 0.199007 0.199007 0.199007 0.199007 0.199007 0.199007 0.199007 0.199007 0.199007 0.199007 0.199007 0.199007 0.199007 0.199007 0.199007 0.199007 0.199007 0.199007 0.199007 0.199007 0.199007 0.199007 0.199007 0.199007 0.199007 0.199007 0.199007 0.199007 0.199007 0.199007 0.199007 0.199007 0.199007 0.230940 0.230940 0.230940 0.230940 0.230940 0.230940 0.230940 0.230940 0.230940 0.230940 0.230940 0.230940 0.230940 0.230940 0.230940 0.230940 0.230940 0.230940 0.230940 0.230940 0.230940 0.230940 0.230940 0.230940 0.230940 0.230940 0.230940 0.230940 0.244339 0.244339 0.244339 0.244339 0.244339 0.244339 0.244339 0.244339 0.244339 0.244339 0.244339 0.244339 0.244339 0.244339 0.244339 0.244339 0.244339 0.244339 0.244339 0.244339 0.244339 0.244339 0.244339 0.251976 0.251976 0.251976 0.251976 0.251976 0.251976 0.251976 0.251976 0.251976 0.251976 0.251976 0.251976 0.251976 0.251976 0.251976 0.251976 0.251976 0.251976 0.251976 0.251976 0.264906 0.264906 0.264906 0.264906 0.264906 0.264906 0.264906 0.264906 0.264906 0.264906 0.264906 0.264906 0.264906 0.264906 0.264906 0.264906 0.264906 0.264906 0.264906 0.264906 0.264906 0.264906 0.264906 0.264906 0.264906 0.264906 0.264906 0.264906 0.264906 0.264906 0.264906 0.264906 0.264906 0.264906 0.264906 0.264906 0.264906 0.264906 0.264906 0.264906 0.264906 0.264906 0.264906 0.264906 0.264906 0.264906 0.264906 0.264906 0.264906 0.264906 0.264906 0.264906 0.264906 0.264906 0.264906 0.264906 0.264906 0.264906 0.264906 0.264906 0.264906 0.264906 0.264906 0.264906 0.264906 0.264906 0.264906 0.264906 0.264906 0.264906 0.264906 0.264906 0.264906 0.264906 0.264906 0.269680 0.269680 0.269680 0.269680 0.269680 0.269680 0.269680 0.269680 0.269680 0.269680 0.269680 0.269680 0.264906 0.264906 0.264906 0.264906 0.264906 0.264906 0.264906 0.264906 0.264906 0.264906 0.264906 0.264906 0.269680 0.269680 0.269680 0.269680 0.269680 0.269680 0.269680 0.269680 0.269680 0.269680 0.269680 0.264906 0.264906 0.264906 0.264906 0.264906 0.264906 0.264906 0.264906 0.264906 0.264906 0.264906 0.269680 0.269680 0.269680 0.269680 0.269680 0.269680 0.269680 0.269680 0.269680 0.269680 0.251976 0.251976 0.251976 0.251976 0.251976 0.251976 0.251976 0.251976 0.251976 0.251976 0.251976 0.269680 0.269680 0.269680 0.269680 0.269680 0.269680 0.269680 0.269680 0.269680 0.256074 0.256074 0.256074 0.256074 0.256074 0.256074 0.256074 0.256074 0.256074 0.256074 0.260378 0.260378 0.260378 0.260378 0.260378 0.260378 0.260378 0.260378 0.260378 0.256074 0.256074 0.256074 0.256074 0.256074 0.256074 0.256074 0.256074 0.256074 0.251976 0.251976 0.251976 0.251976 0.251976 0.251976 0.251976 0.251976 0.251976 0.264906 0.264906 0.264906 0.264906 0.264906 0.264906 0.264906 0.264906 0.264906
