# Output from CTFFind version 4.1.9, run on 2019-11-03 20:08:23
# Input file: stack1_bm3d_averaged_1_6.0_0_2000_half.mrc ; Number of micrographs: 1
# Pixel size: 3.000 Angstroms ; acceleration voltage: 300.0 keV ; spherical aberration: 0.00 mm ; amplitude contrast: 0.07
# Box size: 512 pixels ; min. res.: 30.0 Angstroms ; max. res.: 5.0 Angstroms ; min. def.: 5000.0 um; max. def. 50000.0 um; num. frames averaged: 1
# 6 lines per micrograph: #1 - spatial frequency (1/Angstroms); #2 - 1D rotational average of spectrum (assuming no astigmatism); #3 - 1D rotational average of spectrum; #4 - CTF fit; #5 - cross-correlation between spectrum and CTF fit; #6 - 2sigma of expected cross correlation of noise
0.000000 0.000651 0.001302 0.001953 0.002604 0.003255 0.003906 0.004557 0.005208 0.005859 0.006510 0.007161 0.007812 0.008464 0.009115 0.009766 0.010417 0.011068 0.011719 0.012370 0.013021 0.013672 0.014323 0.014974 0.015625 0.016276 0.016927 0.017578 0.018229 0.018880 0.019531 0.020182 0.020833 0.021484 0.022135 0.022786 0.023438 0.024089 0.024740 0.025391 0.026042 0.026693 0.027344 0.027995 0.028646 0.029297 0.029948 0.030599 0.031250 0.031901 0.032552 0.033203 0.033854 0.034505 0.035156 0.035807 0.036458 0.037109 0.037760 0.038411 0.039062 0.039714 0.040365 0.041016 0.041667 0.042318 0.042969 0.043620 0.044271 0.044922 0.045573 0.046224 0.046875 0.047526 0.048177 0.048828 0.049479 0.050130 0.050781 0.051432 0.052083 0.052734 0.053385 0.054036 0.054688 0.055339 0.055990 0.056641 0.057292 0.057943 0.058594 0.059245 0.059896 0.060547 0.061198 0.061849 0.062500 0.063151 0.063802 0.064453 0.065104 0.065755 0.066406 0.067057 0.067708 0.068359 0.069010 0.069661 0.070312 0.070964 0.071615 0.072266 0.072917 0.073568 0.074219 0.074870 0.075521 0.076172 0.076823 0.077474 0.078125 0.078776 0.079427 0.080078 0.080729 0.081380 0.082031 0.082682 0.083333 0.083984 0.084635 0.085286 0.085938 0.086589 0.087240 0.087891 0.088542 0.089193 0.089844 0.090495 0.091146 0.091797 0.092448 0.093099 0.093750 0.094401 0.095052 0.095703 0.096354 0.097005 0.097656 0.098307 0.098958 0.099609 0.100260 0.100911 0.101562 0.102214 0.102865 0.103516 0.104167 0.104818 0.105469 0.106120 0.106771 0.107422 0.108073 0.108724 0.109375 0.110026 0.110677 0.111328 0.111979 0.112630 0.113281 0.113932 0.114583 0.115234 0.115885 0.116536 0.117188 0.117839 0.118490 0.119141 0.119792 0.120443 0.121094 0.121745 0.122396 0.123047 0.123698 0.124349 0.125000 0.125651 0.126302 0.126953 0.127604 0.128255 0.128906 0.129557 0.130208 0.130859 0.131510 0.132161 0.132812 0.133464 0.134115 0.134766 0.135417 0.136068 0.136719 0.137370 0.138021 0.138672 0.139323 0.139974 0.140625 0.141276 0.141927 0.142578 0.143229 0.143880 0.144531 0.145182 0.145833 0.146484 0.147135 0.147786 0.148438 0.149089 0.149740 0.150391 0.151042 0.151693 0.152344 0.152995 0.153646 0.154297 0.154948 0.155599 0.156250 0.156901 0.157552 0.158203 0.158854 0.159505 0.160156 0.160807 0.161458 0.162109 0.162760 0.163411 0.164062 0.164714 0.165365 0.166016 0.166667 0.167318 0.167969 0.168620 0.169271 0.169922 0.170573 0.171224 0.171875 0.172526 0.173177 0.173828 0.174479 0.175130 0.175781 0.176432 0.177083 0.177734 0.178385 0.179036 0.179688 0.180339 0.180990 0.181641 0.182292 0.182943 0.183594 0.184245 0.184896 0.185547 0.186198 0.186849 0.187500 0.188151 0.188802 0.189453 0.190104 0.190755 0.191406 0.192057 0.192708 0.193359 0.194010 0.194661 0.195312 0.195964 0.196615 0.197266 0.197917 0.198568 0.199219 0.199870 0.200521 0.201172 0.201823 0.202474 0.203125 0.203776 0.204427 0.205078 0.205729 0.206380 0.207031 0.207682 0.208333 0.208984 0.209635 0.210286 0.210938 0.211589 0.212240 0.212891 0.213542 0.214193 0.214844 0.215495 0.216146 0.216797 0.217448 0.218099 0.218750 0.219401 0.220052 0.220703 0.221354 0.222005 0.222656 0.223307 0.223958 0.224609 0.225260 0.225911 0.226562 0.227214 0.227865 0.228516 0.229167 0.229818 0.230469 0.231120 0.231771 0.232422 0.233073 0.233724 0.234375 0.235026 0.235677
       0.34987        0.34987        0.34987        0.34987        0.34987        0.34987        0.34987        0.34987        0.34987        0.34987        0.34987        0.34987        0.34987        0.34987        0.34987        0.34987        0.34987        0.34987        0.34987        0.34987        0.34987        0.34987        0.34987        0.34987        0.34987        0.34987        0.34987        0.34987        0.34987        0.34987        0.34987        0.34987        0.34987        0.34987        0.34987        0.34987        0.34987        0.34987        0.34987        0.34987        0.34987        0.34987        0.34987        0.34987        0.34987        0.34987        0.34987        0.34987        0.34987        0.34987        0.34987        0.37665        0.54414        0.25115        0.09917       -0.00694       -0.27129       -0.10673       -0.17260       -0.21871        0.01569       -0.13764       -0.09469       -0.05789       -0.03955       -0.12852       -0.15539       -0.27752       -0.35557       -0.46886       -0.40549       -0.30149       -0.24742       -0.35190       -0.26811       -0.34962       -0.30658       -0.34026       -0.16574       -0.16840       -0.23048       -0.06043       -0.00519       -0.03695        0.08350        0.03009        0.21323        0.23761        0.34070        0.35966        0.41964        0.45843        0.52401        0.58535        0.62278        0.53887        0.50400        0.50920        0.46958        0.55149        0.46905        0.41564        0.40926        0.34119        0.29409        0.31186        0.33574        0.23238        0.19927        0.11192        0.13985        0.14963        0.18050        0.14549        0.21414        0.26152        0.30812        0.30159        0.35819        0.46861        0.40586        0.48690        0.62229        0.59988        0.53798        0.55226        0.59188        0.42414        0.48780        0.37899        0.31634        0.29473        0.26762        0.25687        0.18284        0.17810        0.14366        0.21541        0.26096        0.28731        0.35042        0.31390        0.41785        0.45799        0.46590        0.46233        0.49201        0.53804        0.48510        0.45638        0.41956        0.34176        0.33655        0.28980        0.31266        0.24417        0.23102        0.27708        0.24725        0.27178        0.32984        0.43020        0.43031        0.43416        0.41377        0.49102        0.48843        0.47173        0.45417        0.38261        0.37951        0.40889        0.38541        0.31555        0.28697        0.32386        0.29402        0.30123        0.29612        0.32958        0.36112        0.38901        0.45277        0.48079        0.38299        0.44543        0.43124        0.37411        0.30825        0.36360        0.32339        0.31469        0.33721        0.27322        0.26083        0.31835        0.33729        0.44110        0.41849        0.38650        0.38774        0.41210        0.36142        0.36425        0.33060        0.32988        0.31494        0.30554        0.29710        0.35592        0.36564        0.34593        0.35237        0.40395        0.39932        0.45871        0.40958        0.35378        0.35338        0.35660        0.33460        0.32301        0.34339        0.38937        0.35093        0.36172        0.34280        0.43328        0.37619        0.35216        0.34628        0.37588        0.37614        0.33312        0.33162        0.30271        0.32382        0.33464        0.31324        0.32697        0.34757        0.36074        0.34649        0.33956        0.30477        0.30104        0.28673        0.33381        0.32152        0.35877        0.32518        0.34569        0.36666        0.33675        0.33183        0.31697        0.28659        0.33796        0.32196        0.32963        0.32133        0.31947        0.32522        0.31712        0.34076        0.35926        0.35442        0.33543        0.29801        0.33522        0.30701        0.34110        0.33045        0.27005        0.32142        0.30201        0.33717        0.32657        0.39242        0.33080        0.31201        0.26701        0.31778        0.38555        0.35017        0.31798        0.33634        0.31683        0.32604        0.32167        0.32413        0.30040        0.31431        0.27094        0.28363        0.31582        0.30003        0.30012        0.31236        0.24448        0.31254        0.34238        0.36460        0.35404        0.31338        0.31889        0.28669        0.30718        0.31094        0.29311        0.32665        0.28255        0.29902        0.33527        0.37002        0.35358        0.28540        0.27589        0.32909        0.30509        0.31643        0.35630        0.36596        0.28975        0.28077        0.32611        0.32453        0.26650        0.22127        0.23704        0.26292        0.30189        0.31749        0.27447        0.34405        0.29541        0.26110        0.29155        0.28792        0.21472        0.27242        0.31951        0.26353        0.20104        0.22623        0.30972        0.41935        0.30613        0.24312        0.15381        0.22884        0.27658        0.28293        0.40189        0.22660        0.16144        0.26204        0.31067        0.28363        0.19128       -0.02289       -0.58704       -0.94310
3.124229 3.089970 3.055902 3.022024 2.988338 2.954842 2.921537 2.888423 2.855500 2.822767 2.790226 2.757875 2.725715 2.693745 2.661967 2.630379 2.598983 2.567777 2.536762 2.505937 2.475304 2.444861 2.414609 2.384548 2.354678 2.324999 2.295510 2.266212 2.237105 2.208189 2.179464 2.150929 2.122586 2.094433 2.066471 2.038699 2.011119 1.983729 1.956530 1.929523 1.902705 1.876079 1.849643 1.823399 1.797345 1.771482 1.745809 1.720328 1.695037 1.669937 1.645028 1.581360 1.909885 1.645160 1.183639 1.032612 0.385076 0.889597 0.509273 0.632705 0.897463 0.674838 0.599741 0.753666 0.688189 0.622238 0.496825 0.330305 0.144957 -0.024752 -0.020563 0.050577 0.399354 -0.029301 0.151069 0.029368 0.096933 -0.062809 0.235071 0.186031 0.092121 0.282868 0.442104 0.278871 0.471919 0.383030 0.702672 0.600333 0.834207 0.800737 0.838778 1.032583 0.928899 1.176159 1.132222 1.087341 0.916120 0.945674 0.898348 0.894617 0.902189 0.742505 0.668742 0.617067 0.559260 0.469694 0.539929 0.413731 0.316471 0.180511 0.136082 0.174040 0.221136 0.151497 0.168879 0.302026 0.334425 0.350827 0.424990 0.464200 0.531407 0.390737 0.770970 0.758673 0.667977 0.606865 0.707291 0.480975 0.436519 0.433800 0.194696 0.218919 0.083088 0.175854 -0.022830 -0.015644 -0.087172 -0.084907 0.125342 0.034285 0.133988 0.171848 0.195743 0.316039 0.338664 0.317543 0.357503 0.410055 0.386510 0.295535 0.277463 0.158122 0.137093 0.060070 0.018850 0.013351 -0.096124 -0.025389 -0.006961 -0.073774 -0.028157 0.134002 0.276504 0.172445 0.232329 0.210978 0.442696 0.270023 0.298944 0.281839 0.160159 0.129239 0.304225 0.034828 0.057543 0.023920 0.077338 0.008834 0.084725 -0.004046 0.146844 0.006817 0.230913 0.286469 0.247012 0.172438 0.218459 0.157608 0.052508 0.077532 0.093247 -0.006675 0.019473 0.057526 -0.114547 -0.047452 0.009901 0.097846 0.251812 0.113094 0.122046 0.109680 0.121934 0.049257 0.052231 -0.020873 0.015995 -0.040508 -0.045875 -0.000941 0.048047 0.061266 -0.004447 0.054180 0.130362 0.106565 0.251120 0.048026 0.042741 0.044427 0.004935 0.020774 -0.017862 0.058839 0.102701 0.007451 0.041907 0.035459 0.188088 0.023723 0.017236 0.027370 0.055643 0.057454 -0.028536 0.007503 -0.058035 -0.021395 0.003121 -0.022665 -0.028141 0.041232 -0.014326 0.016795 -0.026431 -0.086344 -0.048450 -0.081514 -0.023000 -0.021088 0.020955 -0.019278 0.006559 0.052631 -0.018899 0.024241 -0.035907 -0.053195 0.031277 -0.019693 0.026725 0.009049 0.000028 0.005704 -0.013244 0.064620 0.072596 0.080581 0.003758 0.004504 0.027160 0.018118 0.053511 0.041252 -0.053117 0.044084 0.015979 0.047106 0.017972 0.147374 0.024538 -0.027848 -0.068301 0.040415 0.141977 0.026425 0.005569 0.019746 0.077671 0.026872 0.009499 0.028063 0.008628 0.014597 -0.054261 -0.041943 0.026369 -0.006301 -0.017073 -0.048513 -0.153062 0.035052 0.058278 0.063650 0.022564 0.000846 -0.020595 -0.041459 -0.045149 -0.056705 -0.045466 -0.020019 -0.116558 -0.069542 0.013282 0.044605 0.006062 -0.084588 -0.159428 -0.077331 -0.051143 -0.114111 0.021864 0.004030 -0.104009 -0.095626 -0.038983 -0.043829 -0.096011 -0.140637 -0.148784 -0.013683 0.038219 -0.029081 -0.075977 0.107216 0.044629 -0.190478 0.063799 0.006383 -0.108277 0.039525 0.096838 -0.000541 -0.066468 -0.017495 0.050661 0.264302 0.087185 0.080441 -0.205008 0.000540 0.185166 0.095379 0.345488 0.294448 0.253520 0.456581 0.547017 0.296514 0.276316 -0.026797 -1.447014
0.072396 0.072906 0.074435 0.076983 0.080549 0.085132 0.090732 0.097346 0.104972 0.113607 0.123248 0.133891 0.145529 0.158157 0.171765 0.186345 0.201886 0.218373 0.235792 0.254123 0.273347 0.293440 0.314375 0.336120 0.358642 0.381902 0.405856 0.430458 0.455654 0.481386 0.507591 0.534198 0.561133 0.588313 0.615649 0.643047 0.670404 0.697612 0.724553 0.751106 0.777139 0.802516 0.827093 0.850720 0.873240 0.894492 0.914309 0.932518 0.948944 0.963409 0.975731 0.985728 0.993220 0.998025 0.999967 0.998871 0.994571 0.986907 0.975730 0.960901 0.942297 0.919809 0.893346 0.862838 0.828238 0.789525 0.746702 0.699803 0.648897 0.594081 0.535491 0.473301 0.407721 0.339004 0.267441 0.193367 0.117158 0.039230 0.039959 0.119912 0.200095 0.279939 0.358843 0.436179 0.511294 0.583518 0.652168 0.716553 0.775987 0.829790 0.877299 0.917878 0.950927 0.975890 0.992263 0.999611 0.997571 0.985863 0.964303 0.932808 0.891403 0.840234 0.779568 0.709800 0.631458 0.545200 0.451816 0.352228 0.247480 0.138737 0.027267 0.085563 0.198303 0.309444 0.417427 0.520672 0.617598 0.706652 0.786331 0.855213 0.911985 0.955472 0.984664 0.998742 0.997108 0.979403 0.945529 0.895665 0.830282 0.750143 0.656314 0.550150 0.433293 0.307647 0.175364 0.038798 0.099516 0.236918 0.370666 0.497991 0.616160 0.722531 0.814622 0.890171 0.947200 0.984072 0.999550 0.992842 0.963645 0.912170 0.839167 0.745930 0.634289 0.506590 0.365657 0.214745 0.057469 0.102273 0.260390 0.412706 0.555065 0.683453 0.794111 0.883662 0.949216 0.988480 0.999852 0.982494 0.936394 0.862401 0.762232 0.638458 0.494457 0.334341 0.162850 0.014771 0.192925 0.365840 0.527751 0.673097 0.796720 0.894061 0.961341 0.995731 0.995480 0.960032 0.890082 0.787603 0.655825 0.499148 0.323036 0.133831 0.061452 0.255375 0.440365 0.608996 0.754314 0.870119 0.951261 0.993888 0.995652 0.955865 0.875586 0.757633 0.606531 0.428362 0.230553 0.021590 0.189336 0.392718 0.579166 0.739851 0.866932 0.953969 0.996271 0.991189 0.938305 0.839531 0.699088 0.523370 0.320691 0.100924 0.124963 0.345431 0.548967 0.724687 0.862938 0.955854 0.997841 0.985952 0.920133 0.803312 0.641330 0.442694 0.218180 0.019721 0.257484 0.481298 0.677879 0.835276 0.943626 0.995810 0.987972 0.919848 0.794887 0.620146 0.405946 0.165313 0.086774 0.334303 0.561228 0.752530 0.895227 0.979308 0.998471 0.950666 0.838343 0.668418 0.451905 0.203271 0.060490 0.320989 0.559716 0.759361 0.905112 0.985784 0.994748 0.930539 0.797100 0.603638 0.364049 0.095997 0.180351 0.443817 0.673836 0.852078 0.963964 0.999911 0.956235 0.835591 0.646924 0.404885 0.128787 0.158909 0.434373 0.674375 0.858283 0.969879 0.998859 0.941870 0.802973 0.593466 0.331063 0.038467 0.258526 0.533298 0.760779 0.919793 0.995085 0.978877 0.871762 0.682852 0.429111 0.133931 0.174956 0.468044 0.716880 0.896841 0.989659 0.985352 0.883416 0.693077 0.432604 0.127636 0.191245 0.491549 0.742187 0.916726 0.996263 0.971565 0.844274 0.626953 0.342001 0.019432 0.306207 0.599489 0.828006 0.965990 0.997324 0.917551 0.734621 0.468259 0.147961 0.190165 0.507417 0.766942 0.938052 0.999951 0.944399 0.776943 0.516538 0.193563 0.153626 0.483189 0.754814 0.934720 0.999948 0.941434 0.765420 0.492973 0.157636 0.198605 0.530501 0.795278 0.958235 0.997388 0.906604 0.696710 0.394400 0.039003 0.322547 0.641823 0.875442
1.000000 1.000000 1.000000 1.000000 1.000000 1.000000 1.000000 1.000000 1.000000 1.000000 1.000000 1.000000 1.000000 1.000000 1.000000 1.000000 1.000000 1.000000 1.000000 1.000000 1.000000 1.000000 1.000000 1.000000 1.000000 1.000000 1.000000 1.000000 1.000000 1.000000 1.000000 1.000000 1.000000 1.000000 1.000000 1.000000 1.000000 1.000000 1.000000 1.000000 1.000000 1.000000 1.000000 1.000000 1.000000 1.000000 1.000000 1.000000 1.000000 1.000000 1.000000 1.000000 0.829958 0.829958 0.829958 0.825617 0.825617 0.825617 0.825617 0.825617 0.825617 0.825617 0.825617 0.825617 0.825617 0.825617 0.825617 0.825617 0.825617 0.825617 0.825617 0.825617 0.825617 0.825617 0.825617 0.825617 0.825617 0.825617 0.825617 0.825617 0.825617 0.825617 0.825617 0.825617 0.825617 0.825617 0.825617 0.825617 0.825617 0.825617 0.825617 0.825617 0.825617 0.825617 0.825617 0.825617 0.851468 0.858812 0.861572 0.864485 0.865853 0.863167 0.861977 0.861467 0.861310 0.862261 0.868323 0.893244 0.910005 0.916720 0.930079 0.933841 0.939055 0.942061 0.950829 0.954585 0.956159 0.955091 0.955473 0.957453 0.957484 0.947135 0.945177 0.945477 0.959757 0.948794 0.944776 0.943634 0.942019 0.938635 0.939736 0.939487 0.936859 0.937280 0.931804 0.932499 0.932976 0.930875 0.929687 0.912691 0.913589 0.912894 0.915786 0.894742 0.889778 0.878289 0.864303 0.885124 0.878081 0.859872 0.858749 0.847792 0.848949 0.849118 0.847583 0.840775 0.839509 0.836123 0.830032 0.830981 0.827823 0.837008 0.836022 0.836222 0.825813 0.807713 0.786122 0.770943 0.769997 0.773894 0.777295 0.780615 0.781884 0.778462 0.776451 0.772684 0.770293 0.779487 0.782007 0.779011 0.775007 0.773492 0.750931 0.748754 0.740442 0.721900 0.708463 0.705571 0.706555 0.683941 0.675193 0.677783 0.683094 0.688286 0.698491 0.692714 0.691039 0.664162 0.638844 0.609684 0.622645 0.629843 0.608027 0.600848 0.578476 0.612075 0.623774 0.638874 0.656257 0.659247 0.654800 0.626810 0.584715 0.585492 0.583600 0.585263 0.584122 0.575287 0.578781 0.604863 0.577312 0.575216 0.566540 0.563207 0.571047 0.585779 0.566837 0.560424 0.532725 0.507159 0.479966 0.474830 0.434965 0.430238 0.425586 0.429442 0.392249 0.392091 0.408281 0.426299 0.424667 0.432253 0.421749 0.411533 0.371038 0.340073 0.334075 0.320450 0.315567 0.286790 0.255650 0.243079 0.254129 0.262178 0.306719 0.308106 0.300602 0.274208 0.280225 0.299068 0.330128 0.334061 0.333592 0.311731 0.295139 0.253901 0.249446 0.297330 0.331994 0.310108 0.294322 0.280617 0.274782 0.247123 0.240617 0.175773 0.122692 0.085344 0.087448 0.094487 0.084179 0.060496 0.024741 0.042534 0.057135 0.094492 0.075247 0.065623 0.008874 0.009681 -0.010226 -0.001697 -0.034913 -0.074131 -0.049180 -0.033196 -0.065596 -0.085055 -0.128230 -0.109105 -0.127092 -0.126522 -0.123919 -0.128036 -0.160150 -0.146392 -0.143428 -0.121462 -0.132343 -0.128669 -0.121835 -0.130056 -0.204453 -0.243610 -0.232945 -0.236275 -0.233979 -0.234282 -0.240087 -0.246435 -0.242740 -0.248726 -0.198963 -0.228542 -0.244157 -0.246833 -0.247114 -0.272155 -0.226666 -0.202439 -0.208182 -0.232219 -0.228876 -0.228876 -0.228876 -0.228876 -0.228876 -0.228876 -0.218523 -0.218523 -0.218523 -0.218523 -0.218523 -0.218523 -0.218523 -0.218523 -0.218523 -0.153484 -0.153484 -0.153484 -0.153484 -0.153484 -0.153484 -0.153484 -0.153484 -0.153484 -0.153484 -0.153484 -0.153484 -0.153484 -0.153484 -0.153484 -0.153484
0.000000 0.000000 0.000000 0.000000 0.000000 0.000000 0.000000 0.000000 0.000000 0.000000 0.000000 0.000000 0.000000 0.000000 0.000000 0.000000 0.000000 0.000000 0.000000 0.000000 0.000000 0.000000 0.000000 0.000000 0.000000 0.000000 0.000000 0.000000 0.000000 0.000000 0.000000 0.000000 0.000000 0.000000 0.000000 0.000000 0.000000 0.000000 0.000000 0.000000 0.000000 0.000000 0.000000 0.000000 0.000000 0.000000 0.000000 0.000000 0.000000 0.000000 0.000000 0.000000 0.180334 0.180334 0.180334 0.199007 0.199007 0.199007 0.199007 0.199007 0.199007 0.199007 0.199007 0.199007 0.199007 0.199007 0.199007 0.199007 0.199007 0.199007 0.199007 0.199007 0.199007 0.199007 0.199007 0.199007 0.199007 0.199007 0.199007 0.199007 0.199007 0.199007 0.199007 0.199007 0.199007 0.199007 0.199007 0.199007 0.199007 0.199007 0.199007 0.199007 0.199007 0.199007 0.199007 0.199007 0.230940 0.230940 0.230940 0.230940 0.230940 0.230940 0.230940 0.230940 0.230940 0.230940 0.230940 0.230940 0.230940 0.230940 0.230940 0.230940 0.230940 0.230940 0.230940 0.230940 0.230940 0.230940 0.230940 0.230940 0.230940 0.230940 0.230940 0.230940 0.244339 0.244339 0.244339 0.244339 0.244339 0.244339 0.244339 0.244339 0.244339 0.244339 0.244339 0.244339 0.244339 0.244339 0.244339 0.244339 0.244339 0.244339 0.244339 0.244339 0.244339 0.244339 0.244339 0.256074 0.256074 0.256074 0.256074 0.256074 0.256074 0.256074 0.256074 0.256074 0.256074 0.256074 0.256074 0.256074 0.256074 0.256074 0.256074 0.256074 0.256074 0.256074 0.256074 0.256074 0.256074 0.256074 0.256074 0.256074 0.256074 0.256074 0.256074 0.256074 0.256074 0.256074 0.256074 0.256074 0.256074 0.256074 0.256074 0.256074 0.264906 0.264906 0.264906 0.264906 0.264906 0.264906 0.264906 0.264906 0.264906 0.264906 0.264906 0.264906 0.264906 0.264906 0.264906 0.264906 0.264906 0.264906 0.264906 0.264906 0.264906 0.264906 0.264906 0.264906 0.264906 0.264906 0.264906 0.264906 0.264906 0.264906 0.264906 0.264906 0.264906 0.264906 0.264906 0.264906 0.264906 0.264906 0.264906 0.264906 0.264906 0.264906 0.264906 0.264906 0.264906 0.264906 0.264906 0.264906 0.264906 0.264906 0.264906 0.264906 0.264906 0.264906 0.264906 0.264906 0.264906 0.264906 0.269680 0.269680 0.269680 0.269680 0.269680 0.269680 0.269680 0.269680 0.269680 0.269680 0.269680 0.269680 0.264906 0.264906 0.264906 0.264906 0.264906 0.264906 0.264906 0.264906 0.264906 0.264906 0.264906 0.264906 0.269680 0.269680 0.269680 0.269680 0.269680 0.269680 0.269680 0.269680 0.269680 0.269680 0.269680 0.264906 0.264906 0.264906 0.264906 0.264906 0.264906 0.264906 0.264906 0.264906 0.264906 0.264906 0.256074 0.256074 0.256074 0.256074 0.256074 0.256074 0.256074 0.256074 0.256074 0.256074 0.256074 0.264906 0.264906 0.264906 0.264906 0.264906 0.264906 0.264906 0.264906 0.264906 0.264906 0.260378 0.260378 0.260378 0.260378 0.260378 0.260378 0.260378 0.260378 0.260378 0.260378 0.264906 0.264906 0.264906 0.264906 0.264906 0.264906 0.264906 0.264906 0.264906 0.251976 0.251976 0.251976 0.251976 0.251976 0.251976 0.251976 0.251976 0.251976 0.251976 0.256074 0.256074 0.256074 0.256074 0.256074 0.256074 0.256074 0.256074 0.256074 0.269680 0.269680 0.269680 0.269680 0.269680 0.269680 0.269680 0.269680 0.269680 0.269680 0.269680 0.269680 0.269680 0.269680 0.269680 0.269680
