# Output from CTFFind version 4.1.9, run on 2019-11-03 19:02:25
# Input file: stack16_bm3d_averaged_1_2.25_0_3000_half.mrc ; Number of micrographs: 1
# Pixel size: 3.000 Angstroms ; acceleration voltage: 300.0 keV ; spherical aberration: 0.00 mm ; amplitude contrast: 0.07
# Box size: 512 pixels ; min. res.: 30.0 Angstroms ; max. res.: 5.0 Angstroms ; min. def.: 5000.0 um; max. def. 50000.0 um; num. frames averaged: 1
# 6 lines per micrograph: #1 - spatial frequency (1/Angstroms); #2 - 1D rotational average of spectrum (assuming no astigmatism); #3 - 1D rotational average of spectrum; #4 - CTF fit; #5 - cross-correlation between spectrum and CTF fit; #6 - 2sigma of expected cross correlation of noise
0.000000 0.000651 0.001302 0.001953 0.002604 0.003255 0.003906 0.004557 0.005208 0.005859 0.006510 0.007161 0.007812 0.008464 0.009115 0.009766 0.010417 0.011068 0.011719 0.012370 0.013021 0.013672 0.014323 0.014974 0.015625 0.016276 0.016927 0.017578 0.018229 0.018880 0.019531 0.020182 0.020833 0.021484 0.022135 0.022786 0.023438 0.024089 0.024740 0.025391 0.026042 0.026693 0.027344 0.027995 0.028646 0.029297 0.029948 0.030599 0.031250 0.031901 0.032552 0.033203 0.033854 0.034505 0.035156 0.035807 0.036458 0.037109 0.037760 0.038411 0.039062 0.039714 0.040365 0.041016 0.041667 0.042318 0.042969 0.043620 0.044271 0.044922 0.045573 0.046224 0.046875 0.047526 0.048177 0.048828 0.049479 0.050130 0.050781 0.051432 0.052083 0.052734 0.053385 0.054036 0.054688 0.055339 0.055990 0.056641 0.057292 0.057943 0.058594 0.059245 0.059896 0.060547 0.061198 0.061849 0.062500 0.063151 0.063802 0.064453 0.065104 0.065755 0.066406 0.067057 0.067708 0.068359 0.069010 0.069661 0.070312 0.070964 0.071615 0.072266 0.072917 0.073568 0.074219 0.074870 0.075521 0.076172 0.076823 0.077474 0.078125 0.078776 0.079427 0.080078 0.080729 0.081380 0.082031 0.082682 0.083333 0.083984 0.084635 0.085286 0.085938 0.086589 0.087240 0.087891 0.088542 0.089193 0.089844 0.090495 0.091146 0.091797 0.092448 0.093099 0.093750 0.094401 0.095052 0.095703 0.096354 0.097005 0.097656 0.098307 0.098958 0.099609 0.100260 0.100911 0.101562 0.102214 0.102865 0.103516 0.104167 0.104818 0.105469 0.106120 0.106771 0.107422 0.108073 0.108724 0.109375 0.110026 0.110677 0.111328 0.111979 0.112630 0.113281 0.113932 0.114583 0.115234 0.115885 0.116536 0.117188 0.117839 0.118490 0.119141 0.119792 0.120443 0.121094 0.121745 0.122396 0.123047 0.123698 0.124349 0.125000 0.125651 0.126302 0.126953 0.127604 0.128255 0.128906 0.129557 0.130208 0.130859 0.131510 0.132161 0.132812 0.133464 0.134115 0.134766 0.135417 0.136068 0.136719 0.137370 0.138021 0.138672 0.139323 0.139974 0.140625 0.141276 0.141927 0.142578 0.143229 0.143880 0.144531 0.145182 0.145833 0.146484 0.147135 0.147786 0.148438 0.149089 0.149740 0.150391 0.151042 0.151693 0.152344 0.152995 0.153646 0.154297 0.154948 0.155599 0.156250 0.156901 0.157552 0.158203 0.158854 0.159505 0.160156 0.160807 0.161458 0.162109 0.162760 0.163411 0.164062 0.164714 0.165365 0.166016 0.166667 0.167318 0.167969 0.168620 0.169271 0.169922 0.170573 0.171224 0.171875 0.172526 0.173177 0.173828 0.174479 0.175130 0.175781 0.176432 0.177083 0.177734 0.178385 0.179036 0.179688 0.180339 0.180990 0.181641 0.182292 0.182943 0.183594 0.184245 0.184896 0.185547 0.186198 0.186849 0.187500 0.188151 0.188802 0.189453 0.190104 0.190755 0.191406 0.192057 0.192708 0.193359 0.194010 0.194661 0.195312 0.195964 0.196615 0.197266 0.197917 0.198568 0.199219 0.199870 0.200521 0.201172 0.201823 0.202474 0.203125 0.203776 0.204427 0.205078 0.205729 0.206380 0.207031 0.207682 0.208333 0.208984 0.209635 0.210286 0.210938 0.211589 0.212240 0.212891 0.213542 0.214193 0.214844 0.215495 0.216146 0.216797 0.217448 0.218099 0.218750 0.219401 0.220052 0.220703 0.221354 0.222005 0.222656 0.223307 0.223958 0.224609 0.225260 0.225911 0.226562 0.227214 0.227865 0.228516 0.229167 0.229818 0.230469 0.231120 0.231771 0.232422 0.233073 0.233724 0.234375 0.235026 0.235677
       0.35088        0.35088        0.35088        0.35088        0.35088        0.35088        0.35088        0.35088        0.35088        0.35088        0.35088        0.35088        0.35088        0.35088        0.35088        0.35088        0.35088        0.35088        0.35088        0.35088        0.35088        0.35088        0.35088        0.35088        0.35088        0.35088        0.35088        0.35088        0.35088        0.35088        0.35088        0.35088        0.35088        0.35088        0.35088        0.35088        0.35088        0.35088        0.35088        0.35088        0.35088        0.35088        0.35088        0.35088        0.35088        0.35088        0.35088        0.35088        0.35088        0.35088        0.35088        0.48783        0.68947        0.45915       -0.10303       -0.40725       -0.55916       -0.64931       -0.72845       -0.74395       -0.87055       -0.91112       -0.74743       -0.92188       -0.86773       -1.01804       -1.08522       -0.97394       -0.94180       -0.86693       -0.82560       -0.72765       -0.62350       -0.48931       -0.41072       -0.21826       -0.10715       -0.01790        0.19722        0.24462        0.31730        0.38891        0.43285        0.51127        0.58568        0.61358        0.58971        0.50562        0.56112        0.49292        0.40441        0.33951        0.20846        0.18238        0.10479       -0.03959       -0.10697       -0.07204        0.02907       -0.00896        0.03241        0.03576        0.20265        0.22136        0.39522        0.46483        0.57692        0.71524        0.78319        0.74191        0.70177        0.68673        0.59502        0.52840        0.38988        0.29691        0.20408        0.17275        0.08623        0.04247        0.02608        0.06446        0.09662        0.28959        0.40754        0.50671        0.58530        0.63914        0.71173        0.66347        0.66557        0.67580        0.60676        0.49765        0.30360        0.25831        0.22016        0.12997        0.04942        0.10364        0.11556        0.26295        0.36525        0.42866        0.51681        0.56633        0.65380        0.60031        0.55932        0.51903        0.37491        0.20749        0.23017        0.17576        0.14856        0.13762        0.21945        0.26838        0.36870        0.44871        0.43658        0.54864        0.52858        0.47487        0.46874        0.38884        0.33130        0.25978        0.21227        0.23263        0.21262        0.22409        0.31694        0.45416        0.48166        0.48494        0.55216        0.51250        0.44982        0.40799        0.30483        0.24915        0.24656        0.24434        0.26577        0.29018        0.33852        0.44182        0.50498        0.51164        0.46365        0.40033        0.37284        0.35751        0.23798        0.23853        0.26517        0.30308        0.36540        0.37197        0.41082        0.44097        0.46870        0.38825        0.36019        0.32461        0.33170        0.28703        0.27265        0.30826        0.35409        0.41206        0.42981        0.40544        0.39404        0.41266        0.36431        0.30698        0.30633        0.30695        0.31325        0.37470        0.38409        0.41600        0.35499        0.37062        0.39461        0.35847        0.31581        0.28674        0.29366        0.33801        0.35300        0.34713        0.35941        0.39799        0.35666        0.36891        0.30496        0.30861        0.27935        0.28255        0.30851        0.34042        0.39838        0.37072        0.36400        0.32417        0.28936        0.27414        0.30983        0.29639        0.33352        0.37194        0.40073        0.34745        0.33015        0.30870        0.30978        0.30424        0.27981        0.32932        0.35015        0.33713        0.33664        0.31307        0.34846        0.33781        0.30729        0.32766        0.33036        0.35153        0.35685        0.32359        0.33864        0.31311        0.31597        0.31187        0.33466        0.40736        0.34551        0.36664        0.31808        0.32854        0.30549        0.30565        0.29152        0.31725        0.31182        0.34540        0.36428        0.30766        0.33494        0.32347        0.30012        0.31537        0.31397        0.32636        0.36109        0.37169        0.33645        0.31572        0.28920        0.25831        0.32249        0.35041        0.31078        0.31969        0.29314        0.29521        0.33288        0.32684        0.31089        0.35115        0.34465        0.32388        0.25426        0.29746        0.29977        0.32141        0.33932        0.31955        0.37424        0.36628        0.27571        0.29284        0.29003        0.28550        0.31625        0.27567        0.25259        0.26421        0.28514        0.29261        0.28156        0.28527        0.27759        0.32372        0.32772        0.31225        0.26206        0.26575        0.24610        0.24215        0.24378        0.32319        0.35638        0.24950        0.25892        0.31472        0.23828        0.25133        0.32571        0.28600        0.15297        0.19308        0.24706        0.30512        0.30165        0.14709       -0.03719       -0.47596       -0.71128
3.047935 3.009930 2.972171 2.934657 2.897388 2.860364 2.823585 2.787051 2.750762 2.714718 2.678919 2.643365 2.608056 2.572992 2.538174 2.503600 2.469271 2.435188 2.401349 2.367755 2.334407 2.301303 2.268444 2.235831 2.203463 2.171339 2.139461 2.107827 2.076439 2.045296 2.014397 1.983744 1.953336 1.923173 1.893255 1.863581 1.834153 1.804970 1.776032 1.747339 1.718891 1.690688 1.662730 1.635018 1.607550 1.580327 1.553349 1.526616 1.500129 1.473886 1.447888 1.504604 1.669930 1.602769 0.959104 0.667729 0.471422 0.418899 0.320368 0.262295 0.183742 0.002103 0.192746 0.066027 -0.028633 -0.071607 -0.210081 -0.159351 -0.089414 -0.095054 -0.086455 0.008928 0.036268 0.218477 0.148360 0.352381 0.435928 0.470965 0.690809 0.690587 0.702771 0.828830 0.806918 0.826861 0.913790 0.900334 0.926672 0.737924 0.838944 0.834400 0.624497 0.602576 0.451658 0.435728 0.363142 0.212941 0.117432 0.096642 0.215179 0.135589 0.203655 0.111416 0.291847 0.277462 0.444229 0.408029 0.587109 0.646400 0.759222 0.719365 0.652287 0.644290 0.523444 0.495321 0.331387 0.300249 0.124634 0.157579 0.009580 -0.006666 -0.041546 -0.043596 -0.004280 0.045567 0.264738 0.313109 0.386488 0.376598 0.472103 0.507814 0.474531 0.508348 0.380154 0.400070 0.155905 0.081733 0.081518 -0.014015 -0.132763 -0.042000 -0.117072 0.012297 0.137377 0.172558 0.250669 0.283403 0.374011 0.452302 0.357004 0.393624 0.292236 0.123003 0.056475 0.066446 0.035846 0.024406 0.013244 0.114905 0.131804 0.278704 0.230431 0.295434 0.362823 0.267749 0.254793 0.227197 0.134364 0.078923 0.025689 0.036154 0.024468 -0.005777 0.033690 0.176475 0.215905 0.254043 0.277531 0.237589 0.233018 0.147093 0.111384 -0.007862 -0.002442 -0.011619 0.012135 0.006411 0.035262 0.104747 0.183846 0.215887 0.214871 0.133202 0.109166 0.071881 0.045495 -0.074055 -0.006241 0.016736 0.047931 0.063348 0.086407 0.153791 0.108557 0.169668 0.058812 0.044009 0.044298 0.033603 0.004179 -0.001300 0.023267 0.075277 0.119220 0.131615 0.064281 0.111801 0.106213 0.005716 0.018018 0.007566 0.005245 0.039760 0.072449 0.091694 0.083867 0.051135 0.080111 0.074258 0.042016 0.003639 -0.011097 0.001466 0.060234 0.037478 0.044505 0.061659 0.089517 0.080752 0.041238 0.015847 0.007105 -0.015754 -0.006285 0.016294 0.060104 0.115273 0.062936 0.069532 0.020805 -0.015502 -0.000071 0.021468 0.020425 0.038759 0.099992 0.071460 0.016955 0.046772 -0.006055 0.037532 -0.010094 -0.015605 0.056987 0.053088 0.023139 0.033999 0.000904 0.057938 0.019818 0.003422 0.026953 0.030258 0.052941 0.036203 0.030894 0.022140 -0.007178 0.015948 0.008077 0.038250 0.092497 0.042042 0.009444 0.005071 0.017111 -0.020056 0.000709 -0.015031 0.015100 -0.024680 0.060045 0.037395 0.011535 0.047808 -0.011843 0.002583 0.017800 -0.007959 0.034030 0.071241 0.067286 0.027558 0.018846 -0.020944 -0.008551 0.013864 0.048531 0.001463 0.048001 -0.014787 -0.021444 0.037962 0.035293 0.015910 0.052324 0.041493 0.044281 -0.056008 0.010032 0.026226 0.019390 0.031826 0.049380 0.083561 0.065581 -0.007330 0.014313 -0.004768 -0.003030 0.033363 -0.037417 -0.030924 -0.032620 -0.028078 -0.005337 -0.032124 -0.000594 -0.090831 -0.018612 -0.006344 -0.032037 -0.091346 -0.043356 -0.109283 -0.059532 -0.081145 0.019318 0.059704 -0.095028 -0.039899 0.076105 0.002719 -0.051395 0.061907 0.083379 -0.007544 0.013704 0.081120 0.274090 0.275066 0.093438 -0.028713 -0.627328
0.072396 0.073046 0.074995 0.078243 0.082789 0.088632 0.095768 0.104195 0.113910 0.124907 0.137179 0.150719 0.165516 0.181557 0.198827 0.217308 0.236977 0.257809 0.279773 0.302834 0.326950 0.352075 0.378156 0.405132 0.432934 0.461487 0.490705 0.520495 0.550752 0.581363 0.612202 0.643136 0.674017 0.704688 0.734980 0.764711 0.793690 0.821715 0.848571 0.874036 0.897875 0.919848 0.939707 0.957195 0.972056 0.984027 0.992846 0.998255 0.999996 0.997823 0.991496 0.980793 0.965505 0.945447 0.920458 0.890405 0.855187 0.814745 0.769055 0.718144 0.662086 0.601009 0.535098 0.464599 0.389821 0.311136 0.228987 0.143882 0.056395 0.032829 0.123086 0.213607 0.303568 0.392096 0.478271 0.561141 0.639729 0.713044 0.780096 0.839906 0.891527 0.934055 0.966648 0.988547 0.999089 0.997728 0.984051 0.957798 0.918876 0.867373 0.803573 0.727963 0.641242 0.544322 0.438333 0.324613 0.204702 0.080326 0.046620 0.174099 0.299956 0.421959 0.537835 0.645312 0.742169 0.826280 0.895675 0.948581 0.983485 0.999176 0.994795 0.969878 0.924391 0.858757 0.773878 0.671136 0.552395 0.419982 0.276658 0.125568 0.029812 0.185752 0.338348 0.483621 0.617623 0.736546 0.836840 0.915329 0.969324 0.996731 0.996142 0.966924 0.909270 0.824246 0.713800 0.580747 0.428724 0.262112 0.085931 0.094299 0.272719 0.443320 0.600147 0.737508 0.850199 0.933717 0.984457 0.999897 0.978742 0.921034 0.828216 0.703140 0.550021 0.374326 0.182618 0.017676 0.218527 0.411626 0.588716 0.741972 0.864346 0.949924 0.994243 0.994556 0.950037 0.861896 0.733419 0.569894 0.378441 0.167746 0.052304 0.271067 0.477652 0.661457 0.812742 0.923163 0.986274 0.997945 0.956683 0.863811 0.723517 0.542726 0.330820 0.099197 0.139298 0.371079 0.582573 0.761040 0.895361 0.976779 0.999519 0.961265 0.863422 0.711179 0.513303 0.281715 0.030825 0.223325 0.464069 0.675205 0.842122 0.952843 0.998953 0.976306 0.885469 0.731844 0.525450 0.280350 0.013769 0.255071 0.506322 0.720978 0.882340 0.977384 0.997880 0.941199 0.810701 0.615668 0.370748 0.094948 0.189775 0.460235 0.693901 0.870799 0.975297 0.997564 0.934605 0.790730 0.577409 0.312477 0.018742 0.277907 0.550762 0.774700 0.928558 0.997210 0.973172 0.857536 0.660122 0.398791 0.097953 0.213620 0.505509 0.748612 0.918102 0.996048 0.973443 0.851382 0.641231 0.363750 0.047154 0.275633 0.570384 0.805192 0.954007 0.999631 0.935862 0.768477 0.514923 0.202659 0.133673 0.456026 0.727232 0.915334 0.997474 0.962814 0.814152 0.567936 0.252656 0.094312 0.431026 0.716039 0.913537 0.997965 0.957503 0.795918 0.532478 0.199872 0.159688 0.499726 0.775490 0.949927 0.998799 0.914250 0.706283 0.401823 0.041470 0.325793 0.649164 0.883097 0.993831 0.964459 0.797742 0.516187 0.159261 0.221952 0.571942 0.838887 0.982399 0.979854 0.830194 0.554599 0.193772 0.197860 0.560227 0.836818 0.983617 0.976304 0.814560 0.522665 0.146147 0.255083 0.616146 0.877705 0.995841 0.949679 0.745371 0.415660 0.014941 0.389501 0.728697 0.943838 0.996624 0.876409 0.602648 0.222096 0.198851 0.585615 0.868613 0.995922 0.943080 0.718129 0.360808 0.064088 0.478293 0.804357 0.980260 0.971466 0.778045 0.435382 0.008064 0.421983 0.771141 0.970413 0.979317 0.794475 0.451042 0.016416 0.422682 0.777399 0.974828 0.973236 0.771304 0.409177 0.039071 0.480325 0.821631 0.989937 0.948012 0.703124 0.306316 0.157774 0.588739
1.000000 1.000000 1.000000 1.000000 1.000000 1.000000 1.000000 1.000000 1.000000 1.000000 1.000000 1.000000 1.000000 1.000000 1.000000 1.000000 1.000000 1.000000 1.000000 1.000000 1.000000 1.000000 1.000000 1.000000 1.000000 1.000000 1.000000 1.000000 1.000000 1.000000 1.000000 1.000000 1.000000 1.000000 1.000000 1.000000 1.000000 1.000000 1.000000 1.000000 1.000000 1.000000 1.000000 1.000000 1.000000 1.000000 1.000000 1.000000 1.000000 1.000000 1.000000 1.000000 0.936229 0.936229 0.936229 0.936229 0.936229 0.936229 0.936229 0.936229 0.936229 0.936229 0.936229 0.936229 0.936229 0.936229 0.936229 0.936229 0.936229 0.936229 0.936229 0.936229 0.936229 0.936229 0.936229 0.936229 0.936229 0.936229 0.936229 0.936229 0.936229 0.936229 0.936229 0.936229 0.936229 0.929119 0.930484 0.933209 0.934191 0.934163 0.933761 0.933490 0.933711 0.934882 0.936684 0.953234 0.955236 0.955730 0.956961 0.955706 0.958645 0.957075 0.957095 0.967747 0.966671 0.967280 0.960372 0.961825 0.960961 0.960062 0.960768 0.961026 0.959248 0.957240 0.955982 0.955104 0.954761 0.956475 0.956902 0.956890 0.957415 0.957267 0.957003 0.953695 0.952217 0.953631 0.955531 0.954764 0.960567 0.958879 0.962135 0.962954 0.961592 0.961488 0.961704 0.961913 0.956844 0.952237 0.948015 0.936317 0.925876 0.920286 0.923140 0.926409 0.925430 0.921026 0.919929 0.917496 0.913103 0.912438 0.912736 0.914111 0.909610 0.906027 0.891640 0.891260 0.894808 0.895517 0.892779 0.884674 0.880787 0.881720 0.884649 0.882741 0.880010 0.896702 0.892224 0.895159 0.898437 0.901448 0.905304 0.895105 0.889002 0.884922 0.881578 0.878208 0.879727 0.875642 0.878423 0.869435 0.858475 0.852271 0.854283 0.861421 0.869343 0.874996 0.873295 0.873773 0.873032 0.859886 0.861308 0.845522 0.846461 0.852755 0.858761 0.858011 0.856115 0.857529 0.855791 0.854246 0.856254 0.852154 0.847964 0.838743 0.836799 0.840554 0.855189 0.856023 0.838871 0.833846 0.828609 0.833421 0.837607 0.834980 0.836313 0.831283 0.832686 0.826948 0.818668 0.821492 0.826858 0.819662 0.827815 0.829809 0.834636 0.833466 0.832935 0.829338 0.828383 0.833075 0.809411 0.821200 0.825456 0.809497 0.813370 0.805597 0.799766 0.800270 0.798181 0.771170 0.778659 0.740975 0.711653 0.720461 0.725893 0.711025 0.697006 0.697040 0.699119 0.675016 0.658568 0.640973 0.637386 0.642716 0.643145 0.648770 0.648753 0.641686 0.629282 0.601503 0.619134 0.616947 0.579642 0.585333 0.578833 0.573866 0.566801 0.543783 0.545737 0.551310 0.556187 0.522441 0.509368 0.521648 0.490078 0.492353 0.492930 0.489189 0.483418 0.488876 0.475173 0.486530 0.525527 0.474183 0.458142 0.472845 0.489240 0.499514 0.508008 0.497554 0.459099 0.505813 0.472676 0.484474 0.501214 0.495592 0.473345 0.482255 0.476072 0.504483 0.490810 0.478286 0.506853 0.476224 0.466830 0.467760 0.463700 0.457856 0.442630 0.434587 0.408887 0.414710 0.387066 0.344323 0.358420 0.367750 0.357447 0.349009 0.322461 0.326311 0.290448 0.259344 0.248680 0.243545 0.209415 0.170520 0.178191 0.178856 0.158611 0.126134 0.123020 0.084418 0.078608 0.100502 0.106922 0.110520 0.105075 0.128260 0.128260 0.128260 0.128260 0.128260 0.128260 0.128260 0.128260 0.128260 0.128260 0.128260 0.128260 0.128260 0.128260 0.152811 0.152811 0.152811 0.152811 0.152811 0.152811 0.152811 0.152811 0.152811 0.152811 0.152811 0.152811
0.000000 0.000000 0.000000 0.000000 0.000000 0.000000 0.000000 0.000000 0.000000 0.000000 0.000000 0.000000 0.000000 0.000000 0.000000 0.000000 0.000000 0.000000 0.000000 0.000000 0.000000 0.000000 0.000000 0.000000 0.000000 7.000000 4.000000 0.000000 0.000000 0.000000 0.000000 0.000000 0.000000 0.000000 0.000000 0.000000 0.000000 0.000000 0.000000 0.000000 0.000000 0.000000 0.000000 0.000000 0.000000 0.000000 0.000000 0.000000 0.000000 0.000000 0.000000 0.000000 0.209657 0.209657 0.209657 0.209657 0.209657 0.209657 0.209657 0.209657 0.209657 0.209657 0.209657 0.209657 0.209657 0.209657 0.209657 0.209657 0.209657 0.209657 0.209657 0.209657 0.209657 0.209657 0.209657 0.209657 0.209657 0.209657 0.209657 0.209657 0.209657 0.209657 0.209657 0.209657 0.209657 0.244339 0.244339 0.244339 0.244339 0.244339 0.244339 0.244339 0.244339 0.244339 0.244339 0.244339 0.244339 0.244339 0.244339 0.244339 0.244339 0.244339 0.244339 0.244339 0.244339 0.244339 0.244339 0.244339 0.244339 0.244339 0.260378 0.260378 0.260378 0.260378 0.260378 0.260378 0.260378 0.260378 0.260378 0.260378 0.260378 0.260378 0.260378 0.260378 0.260378 0.260378 0.260378 0.260378 0.260378 0.260378 0.269680 0.269680 0.269680 0.269680 0.269680 0.269680 0.269680 0.269680 0.269680 0.269680 0.269680 0.269680 0.269680 0.269680 0.269680 0.269680 0.269680 0.269680 0.269680 0.269680 0.269680 0.269680 0.269680 0.269680 0.269680 0.269680 0.269680 0.269680 0.269680 0.269680 0.269680 0.269680 0.269680 0.280056 0.280056 0.280056 0.280056 0.280056 0.280056 0.280056 0.280056 0.280056 0.280056 0.280056 0.280056 0.280056 0.280056 0.280056 0.280056 0.280056 0.280056 0.280056 0.280056 0.280056 0.280056 0.280056 0.280056 0.280056 0.280056 0.280056 0.274721 0.274721 0.274721 0.274721 0.274721 0.274721 0.274721 0.274721 0.274721 0.274721 0.274721 0.274721 0.274721 0.285714 0.285714 0.285714 0.285714 0.285714 0.285714 0.285714 0.285714 0.285714 0.285714 0.285714 0.280056 0.280056 0.280056 0.280056 0.280056 0.280056 0.280056 0.280056 0.280056 0.280056 0.280056 0.274721 0.274721 0.274721 0.274721 0.274721 0.274721 0.274721 0.274721 0.274721 0.274721 0.274721 0.280056 0.280056 0.280056 0.280056 0.280056 0.280056 0.280056 0.280056 0.280056 0.280056 0.285714 0.285714 0.285714 0.285714 0.285714 0.285714 0.285714 0.285714 0.285714 0.269680 0.269680 0.269680 0.269680 0.269680 0.269680 0.269680 0.269680 0.269680 0.269680 0.274721 0.274721 0.274721 0.274721 0.274721 0.274721 0.274721 0.274721 0.274721 0.285714 0.285714 0.285714 0.285714 0.285714 0.285714 0.285714 0.285714 0.264906 0.264906 0.264906 0.264906 0.264906 0.264906 0.264906 0.264906 0.264906 0.274721 0.274721 0.274721 0.274721 0.274721 0.274721 0.274721 0.274721 0.269680 0.269680 0.269680 0.269680 0.269680 0.269680 0.269680 0.269680 0.269680 0.269680 0.269680 0.269680 0.269680 0.269680 0.269680 0.269680 0.280056 0.280056 0.280056 0.280056 0.280056 0.280056 0.280056 0.260378 0.260378 0.260378 0.260378 0.260378 0.260378 0.260378 0.260378 0.269680 0.269680 0.269680 0.269680 0.269680 0.269680 0.269680 0.264906 0.264906 0.264906 0.264906 0.264906 0.264906 0.264906 0.264906 0.264906 0.264906 0.264906 0.264906 0.264906 0.264906 0.260378 0.260378 0.260378 0.260378 0.260378 0.260378 0.260378 0.260378 0.260378 0.260378 0.260378 0.260378
