# Output from CTFFind version 4.1.9, run on 2019-11-03 19:26:33
# Input file: stack1_bm3d_averaged_1_3.75_0_1000_half.mrc ; Number of micrographs: 1
# Pixel size: 3.000 Angstroms ; acceleration voltage: 300.0 keV ; spherical aberration: 0.00 mm ; amplitude contrast: 0.07
# Box size: 512 pixels ; min. res.: 30.0 Angstroms ; max. res.: 5.0 Angstroms ; min. def.: 5000.0 um; max. def. 50000.0 um; num. frames averaged: 1
# 6 lines per micrograph: #1 - spatial frequency (1/Angstroms); #2 - 1D rotational average of spectrum (assuming no astigmatism); #3 - 1D rotational average of spectrum; #4 - CTF fit; #5 - cross-correlation between spectrum and CTF fit; #6 - 2sigma of expected cross correlation of noise
0.000000 0.000651 0.001302 0.001953 0.002604 0.003255 0.003906 0.004557 0.005208 0.005859 0.006510 0.007161 0.007812 0.008464 0.009115 0.009766 0.010417 0.011068 0.011719 0.012370 0.013021 0.013672 0.014323 0.014974 0.015625 0.016276 0.016927 0.017578 0.018229 0.018880 0.019531 0.020182 0.020833 0.021484 0.022135 0.022786 0.023438 0.024089 0.024740 0.025391 0.026042 0.026693 0.027344 0.027995 0.028646 0.029297 0.029948 0.030599 0.031250 0.031901 0.032552 0.033203 0.033854 0.034505 0.035156 0.035807 0.036458 0.037109 0.037760 0.038411 0.039062 0.039714 0.040365 0.041016 0.041667 0.042318 0.042969 0.043620 0.044271 0.044922 0.045573 0.046224 0.046875 0.047526 0.048177 0.048828 0.049479 0.050130 0.050781 0.051432 0.052083 0.052734 0.053385 0.054036 0.054688 0.055339 0.055990 0.056641 0.057292 0.057943 0.058594 0.059245 0.059896 0.060547 0.061198 0.061849 0.062500 0.063151 0.063802 0.064453 0.065104 0.065755 0.066406 0.067057 0.067708 0.068359 0.069010 0.069661 0.070312 0.070964 0.071615 0.072266 0.072917 0.073568 0.074219 0.074870 0.075521 0.076172 0.076823 0.077474 0.078125 0.078776 0.079427 0.080078 0.080729 0.081380 0.082031 0.082682 0.083333 0.083984 0.084635 0.085286 0.085938 0.086589 0.087240 0.087891 0.088542 0.089193 0.089844 0.090495 0.091146 0.091797 0.092448 0.093099 0.093750 0.094401 0.095052 0.095703 0.096354 0.097005 0.097656 0.098307 0.098958 0.099609 0.100260 0.100911 0.101562 0.102214 0.102865 0.103516 0.104167 0.104818 0.105469 0.106120 0.106771 0.107422 0.108073 0.108724 0.109375 0.110026 0.110677 0.111328 0.111979 0.112630 0.113281 0.113932 0.114583 0.115234 0.115885 0.116536 0.117188 0.117839 0.118490 0.119141 0.119792 0.120443 0.121094 0.121745 0.122396 0.123047 0.123698 0.124349 0.125000 0.125651 0.126302 0.126953 0.127604 0.128255 0.128906 0.129557 0.130208 0.130859 0.131510 0.132161 0.132812 0.133464 0.134115 0.134766 0.135417 0.136068 0.136719 0.137370 0.138021 0.138672 0.139323 0.139974 0.140625 0.141276 0.141927 0.142578 0.143229 0.143880 0.144531 0.145182 0.145833 0.146484 0.147135 0.147786 0.148438 0.149089 0.149740 0.150391 0.151042 0.151693 0.152344 0.152995 0.153646 0.154297 0.154948 0.155599 0.156250 0.156901 0.157552 0.158203 0.158854 0.159505 0.160156 0.160807 0.161458 0.162109 0.162760 0.163411 0.164062 0.164714 0.165365 0.166016 0.166667 0.167318 0.167969 0.168620 0.169271 0.169922 0.170573 0.171224 0.171875 0.172526 0.173177 0.173828 0.174479 0.175130 0.175781 0.176432 0.177083 0.177734 0.178385 0.179036 0.179688 0.180339 0.180990 0.181641 0.182292 0.182943 0.183594 0.184245 0.184896 0.185547 0.186198 0.186849 0.187500 0.188151 0.188802 0.189453 0.190104 0.190755 0.191406 0.192057 0.192708 0.193359 0.194010 0.194661 0.195312 0.195964 0.196615 0.197266 0.197917 0.198568 0.199219 0.199870 0.200521 0.201172 0.201823 0.202474 0.203125 0.203776 0.204427 0.205078 0.205729 0.206380 0.207031 0.207682 0.208333 0.208984 0.209635 0.210286 0.210938 0.211589 0.212240 0.212891 0.213542 0.214193 0.214844 0.215495 0.216146 0.216797 0.217448 0.218099 0.218750 0.219401 0.220052 0.220703 0.221354 0.222005 0.222656 0.223307 0.223958 0.224609 0.225260 0.225911 0.226562 0.227214 0.227865 0.228516 0.229167 0.229818 0.230469 0.231120 0.231771 0.232422 0.233073 0.233724 0.234375 0.235026 0.235677
       0.34944        0.34944        0.34944        0.34944        0.34944        0.34944        0.34944        0.34944        0.34944        0.34944        0.34944        0.34944        0.34944        0.34944        0.34944        0.34944        0.34944        0.34944        0.34944        0.34944        0.34944        0.34944        0.34944        0.34944        0.34944        0.34944        0.34944        0.34944        0.34944        0.34944        0.34944        0.34944        0.34944        0.34944        0.34944        0.34944        0.34944        0.34944        0.34944        0.34944        0.34944        0.34944        0.34944        0.34944        0.34944        0.34944        0.34944        0.34944        0.34944        0.34944        0.34944        0.47624        0.68858        0.37134        0.19351       -0.03636       -0.24055       -0.05094       -0.13388       -0.11092        0.01198       -0.10976       -0.11216       -0.04593       -0.03236       -0.12854       -0.16091       -0.30348       -0.46871       -0.55454       -0.51598       -0.43227       -0.33145       -0.51429       -0.38850       -0.51393       -0.42447       -0.44803       -0.32386       -0.30342       -0.28465       -0.18460       -0.10863       -0.09213        0.05004        0.02324        0.18657        0.17232        0.31917        0.39938        0.51539        0.54237        0.56346        0.59418        0.73402        0.64471        0.63848        0.55643        0.53958        0.61832        0.50742        0.48410        0.41211        0.31763        0.28479        0.29570        0.25288        0.13038        0.12945        0.00566        0.06559        0.06550        0.03462        0.09059        0.12959        0.22037        0.29210        0.29456        0.36322        0.50539        0.52274        0.54175        0.65897        0.63481        0.61219        0.64303        0.62789        0.50452        0.50506        0.40644        0.35932        0.28196        0.21811        0.18113        0.16535        0.13129        0.19121        0.19792        0.24037        0.24883        0.32785        0.37795        0.39956        0.49623        0.54368        0.56059        0.52911        0.59955        0.51821        0.49146        0.50443        0.38294        0.31825        0.29028        0.28609        0.20808        0.22913        0.20968        0.22447        0.23956        0.32261        0.37496        0.41653        0.43931        0.44743        0.47217        0.44166        0.48784        0.42305        0.38200        0.35077        0.38949        0.35419        0.33828        0.25658        0.30364        0.26359        0.26840        0.28428        0.36719        0.38056        0.41526        0.43792        0.46055        0.43649        0.43351        0.47060        0.36857        0.35511        0.34427        0.29905        0.34303        0.28757        0.32127        0.33266        0.32599        0.36785        0.40995        0.38792        0.43139        0.38685        0.41385        0.38396        0.40825        0.31304        0.30649        0.27909        0.25102        0.31198        0.34565        0.36248        0.36323        0.38257        0.38877        0.36194        0.43618        0.39861        0.37464        0.36146        0.31896        0.28810        0.31252        0.31598        0.36490        0.33047        0.35197        0.34471        0.39606        0.38172        0.36890        0.37811        0.38160        0.35542        0.32027        0.34954        0.33734        0.34877        0.31837        0.36307        0.36770        0.33423        0.33847        0.36521        0.33255        0.29354        0.30360        0.30731        0.32028        0.31243        0.35339        0.32651        0.33058        0.33413        0.33013        0.32014        0.29986        0.31587        0.32152        0.30910        0.31405        0.32009        0.31345        0.34119        0.32415        0.38458        0.38001        0.33484        0.37202        0.31947        0.25786        0.28600        0.33163        0.33091        0.29615        0.34002        0.32087        0.32021        0.34873        0.36239        0.33726        0.31444        0.29122        0.34022        0.36464        0.37777        0.30980        0.31543        0.29151        0.25959        0.26314        0.32679        0.31095        0.31404        0.30351        0.28962        0.28947        0.34208        0.36848        0.35187        0.30031        0.32372        0.33631        0.34845        0.38835        0.33170        0.33191        0.32771        0.35072        0.31994        0.32397        0.33487        0.26248        0.28516        0.32594        0.30774        0.32957        0.30579        0.25249        0.23705        0.28360        0.29253        0.35477        0.30909        0.30293        0.28123        0.32713        0.33581        0.28112        0.27334        0.25272        0.28559        0.30900        0.35176        0.29106        0.32554        0.32473        0.29380        0.33561        0.26138        0.21500        0.20522        0.26666        0.24720        0.25583        0.21756        0.21449        0.34669        0.31931        0.24599        0.23811        0.19791        0.28872        0.37519        0.24129        0.10232        0.17254        0.16790        0.18429        0.23933        0.10055        0.07811       -0.52217       -1.14016
2.791717 2.761923 2.732291 2.702821 2.673513 2.644367 2.615384 2.586563 2.557904 2.529407 2.501073 2.472900 2.444890 2.417042 2.389356 2.361833 2.334471 2.307272 2.280235 2.253360 2.226648 2.200097 2.173709 2.147483 2.121419 2.095517 2.069778 2.044200 2.018785 1.993532 1.968441 1.943513 1.918747 1.894142 1.869700 1.845421 1.821303 1.797348 1.773554 1.749923 1.726454 1.703148 1.680003 1.657021 1.634201 1.611543 1.589047 1.566714 1.544542 1.522533 1.500686 1.524222 1.884143 1.712578 1.129753 1.064847 0.505541 0.932985 0.606147 0.783739 0.885681 0.666741 0.622165 0.778146 0.746935 0.604640 0.577351 0.364798 0.053233 0.012913 -0.007984 -0.025205 0.329843 -0.068225 0.051278 -0.058618 -0.004248 -0.030020 0.089701 0.097380 0.117386 0.194885 0.308677 0.282520 0.455784 0.385286 0.630331 0.524824 0.769680 0.764739 0.934219 1.025754 0.965165 1.009894 1.143037 1.115823 1.063414 0.895214 0.883442 0.977882 0.821696 0.822677 0.661362 0.555897 0.502189 0.478426 0.461596 0.242955 0.265820 0.108021 0.062971 0.170941 0.035508 0.084133 0.173310 0.215588 0.327451 0.335614 0.420892 0.472376 0.632318 0.492366 0.759361 0.746907 0.628924 0.728365 0.698130 0.554800 0.442743 0.435818 0.292070 0.241689 0.090378 0.075481 -0.000140 -0.004721 -0.037141 0.034954 0.077394 0.069881 0.098098 0.227445 0.246812 0.301795 0.420236 0.431531 0.364080 0.461027 0.411525 0.324276 0.328649 0.290662 0.076959 0.081978 0.023071 -0.028084 -0.041159 -0.075439 -0.053527 -0.054892 -0.005779 0.088537 0.167994 0.206982 0.177847 0.217863 0.269780 0.228050 0.227298 0.209004 0.101997 0.097595 0.147909 0.055553 0.012480 -0.015167 0.028902 -0.030588 -0.000915 0.034685 0.116769 0.118623 0.156496 0.197375 0.230326 0.131446 0.212097 0.172513 0.105841 0.057946 0.016612 0.058429 -0.001617 0.015562 0.006303 0.054767 0.025732 0.102675 0.148701 0.062930 0.162893 0.092388 0.108915 0.119891 0.090995 -0.040405 -0.004704 -0.059339 -0.070577 0.018328 0.055988 0.082024 0.032230 0.096775 0.116614 0.079132 0.165078 0.063342 0.087921 0.074468 -0.055565 -0.004334 0.001941 0.016505 0.067928 0.041662 0.030590 0.074489 0.094060 0.070165 0.088027 0.074568 0.074247 0.041608 0.028806 0.044284 0.024404 0.060116 0.013073 0.077217 0.046462 -0.009909 0.037136 0.056695 -0.015081 -0.060646 -0.000724 -0.034188 -0.023360 -0.022727 0.039682 0.004662 -0.009140 0.027233 -0.008423 -0.000303 -0.013036 -0.014875 -0.016656 0.012953 -0.014438 -0.003920 -0.029086 0.037065 0.020222 0.090884 0.087133 0.050104 0.065455 -0.007389 -0.089529 0.002700 0.025184 0.040748 -0.012364 0.045696 0.020252 -0.007154 0.046530 0.054346 0.036724 -0.051526 -0.006005 0.049617 0.050242 0.067465 -0.029792 -0.011648 -0.038432 -0.076749 -0.067493 -0.000648 0.026204 -0.024371 0.004555 -0.049231 -0.032971 0.019468 0.124495 -0.008842 0.023186 -0.024090 0.061275 0.050088 0.096789 0.006303 -0.002069 0.047011 0.021113 -0.006935 -0.006489 0.032192 -0.085440 -0.028015 0.015823 0.012100 0.019122 -0.046605 -0.073962 -0.055113 -0.010749 -0.083519 0.099812 -0.017074 0.021114 -0.017809 0.051069 0.047347 0.007300 0.001672 -0.056813 0.060654 0.044857 0.123838 0.004593 0.081167 0.097549 0.034040 0.156577 0.001658 -0.062905 -0.021059 0.053259 0.030381 0.050071 -0.004296 0.012356 0.182135 0.142862 0.090105 0.016926 0.031633 0.100841 0.286267 0.453586 0.116487 0.214524 0.266996 0.181822 0.316690 0.052398 0.102773 -1.440570
0.072396 0.072908 0.074442 0.076998 0.080577 0.085176 0.090795 0.097431 0.105084 0.113749 0.123423 0.134102 0.145780 0.158450 0.172105 0.186734 0.202327 0.218869 0.236345 0.254737 0.274024 0.294181 0.315182 0.336996 0.359587 0.382917 0.406942 0.431615 0.456881 0.482682 0.508954 0.535626 0.562622 0.589860 0.617250 0.644695 0.672094 0.699335 0.726301 0.752869 0.778906 0.804276 0.828832 0.852424 0.874894 0.896079 0.915809 0.933914 0.950214 0.964532 0.976684 0.986488 0.993762 0.998323 0.999995 0.998604 0.993982 0.985969 0.974418 0.959189 0.940159 0.917222 0.890288 0.859289 0.824181 0.784943 0.741584 0.694143 0.642688 0.587325 0.528194 0.465473 0.399380 0.330173 0.258150 0.183653 0.107065 0.028810 0.050647 0.130800 0.211109 0.290996 0.369855 0.447048 0.521918 0.593789 0.661971 0.725774 0.784504 0.837482 0.884046 0.923560 0.955427 0.979096 0.994072 0.999928 0.996311 0.982956 0.959694 0.926458 0.883296 0.830373 0.767980 0.696537 0.616596 0.528845 0.434102 0.333315 0.227557 0.118017 0.005992 0.107128 0.219874 0.330716 0.438084 0.540384 0.636034 0.723478 0.801221 0.867853 0.922079 0.962752 0.988892 0.999723 0.994689 0.973486 0.936073 0.882693 0.813882 0.730474 0.633604 0.524702 0.405479 0.277906 0.144195 0.006760 0.131821 0.268849 0.401555 0.527161 0.642935 0.746255 0.834672 0.905977 0.958260 0.989970 0.999972 0.987588 0.952641 0.895479 0.816997 0.718633 0.602365 0.470678 0.326533 0.173303 0.014705 0.145281 0.302511 0.452779 0.591936 0.716006 0.821305 0.904562 0.963030 0.994591 0.997844 0.972179 0.917830 0.835899 0.728366 0.598056 0.448590 0.284299 0.110114 0.068571 0.246061 0.416532 0.574234 0.713676 0.829841 0.918369 0.975741 0.999437 0.988066 0.941458 0.860723 0.748248 0.607669 0.443769 0.262347 0.070024 0.125980 0.318115 0.498778 0.660634 0.796910 0.901701 0.970245 0.999160 0.986644 0.932598 0.838701 0.708389 0.546776 0.360477 0.157366 0.053732 0.263421 0.462132 0.640583 0.790203 0.903578 0.974836 0.999983 0.977161 0.906808 0.791716 0.636962 0.449729 0.239011 0.015208 0.210373 0.426072 0.620487 0.783082 0.904784 0.978522 0.999670 0.966382 0.879778 0.743976 0.565945 0.355204 0.123346 0.116571 0.350737 0.565392 0.747628 0.886202 0.972260 0.999944 0.966841 0.874233 0.727127 0.534042 0.306579 0.058757 0.193805 0.434870 0.648623 0.820727 0.939310 0.995842 0.985794 0.909062 0.770096 0.577721 0.344631 0.086627 0.178439 0.431868 0.655429 0.832700 0.950301 0.998973 0.974354 0.877449 0.714687 0.497582 0.241989 0.032995 0.306437 0.557122 0.765238 0.913957 0.990858 0.989031 0.907774 0.752812 0.535987 0.274435 0.010698 0.295925 0.557335 0.772616 0.922980 0.994882 0.981311 0.882561 0.706383 0.467488 0.186397 0.112253 0.401814 0.656017 0.851366 0.969374 0.998377 0.934794 0.783650 0.558299 0.279356 0.027108 0.331955 0.605713 0.821464 0.957531 0.999738 0.942997 0.792018 0.561061 0.272700 0.044279 0.357708 0.635268 0.847853 0.972682 0.995831 0.913907 0.734640 0.476297 0.165947 0.163296 0.475741 0.736989 0.917770 0.997299 0.965781 0.825752 0.592058 0.290409 0.045307 0.376788 0.665643 0.877877 0.987965 0.982042 0.859791 0.634765 0.333036 0.009687 0.352201 0.652728 0.874045 0.988162 0.980004 0.849543 0.612114 0.296778 0.057089 0.404641 0.701197 0.908044 0.997574 0.957122 0.790916 0.519854 0.179071 0.186527 0.528068 0.799249 0.962694
1.000000 1.000000 1.000000 1.000000 1.000000 1.000000 1.000000 1.000000 1.000000 1.000000 1.000000 1.000000 1.000000 1.000000 1.000000 1.000000 1.000000 1.000000 1.000000 1.000000 1.000000 1.000000 1.000000 1.000000 1.000000 1.000000 1.000000 1.000000 1.000000 1.000000 1.000000 1.000000 1.000000 1.000000 1.000000 1.000000 1.000000 1.000000 1.000000 1.000000 1.000000 1.000000 1.000000 1.000000 1.000000 1.000000 1.000000 1.000000 1.000000 1.000000 1.000000 1.000000 0.906019 0.906019 0.906019 0.887673 0.887673 0.887673 0.887673 0.887673 0.887673 0.887673 0.887673 0.887673 0.887673 0.887673 0.887673 0.887673 0.887673 0.887673 0.887673 0.887673 0.887673 0.887673 0.887673 0.887673 0.887673 0.887673 0.887673 0.887673 0.887673 0.887673 0.887673 0.887673 0.887673 0.887673 0.887673 0.887673 0.887673 0.887673 0.887673 0.887673 0.887673 0.887673 0.887673 0.887673 0.894656 0.896888 0.898313 0.900996 0.902386 0.899502 0.898798 0.898387 0.898819 0.899959 0.910568 0.921976 0.937724 0.945852 0.951180 0.959914 0.961659 0.961900 0.968021 0.973231 0.971643 0.970939 0.971311 0.972781 0.974693 0.974844 0.975796 0.975640 0.975185 0.975658 0.975434 0.974807 0.974004 0.973246 0.973231 0.972746 0.972859 0.973725 0.974197 0.974029 0.974408 0.974569 0.973059 0.971409 0.966949 0.967269 0.967054 0.966426 0.963119 0.959242 0.958864 0.955995 0.956082 0.956323 0.956704 0.957128 0.955176 0.955412 0.942809 0.941662 0.941083 0.938496 0.935654 0.934772 0.933499 0.935809 0.934120 0.922497 0.913613 0.886585 0.879660 0.866663 0.863259 0.855774 0.858210 0.857397 0.858728 0.856485 0.851293 0.850791 0.847731 0.851762 0.850766 0.848013 0.846861 0.846277 0.836027 0.837450 0.832040 0.822976 0.818804 0.811779 0.814313 0.814158 0.814358 0.809278 0.815031 0.809253 0.806126 0.801750 0.796453 0.788584 0.774159 0.778900 0.785480 0.798327 0.798604 0.792723 0.771832 0.788140 0.790255 0.782811 0.787006 0.784281 0.749443 0.746496 0.744279 0.721344 0.730410 0.722376 0.726853 0.719035 0.715328 0.691021 0.671465 0.679235 0.685894 0.713145 0.709432 0.705158 0.701076 0.700638 0.667048 0.655666 0.658383 0.617782 0.627176 0.634362 0.607589 0.605095 0.589799 0.587570 0.595968 0.600196 0.595473 0.612351 0.601425 0.583733 0.572397 0.569804 0.566250 0.557428 0.540063 0.551531 0.534528 0.513876 0.521424 0.515752 0.519443 0.500332 0.482100 0.467657 0.432626 0.424762 0.406325 0.373758 0.356633 0.326952 0.267965 0.248971 0.268261 0.246101 0.231915 0.236298 0.200444 0.210411 0.183758 0.171690 0.176494 0.145225 0.130206 0.112762 0.091267 0.116685 0.135030 0.144853 0.127059 0.131939 0.165198 0.177219 0.164681 0.151816 0.144822 0.146180 0.128891 0.082498 0.053854 0.022525 0.009772 -0.043854 -0.035294 -0.037094 -0.032297 -0.054624 -0.062203 -0.059467 -0.047998 -0.057429 -0.073958 -0.093443 -0.087054 -0.095510 -0.076572 -0.064417 -0.060642 -0.065966 -0.041320 -0.019083 -0.014555 -0.030867 -0.042384 -0.076292 -0.066010 -0.052052 0.014518 0.035714 0.040211 0.106944 0.105282 0.099365 0.092539 0.099329 0.077843 0.118524 0.134066 0.136100 0.133042 0.044207 0.035273 0.035273 0.035273 0.029961 0.029961 0.029961 0.029961 0.029961 0.029961 0.029961 0.029961 0.029961 0.015346 0.015346 0.015346 0.015346 0.015346 0.015346 0.015346 0.015346 0.015346 0.015346 0.015346 0.015346 0.015346 0.015346 0.015346 0.015346 0.015346
0.000000 0.000000 0.000000 0.000000 0.000000 0.000000 0.000000 0.000000 0.000000 0.000000 0.000000 0.000000 0.000000 0.000000 0.000000 0.000000 0.000000 0.000000 0.000000 0.000000 0.000000 0.000000 0.000000 0.000000 0.000000 0.000000 0.000000 0.000000 0.000000 0.000000 0.000000 0.000000 0.000000 0.000000 0.000000 0.000000 0.000000 0.000000 0.000000 0.000000 0.000000 0.000000 0.000000 0.000000 0.000000 0.000000 0.000000 0.000000 0.000000 0.000000 0.000000 0.000000 0.180334 0.180334 0.180334 0.199007 0.199007 0.199007 0.199007 0.199007 0.199007 0.199007 0.199007 0.199007 0.199007 0.199007 0.199007 0.199007 0.199007 0.199007 0.199007 0.199007 0.199007 0.199007 0.199007 0.199007 0.199007 0.199007 0.199007 0.199007 0.199007 0.199007 0.199007 0.199007 0.199007 0.199007 0.199007 0.199007 0.199007 0.199007 0.199007 0.199007 0.199007 0.199007 0.199007 0.199007 0.230940 0.230940 0.230940 0.230940 0.230940 0.230940 0.230940 0.230940 0.230940 0.230940 0.230940 0.230940 0.230940 0.230940 0.230940 0.230940 0.230940 0.230940 0.230940 0.230940 0.230940 0.230940 0.230940 0.230940 0.230940 0.230940 0.230940 0.230940 0.248069 0.248069 0.248069 0.248069 0.248069 0.248069 0.248069 0.248069 0.248069 0.248069 0.248069 0.248069 0.248069 0.248069 0.248069 0.248069 0.248069 0.248069 0.248069 0.248069 0.248069 0.248069 0.251976 0.251976 0.251976 0.251976 0.251976 0.251976 0.251976 0.251976 0.251976 0.251976 0.251976 0.251976 0.251976 0.251976 0.251976 0.251976 0.251976 0.251976 0.251976 0.251976 0.256074 0.256074 0.256074 0.256074 0.256074 0.256074 0.256074 0.256074 0.256074 0.256074 0.256074 0.256074 0.256074 0.256074 0.256074 0.256074 0.256074 0.256074 0.264906 0.264906 0.264906 0.264906 0.264906 0.264906 0.264906 0.264906 0.264906 0.264906 0.264906 0.264906 0.264906 0.264906 0.264906 0.264906 0.264906 0.264906 0.264906 0.264906 0.264906 0.264906 0.264906 0.264906 0.264906 0.264906 0.264906 0.264906 0.264906 0.264906 0.264906 0.274721 0.274721 0.274721 0.274721 0.274721 0.274721 0.274721 0.274721 0.274721 0.274721 0.274721 0.274721 0.274721 0.264906 0.264906 0.264906 0.264906 0.264906 0.264906 0.264906 0.264906 0.264906 0.264906 0.264906 0.264906 0.264906 0.260378 0.260378 0.260378 0.260378 0.260378 0.260378 0.260378 0.260378 0.260378 0.260378 0.260378 0.260378 0.260378 0.264906 0.264906 0.264906 0.264906 0.264906 0.264906 0.264906 0.264906 0.264906 0.264906 0.264906 0.264906 0.269680 0.269680 0.269680 0.269680 0.269680 0.269680 0.269680 0.269680 0.269680 0.269680 0.269680 0.264906 0.264906 0.264906 0.264906 0.264906 0.264906 0.264906 0.264906 0.264906 0.264906 0.264906 0.269680 0.269680 0.269680 0.269680 0.269680 0.269680 0.269680 0.269680 0.269680 0.269680 0.264906 0.264906 0.264906 0.264906 0.264906 0.264906 0.264906 0.264906 0.264906 0.264906 0.260378 0.260378 0.260378 0.260378 0.260378 0.260378 0.260378 0.260378 0.260378 0.260378 0.256074 0.256074 0.256074 0.256074 0.256074 0.256074 0.256074 0.256074 0.256074 0.256074 0.260378 0.260378 0.260378 0.260378 0.260378 0.260378 0.260378 0.260378 0.260378 0.256074 0.256074 0.256074 0.256074 0.256074 0.256074 0.256074 0.256074 0.256074 0.251976 0.251976 0.251976 0.251976 0.251976 0.251976 0.251976 0.251976 0.251976 0.251976 0.251976 0.251976 0.251976 0.251976 0.251976 0.251976 0.251976
