# Output from CTFFind version 4.1.9, run on 2019-11-03 19:01:38
# Input file: stack11_bm3d_averaged_1_2.25_0_3000_half.mrc ; Number of micrographs: 1
# Pixel size: 3.000 Angstroms ; acceleration voltage: 300.0 keV ; spherical aberration: 0.00 mm ; amplitude contrast: 0.07
# Box size: 512 pixels ; min. res.: 30.0 Angstroms ; max. res.: 5.0 Angstroms ; min. def.: 5000.0 um; max. def. 50000.0 um; num. frames averaged: 1
# 6 lines per micrograph: #1 - spatial frequency (1/Angstroms); #2 - 1D rotational average of spectrum (assuming no astigmatism); #3 - 1D rotational average of spectrum; #4 - CTF fit; #5 - cross-correlation between spectrum and CTF fit; #6 - 2sigma of expected cross correlation of noise
0.000000 0.000651 0.001302 0.001953 0.002604 0.003255 0.003906 0.004557 0.005208 0.005859 0.006510 0.007161 0.007812 0.008464 0.009115 0.009766 0.010417 0.011068 0.011719 0.012370 0.013021 0.013672 0.014323 0.014974 0.015625 0.016276 0.016927 0.017578 0.018229 0.018880 0.019531 0.020182 0.020833 0.021484 0.022135 0.022786 0.023438 0.024089 0.024740 0.025391 0.026042 0.026693 0.027344 0.027995 0.028646 0.029297 0.029948 0.030599 0.031250 0.031901 0.032552 0.033203 0.033854 0.034505 0.035156 0.035807 0.036458 0.037109 0.037760 0.038411 0.039062 0.039714 0.040365 0.041016 0.041667 0.042318 0.042969 0.043620 0.044271 0.044922 0.045573 0.046224 0.046875 0.047526 0.048177 0.048828 0.049479 0.050130 0.050781 0.051432 0.052083 0.052734 0.053385 0.054036 0.054688 0.055339 0.055990 0.056641 0.057292 0.057943 0.058594 0.059245 0.059896 0.060547 0.061198 0.061849 0.062500 0.063151 0.063802 0.064453 0.065104 0.065755 0.066406 0.067057 0.067708 0.068359 0.069010 0.069661 0.070312 0.070964 0.071615 0.072266 0.072917 0.073568 0.074219 0.074870 0.075521 0.076172 0.076823 0.077474 0.078125 0.078776 0.079427 0.080078 0.080729 0.081380 0.082031 0.082682 0.083333 0.083984 0.084635 0.085286 0.085938 0.086589 0.087240 0.087891 0.088542 0.089193 0.089844 0.090495 0.091146 0.091797 0.092448 0.093099 0.093750 0.094401 0.095052 0.095703 0.096354 0.097005 0.097656 0.098307 0.098958 0.099609 0.100260 0.100911 0.101562 0.102214 0.102865 0.103516 0.104167 0.104818 0.105469 0.106120 0.106771 0.107422 0.108073 0.108724 0.109375 0.110026 0.110677 0.111328 0.111979 0.112630 0.113281 0.113932 0.114583 0.115234 0.115885 0.116536 0.117188 0.117839 0.118490 0.119141 0.119792 0.120443 0.121094 0.121745 0.122396 0.123047 0.123698 0.124349 0.125000 0.125651 0.126302 0.126953 0.127604 0.128255 0.128906 0.129557 0.130208 0.130859 0.131510 0.132161 0.132812 0.133464 0.134115 0.134766 0.135417 0.136068 0.136719 0.137370 0.138021 0.138672 0.139323 0.139974 0.140625 0.141276 0.141927 0.142578 0.143229 0.143880 0.144531 0.145182 0.145833 0.146484 0.147135 0.147786 0.148438 0.149089 0.149740 0.150391 0.151042 0.151693 0.152344 0.152995 0.153646 0.154297 0.154948 0.155599 0.156250 0.156901 0.157552 0.158203 0.158854 0.159505 0.160156 0.160807 0.161458 0.162109 0.162760 0.163411 0.164062 0.164714 0.165365 0.166016 0.166667 0.167318 0.167969 0.168620 0.169271 0.169922 0.170573 0.171224 0.171875 0.172526 0.173177 0.173828 0.174479 0.175130 0.175781 0.176432 0.177083 0.177734 0.178385 0.179036 0.179688 0.180339 0.180990 0.181641 0.182292 0.182943 0.183594 0.184245 0.184896 0.185547 0.186198 0.186849 0.187500 0.188151 0.188802 0.189453 0.190104 0.190755 0.191406 0.192057 0.192708 0.193359 0.194010 0.194661 0.195312 0.195964 0.196615 0.197266 0.197917 0.198568 0.199219 0.199870 0.200521 0.201172 0.201823 0.202474 0.203125 0.203776 0.204427 0.205078 0.205729 0.206380 0.207031 0.207682 0.208333 0.208984 0.209635 0.210286 0.210938 0.211589 0.212240 0.212891 0.213542 0.214193 0.214844 0.215495 0.216146 0.216797 0.217448 0.218099 0.218750 0.219401 0.220052 0.220703 0.221354 0.222005 0.222656 0.223307 0.223958 0.224609 0.225260 0.225911 0.226562 0.227214 0.227865 0.228516 0.229167 0.229818 0.230469 0.231120 0.231771 0.232422 0.233073 0.233724 0.234375 0.235026 0.235677
       0.31461        0.31461        0.31461        0.31461        0.31461        0.31461        0.31461        0.31461        0.31461        0.31461        0.31461        0.31461        0.31461        0.31461        0.31461        0.31461        0.31461        0.31460        0.31461        0.31461        0.31461        0.31461        0.31460        0.31461        0.31460        0.31461        0.31461        0.31461        0.31460        0.31461        0.31460        0.31461        0.31461        0.31461        0.31461        0.31461        0.31461        0.31461        0.31461        0.31460        0.31461        0.31461        0.31460        0.31461        0.31460        0.31461        0.31461        0.31460        0.31461        0.31461        0.31461        0.68010        0.86293        0.52000        0.08601       -0.06421       -0.42982       -0.20509       -0.30194       -0.12146       -0.07827       -0.12124       -0.07253       -0.21061       -0.23784       -0.25723       -0.33415       -0.34371       -0.48937       -0.38377       -0.46478       -0.45351       -0.42446       -0.46636       -0.53524       -0.55984       -0.58798       -0.61991       -0.57830       -0.41317       -0.37920       -0.33377       -0.31826       -0.21090       -0.19946        0.02049        0.07633        0.10959        0.22382        0.36637        0.43948        0.50935        0.55556        0.55111        0.56656        0.69119        0.80813        0.73435        0.73046        0.65721        0.57041        0.48140        0.40295        0.49300        0.37500        0.20259        0.07417        0.04525        0.01284       -0.06150       -0.03599       -0.01456       -0.06722       -0.01141       -0.02267        0.21322        0.24976        0.28614        0.41908        0.44906        0.40071        0.53657        0.62308        0.68828        0.75501        0.68355        0.65199        0.68855        0.57568        0.49102        0.41383        0.28456        0.19366        0.15488        0.10929        0.03566        0.00917        0.00458        0.07276        0.12807        0.20407        0.27201        0.39261        0.41926        0.49839        0.59614        0.62754        0.61796        0.62358        0.54847        0.44062        0.44857        0.35042        0.22545        0.17916        0.14370        0.11553        0.12698        0.07958        0.10826        0.23047        0.26283        0.34565        0.35907        0.44187        0.50766        0.53630        0.54240        0.46503        0.42828        0.38584        0.35746        0.30068        0.25036        0.20653        0.18927        0.16680        0.19736        0.17891        0.27198        0.33117        0.36652        0.42410        0.45814        0.47567        0.43111        0.38410        0.40814        0.36845        0.27717        0.26247        0.22104        0.21842        0.19301        0.21714        0.22864        0.32416        0.37094        0.37064        0.45938        0.42833        0.43557        0.42623        0.39104        0.33769        0.32085        0.27763        0.24699        0.23560        0.26721        0.27276        0.29985        0.30120        0.32893        0.32067        0.40190        0.41522        0.37305        0.34365        0.36133        0.27895        0.27800        0.25900        0.27878        0.25992        0.27898        0.28943        0.30673        0.34258        0.35847        0.36297        0.33978        0.34931        0.28826        0.32154        0.26778        0.23981        0.28685        0.28612        0.31007        0.30687        0.31954        0.32355        0.31148        0.31586        0.28496        0.28688        0.26356        0.28369        0.26362        0.29894        0.28144        0.26706        0.30236        0.30783        0.31409        0.27652        0.29962        0.27701        0.25663        0.24851        0.21392        0.27519        0.27289        0.32294        0.30406        0.31776        0.31282        0.31054        0.27501        0.29045        0.32570        0.26414        0.25596        0.29264        0.28208        0.33945        0.33350        0.34558        0.32801        0.30009        0.28006        0.26898        0.24750        0.22301        0.27194        0.30256        0.29128        0.27712        0.29220        0.27129        0.32462        0.33163        0.25038        0.22067        0.27293        0.32501        0.27762        0.30756        0.32833        0.31965        0.29444        0.31015        0.33608        0.29186        0.27808        0.24743        0.28787        0.35279        0.35996        0.26654        0.26066        0.25114        0.28387        0.21426        0.28587        0.23368        0.24955        0.33123        0.32396        0.34999        0.30018        0.23268        0.23421        0.24253        0.23324        0.19786        0.22662        0.27155        0.29425        0.24379        0.31452        0.30960        0.25791        0.25997        0.19875        0.16517        0.20291        0.21804        0.18927        0.21258        0.22430        0.18753        0.25390        0.35363        0.30822        0.33061        0.23228        0.22190        0.20180        0.27977        0.28324        0.15176        0.24429        0.23831        0.10901        0.19592        0.13176        0.14516        0.22550        0.17115       -0.10382       -0.61452
2.553752 2.527292 2.500975 2.474800 2.448769 2.422880 2.397133 2.371530 2.346069 2.320751 2.295575 2.270543 2.245652 2.220905 2.196301 2.171839 2.147520 2.123343 2.099310 2.075419 2.051670 2.028065 2.004602 1.981282 1.958104 1.935070 1.912178 1.889428 1.866822 1.844358 1.822037 1.799859 1.777823 1.755930 1.734180 1.712572 1.691108 1.669786 1.648606 1.627570 1.606676 1.585925 1.565316 1.544850 1.524527 1.504347 1.484310 1.464415 1.444663 1.425053 1.405586 1.626498 2.034721 1.606627 1.120219 0.981162 0.404301 0.807662 0.543506 0.823706 0.763636 0.782006 0.738786 0.701224 0.554138 0.509833 0.476184 0.428464 0.202545 0.372202 0.195650 0.302308 0.225937 0.178777 0.133441 0.006450 0.032667 -0.011209 -0.061169 0.103807 0.206471 0.187004 0.149749 0.331683 0.195931 0.497759 0.581851 0.558411 0.597910 0.873056 0.812894 0.939975 0.888342 0.977723 0.945301 1.079004 1.141362 1.070556 1.135514 0.945057 0.936718 0.790838 0.650897 0.778223 0.712783 0.463525 0.313308 0.251404 0.223761 0.152008 0.098418 0.138196 0.084345 0.151371 0.059833 0.266787 0.383949 0.366341 0.479804 0.574631 0.463429 0.559371 0.707754 0.746730 0.782332 0.731573 0.739473 0.711176 0.630600 0.568087 0.431270 0.287752 0.220422 0.089138 0.140299 -0.036340 -0.028602 -0.063220 -0.033613 0.005436 0.158502 0.088006 0.300220 0.290884 0.365061 0.458003 0.531863 0.520872 0.529633 0.512675 0.344792 0.320917 0.294584 0.108924 0.061746 -0.004487 -0.011716 -0.024992 -0.069478 -0.083388 0.013176 0.065153 0.148266 0.166522 0.238233 0.333700 0.326784 0.424166 0.404672 0.295620 0.244803 0.254028 0.204659 0.116722 0.101382 0.029813 0.016048 0.028947 0.002205 0.073560 0.161965 0.150977 0.251752 0.264344 0.319409 0.251749 0.223620 0.178620 0.223655 0.140299 0.047125 0.038424 -0.000095 -0.002955 -0.028033 0.027253 0.024747 0.166085 0.145720 0.185313 0.238013 0.197519 0.187280 0.187251 0.138433 0.088869 0.054291 0.052438 -0.031906 0.000372 0.015400 0.054370 0.050737 0.066133 0.083140 0.110584 0.142500 0.183588 0.082463 0.093642 0.073003 0.002883 0.002949 0.009472 -0.000879 0.013913 0.010143 0.027468 0.063530 0.085393 0.118019 0.059081 0.107900 0.059317 0.020478 0.061930 -0.031493 -0.012848 0.035119 0.007857 0.060739 0.053392 0.044119 0.072016 0.055883 0.045567 0.032181 0.003595 0.026428 0.016689 -0.001676 0.067555 -0.009844 0.020950 0.060330 0.052279 0.040651 0.048479 0.041313 0.024180 -0.003160 -0.023242 -0.020739 0.027674 0.038106 0.082408 0.057059 0.067914 0.089712 0.076070 0.028920 0.079100 0.089659 0.014979 0.022905 0.065942 0.054810 0.106131 0.113971 0.098483 0.122565 0.074560 0.042886 0.048552 -0.004822 0.009019 0.061491 0.085392 0.051177 0.040007 0.042490 0.019135 0.107301 0.065845 -0.034091 -0.046818 0.034843 0.094493 0.013997 0.026204 0.083647 0.077233 0.027721 0.055045 0.082753 0.032127 0.027875 -0.039351 0.035347 0.119452 0.081000 -0.031675 -0.023371 -0.038019 0.034977 -0.106132 0.042532 -0.078026 -0.021497 0.058200 0.054062 0.038972 -0.022039 -0.073602 -0.065319 -0.077572 -0.053720 -0.103799 -0.083116 -0.011975 0.059489 -0.057949 0.064832 0.000630 -0.053123 0.037692 -0.106228 -0.103871 -0.071530 -0.019588 -0.063821 -0.030890 -0.011464 -0.031495 0.022642 0.206744 -0.020494 0.164200 0.023134 0.229375 0.215685 0.323912 0.258516 0.127339 0.247187 0.275989 0.050517 0.209626 0.137300 0.119423 0.301480 0.176801 -0.639120
0.072396 0.072898 0.074405 0.076916 0.080431 0.084948 0.090467 0.096986 0.104502 0.113013 0.122516 0.133006 0.144478 0.156926 0.170341 0.184715 0.200036 0.216292 0.233468 0.251547 0.270508 0.290329 0.310984 0.332442 0.354673 0.377637 0.401294 0.425598 0.450499 0.475940 0.501860 0.528192 0.554865 0.581798 0.608908 0.636101 0.663281 0.690341 0.717171 0.743652 0.769658 0.795057 0.819710 0.843472 0.866193 0.887715 0.907876 0.926510 0.943446 0.958511 0.971527 0.982317 0.990704 0.996510 0.999559 0.999682 0.996712 0.990489 0.980863 0.967693 0.950854 0.930230 0.905726 0.877264 0.844788 0.808264 0.767684 0.723068 0.674465 0.621957 0.565659 0.505720 0.442329 0.375712 0.306132 0.233896 0.159349 0.082878 0.004906 0.074099 0.153637 0.233170 0.312128 0.389911 0.465894 0.539432 0.609862 0.676514 0.738713 0.795786 0.847076 0.891941 0.929770 0.959989 0.982071 0.995542 0.999999 0.995109 0.980627 0.956401 0.922378 0.878617 0.825291 0.762694 0.691246 0.611494 0.524116 0.429915 0.329820 0.224881 0.116257 0.005213 0.106897 0.218643 0.328536 0.435046 0.536626 0.631731 0.718847 0.796515 0.863356 0.918101 0.959621 0.986947 0.999303 0.996125 0.977088 0.942119 0.891417 0.825464 0.745028 0.651169 0.545230 0.428828 0.303839 0.172372 0.036739 0.100581 0.236979 0.369775 0.496261 0.613759 0.719684 0.811601 0.887290 0.944803 0.982522 0.999213 0.994075 0.966776 0.917485 0.846891 0.756212 0.647188 0.522064 0.383553 0.234791 0.079277 0.079208 0.236681 0.389063 0.532276 0.662362 0.775593 0.868589 0.938428 0.982745 0.999832 0.988711 0.949193 0.881921 0.788383 0.670902 0.532595 0.377315 0.209556 0.034332 0.142960 0.316699 0.481226 0.631017 0.760889 0.866181 0.942937 0.988071 0.999512 0.976313 0.918727 0.828248 0.707600 0.560683 0.392474 0.208871 0.016513 0.177455 0.365641 0.540683 0.695551 0.823826 0.920000 0.979715 1.000000 0.979430 0.918251 0.818418 0.683581 0.518980 0.331270 0.128278 0.081302 0.288273 0.483335 0.657507 0.802550 0.911378 0.978423 0.999960 0.974336 0.902122 0.786156 0.631481 0.445158 0.235984 0.014106 0.209465 0.423375 0.616520 0.778624 0.900810 0.976116 0.999926 0.970291 0.888120 0.757215 0.584150 0.377985 0.149834 0.087717 0.321265 0.537363 0.723292 0.867828 0.961957 0.999474 0.977436 0.896443 0.760695 0.577842 0.358606 0.116194 0.134458 0.377593 0.597624 0.780134 0.912859 0.986549 0.995664 0.938846 0.819124 0.643828 0.424216 0.174788 0.087605 0.344905 0.579048 0.773277 0.913349 0.988634 0.992982 0.925288 0.789703 0.595468 0.356356 0.089753 0.184559 0.445857 0.674024 0.851145 0.962938 0.999972 0.958537 0.841078 0.656161 0.417920 0.145069 0.140530 0.415582 0.657259 0.845113 0.962855 0.999834 0.952082 0.822811 0.622321 0.367257 0.079324 0.216524 0.494202 0.728817 0.898909 0.988495 0.988642 0.898453 0.725337 0.484513 0.197769 0.108437 0.405379 0.664735 0.861335 0.975648 0.995805 0.918945 0.751684 0.509685 0.216301 0.099617 0.406478 0.673117 0.871985 0.982057 0.991152 0.897393 0.709627 0.446729 0.135814 0.190474 0.497340 0.751561 0.925109 0.998344 0.962331 0.820065 0.586390 0.286582 0.046267 0.374851 0.661783 0.873896 0.986144 0.984671 0.868659 0.650691 0.355542 0.017480 0.323602 0.626894 0.855538 0.981209 0.987719 0.873265 0.650925 0.347341 0.000342 0.348926 0.654495 0.877973 0.990205 0.975891 0.835830 0.587134 0.261316 0.099593
1.000000 1.000000 1.000000 1.000000 1.000000 1.000000 1.000000 1.000000 1.000000 1.000000 1.000000 1.000000 1.000000 1.000000 1.000000 1.000000 1.000000 1.000000 1.000000 1.000000 1.000000 1.000000 1.000000 1.000000 1.000000 1.000000 1.000000 1.000000 1.000000 1.000000 1.000000 1.000000 1.000000 1.000000 1.000000 1.000000 1.000000 1.000000 1.000000 1.000000 1.000000 1.000000 1.000000 1.000000 1.000000 1.000000 1.000000 1.000000 1.000000 1.000000 1.000000 1.000000 0.928987 0.928987 0.928987 0.915223 0.915223 0.915223 0.915223 0.915223 0.915223 0.915223 0.915223 0.915223 0.915223 0.915223 0.915223 0.915223 0.915223 0.915223 0.915223 0.915223 0.915223 0.915223 0.915223 0.915223 0.915223 0.915223 0.915223 0.915223 0.915223 0.915223 0.915223 0.915223 0.915223 0.915223 0.915223 0.915223 0.915223 0.915223 0.915223 0.915223 0.915223 0.915223 0.915223 0.915223 0.944242 0.945661 0.953689 0.953519 0.952963 0.950751 0.949761 0.948571 0.948100 0.948401 0.949075 0.950003 0.958884 0.960054 0.962883 0.963808 0.964641 0.965423 0.966234 0.967154 0.966493 0.965870 0.965104 0.964829 0.967586 0.967263 0.967614 0.968739 0.968653 0.969798 0.970062 0.969859 0.969291 0.968771 0.968172 0.967796 0.967533 0.967948 0.968220 0.969501 0.972666 0.972054 0.971765 0.971922 0.972021 0.972185 0.972577 0.974215 0.970444 0.971174 0.971296 0.969238 0.976212 0.973243 0.973046 0.973525 0.973850 0.974039 0.971553 0.967094 0.959084 0.958249 0.954333 0.944601 0.942372 0.943303 0.945381 0.945971 0.945169 0.938803 0.939322 0.934747 0.934557 0.937958 0.934527 0.934455 0.935503 0.935084 0.933981 0.933303 0.930776 0.926842 0.924623 0.924072 0.927026 0.928390 0.930008 0.930636 0.926873 0.919383 0.909102 0.895132 0.891850 0.892564 0.881191 0.879241 0.878527 0.873166 0.876774 0.877970 0.879198 0.874766 0.859003 0.838626 0.828827 0.833715 0.839285 0.838259 0.836235 0.829700 0.842642 0.823889 0.836701 0.848385 0.841528 0.842487 0.841361 0.838808 0.829926 0.829872 0.833303 0.834594 0.834603 0.833103 0.825343 0.810876 0.810983 0.758273 0.742375 0.738328 0.743214 0.747813 0.746124 0.744491 0.753511 0.758502 0.761819 0.748747 0.741603 0.732198 0.736613 0.739805 0.745983 0.737754 0.716348 0.705285 0.672552 0.688602 0.709059 0.668279 0.690001 0.699450 0.694659 0.695158 0.687170 0.681724 0.673766 0.677002 0.687241 0.704686 0.721001 0.745015 0.737562 0.727427 0.725213 0.705449 0.699216 0.686666 0.696533 0.677188 0.670491 0.692023 0.691263 0.679069 0.664149 0.649382 0.636436 0.638998 0.642127 0.633650 0.634653 0.622280 0.601472 0.601146 0.634490 0.650816 0.667618 0.646415 0.632769 0.627695 0.609404 0.623292 0.566534 0.567308 0.588662 0.595745 0.576068 0.543517 0.548825 0.562683 0.567371 0.561126 0.541118 0.531045 0.542178 0.571728 0.562567 0.529089 0.534731 0.533449 0.533823 0.472334 0.472802 0.442718 0.416333 0.347988 0.328582 0.324722 0.310859 0.301477 0.267733 0.264791 0.273164 0.284628 0.289325 0.287263 0.277408 0.278130 0.266349 0.254478 0.195417 0.181992 0.174747 0.163011 0.164279 0.140161 0.159064 0.224371 0.226434 0.226434 0.226434 0.226434 0.226434 0.226434 0.232667 0.232667 0.232667 0.232667 0.232667 0.232667 0.232667 0.232667 0.232667 0.244973 0.244973 0.244973 0.244973 0.244973 0.244973 0.244973 0.244973 0.244973 0.244973 0.244973 0.244973 0.244973 0.244973
0.000000 0.000000 0.000000 0.000000 0.000000 0.000000 0.000000 0.000000 0.000000 0.000000 0.000000 0.000000 0.000000 0.000000 0.000000 0.000000 0.000000 0.000000 0.000000 0.000000 0.000000 0.000000 0.000000 0.000000 0.000000 7.000000 4.000000 0.000000 0.000000 0.000000 0.000000 0.000000 0.000000 0.000000 0.000000 0.000000 0.000000 0.000000 0.000000 0.000000 0.000000 0.000000 0.000000 0.000000 0.000000 0.000000 0.000000 0.000000 0.000000 0.000000 0.000000 0.000000 0.180334 0.180334 0.180334 0.199007 0.199007 0.199007 0.199007 0.199007 0.199007 0.199007 0.199007 0.199007 0.199007 0.199007 0.199007 0.199007 0.199007 0.199007 0.199007 0.199007 0.199007 0.199007 0.199007 0.199007 0.199007 0.199007 0.199007 0.199007 0.199007 0.199007 0.199007 0.199007 0.199007 0.199007 0.199007 0.199007 0.199007 0.199007 0.199007 0.199007 0.199007 0.199007 0.199007 0.199007 0.225018 0.225018 0.225018 0.225018 0.225018 0.225018 0.225018 0.225018 0.225018 0.225018 0.225018 0.225018 0.225018 0.225018 0.225018 0.225018 0.225018 0.225018 0.225018 0.225018 0.225018 0.225018 0.225018 0.225018 0.225018 0.225018 0.225018 0.225018 0.225018 0.244339 0.244339 0.244339 0.244339 0.244339 0.244339 0.244339 0.244339 0.244339 0.244339 0.244339 0.244339 0.244339 0.244339 0.244339 0.244339 0.244339 0.244339 0.244339 0.244339 0.244339 0.244339 0.244339 0.251976 0.251976 0.251976 0.251976 0.251976 0.251976 0.251976 0.251976 0.251976 0.251976 0.251976 0.251976 0.251976 0.251976 0.251976 0.251976 0.251976 0.251976 0.251976 0.251976 0.264906 0.264906 0.264906 0.264906 0.264906 0.264906 0.264906 0.264906 0.264906 0.264906 0.264906 0.264906 0.264906 0.264906 0.264906 0.264906 0.264906 0.264906 0.264906 0.264906 0.264906 0.264906 0.264906 0.264906 0.264906 0.264906 0.264906 0.264906 0.264906 0.264906 0.264906 0.264906 0.264906 0.264906 0.264906 0.264906 0.264906 0.264906 0.264906 0.264906 0.264906 0.264906 0.264906 0.264906 0.264906 0.264906 0.264906 0.264906 0.264906 0.264906 0.264906 0.264906 0.264906 0.264906 0.264906 0.264906 0.264906 0.264906 0.264906 0.264906 0.264906 0.264906 0.256074 0.256074 0.256074 0.256074 0.256074 0.256074 0.256074 0.256074 0.256074 0.256074 0.256074 0.256074 0.256074 0.256074 0.269680 0.269680 0.269680 0.269680 0.269680 0.269680 0.269680 0.269680 0.269680 0.269680 0.269680 0.269680 0.264906 0.264906 0.264906 0.264906 0.264906 0.264906 0.264906 0.264906 0.264906 0.264906 0.264906 0.264906 0.269680 0.269680 0.269680 0.269680 0.269680 0.269680 0.269680 0.269680 0.269680 0.269680 0.269680 0.264906 0.264906 0.264906 0.264906 0.264906 0.264906 0.264906 0.264906 0.264906 0.264906 0.264906 0.256074 0.256074 0.256074 0.256074 0.256074 0.256074 0.256074 0.256074 0.256074 0.256074 0.256074 0.264906 0.264906 0.264906 0.264906 0.264906 0.264906 0.264906 0.264906 0.264906 0.264906 0.260378 0.260378 0.260378 0.260378 0.260378 0.260378 0.260378 0.260378 0.260378 0.260378 0.256074 0.256074 0.256074 0.256074 0.256074 0.256074 0.256074 0.256074 0.256074 0.256074 0.260378 0.260378 0.260378 0.260378 0.260378 0.260378 0.260378 0.260378 0.260378 0.256074 0.256074 0.256074 0.256074 0.256074 0.256074 0.256074 0.256074 0.256074 0.251976 0.251976 0.251976 0.251976 0.251976 0.251976 0.251976 0.251976 0.251976 0.251976 0.251976 0.251976 0.251976 0.251976
