# Output from CTFFind version 4.1.9, run on 2019-11-02 17:58:41
# Input file: stack6_bm3d_averaged_1_1.75_0_250_half.mrc ; Number of micrographs: 1
# Pixel size: 3.000 Angstroms ; acceleration voltage: 300.0 keV ; spherical aberration: 0.00 mm ; amplitude contrast: 0.07
# Box size: 512 pixels ; min. res.: 30.0 Angstroms ; max. res.: 5.0 Angstroms ; min. def.: 5000.0 um; max. def. 50000.0 um; num. frames averaged: 1
# 6 lines per micrograph: #1 - spatial frequency (1/Angstroms); #2 - 1D rotational average of spectrum (assuming no astigmatism); #3 - 1D rotational average of spectrum; #4 - CTF fit; #5 - cross-correlation between spectrum and CTF fit; #6 - 2sigma of expected cross correlation of noise
0.000000 0.000651 0.001302 0.001953 0.002604 0.003255 0.003906 0.004557 0.005208 0.005859 0.006510 0.007161 0.007812 0.008464 0.009115 0.009766 0.010417 0.011068 0.011719 0.012370 0.013021 0.013672 0.014323 0.014974 0.015625 0.016276 0.016927 0.017578 0.018229 0.018880 0.019531 0.020182 0.020833 0.021484 0.022135 0.022786 0.023438 0.024089 0.024740 0.025391 0.026042 0.026693 0.027344 0.027995 0.028646 0.029297 0.029948 0.030599 0.031250 0.031901 0.032552 0.033203 0.033854 0.034505 0.035156 0.035807 0.036458 0.037109 0.037760 0.038411 0.039062 0.039714 0.040365 0.041016 0.041667 0.042318 0.042969 0.043620 0.044271 0.044922 0.045573 0.046224 0.046875 0.047526 0.048177 0.048828 0.049479 0.050130 0.050781 0.051432 0.052083 0.052734 0.053385 0.054036 0.054688 0.055339 0.055990 0.056641 0.057292 0.057943 0.058594 0.059245 0.059896 0.060547 0.061198 0.061849 0.062500 0.063151 0.063802 0.064453 0.065104 0.065755 0.066406 0.067057 0.067708 0.068359 0.069010 0.069661 0.070312 0.070964 0.071615 0.072266 0.072917 0.073568 0.074219 0.074870 0.075521 0.076172 0.076823 0.077474 0.078125 0.078776 0.079427 0.080078 0.080729 0.081380 0.082031 0.082682 0.083333 0.083984 0.084635 0.085286 0.085938 0.086589 0.087240 0.087891 0.088542 0.089193 0.089844 0.090495 0.091146 0.091797 0.092448 0.093099 0.093750 0.094401 0.095052 0.095703 0.096354 0.097005 0.097656 0.098307 0.098958 0.099609 0.100260 0.100911 0.101562 0.102214 0.102865 0.103516 0.104167 0.104818 0.105469 0.106120 0.106771 0.107422 0.108073 0.108724 0.109375 0.110026 0.110677 0.111328 0.111979 0.112630 0.113281 0.113932 0.114583 0.115234 0.115885 0.116536 0.117188 0.117839 0.118490 0.119141 0.119792 0.120443 0.121094 0.121745 0.122396 0.123047 0.123698 0.124349 0.125000 0.125651 0.126302 0.126953 0.127604 0.128255 0.128906 0.129557 0.130208 0.130859 0.131510 0.132161 0.132812 0.133464 0.134115 0.134766 0.135417 0.136068 0.136719 0.137370 0.138021 0.138672 0.139323 0.139974 0.140625 0.141276 0.141927 0.142578 0.143229 0.143880 0.144531 0.145182 0.145833 0.146484 0.147135 0.147786 0.148438 0.149089 0.149740 0.150391 0.151042 0.151693 0.152344 0.152995 0.153646 0.154297 0.154948 0.155599 0.156250 0.156901 0.157552 0.158203 0.158854 0.159505 0.160156 0.160807 0.161458 0.162109 0.162760 0.163411 0.164062 0.164714 0.165365 0.166016 0.166667 0.167318 0.167969 0.168620 0.169271 0.169922 0.170573 0.171224 0.171875 0.172526 0.173177 0.173828 0.174479 0.175130 0.175781 0.176432 0.177083 0.177734 0.178385 0.179036 0.179688 0.180339 0.180990 0.181641 0.182292 0.182943 0.183594 0.184245 0.184896 0.185547 0.186198 0.186849 0.187500 0.188151 0.188802 0.189453 0.190104 0.190755 0.191406 0.192057 0.192708 0.193359 0.194010 0.194661 0.195312 0.195964 0.196615 0.197266 0.197917 0.198568 0.199219 0.199870 0.200521 0.201172 0.201823 0.202474 0.203125 0.203776 0.204427 0.205078 0.205729 0.206380 0.207031 0.207682 0.208333 0.208984 0.209635 0.210286 0.210938 0.211589 0.212240 0.212891 0.213542 0.214193 0.214844 0.215495 0.216146 0.216797 0.217448 0.218099 0.218750 0.219401 0.220052 0.220703 0.221354 0.222005 0.222656 0.223307 0.223958 0.224609 0.225260 0.225911 0.226562 0.227214 0.227865 0.228516 0.229167 0.229818 0.230469 0.231120 0.231771 0.232422 0.233073 0.233724 0.234375 0.235026 0.235677
       0.30920        0.30920        0.30920        0.30920        0.30920        0.30920        0.30920        0.30920        0.30920        0.30920        0.30920        0.30920        0.30920        0.30920        0.30920        0.30920        0.30920        0.30920        0.30920        0.30920        0.30920        0.30920        0.30920        0.30920        0.30920        0.30920        0.30920        0.30920        0.30920        0.30920        0.30920        0.30920        0.30920        0.30920        0.30920        0.30920        0.30920        0.30920        0.30920        0.30920        0.30920        0.30920        0.30920        0.30920        0.30920        0.30920        0.30920        0.30920        0.30920        0.30920        0.30920        0.62912        0.80777        0.41206        0.30591        0.18011       -0.10671        0.11194       -0.00051        0.02990        0.11544        0.33947        0.41889        0.39962        0.22671       -0.01691        0.04509        0.06959       -0.17972       -0.18253       -0.08988       -0.11115       -0.30007       -0.19573       -0.30215       -0.25568       -0.28939       -0.41288       -0.47479       -0.48118       -0.43161       -0.34765       -0.43665       -0.36499       -0.41646       -0.36053       -0.28226       -0.21008       -0.19634       -0.13927       -0.08840        0.04044        0.07104        0.25331        0.28216        0.36580        0.40562        0.52578        0.59513        0.61984        0.73839        0.70046        0.74672        0.65621        0.65929        0.68693        0.63217        0.61811        0.60978        0.42564        0.39526        0.34789        0.31556        0.22592        0.12873        0.06011        0.05348        0.00060       -0.08314       -0.02215       -0.03608       -0.07458        0.06828        0.16499        0.25632        0.31702        0.33579        0.42232        0.53721        0.58928        0.53893        0.67119        0.56906        0.54018        0.60323        0.63914        0.53425        0.45671        0.40518        0.37737        0.23704        0.20119        0.12504        0.11732        0.05559        0.04262        0.09416        0.15803        0.14414        0.17601        0.22594        0.24271        0.32418        0.45385        0.49024        0.49581        0.50803        0.57914        0.57014        0.53231        0.42995        0.38824        0.36244        0.27015        0.24186        0.20358        0.19989        0.18645        0.16978        0.16156        0.13585        0.19336        0.24256        0.32860        0.37567        0.40970        0.46009        0.53820        0.46795        0.49327        0.42782        0.39910        0.37851        0.36797        0.28698        0.23984        0.19109        0.23877        0.21637        0.18852        0.21379        0.21652        0.23125        0.30781        0.39621        0.38731        0.38326        0.40378        0.45892        0.47617        0.43124        0.35501        0.31602        0.27166        0.27541        0.26394        0.22127        0.28162        0.29536        0.30021        0.31611        0.30740        0.33150        0.37529        0.37484        0.37089        0.35106        0.31275        0.32612        0.32786        0.29427        0.28805        0.27260        0.22227        0.26570        0.27130        0.29374        0.31034        0.33354        0.37381        0.32694        0.30022        0.35888        0.35434        0.25208        0.28682        0.30619        0.23546        0.20736        0.26116        0.27206        0.27775        0.29606        0.30148        0.33859        0.33570        0.35570        0.32060        0.32647        0.30362        0.29929        0.26275        0.24366        0.25188        0.25077        0.28170        0.30249        0.30303        0.29234        0.31438        0.33479        0.27933        0.30071        0.26740        0.25245        0.26136        0.25076        0.25734        0.26653        0.32066        0.28180        0.31827        0.29242        0.26286        0.30728        0.30246        0.33152        0.31951        0.28931        0.24808        0.25087        0.25902        0.26003        0.31688        0.30460        0.32162        0.31647        0.30631        0.24673        0.28620        0.21705        0.19883        0.26125        0.26982        0.26555        0.27530        0.30149        0.29350        0.37357        0.29788        0.23585        0.21685        0.24237        0.28257        0.30227        0.30853        0.27945        0.28156        0.27652        0.32244        0.27954        0.24985        0.26155        0.25777        0.28724        0.24477        0.26695        0.31511        0.28884        0.23107        0.24405        0.28896        0.31026        0.24470        0.26051        0.24885        0.29608        0.28334        0.36328        0.27569        0.25638        0.27678        0.23658        0.21600        0.20599        0.23337        0.20384        0.19738        0.15355        0.20944        0.25051        0.20719        0.23365        0.20573        0.23395        0.21424        0.23752        0.18858        0.16040        0.19882        0.27689        0.12880        0.06132        0.21937        0.13834        0.10941        0.24210        0.15508        0.20910        0.20934       -0.04351       -0.52693       -0.93188
2.798521 2.771062 2.743743 2.716566 2.689530 2.662634 2.635880 2.609267 2.582795 2.556464 2.530274 2.504225 2.478317 2.452551 2.426925 2.401440 2.376096 2.350894 2.325832 2.300912 2.276132 2.251494 2.226996 2.202640 2.178425 2.154350 2.130417 2.106625 2.082974 2.059464 2.036095 2.012867 1.989780 1.966834 1.944029 1.921365 1.898843 1.876461 1.854220 1.832121 1.810162 1.788345 1.766668 1.745133 1.723739 1.702485 1.681373 1.660402 1.639572 1.618883 1.598334 1.885718 2.223639 1.667061 1.709197 1.356871 0.920330 1.183400 1.017583 1.060845 1.011935 1.479298 1.490742 1.509550 1.268914 0.929089 0.807703 1.005188 0.691372 0.481308 0.586050 0.667308 0.415034 0.476307 0.331147 0.372561 0.248308 0.150928 -0.032127 0.010668 0.017449 0.077549 0.046098 0.096178 -0.047318 0.029914 0.107081 0.216438 0.270730 0.217817 0.324627 0.563517 0.426686 0.719020 0.803303 0.857518 0.901326 1.113953 1.142799 1.173802 1.309577 1.218650 1.362096 1.197190 1.091878 1.285801 1.110608 1.045862 1.126883 0.860955 0.726261 0.665237 0.648567 0.468840 0.388455 0.271534 0.217672 0.106540 -0.005737 0.108637 0.025885 -0.059587 0.118921 0.261718 0.321870 0.454073 0.485046 0.546062 0.702415 0.809376 0.650201 0.956438 0.779437 0.673332 0.764577 0.790310 0.715711 0.631351 0.429746 0.514405 0.280890 0.167753 0.136702 0.009617 -0.007798 -0.111231 -0.027869 0.032483 0.071061 -0.036209 0.251437 0.112070 0.213282 0.378900 0.415628 0.544107 0.407992 0.554095 0.648632 0.504985 0.409958 0.341766 0.320514 0.152754 0.136314 0.008620 0.094593 0.004386 0.003171 -0.035186 -0.092834 0.000517 0.023268 0.097341 0.274063 0.219445 0.347562 0.362973 0.459269 0.367034 0.427915 0.334417 0.222001 0.317818 0.180537 0.156935 -0.010155 0.059198 0.084641 -0.018441 0.008153 0.014028 0.059105 0.076872 0.236186 0.303106 0.238186 0.242910 0.373031 0.372885 0.350371 0.249842 0.170892 0.140257 0.094186 0.082943 0.052004 0.029143 0.134171 0.062050 0.187873 0.099662 0.125532 0.216503 0.214315 0.239044 0.188189 0.200331 0.098188 0.165579 0.138069 0.091986 0.119316 -0.011233 0.043607 0.079989 0.043496 0.138268 0.104313 0.196336 0.201549 0.138904 0.114524 0.217564 0.106427 0.051729 0.090199 0.063296 -0.004675 -0.020862 0.059573 0.071328 0.050047 0.107733 0.107211 0.140360 0.147915 0.167639 0.127575 0.109279 0.102016 0.097046 0.021854 0.016248 0.046620 0.002226 0.083295 0.118785 0.094255 0.070456 0.101689 0.131622 0.038524 0.112287 0.031621 0.015290 0.047654 0.004750 0.015866 0.071613 0.107889 0.019905 0.121394 0.068516 0.001118 0.102515 0.069102 0.091147 0.103022 0.001771 -0.008741 -0.029300 0.044290 -0.018204 0.089883 0.053405 0.088124 0.061746 0.114697 -0.038802 0.052847 -0.097381 -0.029068 -0.021295 0.031890 0.008050 0.001994 0.089853 0.044566 0.130297 -0.042745 -0.069808 -0.100764 -0.075109 0.038049 0.032359 0.028957 -0.009292 -0.024140 -0.013821 0.060112 -0.033004 -0.061889 -0.029612 -0.073808 0.015108 -0.059164 -0.021742 0.028142 -0.023583 -0.070326 -0.018019 0.024534 0.000187 -0.042624 -0.014866 -0.076150 0.095338 0.041803 0.134107 -0.001570 -0.009593 0.033642 0.011647 -0.059493 -0.005619 0.029902 -0.026815 -0.037915 -0.083012 -0.015064 0.092258 -0.044697 0.144364 -0.015376 0.109426 -0.017962 0.133244 -0.036400 -0.001144 -0.027742 0.230281 -0.028628 0.010803 0.299599 0.165246 0.155029 0.407685 0.204156 0.263690 0.314556 -0.055499 -1.277458
0.072396 0.072835 0.074150 0.076343 0.079412 0.083356 0.088175 0.093868 0.100433 0.107867 0.116170 0.125336 0.135364 0.146248 0.157982 0.170561 0.183977 0.198220 0.213281 0.229148 0.245807 0.263242 0.281435 0.300367 0.320014 0.340352 0.361352 0.382983 0.405210 0.427995 0.451296 0.475067 0.499259 0.523817 0.548683 0.573793 0.599079 0.624468 0.649883 0.675240 0.700450 0.725421 0.750054 0.774245 0.797885 0.820859 0.843050 0.864334 0.884583 0.903665 0.921446 0.937786 0.952545 0.965580 0.976745 0.985896 0.992887 0.997575 0.999818 0.999476 0.996416 0.990507 0.981627 0.969662 0.954505 0.936064 0.914256 0.889012 0.860280 0.828025 0.792229 0.752896 0.710051 0.663741 0.614040 0.561046 0.504886 0.445713 0.383712 0.319095 0.252108 0.183023 0.112149 0.039819 0.033599 0.107711 0.182092 0.256295 0.329846 0.402249 0.472993 0.541546 0.607370 0.669917 0.728634 0.782975 0.832399 0.876379 0.914406 0.946000 0.970711 0.988129 0.997890 0.999683 0.993257 0.978425 0.955075 0.923171 0.882762 0.833983 0.777063 0.712325 0.640190 0.561176 0.475901 0.385075 0.289507 0.190091 0.087804 0.016298 0.121096 0.225415 0.328036 0.427710 0.523174 0.613167 0.696449 0.771813 0.838116 0.894285 0.939347 0.972443 0.992850 0.999995 0.993477 0.973078 0.938777 0.890761 0.829432 0.755414 0.669548 0.572897 0.466732 0.352526 0.231935 0.106780 0.020976 0.149259 0.275913 0.398737 0.515523 0.624099 0.722365 0.808344 0.880223 0.936393 0.975496 0.996458 0.998525 0.981296 0.944743 0.889229 0.815517 0.724777 0.618568 0.498829 0.367850 0.228237 0.082861 0.065186 0.212665 0.356248 0.492602 0.618463 0.730716 0.826486 0.903206 0.958703 0.991263 0.999695 0.983382 0.942319 0.877138 0.789116 0.680165 0.552805 0.410120 0.255695 0.093530 0.072048 0.236506 0.395219 0.543602 0.677251 0.792071 0.884420 0.951225 0.990104 0.999459 0.978555 0.927577 0.847652 0.740848 0.610142 0.459356 0.293055 0.116427 0.064871 0.244890 0.417573 0.576976 0.717458 0.833909 0.921932 0.978032 0.999772 0.985892 0.936397 0.852597 0.737102 0.593766 0.427576 0.244506 0.051307 0.144721 0.336003 0.514983 0.674425 0.807713 0.909142 0.974179 0.999687 0.984098 0.927531 0.831830 0.700546 0.538831 0.353263 0.151598 0.057535 0.264993 0.461521 0.638153 0.786652 0.899889 0.972222 0.999793 0.980767 0.915475 0.806460 0.658419 0.478031 0.273688 0.055134 0.166996 0.381671 0.578025 0.745902 0.876407 0.962397 0.998901 0.983445 0.916245 0.800271 0.641159 0.446984 0.227874 0.004484 0.237450 0.458117 0.654021 0.813871 0.928204 0.989994 0.995109 0.942636 0.835007 0.677952 0.480237 0.253207 0.010186 0.234304 0.465388 0.668745 0.831523 0.943173 0.996160 0.986531 0.914247 0.783276 0.601449 0.380033 0.133073 0.123460 0.372682 0.597914 0.783811 0.917416 0.989124 0.993406 0.929294 0.800553 0.615533 0.386676 0.129740 0.137254 0.395270 0.625615 0.811288 0.938295 0.996726 0.981598 0.893333 0.737848 0.526234 0.274023 0.000104 0.274667 0.529045 0.743026 0.899477 0.985524 0.993691 0.922606 0.777247 0.568674 0.313262 0.031477 0.253734 0.518798 0.741447 0.902651 0.988262 0.990348 0.907982 0.747482 0.522009 0.250565 0.043540 0.334664 0.597055 0.807135 0.945660 0.999551 0.963199 0.839133 0.637951 0.377506 0.081397 0.223111 0.507580 0.745060 0.912664 0.993842 0.980095 0.871947 0.679086 0.419588 0.118306 0.195435 0.490681 0.737873 0.911879
1.000000 1.000000 1.000000 1.000000 1.000000 1.000000 1.000000 1.000000 1.000000 1.000000 1.000000 1.000000 1.000000 1.000000 1.000000 1.000000 1.000000 1.000000 1.000000 1.000000 1.000000 1.000000 1.000000 1.000000 1.000000 1.000000 1.000000 1.000000 1.000000 1.000000 1.000000 1.000000 1.000000 1.000000 1.000000 1.000000 1.000000 1.000000 1.000000 1.000000 1.000000 1.000000 1.000000 1.000000 1.000000 1.000000 1.000000 1.000000 1.000000 1.000000 1.000000 1.000000 0.834758 0.834758 0.834758 0.834758 0.834758 0.834758 0.834758 0.818910 0.818910 0.818910 0.818910 0.818910 0.818910 0.818910 0.818910 0.818910 0.818910 0.818910 0.818910 0.818910 0.818910 0.818910 0.818910 0.818910 0.818910 0.818910 0.818910 0.818910 0.818910 0.818910 0.818910 0.818910 0.818910 0.818910 0.818910 0.818910 0.818910 0.818910 0.818910 0.818910 0.818910 0.818910 0.818910 0.818910 0.818910 0.818910 0.818910 0.818910 0.818910 0.818910 0.818910 0.956290 0.956921 0.957111 0.956123 0.954609 0.950997 0.947009 0.946539 0.947845 0.948059 0.948675 0.950658 0.951545 0.953022 0.954085 0.954801 0.955541 0.963636 0.967377 0.967194 0.967064 0.958443 0.965403 0.965169 0.958506 0.959091 0.959288 0.959931 0.959866 0.959740 0.959351 0.958090 0.958670 0.958487 0.957809 0.956871 0.954828 0.954768 0.954389 0.954533 0.955452 0.955969 0.956697 0.957187 0.956438 0.956581 0.956586 0.956504 0.952116 0.952094 0.944737 0.945002 0.945930 0.945520 0.944625 0.943200 0.943275 0.943210 0.943203 0.943110 0.943505 0.932214 0.932366 0.932621 0.932694 0.928234 0.918609 0.911693 0.907033 0.908305 0.912095 0.916109 0.916448 0.912452 0.911706 0.896517 0.889218 0.872218 0.868057 0.859288 0.868875 0.868617 0.869784 0.860272 0.859390 0.857322 0.855334 0.843139 0.847910 0.846707 0.843985 0.839401 0.838218 0.833746 0.836703 0.845114 0.843622 0.833183 0.841939 0.829416 0.817006 0.815617 0.817497 0.826421 0.838407 0.837203 0.836248 0.830084 0.825551 0.818190 0.815195 0.816324 0.818049 0.816465 0.819598 0.820107 0.832770 0.822510 0.813560 0.818849 0.827996 0.830069 0.829838 0.830679 0.827294 0.829443 0.813835 0.812785 0.814905 0.787977 0.789858 0.783724 0.781488 0.775181 0.778366 0.773308 0.768398 0.756832 0.736549 0.748287 0.758283 0.723990 0.730215 0.725346 0.711615 0.673982 0.685869 0.693015 0.702698 0.699041 0.697497 0.684834 0.682232 0.690320 0.692468 0.696489 0.688733 0.680263 0.673367 0.682305 0.673053 0.668443 0.663306 0.663122 0.660725 0.655408 0.629095 0.637249 0.614320 0.597486 0.588676 0.572897 0.555672 0.546766 0.535822 0.513953 0.496043 0.509107 0.496092 0.479633 0.465596 0.447176 0.422758 0.429651 0.428345 0.428023 0.429168 0.417643 0.367392 0.373792 0.369026 0.367208 0.350669 0.347713 0.331175 0.258119 0.248580 0.215893 0.241038 0.252991 0.252856 0.237390 0.225200 0.251016 0.242949 0.251930 0.251354 0.280623 0.247363 0.198061 0.222065 0.210375 0.206199 0.197600 0.157619 0.174319 0.166611 0.177406 0.186970 0.129502 0.100091 0.081031 0.076910 0.093433 0.115709 0.127022 0.108230 0.092540 -0.009522 0.026315 0.055412 0.055412 0.055412 0.055412 0.055412 0.055412 0.055412 0.055412 0.055412 0.055412 0.055412 -0.004083 -0.004083 -0.004083 -0.004083 -0.004083 -0.004083 -0.004083 -0.004083 -0.004083 -0.004083 -0.004083 -0.004083 -0.004083 -0.004083 -0.004083 -0.004083 -0.004083 -0.004083 -0.004083
0.000000 0.000000 0.000000 0.000000 0.000000 0.000000 0.000000 0.000000 0.000000 0.000000 0.000000 0.000000 0.000000 0.000000 0.000000 0.000000 0.000000 0.000000 0.000000 0.000000 0.000000 0.000000 0.000000 0.000000 0.000000 0.000000 0.000000 0.000000 0.000000 0.000000 0.000000 0.000000 0.000000 0.000000 0.000000 0.000000 0.000000 0.000000 0.000000 0.000000 0.000000 0.000000 0.000000 0.000000 0.000000 0.000000 0.000000 0.000000 0.000000 0.000000 0.000000 0.000000 0.173422 0.173422 0.173422 0.173422 0.173422 0.173422 0.173422 0.191565 0.191565 0.191565 0.191565 0.191565 0.191565 0.191565 0.191565 0.191565 0.191565 0.191565 0.191565 0.191565 0.191565 0.191565 0.191565 0.191565 0.191565 0.191565 0.191565 0.191565 0.191565 0.191565 0.191565 0.191565 0.191565 0.191565 0.191565 0.191565 0.191565 0.191565 0.191565 0.191565 0.191565 0.191565 0.191565 0.191565 0.191565 0.191565 0.191565 0.191565 0.191565 0.191565 0.191565 0.219529 0.219529 0.219529 0.219529 0.219529 0.219529 0.219529 0.219529 0.219529 0.219529 0.219529 0.219529 0.219529 0.219529 0.219529 0.219529 0.219529 0.219529 0.219529 0.219529 0.219529 0.219529 0.219529 0.219529 0.219529 0.219529 0.219529 0.219529 0.219529 0.219529 0.219529 0.237356 0.237356 0.237356 0.237356 0.237356 0.237356 0.237356 0.237356 0.237356 0.237356 0.237356 0.237356 0.237356 0.237356 0.237356 0.237356 0.237356 0.237356 0.237356 0.237356 0.237356 0.237356 0.237356 0.237356 0.244339 0.244339 0.244339 0.244339 0.244339 0.244339 0.244339 0.244339 0.244339 0.244339 0.244339 0.244339 0.244339 0.244339 0.244339 0.244339 0.244339 0.244339 0.244339 0.244339 0.244339 0.248069 0.248069 0.248069 0.248069 0.248069 0.248069 0.248069 0.248069 0.248069 0.248069 0.248069 0.248069 0.248069 0.248069 0.248069 0.248069 0.248069 0.248069 0.248069 0.248069 0.248069 0.248069 0.248069 0.248069 0.248069 0.248069 0.248069 0.248069 0.248069 0.248069 0.248069 0.248069 0.248069 0.248069 0.248069 0.248069 0.248069 0.256074 0.256074 0.256074 0.256074 0.256074 0.256074 0.256074 0.256074 0.256074 0.256074 0.256074 0.256074 0.256074 0.256074 0.256074 0.256074 0.256074 0.256074 0.256074 0.256074 0.256074 0.256074 0.256074 0.256074 0.256074 0.256074 0.256074 0.256074 0.256074 0.256074 0.256074 0.256074 0.256074 0.256074 0.256074 0.256074 0.256074 0.256074 0.256074 0.256074 0.256074 0.256074 0.256074 0.256074 0.256074 0.260378 0.260378 0.260378 0.260378 0.260378 0.260378 0.260378 0.260378 0.260378 0.260378 0.260378 0.260378 0.260378 0.256074 0.256074 0.256074 0.256074 0.256074 0.256074 0.256074 0.256074 0.256074 0.256074 0.256074 0.256074 0.256074 0.260378 0.260378 0.260378 0.260378 0.260378 0.260378 0.260378 0.260378 0.260378 0.260378 0.260378 0.260378 0.251976 0.251976 0.251976 0.251976 0.251976 0.251976 0.251976 0.251976 0.251976 0.251976 0.251976 0.251976 0.256074 0.256074 0.256074 0.256074 0.256074 0.256074 0.256074 0.256074 0.256074 0.256074 0.256074 0.251976 0.251976 0.251976 0.251976 0.251976 0.251976 0.251976 0.251976 0.251976 0.251976 0.251976 0.248069 0.248069 0.248069 0.248069 0.248069 0.248069 0.248069 0.248069 0.248069 0.248069 0.248069 0.256074 0.256074 0.256074 0.256074 0.256074 0.256074 0.256074 0.256074 0.256074 0.256074 0.256074 0.256074 0.256074 0.256074 0.256074 0.256074 0.256074 0.256074 0.256074
