# Output from CTFFind version 4.1.9, run on 2019-11-02 17:59:20
# Input file: stack16_bm3d_averaged_1_1.75_0_50_half.mrc ; Number of micrographs: 1
# Pixel size: 3.000 Angstroms ; acceleration voltage: 300.0 keV ; spherical aberration: 0.00 mm ; amplitude contrast: 0.07
# Box size: 512 pixels ; min. res.: 30.0 Angstroms ; max. res.: 5.0 Angstroms ; min. def.: 5000.0 um; max. def. 50000.0 um; num. frames averaged: 1
# 6 lines per micrograph: #1 - spatial frequency (1/Angstroms); #2 - 1D rotational average of spectrum (assuming no astigmatism); #3 - 1D rotational average of spectrum; #4 - CTF fit; #5 - cross-correlation between spectrum and CTF fit; #6 - 2sigma of expected cross correlation of noise
0.000000 0.000651 0.001302 0.001953 0.002604 0.003255 0.003906 0.004557 0.005208 0.005859 0.006510 0.007161 0.007812 0.008464 0.009115 0.009766 0.010417 0.011068 0.011719 0.012370 0.013021 0.013672 0.014323 0.014974 0.015625 0.016276 0.016927 0.017578 0.018229 0.018880 0.019531 0.020182 0.020833 0.021484 0.022135 0.022786 0.023438 0.024089 0.024740 0.025391 0.026042 0.026693 0.027344 0.027995 0.028646 0.029297 0.029948 0.030599 0.031250 0.031901 0.032552 0.033203 0.033854 0.034505 0.035156 0.035807 0.036458 0.037109 0.037760 0.038411 0.039062 0.039714 0.040365 0.041016 0.041667 0.042318 0.042969 0.043620 0.044271 0.044922 0.045573 0.046224 0.046875 0.047526 0.048177 0.048828 0.049479 0.050130 0.050781 0.051432 0.052083 0.052734 0.053385 0.054036 0.054688 0.055339 0.055990 0.056641 0.057292 0.057943 0.058594 0.059245 0.059896 0.060547 0.061198 0.061849 0.062500 0.063151 0.063802 0.064453 0.065104 0.065755 0.066406 0.067057 0.067708 0.068359 0.069010 0.069661 0.070312 0.070964 0.071615 0.072266 0.072917 0.073568 0.074219 0.074870 0.075521 0.076172 0.076823 0.077474 0.078125 0.078776 0.079427 0.080078 0.080729 0.081380 0.082031 0.082682 0.083333 0.083984 0.084635 0.085286 0.085938 0.086589 0.087240 0.087891 0.088542 0.089193 0.089844 0.090495 0.091146 0.091797 0.092448 0.093099 0.093750 0.094401 0.095052 0.095703 0.096354 0.097005 0.097656 0.098307 0.098958 0.099609 0.100260 0.100911 0.101562 0.102214 0.102865 0.103516 0.104167 0.104818 0.105469 0.106120 0.106771 0.107422 0.108073 0.108724 0.109375 0.110026 0.110677 0.111328 0.111979 0.112630 0.113281 0.113932 0.114583 0.115234 0.115885 0.116536 0.117188 0.117839 0.118490 0.119141 0.119792 0.120443 0.121094 0.121745 0.122396 0.123047 0.123698 0.124349 0.125000 0.125651 0.126302 0.126953 0.127604 0.128255 0.128906 0.129557 0.130208 0.130859 0.131510 0.132161 0.132812 0.133464 0.134115 0.134766 0.135417 0.136068 0.136719 0.137370 0.138021 0.138672 0.139323 0.139974 0.140625 0.141276 0.141927 0.142578 0.143229 0.143880 0.144531 0.145182 0.145833 0.146484 0.147135 0.147786 0.148438 0.149089 0.149740 0.150391 0.151042 0.151693 0.152344 0.152995 0.153646 0.154297 0.154948 0.155599 0.156250 0.156901 0.157552 0.158203 0.158854 0.159505 0.160156 0.160807 0.161458 0.162109 0.162760 0.163411 0.164062 0.164714 0.165365 0.166016 0.166667 0.167318 0.167969 0.168620 0.169271 0.169922 0.170573 0.171224 0.171875 0.172526 0.173177 0.173828 0.174479 0.175130 0.175781 0.176432 0.177083 0.177734 0.178385 0.179036 0.179688 0.180339 0.180990 0.181641 0.182292 0.182943 0.183594 0.184245 0.184896 0.185547 0.186198 0.186849 0.187500 0.188151 0.188802 0.189453 0.190104 0.190755 0.191406 0.192057 0.192708 0.193359 0.194010 0.194661 0.195312 0.195964 0.196615 0.197266 0.197917 0.198568 0.199219 0.199870 0.200521 0.201172 0.201823 0.202474 0.203125 0.203776 0.204427 0.205078 0.205729 0.206380 0.207031 0.207682 0.208333 0.208984 0.209635 0.210286 0.210938 0.211589 0.212240 0.212891 0.213542 0.214193 0.214844 0.215495 0.216146 0.216797 0.217448 0.218099 0.218750 0.219401 0.220052 0.220703 0.221354 0.222005 0.222656 0.223307 0.223958 0.224609 0.225260 0.225911 0.226562 0.227214 0.227865 0.228516 0.229167 0.229818 0.230469 0.231120 0.231771 0.232422 0.233073 0.233724 0.234375 0.235026 0.235677
       0.33840        0.33840        0.33840        0.33840        0.33840        0.33840        0.33840        0.33840        0.33840        0.33840        0.33840        0.33840        0.33840        0.33840        0.33840        0.33840        0.33840        0.33840        0.33840        0.33840        0.33840        0.33840        0.33840        0.33840        0.33840        0.33840        0.33840        0.33840        0.33840        0.33840        0.33840        0.33840        0.33840        0.33840        0.33840        0.33840        0.33840        0.33840        0.33840        0.33840        0.33840        0.33840        0.33840        0.33840        0.33840        0.33840        0.33840        0.33840        0.33840        0.33840        0.33840        0.48279        0.69075        0.45344       -0.12131       -0.41609       -0.57733       -0.66969       -0.74757       -0.76574       -0.87402       -0.92263       -0.76061       -0.92835       -0.87638       -1.02915       -1.10493       -0.99158       -0.96494       -0.88577       -0.85021       -0.74853       -0.64262       -0.50195       -0.42825       -0.22486       -0.11634       -0.02428        0.19687        0.23699        0.30257        0.37246        0.42822        0.50549        0.57189        0.59506        0.58124        0.49315        0.53963        0.48093        0.39369        0.32036        0.19592        0.16383        0.08972       -0.05503       -0.11244       -0.09123        0.01399       -0.01745        0.02403        0.02229        0.19677        0.21386        0.38887        0.45102        0.55629        0.68839        0.75541        0.73247        0.69138        0.68163        0.57215        0.52489        0.39120        0.27286        0.19123        0.15217        0.06779        0.03141        0.01960        0.06107        0.07971        0.27471        0.41069        0.50350        0.58596        0.63219        0.69158        0.64992        0.64891        0.66079        0.59662        0.48093        0.28603        0.24132        0.20497        0.12114        0.03711        0.08977        0.10811        0.24577        0.34833        0.41363        0.50069        0.53905        0.64619        0.59411        0.54470        0.51253        0.35485        0.20214        0.21157        0.15341        0.12659        0.12714        0.21265        0.24879        0.34582        0.43490        0.42789        0.53261        0.49993        0.45843        0.46038        0.37297        0.32231        0.26385        0.20399        0.22382        0.21014        0.19766        0.30367        0.45062        0.47364        0.48418        0.55380        0.49347        0.44559        0.39441        0.30041        0.23067        0.23282        0.23086        0.25820        0.27983        0.32695        0.43407        0.49785        0.48878        0.45811        0.40156        0.38101        0.35338        0.24504        0.21715        0.24692        0.29166        0.35945        0.35519        0.38696        0.41928        0.43685        0.37058        0.34511        0.31188        0.31291        0.27081        0.25764        0.29342        0.34413        0.40490        0.41345        0.38672        0.38391        0.39383        0.34491        0.28654        0.29868        0.29301        0.30130        0.35350        0.37823        0.41361        0.34772        0.35752        0.38094        0.34226        0.31110        0.27967        0.28638        0.33258        0.31789        0.31920        0.35400        0.38123        0.32787        0.34952        0.30153        0.30393        0.27643        0.27872        0.29705        0.32419        0.37932        0.35728        0.34081        0.31200        0.27739        0.26725        0.29124        0.27767        0.31632        0.36076        0.39166        0.33032        0.31991        0.30188        0.30171        0.29458        0.28273        0.30779        0.33295        0.32958        0.33230        0.31021        0.34559        0.31715        0.29289        0.31183        0.31939        0.34569        0.35162        0.31513        0.30910        0.29128        0.31367        0.30139        0.32877        0.38417        0.31768        0.35287        0.30688        0.30035        0.29421        0.30634        0.29309        0.30395        0.30930        0.33265        0.34969        0.29522        0.31818        0.31709        0.29753        0.28740        0.30656        0.31952        0.35121        0.34691        0.31713        0.30216        0.27487        0.24052        0.31333        0.33843        0.32070        0.29621        0.27009        0.28799        0.32409        0.31897        0.29765        0.33943        0.32363        0.29271        0.23486        0.28072        0.28492        0.28131        0.33088        0.32269        0.34706        0.34572        0.28954        0.27628        0.29012        0.27752        0.30369        0.27233        0.26080        0.25182        0.27590        0.29141        0.30148        0.28815        0.25489        0.31712        0.31119        0.29944        0.25313        0.24676        0.22315        0.24505        0.23912        0.29128        0.36076        0.24491        0.23095        0.26962        0.22750        0.21960        0.30511        0.24778        0.14216        0.17309        0.21878        0.28807        0.23531        0.07614        0.07950       -0.44938       -0.82479
3.061226 3.023057 2.985134 2.947457 2.910025 2.872840 2.835900 2.799207 2.762759 2.726557 2.690601 2.654892 2.619427 2.584209 2.549237 2.514511 2.480031 2.445796 2.411808 2.378065 2.344569 2.311318 2.278313 2.245555 2.213042 2.180775 2.148753 2.116978 2.085449 2.054166 2.023128 1.992337 1.961791 1.931492 1.901438 1.871630 1.842068 1.812752 1.783682 1.754858 1.726280 1.697948 1.669862 1.642021 1.614427 1.587078 1.559976 1.533119 1.506508 1.480143 1.454024 1.515646 1.688236 1.615121 0.957192 0.681866 0.473806 0.422605 0.322811 0.260122 0.199499 0.012919 0.197462 0.079451 -0.014051 -0.060680 -0.206230 -0.157576 -0.090477 -0.093845 -0.089925 0.011063 0.031915 0.230747 0.148014 0.359896 0.445024 0.478717 0.709729 0.694962 0.704414 0.828367 0.814155 0.840846 0.925250 0.886374 0.930243 0.745263 0.830792 0.833494 0.628725 0.601779 0.450915 0.432544 0.366763 0.213842 0.122997 0.096323 0.212329 0.140201 0.209859 0.113633 0.294442 0.283335 0.457041 0.408195 0.580725 0.635033 0.749065 0.705247 0.657412 0.649752 0.516043 0.496270 0.350889 0.294000 0.118506 0.149168 0.006940 -0.004146 -0.040366 -0.030535 -0.002515 0.034717 0.279548 0.322261 0.390521 0.391867 0.458564 0.507041 0.473389 0.500277 0.388115 0.391450 0.152491 0.080098 0.077938 -0.010434 -0.130492 -0.044919 -0.118012 0.011995 0.138579 0.162574 0.256628 0.259637 0.376958 0.453754 0.342580 0.399344 0.281708 0.123010 0.051924 0.053545 0.029899 0.012474 0.015938 0.111843 0.118502 0.265972 0.235380 0.295877 0.344918 0.254795 0.255770 0.223664 0.129829 0.086445 0.036843 0.029130 0.037357 -0.013075 0.020098 0.181830 0.221789 0.248044 0.294035 0.229876 0.243516 0.142620 0.118192 -0.011129 -0.008386 -0.008563 0.010694 0.015564 0.033887 0.102982 0.193498 0.202802 0.228703 0.128119 0.136033 0.076229 0.060968 -0.067281 -0.018864 0.005875 0.057733 0.067433 0.068148 0.153833 0.099163 0.159524 0.061823 0.049189 0.044227 0.031346 0.007584 -0.001447 0.034567 0.085419 0.118623 0.131065 0.064831 0.113128 0.089775 0.007148 0.011262 0.011842 0.001591 0.039712 0.060829 0.104995 0.092562 0.048178 0.072849 0.072968 0.035858 0.013312 -0.015669 0.002836 0.058051 0.014922 0.035495 0.057060 0.085570 0.061562 0.036694 0.021206 0.014021 -0.009799 -0.003871 0.010514 0.053816 0.101531 0.064021 0.055740 0.024308 -0.012940 -0.008357 0.019789 0.012239 0.034557 0.099080 0.079115 0.010583 0.051790 -0.000445 0.035228 -0.003526 0.005656 0.032496 0.052857 0.029637 0.039973 0.023410 0.050018 0.017338 0.001682 0.025302 0.033874 0.054561 0.040503 0.034808 -0.003654 -0.015175 0.022404 0.001860 0.047199 0.071593 0.028104 0.019149 -0.002626 -0.003985 -0.014443 0.008780 -0.002283 0.003090 -0.013407 0.049268 0.028811 0.010085 0.035291 -0.013320 0.004977 -0.012153 -0.000266 0.028816 0.062826 0.045858 0.019992 0.011571 -0.030430 -0.032288 0.011070 0.044702 0.029803 0.025220 -0.029299 -0.007383 0.036820 0.045456 0.002499 0.053793 0.039306 0.014692 -0.048565 0.002167 0.026796 -0.003641 0.040716 0.061232 0.075551 0.059360 0.020795 0.009403 0.009205 0.004441 0.048263 -0.035531 -0.008978 -0.040868 -0.024414 -0.000173 -0.000032 0.017063 -0.091751 0.009562 -0.013441 -0.024954 -0.074951 -0.044540 -0.112706 -0.043227 -0.077405 -0.017580 0.071553 -0.096797 -0.063068 0.021463 -0.026187 -0.078757 0.046176 0.021286 -0.052157 -0.050020 0.014954 0.251946 0.222957 -0.014258 0.073797 -0.724994
0.072396 0.073046 0.074995 0.078244 0.082790 0.088633 0.095770 0.104198 0.113914 0.124912 0.137185 0.150726 0.165524 0.181567 0.198839 0.217321 0.236992 0.257826 0.279792 0.302855 0.326973 0.352101 0.378184 0.405161 0.432966 0.461521 0.490741 0.520533 0.550792 0.581405 0.612246 0.643182 0.674064 0.704736 0.735028 0.764760 0.793739 0.821763 0.848619 0.874081 0.897919 0.919889 0.939744 0.957228 0.972084 0.984049 0.992862 0.998263 0.999996 0.997813 0.991476 0.980761 0.965462 0.945391 0.920387 0.890319 0.855087 0.814628 0.768922 0.717995 0.661919 0.600825 0.534897 0.464382 0.389587 0.310888 0.228725 0.143607 0.056110 0.033124 0.123387 0.213912 0.303874 0.392399 0.478568 0.561429 0.640004 0.713301 0.780332 0.840116 0.891706 0.934199 0.966755 0.988612 0.999108 0.997697 0.983969 0.957663 0.918687 0.867129 0.803275 0.727612 0.640839 0.543873 0.437841 0.324085 0.204143 0.079745 0.047214 0.174695 0.300546 0.422531 0.538378 0.645814 0.742617 0.826664 0.895984 0.948805 0.983615 0.999205 0.994718 0.969692 0.924094 0.858353 0.773368 0.670528 0.551700 0.419214 0.275830 0.124698 0.030704 0.186642 0.339215 0.484441 0.618372 0.737200 0.837378 0.915731 0.969573 0.996813 0.996050 0.966653 0.908821 0.823626 0.713021 0.579829 0.427690 0.260991 0.084757 0.095489 0.273886 0.444423 0.601144 0.738362 0.850874 0.934182 0.984688 0.999877 0.978463 0.920498 0.827435 0.702136 0.548826 0.372983 0.181175 0.019163 0.219997 0.413014 0.589964 0.743021 0.865141 0.950424 0.994415 0.994384 0.949516 0.861040 0.732258 0.568475 0.376823 0.166003 0.054091 0.272809 0.479258 0.662844 0.813832 0.923890 0.986589 0.997819 0.956110 0.862810 0.722132 0.541022 0.328884 0.097135 0.141374 0.373046 0.584312 0.762442 0.896333 0.977250 0.999448 0.960640 0.862269 0.709557 0.511302 0.279456 0.028447 0.225665 0.466215 0.677011 0.843454 0.953599 0.999066 0.975751 0.884270 0.730070 0.523213 0.277802 0.011093 0.257684 0.508674 0.722885 0.883646 0.977974 0.997692 0.940228 0.809007 0.613369 0.368015 0.091993 0.192714 0.462916 0.696093 0.872308 0.975978 0.997341 0.933475 0.788773 0.574778 0.309392 0.015469 0.281079 0.553539 0.776821 0.929811 0.997459 0.972373 0.855743 0.657485 0.395546 0.094406 0.217129 0.508633 0.751030 0.919556 0.996371 0.972580 0.849395 0.638307 0.360172 0.043290 0.279379 0.573607 0.807533 0.955195 0.999514 0.934426 0.765857 0.511387 0.198593 0.137819 0.459777 0.730142 0.917049 0.997771 0.961630 0.811601 0.564301 0.248354 0.098769 0.435093 0.719206 0.915390 0.998248 0.956154 0.793076 0.528485 0.195217 0.164409 0.503893 0.778544 0.951443 0.998545 0.912231 0.702739 0.397217 0.036412 0.330608 0.653058 0.885509 0.994395 0.963061 0.794550 0.511628 0.153975 0.227197 0.576383 0.841846 0.983411 0.978733 0.827077 0.549925 0.188231 0.203428 0.564954 0.839956 0.984645 0.975025 0.811140 0.517618 0.140261 0.260866 0.620882 0.880593 0.996379 0.947737 0.741237 0.409997 0.008686 0.395290 0.733025 0.945923 0.996076 0.873283 0.597448 0.215716 0.205292 0.590970 0.871894 0.996504 0.940816 0.713393 0.354438 0.070938 0.484345 0.808462 0.981616 0.969776 0.773588 0.428969 0.000915 0.428494 0.775730 0.972145 0.977809 0.789982 0.444418 0.008963 0.429460 0.782118 0.976489 0.971457 0.766401 0.402127 0.046822 0.487149 0.826077 0.991023 0.945459 0.697427 0.298674 0.165732 0.595275
1.000000 1.000000 1.000000 1.000000 1.000000 1.000000 1.000000 1.000000 1.000000 1.000000 1.000000 1.000000 1.000000 1.000000 1.000000 1.000000 1.000000 1.000000 1.000000 1.000000 1.000000 1.000000 1.000000 1.000000 1.000000 1.000000 1.000000 1.000000 1.000000 1.000000 1.000000 1.000000 1.000000 1.000000 1.000000 1.000000 1.000000 1.000000 1.000000 1.000000 1.000000 1.000000 1.000000 1.000000 1.000000 1.000000 1.000000 1.000000 1.000000 1.000000 1.000000 1.000000 0.938910 0.938910 0.938910 0.938910 0.938910 0.938910 0.938910 0.938910 0.938910 0.938910 0.938910 0.938910 0.938910 0.938910 0.938910 0.938910 0.938910 0.938910 0.938910 0.938910 0.938910 0.938910 0.938910 0.938910 0.938910 0.938910 0.938910 0.938910 0.938910 0.938910 0.938910 0.938910 0.938910 0.931841 0.933156 0.935778 0.936721 0.936700 0.936319 0.936069 0.936291 0.937920 0.940082 0.956592 0.958523 0.958962 0.960159 0.958946 0.961985 0.960570 0.960741 0.971483 0.970491 0.971003 0.964107 0.965460 0.964629 0.963748 0.964637 0.964721 0.962978 0.961074 0.959490 0.958945 0.958620 0.960282 0.960672 0.960367 0.960848 0.960694 0.960437 0.957150 0.955641 0.957007 0.958797 0.958114 0.964004 0.962467 0.964422 0.964323 0.962981 0.962868 0.963077 0.963278 0.958534 0.955722 0.952690 0.942383 0.934871 0.931422 0.933905 0.935322 0.933656 0.927693 0.926812 0.924988 0.921080 0.920305 0.918341 0.919323 0.912248 0.908495 0.892172 0.891313 0.894678 0.895649 0.893337 0.884380 0.879218 0.879969 0.882796 0.880804 0.877577 0.893669 0.887064 0.891285 0.894174 0.896913 0.900825 0.895810 0.892745 0.888752 0.885272 0.878484 0.879677 0.874786 0.877448 0.871404 0.862775 0.856483 0.858382 0.864320 0.872030 0.879184 0.878189 0.878800 0.878069 0.866767 0.869053 0.853982 0.854470 0.858168 0.863455 0.862210 0.860321 0.863959 0.862203 0.858613 0.862486 0.860375 0.857782 0.848890 0.849761 0.850272 0.865982 0.866696 0.852600 0.837972 0.828090 0.832807 0.837104 0.836425 0.837198 0.829484 0.831430 0.824790 0.809487 0.811697 0.817676 0.814037 0.815914 0.815277 0.820864 0.825373 0.823773 0.822415 0.821101 0.827339 0.790096 0.798782 0.799158 0.788659 0.794324 0.790226 0.782810 0.780123 0.777149 0.762890 0.771876 0.763267 0.738515 0.747915 0.755118 0.744790 0.732915 0.732991 0.733156 0.723055 0.722063 0.694676 0.690436 0.676565 0.678060 0.676137 0.662485 0.656009 0.645053 0.596868 0.606610 0.613158 0.582003 0.588978 0.582192 0.576989 0.572733 0.556359 0.558470 0.558995 0.562542 0.541713 0.531430 0.539929 0.510759 0.506128 0.507376 0.503036 0.494371 0.498451 0.479751 0.508173 0.538389 0.485797 0.463177 0.483946 0.500041 0.509645 0.512835 0.499416 0.475042 0.504873 0.480892 0.472817 0.480770 0.478727 0.460497 0.468282 0.462847 0.496091 0.480592 0.451185 0.469583 0.451995 0.450810 0.466847 0.463399 0.466511 0.466360 0.462936 0.410930 0.425905 0.416632 0.378602 0.408907 0.427844 0.416727 0.406075 0.368467 0.371374 0.335086 0.323498 0.297503 0.294834 0.245305 0.208895 0.214541 0.207830 0.183081 0.149598 0.154637 0.116909 0.110055 0.135870 0.133863 0.109314 0.126887 0.151169 0.151169 0.151169 0.151169 0.151169 0.151169 0.151169 0.151169 0.151169 0.151169 0.151169 0.151169 0.151169 0.151169 0.173432 0.173432 0.173432 0.173432 0.173432 0.173432 0.173432 0.173432 0.173432 0.173432 0.173432 0.173432
0.000000 0.000000 0.000000 0.000000 0.000000 0.000000 0.000000 0.000000 0.000000 0.000000 0.000000 0.000000 0.000000 0.000000 0.000000 0.000000 0.000000 0.000000 0.000000 0.000000 0.000000 0.000000 0.000000 0.000000 0.000000 0.000000 0.000000 0.000000 0.000000 0.000000 0.000000 0.000000 0.000000 0.000000 0.000000 0.000000 0.000000 0.000000 0.000000 0.000000 0.000000 0.000000 0.000000 0.000000 0.000000 0.000000 0.000000 0.000000 0.000000 0.000000 0.000000 0.000000 0.209657 0.209657 0.209657 0.209657 0.209657 0.209657 0.209657 0.209657 0.209657 0.209657 0.209657 0.209657 0.209657 0.209657 0.209657 0.209657 0.209657 0.209657 0.209657 0.209657 0.209657 0.209657 0.209657 0.209657 0.209657 0.209657 0.209657 0.209657 0.209657 0.209657 0.209657 0.209657 0.209657 0.244339 0.244339 0.244339 0.244339 0.244339 0.244339 0.244339 0.244339 0.244339 0.244339 0.244339 0.244339 0.244339 0.244339 0.244339 0.244339 0.244339 0.244339 0.244339 0.244339 0.244339 0.244339 0.244339 0.244339 0.244339 0.260378 0.260378 0.260378 0.260378 0.260378 0.260378 0.260378 0.260378 0.260378 0.260378 0.260378 0.260378 0.260378 0.260378 0.260378 0.260378 0.260378 0.260378 0.260378 0.260378 0.269680 0.269680 0.269680 0.269680 0.269680 0.269680 0.269680 0.269680 0.269680 0.269680 0.269680 0.269680 0.269680 0.269680 0.269680 0.269680 0.269680 0.269680 0.269680 0.269680 0.269680 0.269680 0.269680 0.269680 0.269680 0.269680 0.269680 0.269680 0.269680 0.269680 0.269680 0.269680 0.269680 0.280056 0.280056 0.280056 0.280056 0.280056 0.280056 0.280056 0.280056 0.280056 0.280056 0.280056 0.280056 0.280056 0.280056 0.280056 0.280056 0.280056 0.280056 0.280056 0.280056 0.280056 0.280056 0.280056 0.280056 0.280056 0.280056 0.280056 0.274721 0.274721 0.274721 0.274721 0.274721 0.274721 0.274721 0.274721 0.274721 0.274721 0.274721 0.274721 0.274721 0.285714 0.285714 0.285714 0.285714 0.285714 0.285714 0.285714 0.285714 0.285714 0.285714 0.285714 0.280056 0.280056 0.280056 0.280056 0.280056 0.280056 0.280056 0.280056 0.280056 0.280056 0.280056 0.274721 0.274721 0.274721 0.274721 0.274721 0.274721 0.274721 0.274721 0.274721 0.274721 0.274721 0.280056 0.280056 0.280056 0.280056 0.280056 0.280056 0.280056 0.280056 0.280056 0.280056 0.285714 0.285714 0.285714 0.285714 0.285714 0.285714 0.285714 0.285714 0.285714 0.269680 0.269680 0.269680 0.269680 0.269680 0.269680 0.269680 0.269680 0.269680 0.269680 0.274721 0.274721 0.274721 0.274721 0.274721 0.274721 0.274721 0.274721 0.274721 0.285714 0.285714 0.285714 0.285714 0.285714 0.285714 0.285714 0.285714 0.264906 0.264906 0.264906 0.264906 0.264906 0.264906 0.264906 0.264906 0.264906 0.274721 0.274721 0.274721 0.274721 0.274721 0.274721 0.274721 0.274721 0.269680 0.269680 0.269680 0.269680 0.269680 0.269680 0.269680 0.269680 0.269680 0.269680 0.269680 0.269680 0.269680 0.269680 0.269680 0.269680 0.280056 0.280056 0.280056 0.280056 0.280056 0.280056 0.280056 0.260378 0.260378 0.260378 0.260378 0.260378 0.260378 0.260378 0.260378 0.269680 0.269680 0.269680 0.269680 0.269680 0.269680 0.269680 0.264906 0.264906 0.264906 0.264906 0.264906 0.264906 0.264906 0.264906 0.264906 0.264906 0.264906 0.264906 0.264906 0.264906 0.260378 0.260378 0.260378 0.260378 0.260378 0.260378 0.260378 0.260378 0.260378 0.260378 0.260378 0.260378
