# Output from CTFFind version 4.1.9, run on 2019-11-02 17:58:41
# Input file: stack6_bm3d_averaged_1_1.75_0_2500_half.mrc ; Number of micrographs: 1
# Pixel size: 3.000 Angstroms ; acceleration voltage: 300.0 keV ; spherical aberration: 0.00 mm ; amplitude contrast: 0.07
# Box size: 512 pixels ; min. res.: 30.0 Angstroms ; max. res.: 5.0 Angstroms ; min. def.: 5000.0 um; max. def. 50000.0 um; num. frames averaged: 1
# 6 lines per micrograph: #1 - spatial frequency (1/Angstroms); #2 - 1D rotational average of spectrum (assuming no astigmatism); #3 - 1D rotational average of spectrum; #4 - CTF fit; #5 - cross-correlation between spectrum and CTF fit; #6 - 2sigma of expected cross correlation of noise
0.000000 0.000651 0.001302 0.001953 0.002604 0.003255 0.003906 0.004557 0.005208 0.005859 0.006510 0.007161 0.007812 0.008464 0.009115 0.009766 0.010417 0.011068 0.011719 0.012370 0.013021 0.013672 0.014323 0.014974 0.015625 0.016276 0.016927 0.017578 0.018229 0.018880 0.019531 0.020182 0.020833 0.021484 0.022135 0.022786 0.023438 0.024089 0.024740 0.025391 0.026042 0.026693 0.027344 0.027995 0.028646 0.029297 0.029948 0.030599 0.031250 0.031901 0.032552 0.033203 0.033854 0.034505 0.035156 0.035807 0.036458 0.037109 0.037760 0.038411 0.039062 0.039714 0.040365 0.041016 0.041667 0.042318 0.042969 0.043620 0.044271 0.044922 0.045573 0.046224 0.046875 0.047526 0.048177 0.048828 0.049479 0.050130 0.050781 0.051432 0.052083 0.052734 0.053385 0.054036 0.054688 0.055339 0.055990 0.056641 0.057292 0.057943 0.058594 0.059245 0.059896 0.060547 0.061198 0.061849 0.062500 0.063151 0.063802 0.064453 0.065104 0.065755 0.066406 0.067057 0.067708 0.068359 0.069010 0.069661 0.070312 0.070964 0.071615 0.072266 0.072917 0.073568 0.074219 0.074870 0.075521 0.076172 0.076823 0.077474 0.078125 0.078776 0.079427 0.080078 0.080729 0.081380 0.082031 0.082682 0.083333 0.083984 0.084635 0.085286 0.085938 0.086589 0.087240 0.087891 0.088542 0.089193 0.089844 0.090495 0.091146 0.091797 0.092448 0.093099 0.093750 0.094401 0.095052 0.095703 0.096354 0.097005 0.097656 0.098307 0.098958 0.099609 0.100260 0.100911 0.101562 0.102214 0.102865 0.103516 0.104167 0.104818 0.105469 0.106120 0.106771 0.107422 0.108073 0.108724 0.109375 0.110026 0.110677 0.111328 0.111979 0.112630 0.113281 0.113932 0.114583 0.115234 0.115885 0.116536 0.117188 0.117839 0.118490 0.119141 0.119792 0.120443 0.121094 0.121745 0.122396 0.123047 0.123698 0.124349 0.125000 0.125651 0.126302 0.126953 0.127604 0.128255 0.128906 0.129557 0.130208 0.130859 0.131510 0.132161 0.132812 0.133464 0.134115 0.134766 0.135417 0.136068 0.136719 0.137370 0.138021 0.138672 0.139323 0.139974 0.140625 0.141276 0.141927 0.142578 0.143229 0.143880 0.144531 0.145182 0.145833 0.146484 0.147135 0.147786 0.148438 0.149089 0.149740 0.150391 0.151042 0.151693 0.152344 0.152995 0.153646 0.154297 0.154948 0.155599 0.156250 0.156901 0.157552 0.158203 0.158854 0.159505 0.160156 0.160807 0.161458 0.162109 0.162760 0.163411 0.164062 0.164714 0.165365 0.166016 0.166667 0.167318 0.167969 0.168620 0.169271 0.169922 0.170573 0.171224 0.171875 0.172526 0.173177 0.173828 0.174479 0.175130 0.175781 0.176432 0.177083 0.177734 0.178385 0.179036 0.179688 0.180339 0.180990 0.181641 0.182292 0.182943 0.183594 0.184245 0.184896 0.185547 0.186198 0.186849 0.187500 0.188151 0.188802 0.189453 0.190104 0.190755 0.191406 0.192057 0.192708 0.193359 0.194010 0.194661 0.195312 0.195964 0.196615 0.197266 0.197917 0.198568 0.199219 0.199870 0.200521 0.201172 0.201823 0.202474 0.203125 0.203776 0.204427 0.205078 0.205729 0.206380 0.207031 0.207682 0.208333 0.208984 0.209635 0.210286 0.210938 0.211589 0.212240 0.212891 0.213542 0.214193 0.214844 0.215495 0.216146 0.216797 0.217448 0.218099 0.218750 0.219401 0.220052 0.220703 0.221354 0.222005 0.222656 0.223307 0.223958 0.224609 0.225260 0.225911 0.226562 0.227214 0.227865 0.228516 0.229167 0.229818 0.230469 0.231120 0.231771 0.232422 0.233073 0.233724 0.234375 0.235026 0.235677
       0.30701        0.30701        0.30701        0.30701        0.30701        0.30701        0.30701        0.30701        0.30701        0.30701        0.30701        0.30701        0.30701        0.30701        0.30701        0.30701        0.30701        0.30701        0.30701        0.30701        0.30701        0.30701        0.30701        0.30701        0.30701        0.30701        0.30701        0.30701        0.30701        0.30701        0.30701        0.30701        0.30701        0.30701        0.30701        0.30701        0.30701        0.30701        0.30701        0.30701        0.30701        0.30701        0.30701        0.30701        0.30701        0.30701        0.30701        0.30701        0.30701        0.30701        0.30701        0.63118        0.80484        0.40629        0.30128        0.18244       -0.10906        0.11203       -0.00029        0.03104        0.11246        0.33812        0.42080        0.39656        0.21942       -0.01536        0.04268        0.07168       -0.17297       -0.17995       -0.09078       -0.11316       -0.30029       -0.19106       -0.30992       -0.26482       -0.28645       -0.41054       -0.47673       -0.47243       -0.41981       -0.34706       -0.43379       -0.36352       -0.41561       -0.35591       -0.27655       -0.20443       -0.19813       -0.13132       -0.08388        0.03834        0.07891        0.25003        0.29048        0.37466        0.39991        0.51138        0.58225        0.60639        0.73327        0.69028        0.73651        0.64688        0.65904        0.69049        0.63042        0.61615        0.60699        0.42948        0.38774        0.35124        0.32861        0.22398        0.13378        0.06203        0.04997       -0.00208       -0.08031       -0.02888       -0.03549       -0.07370        0.06605        0.16333        0.25515        0.31093        0.33057        0.42043        0.53081        0.57565        0.52658        0.66794        0.55674        0.52840        0.60064        0.62140        0.52533        0.46367        0.39922        0.37727        0.24452        0.20129        0.12770        0.11585        0.05863        0.05715        0.09666        0.14697        0.14829        0.17195        0.22130        0.23876        0.32711        0.44236        0.48237        0.48995        0.51904        0.57533        0.57114        0.52403        0.41033        0.38420        0.36034        0.26476        0.24034        0.21489        0.20069        0.19309        0.17383        0.15861        0.12493        0.18364        0.23696        0.33733        0.37595        0.40347        0.45913        0.53259        0.46539        0.48250        0.42663        0.40654        0.38131        0.36405        0.28329        0.24983        0.20102        0.23492        0.21901        0.19708        0.20987        0.21116        0.24194        0.30957        0.39535        0.38452        0.37528        0.39376        0.44923        0.46734        0.43494        0.35653        0.31611        0.28077        0.26720        0.25111        0.21425        0.27912        0.29524        0.29577        0.30986        0.29872        0.32430        0.37295        0.36491        0.36542        0.34997        0.31449        0.32894        0.32024        0.29419        0.28531        0.26483        0.21691        0.26458        0.27112        0.29669        0.31169        0.33491        0.36367        0.32137        0.30375        0.35101        0.35936        0.25858        0.28901        0.30103        0.23579        0.21390        0.26757        0.26516        0.27197        0.29795        0.29785        0.32841        0.33219        0.35013        0.31889        0.32279        0.30572        0.28981        0.26149        0.23504        0.24887        0.25538        0.27423        0.29682        0.28864        0.28101        0.31819        0.33919        0.27194        0.30454        0.26903        0.25538        0.25248        0.24444        0.24755        0.26228        0.31196        0.27703        0.31238        0.29274        0.27220        0.30330        0.28777        0.32461        0.31491        0.29932        0.25022        0.24790        0.26117        0.26304        0.31426        0.30718        0.32929        0.32282        0.30591        0.26896        0.30097        0.22586        0.18488        0.26191        0.28220        0.26160        0.27586        0.30563        0.28938        0.35431        0.29324        0.24326        0.20699        0.23475        0.28694        0.28945        0.29737        0.26908        0.27520        0.25848        0.30481        0.27136        0.24711        0.26937        0.24316        0.29169        0.25259        0.27726        0.31965        0.28687        0.20717        0.24671        0.28743        0.30910        0.24036        0.26084        0.24762        0.28908        0.28466        0.36951        0.29005        0.26298        0.27681        0.24743        0.20891        0.18480        0.23664        0.20761        0.19116        0.16879        0.20676        0.25627        0.21733        0.24530        0.19103        0.22291        0.20058        0.21193        0.18472        0.17518        0.19966        0.22899        0.15714        0.07271        0.20572        0.17546        0.11939        0.22330        0.12820        0.18428        0.18491       -0.13038       -0.49714       -0.81040
2.884878 2.856375 2.828019 2.799809 2.771747 2.743832 2.716063 2.688441 2.660967 2.633639 2.606458 2.579424 2.552537 2.525798 2.499204 2.472758 2.446459 2.420307 2.394302 2.368443 2.342732 2.317168 2.291750 2.266479 2.241356 2.216379 2.191549 2.166867 2.142331 2.117942 2.093700 2.069604 2.045656 2.021855 1.998201 1.974694 1.951333 1.928120 1.905053 1.882134 1.859361 1.836735 1.814257 1.791925 1.769740 1.747702 1.725811 1.704067 1.682470 1.661020 1.639716 1.941978 2.281154 1.704148 1.746145 1.392345 0.947732 1.215517 1.043871 1.090554 1.035803 1.516515 1.527604 1.555786 1.283487 0.956067 0.829255 1.027045 0.726639 0.495616 0.597196 0.685762 0.421225 0.494192 0.328564 0.360001 0.257362 0.164935 -0.039766 0.013823 0.039886 0.073373 0.050590 0.096767 -0.044232 0.026424 0.109467 0.229095 0.282332 0.223374 0.340944 0.566937 0.444008 0.733223 0.824038 0.894343 0.909596 1.128155 1.138973 1.184322 1.334415 1.226399 1.382165 1.196515 1.113730 1.319197 1.131664 1.065358 1.137590 0.890473 0.731066 0.676300 0.671856 0.479372 0.399063 0.277171 0.211893 0.099346 -0.014207 0.098269 0.018704 -0.066835 0.114363 0.262259 0.311546 0.462419 0.476330 0.550965 0.707802 0.801622 0.643703 0.953501 0.800087 0.646116 0.772701 0.776495 0.704865 0.645007 0.443278 0.504774 0.284083 0.178300 0.130247 0.000897 -0.012650 -0.105420 -0.018862 -0.008785 0.084452 -0.055724 0.247198 0.110579 0.197068 0.370482 0.416572 0.523376 0.424087 0.559726 0.671370 0.505374 0.384587 0.324149 0.316407 0.142426 0.120395 0.020443 0.089150 0.007195 -0.001903 -0.038317 -0.114824 -0.023877 0.005709 0.096483 0.281388 0.209608 0.341897 0.371743 0.444853 0.381590 0.418434 0.344305 0.224439 0.316549 0.165740 0.159628 0.003181 0.061591 0.069663 -0.011399 0.002295 -0.000742 0.057582 0.085098 0.235963 0.290758 0.234265 0.230939 0.362828 0.365502 0.360277 0.255163 0.167369 0.151063 0.087547 0.082364 0.028564 0.021158 0.137153 0.053347 0.187953 0.084827 0.119659 0.211676 0.216882 0.218707 0.190934 0.191751 0.112550 0.168642 0.119682 0.096548 0.117126 -0.017798 0.029066 0.079577 0.049399 0.143798 0.103733 0.206873 0.187580 0.125805 0.120120 0.210883 0.126857 0.062149 0.097044 0.057014 0.000078 -0.005159 0.065431 0.064936 0.040885 0.116727 0.104082 0.128404 0.150202 0.164000 0.142372 0.098664 0.107624 0.092107 0.012488 0.009455 0.038311 0.011923 0.072608 0.112032 0.079231 0.039395 0.125745 0.126268 0.017970 0.118837 0.025299 0.015798 0.011185 -0.003223 -0.009525 0.074786 0.083160 0.015353 0.107811 0.066509 0.018420 0.106573 0.047180 0.087621 0.105223 0.027279 -0.002990 -0.022139 0.036567 0.008575 0.073704 0.081958 0.096785 0.074544 0.121856 0.001673 0.083438 -0.097167 -0.052151 0.002990 0.039025 0.016762 0.006094 0.091004 0.052171 0.103517 -0.039321 -0.046752 -0.111969 -0.087453 0.074558 -0.001622 0.035495 -0.023904 -0.023603 -0.031223 0.065289 -0.037989 -0.037025 -0.012295 -0.094322 0.036852 -0.037717 0.011728 0.056115 -0.008241 -0.097682 0.002431 0.044350 0.021796 -0.046268 0.002491 -0.052657 0.100459 0.067441 0.165793 0.043652 0.000703 0.050507 0.055156 -0.063730 -0.017947 0.050594 -0.005036 -0.044934 -0.047889 0.000311 0.126493 -0.029724 0.136897 0.006896 0.099072 -0.024728 0.116164 -0.031152 0.027387 0.000147 0.128526 0.040752 0.028360 0.290520 0.242916 0.172752 0.364241 0.203816 0.223551 0.306302 -0.180221 -1.139531
0.072396 0.072835 0.074150 0.076342 0.079410 0.083353 0.088171 0.093862 0.100425 0.107858 0.116157 0.125322 0.135346 0.146227 0.157958 0.170534 0.183946 0.198185 0.213242 0.229105 0.245759 0.263189 0.281378 0.300304 0.319947 0.340280 0.361274 0.382900 0.405121 0.427901 0.451197 0.474963 0.499150 0.523703 0.548564 0.573669 0.598951 0.624337 0.649748 0.675102 0.700310 0.725279 0.749911 0.774101 0.797741 0.820717 0.842910 0.864197 0.884450 0.903539 0.921326 0.937675 0.952444 0.965490 0.976668 0.985833 0.992841 0.997547 0.999810 0.999490 0.996453 0.990570 0.981717 0.969781 0.954656 0.936247 0.914473 0.889265 0.860571 0.828354 0.792597 0.753305 0.710500 0.664232 0.614572 0.561619 0.505500 0.446367 0.384404 0.319824 0.252871 0.183818 0.112972 0.040667 0.032731 0.106826 0.181196 0.255394 0.328945 0.401356 0.472113 0.540688 0.606542 0.669125 0.727888 0.782284 0.831770 0.875820 0.913927 0.945608 0.970414 0.987935 0.997806 0.999715 0.993410 0.978705 0.955485 0.923713 0.883436 0.834790 0.778000 0.713390 0.641377 0.562478 0.477308 0.386578 0.291093 0.191746 0.089513 0.014553 0.119335 0.223658 0.326303 0.426024 0.521559 0.611646 0.695044 0.770549 0.837013 0.893365 0.938631 0.971948 0.992591 0.999986 0.993727 0.973593 0.939559 0.891809 0.830740 0.756971 0.671339 0.574902 0.468928 0.354882 0.234419 0.109355 0.018351 0.146626 0.273318 0.396227 0.513147 0.621901 0.720394 0.806643 0.878832 0.935350 0.974832 0.996198 0.998687 0.981891 0.945772 0.890685 0.817384 0.727028 0.621167 0.501733 0.371005 0.231580 0.086325 0.061675 0.209185 0.352880 0.489427 0.615560 0.728165 0.824356 0.901562 0.957598 0.990741 0.999785 0.984099 0.943662 0.879090 0.791643 0.683216 0.556313 0.414003 0.259857 0.097865 0.067659 0.232183 0.391087 0.539785 0.673867 0.789232 0.882224 0.949755 0.989422 0.999606 0.979549 0.929407 0.850281 0.744214 0.614157 0.463904 0.298000 0.121618 0.059604 0.239718 0.412678 0.572529 0.713627 0.830840 0.919753 0.976841 0.999634 0.986837 0.938416 0.855642 0.741082 0.598553 0.433008 0.250388 0.057424 0.138601 0.330122 0.509579 0.669725 0.803922 0.906433 0.972687 0.999501 0.985255 0.930009 0.835555 0.705385 0.544600 0.359728 0.158493 0.050509 0.258145 0.455160 0.632583 0.782140 0.896667 0.970465 0.999614 0.982206 0.918498 0.810953 0.664194 0.484833 0.281205 0.063006 0.159154 0.374254 0.571418 0.740458 0.872428 0.960119 0.998476 0.984931 0.919599 0.805350 0.647725 0.454705 0.236352 0.004300 0.228846 0.450174 0.647202 0.808581 0.924775 0.988656 0.995980 0.945704 0.840133 0.684871 0.488566 0.262473 0.019844 0.224836 0.456695 0.661378 0.825965 0.939801 0.995228 0.988140 0.918338 0.789630 0.609694 0.389659 0.143474 0.112956 0.362781 0.589287 0.777062 0.913039 0.987456 0.994609 0.933332 0.807192 0.624348 0.397082 0.141022 0.125895 0.384651 0.616514 0.804401 0.934162 0.995699 0.983804 0.898658 0.745941 0.536523 0.285760 0.012406 0.262743 0.518432 0.734579 0.893893 0.983293 0.995043 0.927487 0.785318 0.579328 0.325668 0.044640 0.240893 0.507351 0.732381 0.896758 0.986097 0.992149 0.913655 0.756594 0.533821 0.264086 0.029473 0.321291 0.585572 0.798596 0.940877 0.999012 0.967016 0.847018 0.649238 0.391198 0.096257 0.208458 0.494521 0.734853 0.906320 0.992024 0.983043 0.879443 0.690464 0.433788 0.133969 0.179844 0.476705 0.726945 0.905136
1.000000 1.000000 1.000000 1.000000 1.000000 1.000000 1.000000 1.000000 1.000000 1.000000 1.000000 1.000000 1.000000 1.000000 1.000000 1.000000 1.000000 1.000000 1.000000 1.000000 1.000000 1.000000 1.000000 1.000000 1.000000 1.000000 1.000000 1.000000 1.000000 1.000000 1.000000 1.000000 1.000000 1.000000 1.000000 1.000000 1.000000 1.000000 1.000000 1.000000 1.000000 1.000000 1.000000 1.000000 1.000000 1.000000 1.000000 1.000000 1.000000 1.000000 1.000000 1.000000 0.837087 0.837087 0.837087 0.837087 0.837087 0.837087 0.837087 0.811915 0.811915 0.811915 0.811915 0.811915 0.811915 0.811915 0.811915 0.811915 0.811915 0.811915 0.811915 0.811915 0.811915 0.811915 0.811915 0.811915 0.811915 0.811915 0.811915 0.811915 0.811915 0.811915 0.811915 0.811915 0.811915 0.811915 0.811915 0.811915 0.811915 0.811915 0.811915 0.811915 0.811915 0.811915 0.811915 0.811915 0.811915 0.811915 0.811915 0.811915 0.811915 0.811915 0.811915 0.954959 0.955669 0.948367 0.947373 0.945772 0.942282 0.938107 0.937596 0.938897 0.939130 0.939794 0.941201 0.942245 0.943901 0.944957 0.945806 0.946615 0.954586 0.958160 0.957790 0.957453 0.956161 0.962858 0.962486 0.962330 0.962872 0.963064 0.963719 0.963672 0.963553 0.963117 0.962209 0.962755 0.962607 0.961992 0.961130 0.959230 0.959244 0.958885 0.959015 0.959897 0.960592 0.961261 0.961701 0.961674 0.961782 0.961787 0.961720 0.957127 0.957115 0.950022 0.950377 0.949474 0.946759 0.945871 0.944481 0.944551 0.944472 0.944445 0.944320 0.944507 0.933133 0.933248 0.933263 0.934078 0.930706 0.921540 0.916518 0.911729 0.913033 0.916591 0.920450 0.920030 0.916007 0.915384 0.898169 0.902080 0.885651 0.881786 0.874489 0.883721 0.884885 0.886144 0.881300 0.880025 0.878607 0.875832 0.861871 0.866134 0.865697 0.862191 0.859229 0.857584 0.854468 0.856260 0.859083 0.853209 0.842862 0.839563 0.828666 0.815510 0.813887 0.816991 0.826335 0.838038 0.837370 0.836669 0.827393 0.823006 0.813972 0.808186 0.809271 0.811582 0.808263 0.812037 0.812960 0.823087 0.812282 0.813179 0.815831 0.827218 0.831688 0.832671 0.833182 0.830120 0.829309 0.796372 0.797259 0.799605 0.768944 0.768292 0.764108 0.764232 0.765316 0.764877 0.761639 0.753980 0.748279 0.734127 0.747082 0.756144 0.733188 0.738958 0.730543 0.719433 0.685281 0.685448 0.692274 0.701746 0.702544 0.711895 0.701857 0.703168 0.712959 0.715319 0.720590 0.718466 0.707382 0.704765 0.712453 0.709916 0.694079 0.687607 0.687245 0.683646 0.677698 0.659961 0.667453 0.649516 0.643127 0.632363 0.589639 0.579891 0.568814 0.558321 0.540228 0.518988 0.532691 0.524771 0.522044 0.509776 0.485705 0.440545 0.424475 0.422403 0.409072 0.419217 0.402079 0.347540 0.357039 0.346013 0.340242 0.315015 0.297656 0.279500 0.218608 0.225039 0.176502 0.200671 0.213540 0.197369 0.177329 0.168864 0.196003 0.213017 0.231199 0.229424 0.255074 0.226406 0.167580 0.191803 0.180771 0.180921 0.165047 0.128811 0.151615 0.141360 0.147716 0.153897 0.112253 0.081611 0.052684 0.054213 0.071596 0.095318 0.111423 0.096521 0.074396 -0.014805 0.019275 0.050679 0.050679 0.050679 0.050679 0.050679 0.050679 0.050679 0.050679 0.050679 0.050679 0.050679 -0.012639 -0.012639 -0.012639 -0.012639 -0.012639 -0.012639 -0.012639 -0.012639 -0.012639 -0.012639 -0.012639 -0.012639 -0.012639 -0.012639 -0.012639 -0.012639 -0.012639 -0.012639 -0.012639
0.000000 0.000000 0.000000 0.000000 0.000000 0.000000 0.000000 0.000000 0.000000 0.000000 0.000000 0.000000 0.000000 0.000000 0.000000 0.000000 0.000000 0.000000 0.000000 0.000000 0.000000 0.000000 0.000000 0.000000 0.000000 0.000000 0.000000 0.000000 0.000000 0.000000 0.000000 0.000000 0.000000 0.000000 0.000000 0.000000 0.000000 0.000000 0.000000 0.000000 0.000000 0.000000 0.000000 0.000000 0.000000 0.000000 0.000000 0.000000 0.000000 0.000000 0.000000 0.000000 0.173422 0.173422 0.173422 0.173422 0.173422 0.173422 0.173422 0.191565 0.191565 0.191565 0.191565 0.191565 0.191565 0.191565 0.191565 0.191565 0.191565 0.191565 0.191565 0.191565 0.191565 0.191565 0.191565 0.191565 0.191565 0.191565 0.191565 0.191565 0.191565 0.191565 0.191565 0.191565 0.191565 0.191565 0.191565 0.191565 0.191565 0.191565 0.191565 0.191565 0.191565 0.191565 0.191565 0.191565 0.191565 0.191565 0.191565 0.191565 0.191565 0.191565 0.191565 0.219529 0.219529 0.219529 0.219529 0.219529 0.219529 0.219529 0.219529 0.219529 0.219529 0.219529 0.219529 0.219529 0.219529 0.219529 0.219529 0.219529 0.219529 0.219529 0.219529 0.219529 0.219529 0.219529 0.219529 0.219529 0.219529 0.219529 0.219529 0.219529 0.219529 0.219529 0.237356 0.237356 0.237356 0.237356 0.237356 0.237356 0.237356 0.237356 0.237356 0.237356 0.237356 0.237356 0.237356 0.237356 0.237356 0.237356 0.237356 0.237356 0.237356 0.237356 0.237356 0.237356 0.237356 0.237356 0.244339 0.244339 0.244339 0.244339 0.244339 0.244339 0.244339 0.244339 0.244339 0.244339 0.244339 0.244339 0.244339 0.244339 0.244339 0.244339 0.244339 0.244339 0.244339 0.244339 0.244339 0.248069 0.248069 0.248069 0.248069 0.248069 0.248069 0.248069 0.248069 0.248069 0.248069 0.248069 0.248069 0.248069 0.248069 0.248069 0.248069 0.248069 0.248069 0.248069 0.248069 0.248069 0.248069 0.248069 0.248069 0.248069 0.248069 0.248069 0.248069 0.248069 0.248069 0.248069 0.248069 0.248069 0.248069 0.248069 0.248069 0.248069 0.256074 0.256074 0.256074 0.256074 0.256074 0.256074 0.256074 0.256074 0.256074 0.256074 0.256074 0.256074 0.256074 0.256074 0.256074 0.256074 0.256074 0.256074 0.256074 0.256074 0.256074 0.256074 0.256074 0.256074 0.256074 0.256074 0.256074 0.256074 0.256074 0.256074 0.256074 0.256074 0.256074 0.256074 0.256074 0.256074 0.256074 0.256074 0.256074 0.256074 0.256074 0.256074 0.256074 0.256074 0.256074 0.260378 0.260378 0.260378 0.260378 0.260378 0.260378 0.260378 0.260378 0.260378 0.260378 0.260378 0.260378 0.260378 0.256074 0.256074 0.256074 0.256074 0.256074 0.256074 0.256074 0.256074 0.256074 0.256074 0.256074 0.256074 0.256074 0.260378 0.260378 0.260378 0.260378 0.260378 0.260378 0.260378 0.260378 0.260378 0.260378 0.260378 0.260378 0.251976 0.251976 0.251976 0.251976 0.251976 0.251976 0.251976 0.251976 0.251976 0.251976 0.251976 0.251976 0.256074 0.256074 0.256074 0.256074 0.256074 0.256074 0.256074 0.256074 0.256074 0.256074 0.256074 0.251976 0.251976 0.251976 0.251976 0.251976 0.251976 0.251976 0.251976 0.251976 0.251976 0.251976 0.248069 0.248069 0.248069 0.248069 0.248069 0.248069 0.248069 0.248069 0.248069 0.248069 0.248069 0.256074 0.256074 0.256074 0.256074 0.256074 0.256074 0.256074 0.256074 0.256074 0.256074 0.256074 0.256074 0.256074 0.256074 0.256074 0.256074 0.256074 0.256074 0.256074
