# Output from CTFFind version 4.1.9, run on 2019-11-02 17:46:51
# Input file: stack11_bm3d_averaged_1_0.75_0_1250_half.mrc ; Number of micrographs: 1
# Pixel size: 3.000 Angstroms ; acceleration voltage: 300.0 keV ; spherical aberration: 0.00 mm ; amplitude contrast: 0.07
# Box size: 512 pixels ; min. res.: 30.0 Angstroms ; max. res.: 5.0 Angstroms ; min. def.: 5000.0 um; max. def. 50000.0 um; num. frames averaged: 1
# 6 lines per micrograph: #1 - spatial frequency (1/Angstroms); #2 - 1D rotational average of spectrum (assuming no astigmatism); #3 - 1D rotational average of spectrum; #4 - CTF fit; #5 - cross-correlation between spectrum and CTF fit; #6 - 2sigma of expected cross correlation of noise
0.000000 0.000651 0.001302 0.001953 0.002604 0.003255 0.003906 0.004557 0.005208 0.005859 0.006510 0.007161 0.007812 0.008464 0.009115 0.009766 0.010417 0.011068 0.011719 0.012370 0.013021 0.013672 0.014323 0.014974 0.015625 0.016276 0.016927 0.017578 0.018229 0.018880 0.019531 0.020182 0.020833 0.021484 0.022135 0.022786 0.023438 0.024089 0.024740 0.025391 0.026042 0.026693 0.027344 0.027995 0.028646 0.029297 0.029948 0.030599 0.031250 0.031901 0.032552 0.033203 0.033854 0.034505 0.035156 0.035807 0.036458 0.037109 0.037760 0.038411 0.039062 0.039714 0.040365 0.041016 0.041667 0.042318 0.042969 0.043620 0.044271 0.044922 0.045573 0.046224 0.046875 0.047526 0.048177 0.048828 0.049479 0.050130 0.050781 0.051432 0.052083 0.052734 0.053385 0.054036 0.054688 0.055339 0.055990 0.056641 0.057292 0.057943 0.058594 0.059245 0.059896 0.060547 0.061198 0.061849 0.062500 0.063151 0.063802 0.064453 0.065104 0.065755 0.066406 0.067057 0.067708 0.068359 0.069010 0.069661 0.070312 0.070964 0.071615 0.072266 0.072917 0.073568 0.074219 0.074870 0.075521 0.076172 0.076823 0.077474 0.078125 0.078776 0.079427 0.080078 0.080729 0.081380 0.082031 0.082682 0.083333 0.083984 0.084635 0.085286 0.085938 0.086589 0.087240 0.087891 0.088542 0.089193 0.089844 0.090495 0.091146 0.091797 0.092448 0.093099 0.093750 0.094401 0.095052 0.095703 0.096354 0.097005 0.097656 0.098307 0.098958 0.099609 0.100260 0.100911 0.101562 0.102214 0.102865 0.103516 0.104167 0.104818 0.105469 0.106120 0.106771 0.107422 0.108073 0.108724 0.109375 0.110026 0.110677 0.111328 0.111979 0.112630 0.113281 0.113932 0.114583 0.115234 0.115885 0.116536 0.117188 0.117839 0.118490 0.119141 0.119792 0.120443 0.121094 0.121745 0.122396 0.123047 0.123698 0.124349 0.125000 0.125651 0.126302 0.126953 0.127604 0.128255 0.128906 0.129557 0.130208 0.130859 0.131510 0.132161 0.132812 0.133464 0.134115 0.134766 0.135417 0.136068 0.136719 0.137370 0.138021 0.138672 0.139323 0.139974 0.140625 0.141276 0.141927 0.142578 0.143229 0.143880 0.144531 0.145182 0.145833 0.146484 0.147135 0.147786 0.148438 0.149089 0.149740 0.150391 0.151042 0.151693 0.152344 0.152995 0.153646 0.154297 0.154948 0.155599 0.156250 0.156901 0.157552 0.158203 0.158854 0.159505 0.160156 0.160807 0.161458 0.162109 0.162760 0.163411 0.164062 0.164714 0.165365 0.166016 0.166667 0.167318 0.167969 0.168620 0.169271 0.169922 0.170573 0.171224 0.171875 0.172526 0.173177 0.173828 0.174479 0.175130 0.175781 0.176432 0.177083 0.177734 0.178385 0.179036 0.179688 0.180339 0.180990 0.181641 0.182292 0.182943 0.183594 0.184245 0.184896 0.185547 0.186198 0.186849 0.187500 0.188151 0.188802 0.189453 0.190104 0.190755 0.191406 0.192057 0.192708 0.193359 0.194010 0.194661 0.195312 0.195964 0.196615 0.197266 0.197917 0.198568 0.199219 0.199870 0.200521 0.201172 0.201823 0.202474 0.203125 0.203776 0.204427 0.205078 0.205729 0.206380 0.207031 0.207682 0.208333 0.208984 0.209635 0.210286 0.210938 0.211589 0.212240 0.212891 0.213542 0.214193 0.214844 0.215495 0.216146 0.216797 0.217448 0.218099 0.218750 0.219401 0.220052 0.220703 0.221354 0.222005 0.222656 0.223307 0.223958 0.224609 0.225260 0.225911 0.226562 0.227214 0.227865 0.228516 0.229167 0.229818 0.230469 0.231120 0.231771 0.232422 0.233073 0.233724 0.234375 0.235026 0.235677
       0.31682        0.31682        0.31682        0.31682        0.31682        0.31682        0.31682        0.31682        0.31682        0.31682        0.31682        0.31682        0.31682        0.31682        0.31682        0.31682        0.31682        0.31682        0.31682        0.31682        0.31682        0.31682        0.31682        0.31682        0.31682        0.31682        0.31682        0.31682        0.31682        0.31682        0.31682        0.31682        0.31682        0.31682        0.31682        0.31682        0.31682        0.31682        0.31682        0.31682        0.31682        0.31682        0.31682        0.31682        0.31682        0.31682        0.31682        0.31682        0.31682        0.31682        0.31682        0.68473        0.87206        0.52254        0.08679       -0.06647       -0.42506       -0.20836       -0.29653       -0.11745       -0.07797       -0.11872       -0.06858       -0.20959       -0.23723       -0.26018       -0.32968       -0.33693       -0.49150       -0.38385       -0.46768       -0.45028       -0.42146       -0.47145       -0.54846       -0.56402       -0.58949       -0.62884       -0.58010       -0.41769       -0.37903       -0.33002       -0.31611       -0.21440       -0.20111        0.01818        0.06852        0.10246        0.22382        0.37216        0.44202        0.51618        0.55913        0.55411        0.57139        0.69927        0.81450        0.74515        0.73456        0.67380        0.58338        0.48626        0.40745        0.49275        0.37349        0.20223        0.07698        0.04593        0.00840       -0.06090       -0.04071       -0.02738       -0.07494       -0.00708       -0.02163        0.20974        0.24854        0.29195        0.43106        0.46706        0.40423        0.53398        0.63110        0.70379        0.76753        0.69112        0.65956        0.70099        0.58838        0.50675        0.41874        0.28870        0.18387        0.15686        0.10704        0.03782        0.01294       -0.00241        0.07535        0.13204        0.20311        0.28403        0.40262        0.41682        0.51308        0.60356        0.63646        0.61438        0.63097        0.55372        0.44608        0.44338        0.35080        0.22948        0.18419        0.14869        0.10525        0.11890        0.06401        0.09779        0.22127        0.26235        0.34043        0.34704        0.45292        0.51266        0.53667        0.55138        0.46932        0.42781        0.39296        0.37413        0.30713        0.25072        0.20037        0.18522        0.16048        0.19019        0.17749        0.26869        0.33246        0.36375        0.42241        0.46173        0.47911        0.44669        0.39373        0.41523        0.37517        0.29033        0.27428        0.22752        0.21275        0.19447        0.21206        0.23039        0.32926        0.37254        0.36474        0.45837        0.43989        0.43921        0.43047        0.39563        0.34407        0.32879        0.27681        0.23480        0.23592        0.26911        0.26920        0.30009        0.29989        0.34044        0.32891        0.41068        0.41763        0.37432        0.34325        0.36358        0.28022        0.28084        0.26238        0.27680        0.25933        0.27971        0.29209        0.31463        0.35271        0.35877        0.35930        0.33168        0.35125        0.28539        0.32210        0.26780        0.24914        0.28292        0.28051        0.30675        0.31457        0.33281        0.32621        0.31273        0.31657        0.28696        0.28711        0.26033        0.28128        0.26766        0.31085        0.28331        0.26277        0.30813        0.31155        0.31727        0.29088        0.29958        0.29272        0.24452        0.23825        0.22094        0.27883        0.27232        0.30865        0.31698        0.32021        0.31519        0.30326        0.27601        0.28258        0.33056        0.27343        0.26679        0.29497        0.29605        0.34052        0.33772        0.36249        0.33223        0.31305        0.28003        0.26474        0.26353        0.22692        0.26725        0.29940        0.29553        0.27706        0.29466        0.27049        0.32261        0.32889        0.25000        0.21686        0.27147        0.33794        0.27787        0.31514        0.32605        0.32775        0.29891        0.32165        0.34238        0.29800        0.29506        0.26408        0.27704        0.35280        0.35134        0.25719        0.26799        0.25447        0.28105        0.22641        0.29021        0.21984        0.25227        0.32885        0.31818        0.34371        0.29654        0.24092        0.24062        0.24283        0.24297        0.18358        0.22088        0.25830        0.29467        0.28021        0.30147        0.29276        0.28096        0.28208        0.20994        0.17879        0.18757        0.23510        0.20228        0.21900        0.23096        0.20986        0.24706        0.33184        0.29377        0.30510        0.22049        0.25771        0.23749        0.28610        0.30445        0.14761        0.21318        0.22113        0.12935        0.23050        0.10730        0.16731        0.17925        0.12240       -0.11362       -0.60946
2.587086 2.560074 2.533209 2.506491 2.479919 2.453494 2.427215 2.401082 2.375096 2.349256 2.323563 2.298016 2.272615 2.247361 2.222254 2.197292 2.172478 2.147809 2.123288 2.098912 2.074683 2.050601 2.026664 2.002875 1.979231 1.955735 1.932384 1.909180 1.886123 1.863212 1.840447 1.817829 1.795357 1.773032 1.750853 1.728820 1.706934 1.685195 1.663602 1.642155 1.620855 1.599701 1.578693 1.557832 1.537118 1.516549 1.496128 1.475853 1.455724 1.435741 1.415905 1.637749 2.043577 1.616069 1.129490 0.986989 0.425334 0.811071 0.563764 0.835605 0.773489 0.787119 0.753791 0.710254 0.562087 0.512344 0.487489 0.447051 0.205963 0.381039 0.204248 0.305781 0.240063 0.180692 0.129527 0.004797 0.043402 -0.016208 -0.054967 0.104134 0.207137 0.197970 0.154656 0.330483 0.197625 0.496912 0.573921 0.546861 0.591343 0.877535 0.807497 0.945590 0.888379 0.972755 0.940280 1.079707 1.140931 1.078124 1.124802 0.954294 0.944392 0.784628 0.652322 0.768616 0.703072 0.462320 0.306851 0.253582 0.212381 0.148293 0.089158 0.124916 0.065707 0.153176 0.051032 0.260685 0.377074 0.359054 0.479184 0.584218 0.468854 0.542539 0.699050 0.747495 0.781186 0.733648 0.731691 0.717190 0.627153 0.572335 0.429391 0.284955 0.204607 0.076219 0.131562 -0.044197 -0.027615 -0.082593 -0.038170 0.005962 0.142244 0.092381 0.302527 0.277004 0.366003 0.455764 0.523388 0.507524 0.518532 0.505508 0.332017 0.307138 0.274816 0.101021 0.046305 -0.002125 -0.036972 -0.042533 -0.094140 -0.105497 -0.018030 0.055072 0.134279 0.135641 0.226261 0.332304 0.305149 0.420040 0.391159 0.281899 0.231584 0.248669 0.207571 0.100524 0.071694 0.016473 0.002483 0.003005 -0.018395 0.057600 0.146464 0.142431 0.223165 0.251964 0.304188 0.262268 0.220117 0.189428 0.209206 0.150530 0.044936 0.046837 -0.009648 -0.010417 -0.031658 0.016293 0.015347 0.172804 0.122292 0.181017 0.236698 0.201007 0.191628 0.198179 0.136370 0.104296 0.064691 0.043696 -0.039901 0.006740 0.021600 0.052084 0.047913 0.079393 0.097395 0.119993 0.138122 0.186265 0.075949 0.096545 0.069904 0.000675 0.005833 0.008621 -0.011280 0.018699 0.002314 0.030300 0.070274 0.082652 0.116749 0.049331 0.096757 0.054431 0.010520 0.062072 -0.035654 -0.013546 0.021127 -0.001416 0.051418 0.054480 0.050317 0.052837 0.050522 0.045082 0.019457 -0.000081 0.004683 0.014170 -0.014078 0.069004 -0.016059 0.006671 0.054309 0.047133 0.032769 0.043038 0.036371 0.015808 -0.026106 -0.047332 -0.017107 0.015032 0.018001 0.057562 0.059660 0.055068 0.077665 0.059439 0.018961 0.059372 0.083616 0.018956 0.021126 0.056391 0.053141 0.099709 0.108197 0.114134 0.109928 0.062483 0.039241 0.029112 0.005584 -0.005821 0.044760 0.073988 0.041790 0.028886 0.030944 0.020889 0.084919 0.060373 -0.049043 -0.054228 0.029964 0.093202 0.007636 0.033193 0.056605 0.088823 0.022163 0.055886 0.082143 0.032666 0.040614 -0.034667 0.014419 0.111214 0.066382 -0.058905 -0.019614 -0.050639 0.018480 -0.104843 0.033637 -0.111223 -0.031874 0.051746 0.026071 0.027565 -0.044918 -0.062150 -0.088618 -0.080165 -0.067258 -0.128582 -0.098787 -0.039847 0.015612 -0.027286 0.032891 -0.019468 -0.040261 0.052507 -0.110994 -0.093376 -0.097203 -0.006277 -0.051744 -0.039547 0.000941 0.013939 0.011894 0.173963 -0.010093 0.141734 0.004655 0.264655 0.254132 0.325378 0.281608 0.112906 0.216105 0.264016 0.051789 0.254784 0.113791 0.144963 0.232151 0.124533 -0.628737
0.072396 0.072899 0.074406 0.076917 0.080433 0.084951 0.090471 0.096991 0.104509 0.113022 0.122526 0.133018 0.144493 0.156942 0.170360 0.184737 0.200061 0.216321 0.233500 0.251582 0.270547 0.290372 0.311030 0.332493 0.354727 0.377695 0.401357 0.425665 0.450569 0.476014 0.501938 0.528275 0.554951 0.581888 0.609000 0.636197 0.663379 0.690441 0.717273 0.743755 0.769761 0.795159 0.819812 0.843572 0.866290 0.887809 0.907966 0.926594 0.943523 0.958580 0.971587 0.982367 0.990741 0.996533 0.999568 0.999674 0.996686 0.990443 0.980796 0.967605 0.950741 0.930092 0.905562 0.877072 0.844567 0.808013 0.767402 0.722755 0.674121 0.621581 0.565251 0.505281 0.441860 0.375213 0.305606 0.233345 0.158774 0.082281 0.004293 0.074727 0.154275 0.233814 0.312772 0.390550 0.466524 0.540045 0.610453 0.677076 0.739239 0.796270 0.847510 0.892318 0.930084 0.960233 0.982238 0.995628 0.999996 0.995015 0.980437 0.956112 0.921988 0.878125 0.824698 0.762001 0.690457 0.610614 0.523151 0.428872 0.328710 0.223713 0.115045 0.003970 0.108155 0.219900 0.329774 0.436247 0.537771 0.632801 0.719823 0.797378 0.864088 0.918685 0.960042 0.987191 0.999359 0.995985 0.976745 0.941572 0.890667 0.824515 0.743890 0.649854 0.543755 0.427215 0.302112 0.170560 0.034874 0.102464 0.238845 0.371586 0.497977 0.615341 0.721095 0.812805 0.888253 0.945496 0.982920 0.999297 0.993833 0.966201 0.916580 0.845666 0.754685 0.645387 0.520022 0.381313 0.232405 0.076798 0.081717 0.239159 0.391440 0.534488 0.664343 0.777282 0.869931 0.939373 0.983255 0.999880 0.988280 0.948282 0.880543 0.786565 0.668685 0.530037 0.374485 0.206534 0.031208 0.146087 0.319729 0.484056 0.633550 0.763030 0.867846 0.944056 0.988591 0.999398 0.975551 0.917328 0.826245 0.705049 0.557665 0.389086 0.205232 0.012756 0.181191 0.369208 0.543940 0.698357 0.826062 0.921558 0.980516 0.999991 0.978592 0.916596 0.815999 0.680481 0.515315 0.327187 0.123949 0.085692 0.292529 0.487263 0.660917 0.805273 0.913269 0.979376 0.999907 0.973255 0.900042 0.783157 0.627687 0.440739 0.231151 0.009090 0.214412 0.427996 0.620569 0.781876 0.903076 0.977252 0.999847 0.968974 0.885611 0.753627 0.579658 0.372821 0.144276 0.093360 0.326671 0.542213 0.727292 0.870724 0.963554 0.999649 0.976150 0.893743 0.756717 0.572807 0.352805 0.109980 0.140702 0.383471 0.602747 0.784156 0.915496 0.987599 0.995027 0.936530 0.815252 0.638635 0.418030 0.168020 0.094504 0.351445 0.584768 0.777750 0.916232 0.989690 0.992099 0.922495 0.785169 0.589500 0.349374 0.082262 0.192000 0.452673 0.679680 0.855184 0.965012 0.999883 0.956254 0.836743 0.650086 0.410567 0.137014 0.148638 0.423073 0.663498 0.849555 0.965096 0.999644 0.949434 0.817892 0.615517 0.359135 0.070568 0.225145 0.501920 0.734920 0.902824 0.989828 0.987227 0.894375 0.718930 0.476336 0.188561 0.117825 0.414050 0.671854 0.866188 0.977728 0.994865 0.915026 0.745128 0.501104 0.206517 0.109636 0.415717 0.680626 0.876965 0.983953 0.989719 0.892728 0.702172 0.437229 0.125247 0.200986 0.506670 0.758675 0.929201 0.998915 0.959266 0.813651 0.577293 0.275782 0.057574 0.385386 0.670330 0.879442 0.988001 0.982570 0.862788 0.641687 0.344421 0.005545 0.334941 0.636258 0.861766 0.983493 0.985725 0.867177 0.641437 0.335591 0.012915 0.360745 0.664055 0.884023 0.991918 0.972987 0.828622 0.576505 0.248597 0.112740
1.000000 1.000000 1.000000 1.000000 1.000000 1.000000 1.000000 1.000000 1.000000 1.000000 1.000000 1.000000 1.000000 1.000000 1.000000 1.000000 1.000000 1.000000 1.000000 1.000000 1.000000 1.000000 1.000000 1.000000 1.000000 1.000000 1.000000 1.000000 1.000000 1.000000 1.000000 1.000000 1.000000 1.000000 1.000000 1.000000 1.000000 1.000000 1.000000 1.000000 1.000000 1.000000 1.000000 1.000000 1.000000 1.000000 1.000000 1.000000 1.000000 1.000000 1.000000 1.000000 0.933168 0.933168 0.933168 0.923981 0.923981 0.923981 0.923981 0.923981 0.923981 0.923981 0.923981 0.923981 0.923981 0.923981 0.923981 0.923981 0.923981 0.923981 0.923981 0.923981 0.923981 0.923981 0.923981 0.923981 0.923981 0.923981 0.923981 0.923981 0.923981 0.923981 0.923981 0.923981 0.923981 0.923981 0.923981 0.923981 0.923981 0.923981 0.923981 0.923981 0.923981 0.923981 0.923981 0.923981 0.949852 0.951064 0.958919 0.958750 0.958244 0.956139 0.955226 0.954101 0.953650 0.953923 0.954531 0.955367 0.967115 0.968134 0.969670 0.970472 0.971180 0.971834 0.971687 0.972476 0.971726 0.971191 0.970690 0.966745 0.967368 0.967955 0.968125 0.969171 0.969056 0.971275 0.971397 0.970824 0.969989 0.969295 0.968628 0.968234 0.967963 0.968453 0.968721 0.969985 0.973125 0.972545 0.972232 0.972390 0.972493 0.972664 0.973060 0.973834 0.969949 0.968436 0.966768 0.964588 0.968774 0.965921 0.965701 0.967063 0.967449 0.967850 0.966875 0.962965 0.957646 0.956956 0.954567 0.945466 0.944276 0.944952 0.947179 0.947554 0.946137 0.938744 0.939310 0.932367 0.934281 0.937521 0.931607 0.931459 0.932605 0.932080 0.930953 0.930382 0.927574 0.924997 0.923467 0.923206 0.926165 0.926161 0.927304 0.927150 0.921535 0.913654 0.901505 0.899780 0.894886 0.897889 0.886596 0.886335 0.886218 0.882346 0.885710 0.885252 0.886143 0.882995 0.866575 0.849394 0.842875 0.846936 0.851832 0.847623 0.846271 0.839270 0.850449 0.830131 0.842639 0.853667 0.850801 0.850937 0.850337 0.848637 0.842906 0.843758 0.845626 0.847099 0.845411 0.844281 0.843932 0.826103 0.827864 0.763873 0.746390 0.737767 0.743524 0.750282 0.752588 0.751511 0.757381 0.762241 0.752106 0.734019 0.726435 0.719815 0.724023 0.722678 0.724922 0.708648 0.676503 0.671882 0.642440 0.660404 0.670963 0.632585 0.657069 0.668441 0.667435 0.665739 0.659536 0.657235 0.652960 0.655604 0.662336 0.674730 0.692046 0.714899 0.711407 0.701940 0.699736 0.680789 0.674469 0.667993 0.681430 0.660969 0.657413 0.675250 0.674814 0.659770 0.638490 0.628515 0.621432 0.614997 0.624456 0.612612 0.607426 0.597541 0.573051 0.566812 0.600697 0.616654 0.638237 0.607406 0.593702 0.581090 0.560604 0.573338 0.518736 0.518560 0.540207 0.548019 0.526373 0.517717 0.529798 0.535427 0.536035 0.525819 0.512640 0.502617 0.519344 0.555199 0.544356 0.525735 0.527750 0.526474 0.517785 0.427408 0.420758 0.394127 0.360288 0.304713 0.283084 0.275947 0.259504 0.248290 0.212677 0.208732 0.219472 0.225485 0.237073 0.239439 0.221988 0.231307 0.226895 0.213264 0.150546 0.140350 0.132597 0.122252 0.120464 0.098276 0.123739 0.190859 0.193047 0.193047 0.193047 0.193047 0.193047 0.193047 0.202129 0.202129 0.202129 0.202129 0.202129 0.202129 0.202129 0.202129 0.202129 0.211785 0.211785 0.211785 0.211785 0.211785 0.211785 0.211785 0.211785 0.211785 0.211785 0.211785 0.211785 0.211785 0.211785
0.000000 0.000000 0.000000 0.000000 0.000000 0.000000 0.000000 0.000000 0.000000 0.000000 0.000000 0.000000 0.000000 0.000000 0.000000 0.000000 0.000000 0.000000 0.000000 0.000000 0.000000 0.000000 0.000000 0.000000 0.000000 7.000000 4.000000 0.000000 0.000000 0.000000 0.000000 0.000000 0.000000 0.000000 0.000000 0.000000 0.000000 0.000000 0.000000 0.000000 0.000000 0.000000 0.000000 0.000000 0.000000 0.000000 0.000000 0.000000 0.000000 0.000000 0.000000 0.000000 0.180334 0.180334 0.180334 0.199007 0.199007 0.199007 0.199007 0.199007 0.199007 0.199007 0.199007 0.199007 0.199007 0.199007 0.199007 0.199007 0.199007 0.199007 0.199007 0.199007 0.199007 0.199007 0.199007 0.199007 0.199007 0.199007 0.199007 0.199007 0.199007 0.199007 0.199007 0.199007 0.199007 0.199007 0.199007 0.199007 0.199007 0.199007 0.199007 0.199007 0.199007 0.199007 0.199007 0.199007 0.225018 0.225018 0.225018 0.225018 0.225018 0.225018 0.225018 0.225018 0.225018 0.225018 0.225018 0.225018 0.225018 0.225018 0.225018 0.225018 0.225018 0.225018 0.225018 0.225018 0.225018 0.225018 0.225018 0.225018 0.225018 0.225018 0.225018 0.225018 0.225018 0.244339 0.244339 0.244339 0.244339 0.244339 0.244339 0.244339 0.244339 0.244339 0.244339 0.244339 0.244339 0.244339 0.244339 0.244339 0.244339 0.244339 0.244339 0.244339 0.244339 0.244339 0.244339 0.244339 0.251976 0.251976 0.251976 0.251976 0.251976 0.251976 0.251976 0.251976 0.251976 0.251976 0.251976 0.251976 0.251976 0.251976 0.251976 0.251976 0.251976 0.251976 0.251976 0.251976 0.264906 0.264906 0.264906 0.264906 0.264906 0.264906 0.264906 0.264906 0.264906 0.264906 0.264906 0.264906 0.264906 0.264906 0.264906 0.264906 0.264906 0.264906 0.264906 0.264906 0.264906 0.264906 0.264906 0.264906 0.264906 0.264906 0.264906 0.264906 0.264906 0.264906 0.264906 0.264906 0.264906 0.264906 0.264906 0.264906 0.264906 0.264906 0.264906 0.264906 0.264906 0.264906 0.264906 0.264906 0.264906 0.264906 0.264906 0.264906 0.264906 0.264906 0.264906 0.264906 0.264906 0.264906 0.264906 0.264906 0.264906 0.264906 0.264906 0.264906 0.264906 0.264906 0.256074 0.256074 0.256074 0.256074 0.256074 0.256074 0.256074 0.256074 0.256074 0.256074 0.256074 0.256074 0.256074 0.256074 0.269680 0.269680 0.269680 0.269680 0.269680 0.269680 0.269680 0.269680 0.269680 0.269680 0.269680 0.269680 0.264906 0.264906 0.264906 0.264906 0.264906 0.264906 0.264906 0.264906 0.264906 0.264906 0.264906 0.264906 0.269680 0.269680 0.269680 0.269680 0.269680 0.269680 0.269680 0.269680 0.269680 0.269680 0.269680 0.264906 0.264906 0.264906 0.264906 0.264906 0.264906 0.264906 0.264906 0.264906 0.264906 0.264906 0.256074 0.256074 0.256074 0.256074 0.256074 0.256074 0.256074 0.256074 0.256074 0.256074 0.256074 0.264906 0.264906 0.264906 0.264906 0.264906 0.264906 0.264906 0.264906 0.264906 0.264906 0.260378 0.260378 0.260378 0.260378 0.260378 0.260378 0.260378 0.260378 0.260378 0.260378 0.256074 0.256074 0.256074 0.256074 0.256074 0.256074 0.256074 0.256074 0.256074 0.256074 0.260378 0.260378 0.260378 0.260378 0.260378 0.260378 0.260378 0.260378 0.260378 0.256074 0.256074 0.256074 0.256074 0.256074 0.256074 0.256074 0.256074 0.256074 0.251976 0.251976 0.251976 0.251976 0.251976 0.251976 0.251976 0.251976 0.251976 0.251976 0.251976 0.251976 0.251976 0.251976
