# Output from CTFFind version 4.1.9, run on 2019-11-02 17:58:26
# Input file: stack1_bm3d_averaged_1_1.75_0_1000_half.mrc ; Number of micrographs: 1
# Pixel size: 3.000 Angstroms ; acceleration voltage: 300.0 keV ; spherical aberration: 0.00 mm ; amplitude contrast: 0.07
# Box size: 512 pixels ; min. res.: 30.0 Angstroms ; max. res.: 5.0 Angstroms ; min. def.: 5000.0 um; max. def. 50000.0 um; num. frames averaged: 1
# 6 lines per micrograph: #1 - spatial frequency (1/Angstroms); #2 - 1D rotational average of spectrum (assuming no astigmatism); #3 - 1D rotational average of spectrum; #4 - CTF fit; #5 - cross-correlation between spectrum and CTF fit; #6 - 2sigma of expected cross correlation of noise
0.000000 0.000651 0.001302 0.001953 0.002604 0.003255 0.003906 0.004557 0.005208 0.005859 0.006510 0.007161 0.007812 0.008464 0.009115 0.009766 0.010417 0.011068 0.011719 0.012370 0.013021 0.013672 0.014323 0.014974 0.015625 0.016276 0.016927 0.017578 0.018229 0.018880 0.019531 0.020182 0.020833 0.021484 0.022135 0.022786 0.023438 0.024089 0.024740 0.025391 0.026042 0.026693 0.027344 0.027995 0.028646 0.029297 0.029948 0.030599 0.031250 0.031901 0.032552 0.033203 0.033854 0.034505 0.035156 0.035807 0.036458 0.037109 0.037760 0.038411 0.039062 0.039714 0.040365 0.041016 0.041667 0.042318 0.042969 0.043620 0.044271 0.044922 0.045573 0.046224 0.046875 0.047526 0.048177 0.048828 0.049479 0.050130 0.050781 0.051432 0.052083 0.052734 0.053385 0.054036 0.054688 0.055339 0.055990 0.056641 0.057292 0.057943 0.058594 0.059245 0.059896 0.060547 0.061198 0.061849 0.062500 0.063151 0.063802 0.064453 0.065104 0.065755 0.066406 0.067057 0.067708 0.068359 0.069010 0.069661 0.070312 0.070964 0.071615 0.072266 0.072917 0.073568 0.074219 0.074870 0.075521 0.076172 0.076823 0.077474 0.078125 0.078776 0.079427 0.080078 0.080729 0.081380 0.082031 0.082682 0.083333 0.083984 0.084635 0.085286 0.085938 0.086589 0.087240 0.087891 0.088542 0.089193 0.089844 0.090495 0.091146 0.091797 0.092448 0.093099 0.093750 0.094401 0.095052 0.095703 0.096354 0.097005 0.097656 0.098307 0.098958 0.099609 0.100260 0.100911 0.101562 0.102214 0.102865 0.103516 0.104167 0.104818 0.105469 0.106120 0.106771 0.107422 0.108073 0.108724 0.109375 0.110026 0.110677 0.111328 0.111979 0.112630 0.113281 0.113932 0.114583 0.115234 0.115885 0.116536 0.117188 0.117839 0.118490 0.119141 0.119792 0.120443 0.121094 0.121745 0.122396 0.123047 0.123698 0.124349 0.125000 0.125651 0.126302 0.126953 0.127604 0.128255 0.128906 0.129557 0.130208 0.130859 0.131510 0.132161 0.132812 0.133464 0.134115 0.134766 0.135417 0.136068 0.136719 0.137370 0.138021 0.138672 0.139323 0.139974 0.140625 0.141276 0.141927 0.142578 0.143229 0.143880 0.144531 0.145182 0.145833 0.146484 0.147135 0.147786 0.148438 0.149089 0.149740 0.150391 0.151042 0.151693 0.152344 0.152995 0.153646 0.154297 0.154948 0.155599 0.156250 0.156901 0.157552 0.158203 0.158854 0.159505 0.160156 0.160807 0.161458 0.162109 0.162760 0.163411 0.164062 0.164714 0.165365 0.166016 0.166667 0.167318 0.167969 0.168620 0.169271 0.169922 0.170573 0.171224 0.171875 0.172526 0.173177 0.173828 0.174479 0.175130 0.175781 0.176432 0.177083 0.177734 0.178385 0.179036 0.179688 0.180339 0.180990 0.181641 0.182292 0.182943 0.183594 0.184245 0.184896 0.185547 0.186198 0.186849 0.187500 0.188151 0.188802 0.189453 0.190104 0.190755 0.191406 0.192057 0.192708 0.193359 0.194010 0.194661 0.195312 0.195964 0.196615 0.197266 0.197917 0.198568 0.199219 0.199870 0.200521 0.201172 0.201823 0.202474 0.203125 0.203776 0.204427 0.205078 0.205729 0.206380 0.207031 0.207682 0.208333 0.208984 0.209635 0.210286 0.210938 0.211589 0.212240 0.212891 0.213542 0.214193 0.214844 0.215495 0.216146 0.216797 0.217448 0.218099 0.218750 0.219401 0.220052 0.220703 0.221354 0.222005 0.222656 0.223307 0.223958 0.224609 0.225260 0.225911 0.226562 0.227214 0.227865 0.228516 0.229167 0.229818 0.230469 0.231120 0.231771 0.232422 0.233073 0.233724 0.234375 0.235026 0.235677
       0.32877        0.32877        0.32877        0.32877        0.32877        0.32877        0.32877        0.32877        0.32877        0.32877        0.32877        0.32877        0.32877        0.32877        0.32877        0.32877        0.32877        0.32877        0.32877        0.32877        0.32877        0.32877        0.32877        0.32877        0.32877        0.32877        0.32877        0.32877        0.32877        0.32877        0.32877        0.32877        0.32877        0.32877        0.32877        0.32877        0.32877        0.32877        0.32877        0.32877        0.32877        0.32877        0.32877        0.32877        0.32877        0.32877        0.32877        0.32877        0.32877        0.32877        0.32877        0.49765        0.71529        0.42096        0.18999       -0.07865       -0.26087       -0.07072       -0.13126       -0.06363       -0.00439       -0.15406       -0.10578       -0.05088       -0.00496       -0.15677       -0.22799       -0.34446       -0.46950       -0.57382       -0.52806       -0.45863       -0.37747       -0.56202       -0.45813       -0.62584       -0.51201       -0.47829       -0.39889       -0.38346       -0.33768       -0.25003       -0.17158       -0.14395        0.02587       -0.01950        0.11172        0.16666        0.30595        0.41449        0.46343        0.49823        0.54109        0.54947        0.68818        0.64085        0.67485        0.58655        0.55569        0.64744        0.52138        0.42983        0.39014        0.30921        0.22875        0.25703        0.24749        0.09551        0.07756       -0.00190       -0.01154        0.02633       -0.01714        0.06300        0.08644        0.22368        0.28049        0.29079        0.38642        0.56583        0.53913        0.57106        0.66504        0.69253        0.62637        0.63524        0.63456        0.54239        0.56710        0.39211        0.34741        0.26067        0.18136        0.07326        0.13964        0.10901        0.09833        0.11273        0.20236        0.19433        0.31097        0.34922        0.40687        0.48693        0.56256        0.54310        0.55168        0.60200        0.52936        0.45865        0.47896        0.31999        0.24535        0.25152        0.24101        0.13515        0.13793        0.14726        0.21726        0.24626        0.33193        0.37577        0.39723        0.45519        0.44126        0.47469        0.44255        0.47121        0.44192        0.39341        0.36783        0.36294        0.32072        0.28544        0.20562        0.20390        0.22172        0.26404        0.25474        0.34335        0.37403        0.35089        0.40788        0.45125        0.43973        0.42597        0.43754        0.35699        0.32807        0.27985        0.25314        0.28492        0.25510        0.28662        0.29870        0.33843        0.32825        0.39485        0.38667        0.42096        0.40556        0.44150        0.40335        0.36215        0.27673        0.28120        0.28923        0.27101        0.25705        0.32745        0.36050        0.33072        0.35836        0.36415        0.34509        0.40812        0.39414        0.36061        0.33846        0.30089        0.30882        0.31633        0.30735        0.30278        0.28525        0.33315        0.35337        0.36622        0.33555        0.33103        0.33117        0.34883        0.30971        0.28283        0.30799        0.31523        0.32529        0.31992        0.32999        0.35106        0.32778        0.31770        0.33332        0.30021        0.25623        0.24285        0.26232        0.30226        0.31684        0.35644        0.29196        0.30006        0.32238        0.28835        0.31655        0.29124        0.27378        0.28122        0.28637        0.30135        0.34059        0.31487        0.32181        0.32082        0.32505        0.33355        0.31200        0.31614        0.31901        0.26880        0.28718        0.30644        0.28238        0.31610        0.31992        0.33320        0.31830        0.34894        0.32960        0.28122        0.23870        0.27224        0.32965        0.35090        0.34541        0.31565        0.29187        0.30218        0.31181        0.25357        0.28638        0.29815        0.31584        0.28756        0.28646        0.26333        0.32803        0.33195        0.33291        0.30954        0.29504        0.29731        0.38866        0.33574        0.31257        0.30143        0.30368        0.28849        0.29465        0.29232        0.29619        0.22415        0.26504        0.30190        0.31350        0.29493        0.26586        0.27491        0.22658        0.22450        0.28358        0.30925        0.30197        0.29660        0.28360        0.33054        0.24834        0.21883        0.27439        0.24119        0.26867        0.27803        0.35286        0.25992        0.28681        0.27461        0.22954        0.26768        0.26685        0.23413        0.17664        0.22212        0.22221        0.23826        0.30142        0.26388        0.34270        0.32435        0.27498        0.25701        0.19802        0.25176        0.27999        0.22073        0.17032        0.21911        0.23687        0.19789        0.27456        0.22710        0.03888       -0.41973       -0.88417
2.630651 2.603027 2.575551 2.548223 2.521043 2.494010 2.467125 2.440388 2.413798 2.387356 2.361062 2.334916 2.308917 2.283066 2.257363 2.231808 2.206400 2.181140 2.156028 2.131063 2.106247 2.081578 2.057056 2.032683 2.008457 1.984379 1.960448 1.936666 1.913031 1.889544 1.866204 1.843012 1.819968 1.797072 1.774323 1.751723 1.729269 1.706964 1.684806 1.662796 1.640934 1.619220 1.597653 1.576234 1.554963 1.533839 1.512863 1.492035 1.471355 1.450822 1.430437 1.497447 1.803313 1.496761 1.141994 0.926287 0.534472 0.895706 0.628418 0.847181 0.906873 0.578446 0.680281 0.768072 0.809337 0.609834 0.519567 0.348505 0.093310 0.061334 0.033142 0.062716 0.292806 -0.046791 0.064397 -0.133582 -0.026547 -0.017615 0.067656 0.064068 0.106845 0.176111 0.271861 0.240823 0.471859 0.389713 0.536224 0.526382 0.764684 0.783296 0.872422 0.926996 0.924189 0.946037 1.077230 0.967256 1.129389 0.936703 0.849129 1.005315 0.838107 0.754180 0.630589 0.582377 0.458064 0.413740 0.502316 0.260778 0.196919 0.165265 0.013907 0.199529 -0.009702 0.116242 0.167229 0.256408 0.338740 0.339705 0.432028 0.547687 0.673678 0.535757 0.733962 0.859574 0.634262 0.700593 0.674712 0.585825 0.533794 0.462512 0.309483 0.212636 0.126819 -0.027873 -0.014026 0.053132 -0.075226 -0.049739 0.066902 0.046260 0.104084 0.222601 0.238273 0.316190 0.417674 0.433765 0.461702 0.464615 0.450788 0.321354 0.337613 0.246241 0.049378 0.067057 0.021612 -0.040216 -0.100419 -0.087291 -0.016997 -0.037298 0.083652 0.139418 0.149792 0.255708 0.220444 0.253467 0.287115 0.254084 0.248047 0.222908 0.156009 0.126083 0.126751 0.034199 0.025525 -0.103890 -0.036114 0.015569 -0.000133 0.018998 0.112282 0.080810 0.131995 0.202055 0.269708 0.167035 0.200765 0.112424 0.129423 0.029904 -0.032684 0.014143 -0.014414 -0.002730 -0.001956 0.038827 0.064644 0.065530 0.144473 0.104594 0.161000 0.084231 0.163087 0.095167 -0.003168 -0.051058 -0.029405 -0.036205 -0.064139 -0.056766 0.059819 0.056124 -0.010850 0.069187 0.064790 0.068987 0.145724 0.067259 0.077387 0.046918 -0.022386 0.034823 0.000763 0.011379 0.015417 0.001086 0.049849 0.058892 0.059376 0.038176 0.043474 0.012449 0.069590 -0.006836 -0.016937 0.023285 0.009793 0.050348 0.040555 0.037695 0.060943 0.035571 0.016552 0.038980 -0.008210 -0.057527 -0.045754 -0.025774 0.013448 0.030956 0.105008 -0.014803 0.048431 0.038096 0.007316 0.063934 0.028360 0.007729 0.034548 0.047642 0.046426 0.096975 0.048167 0.078990 0.069297 0.110641 0.063335 0.078135 0.088378 0.050805 -0.005796 0.060528 0.045855 0.040290 0.081159 0.092472 0.014480 0.070346 0.096127 0.038493 0.026786 -0.067673 0.005064 0.116234 0.083085 0.080549 0.052208 0.004167 0.050628 0.046456 -0.044275 0.047684 0.042269 0.066698 0.043329 -0.020248 0.003159 0.054028 0.059603 0.028494 0.046074 -0.017578 0.059302 0.121427 0.040998 0.002553 0.013197 -0.001542 -0.007759 -0.019738 -0.004622 -0.022984 -0.099737 -0.027917 -0.003545 0.030289 -0.032073 -0.039114 -0.015036 -0.065379 -0.026818 -0.034677 0.055147 0.021374 0.031284 0.001218 0.087623 -0.081964 -0.043914 -0.009280 -0.050935 0.018124 -0.004009 0.130692 -0.071975 0.003693 0.049514 -0.056194 0.003274 0.008017 -0.040971 -0.134487 -0.033500 -0.032204 -0.027326 0.025830 -0.015247 0.140103 0.067546 0.047638 -0.045079 -0.059710 -0.019956 0.014985 0.262137 0.201890 0.265146 0.250228 0.274000 0.290088 0.233886 0.123536 -0.288035
0.072396 0.072910 0.074450 0.077017 0.080610 0.085228 0.090869 0.097533 0.105216 0.113916 0.123629 0.134351 0.146076 0.158797 0.172507 0.187194 0.202848 0.219456 0.237000 0.255464 0.274824 0.295058 0.316138 0.338032 0.360705 0.384118 0.408227 0.432982 0.458331 0.484214 0.510565 0.537313 0.564382 0.591688 0.619140 0.646642 0.674088 0.701368 0.728363 0.754948 0.780990 0.806350 0.830880 0.854429 0.876838 0.897941 0.917569 0.935547 0.951697 0.965838 0.977787 0.987360 0.994373 0.998645 0.999995 0.998252 0.993246 0.984818 0.972821 0.957115 0.937580 0.914110 0.886617 0.855036 0.819324 0.779466 0.735474 0.687389 0.635287 0.579279 0.519510 0.456165 0.389468 0.319686 0.247126 0.172136 0.095108 0.016476 0.063285 0.143663 0.224107 0.304030 0.382817 0.459824 0.534385 0.605817 0.673427 0.736518 0.794394 0.846375 0.891797 0.930030 0.960478 0.982598 0.995903 0.999977 0.994482 0.979169 0.953886 0.918590 0.873351 0.818360 0.753936 0.680529 0.598724 0.509238 0.412924 0.310762 0.203859 0.093435 0.019183 0.132579 0.245258 0.355671 0.462228 0.563331 0.657387 0.742846 0.818218 0.882113 0.933259 0.970541 0.993020 0.999969 0.990888 0.965536 0.923944 0.866427 0.793605 0.706393 0.606013 0.493977 0.372079 0.242369 0.107132 0.031157 0.169864 0.306249 0.437521 0.560888 0.673628 0.773145 0.857038 0.923163 0.969699 0.995202 0.998657 0.979530 0.937797 0.873970 0.789115 0.684845 0.563310 0.427162 0.279513 0.123874 0.035924 0.195812 0.351590 0.499033 0.634009 0.752598 0.851218 0.926737 0.976591 0.998876 0.992444 0.956958 0.892948 0.801824 0.685871 0.548216 0.392760 0.224082 0.047324 0.131962 0.307978 0.474868 0.626920 0.758756 0.865546 0.943191 0.988502 0.999347 0.974774 0.915085 0.821880 0.698039 0.547673 0.375999 0.189193 0.005825 0.201628 0.390565 0.565054 0.717902 0.842602 0.933638 0.986747 0.999142 0.969687 0.899000 0.789498 0.645340 0.472317 0.277638 0.069667 0.142431 0.349077 0.540715 0.708251 0.843505 0.939637 0.991509 0.996003 0.952237 0.861680 0.728160 0.557743 0.358507 0.140178 0.086309 0.309344 0.517237 0.698834 0.844131 0.944854 0.994963 0.991055 0.932635 0.822234 0.665356 0.470260 0.247570 0.009727 0.229676 0.456670 0.657715 0.820533 0.934885 0.993252 0.991378 0.928629 0.808141 0.636729 0.424563 0.184612 0.068100 0.317425 0.547106 0.741847 0.888364 0.976322 0.999120 0.954446 0.844552 0.676229 0.460450 0.211731 0.052819 0.314623 0.554952 0.756262 0.903508 0.985317 0.994925 0.930805 0.796923 0.602579 0.361842 0.092599 0.184747 0.448771 0.678700 0.856072 0.966259 0.999731 0.952971 0.828899 0.636812 0.391761 0.113458 0.175258 0.450271 0.688194 0.868396 0.974828 0.997539 0.933687 0.787964 0.572365 0.305294 0.010079 0.287023 0.559137 0.781212 0.932362 0.997915 0.970918 0.852975 0.654297 0.392934 0.093218 0.216418 0.506108 0.747455 0.916326 0.995360 0.975839 0.858763 0.654974 0.384269 0.073586 0.245601 0.540442 0.780093 0.938995 0.999683 0.954816 0.808190 0.574562 0.278313 0.049002 0.371955 0.655038 0.866616 0.982523 0.988924 0.884109 0.678938 0.395871 0.066639 0.271229 0.578638 0.819465 0.964864 0.996833 0.910580 0.715369 0.433690 0.098828 0.248991 0.567356 0.816877 0.966105 0.995619 0.900701 0.692232 0.395620 0.047861 0.306973 0.623283 0.859805 0.985085 0.981799 0.849305 0.604066 0.277795 0.086527 0.440180 0.735216 0.931024 0.999999
1.000000 1.000000 1.000000 1.000000 1.000000 1.000000 1.000000 1.000000 1.000000 1.000000 1.000000 1.000000 1.000000 1.000000 1.000000 1.000000 1.000000 1.000000 1.000000 1.000000 1.000000 1.000000 1.000000 1.000000 1.000000 1.000000 1.000000 1.000000 1.000000 1.000000 1.000000 1.000000 1.000000 1.000000 1.000000 1.000000 1.000000 1.000000 1.000000 1.000000 1.000000 1.000000 1.000000 1.000000 1.000000 1.000000 1.000000 1.000000 1.000000 1.000000 1.000000 1.000000 0.915358 0.915358 0.903561 0.903561 0.903561 0.903561 0.903561 0.903561 0.903561 0.903561 0.903561 0.903561 0.903561 0.903561 0.903561 0.903561 0.903561 0.903561 0.903561 0.903561 0.903561 0.903561 0.903561 0.903561 0.903561 0.903561 0.903561 0.903561 0.903561 0.903561 0.903561 0.903561 0.903561 0.903561 0.903561 0.903561 0.903561 0.903561 0.903561 0.903561 0.903561 0.903561 0.903561 0.901705 0.906198 0.908364 0.906580 0.910195 0.910290 0.907948 0.907563 0.907155 0.907426 0.908824 0.919438 0.930598 0.941181 0.942392 0.947497 0.951968 0.954184 0.955150 0.956503 0.965921 0.963448 0.962948 0.963713 0.965464 0.967804 0.966299 0.966214 0.968632 0.969451 0.967591 0.965602 0.964914 0.964222 0.963901 0.963446 0.963599 0.963523 0.964033 0.964290 0.964558 0.964699 0.964721 0.962953 0.963126 0.965455 0.966636 0.966409 0.964969 0.958754 0.962632 0.962645 0.962412 0.962321 0.961875 0.962279 0.947317 0.943133 0.943125 0.937260 0.936136 0.932349 0.931135 0.929552 0.929961 0.930011 0.931391 0.928142 0.916687 0.904147 0.889389 0.911064 0.900792 0.885276 0.864593 0.864326 0.860773 0.861654 0.856610 0.849204 0.844356 0.840882 0.841963 0.844479 0.848980 0.847323 0.836340 0.839545 0.835757 0.804840 0.793297 0.778116 0.777758 0.775576 0.776762 0.775017 0.772491 0.780451 0.768075 0.767031 0.759040 0.744140 0.714948 0.704236 0.713157 0.721037 0.728825 0.725696 0.710317 0.666498 0.677746 0.706333 0.697273 0.700539 0.695312 0.690687 0.692961 0.693238 0.687244 0.681221 0.681057 0.679881 0.684472 0.690439 0.681863 0.672912 0.660034 0.645183 0.628610 0.641145 0.635304 0.602955 0.597860 0.587493 0.578298 0.574021 0.556972 0.555255 0.527885 0.515314 0.511466 0.504456 0.508112 0.510601 0.512722 0.502233 0.518182 0.518749 0.545441 0.518639 0.517050 0.518266 0.525588 0.512818 0.502450 0.497451 0.498144 0.504470 0.529061 0.553532 0.531998 0.519245 0.512431 0.523543 0.504909 0.516668 0.547946 0.524620 0.461122 0.411462 0.407238 0.361233 0.356646 0.333193 0.323162 0.319152 0.312093 0.300547 0.287286 0.271963 0.233139 0.189993 0.172065 0.152727 0.159009 0.185266 0.175396 0.189149 0.229771 0.273952 0.277603 0.267086 0.245293 0.224533 0.181467 0.175462 0.187132 0.140713 0.135853 0.126923 0.117995 0.106114 0.064435 0.099845 0.002713 -0.011676 -0.016002 0.005679 0.004059 0.001037 0.002994 -0.029728 -0.028443 -0.000970 0.002072 -0.006971 -0.054242 -0.028008 -0.012794 -0.015425 -0.046156 -0.076752 -0.083463 -0.113247 -0.113751 -0.101505 -0.073164 -0.012126 -0.005706 -0.011445 -0.024098 -0.040072 -0.048826 -0.036769 -0.009126 -0.002694 -0.026545 -0.035319 -0.035415 -0.075847 -0.075847 -0.066254 -0.066254 -0.066254 -0.066254 -0.066254 -0.066254 -0.066254 -0.066254 -0.066254 -0.070099 -0.070099 -0.070099 -0.070099 -0.070099 -0.070099 -0.070099 -0.070099 -0.070099 -0.070099 -0.070099 -0.070099 -0.070099 -0.070099 -0.070099 -0.070099 -0.070099 -0.070099
0.000000 0.000000 0.000000 0.000000 0.000000 0.000000 0.000000 0.000000 0.000000 0.000000 0.000000 0.000000 0.000000 0.000000 0.000000 0.000000 0.000000 0.000000 0.000000 0.000000 0.000000 0.000000 0.000000 0.000000 0.000000 0.000000 0.000000 0.000000 0.000000 0.000000 0.000000 0.000000 0.000000 0.000000 0.000000 0.000000 0.000000 0.000000 0.000000 0.000000 0.000000 0.000000 0.000000 0.000000 0.000000 0.000000 0.000000 0.000000 0.000000 0.000000 0.000000 0.000000 0.181818 0.181818 0.199007 0.199007 0.199007 0.199007 0.199007 0.199007 0.199007 0.199007 0.199007 0.199007 0.199007 0.199007 0.199007 0.199007 0.199007 0.199007 0.199007 0.199007 0.199007 0.199007 0.199007 0.199007 0.199007 0.199007 0.199007 0.199007 0.199007 0.199007 0.199007 0.199007 0.199007 0.199007 0.199007 0.199007 0.199007 0.199007 0.199007 0.199007 0.199007 0.199007 0.199007 0.230940 0.230940 0.230940 0.230940 0.230940 0.230940 0.230940 0.230940 0.230940 0.230940 0.230940 0.230940 0.230940 0.230940 0.230940 0.230940 0.230940 0.230940 0.230940 0.230940 0.230940 0.230940 0.230940 0.230940 0.230940 0.230940 0.230940 0.230940 0.244339 0.244339 0.244339 0.244339 0.244339 0.244339 0.244339 0.244339 0.244339 0.244339 0.244339 0.244339 0.244339 0.244339 0.244339 0.244339 0.244339 0.244339 0.244339 0.244339 0.244339 0.244339 0.244339 0.251976 0.251976 0.251976 0.251976 0.251976 0.251976 0.251976 0.251976 0.251976 0.251976 0.251976 0.251976 0.251976 0.251976 0.251976 0.251976 0.251976 0.251976 0.251976 0.251976 0.264906 0.264906 0.264906 0.264906 0.264906 0.264906 0.264906 0.264906 0.264906 0.264906 0.264906 0.264906 0.264906 0.264906 0.264906 0.264906 0.264906 0.264906 0.264906 0.264906 0.264906 0.264906 0.264906 0.264906 0.264906 0.264906 0.264906 0.264906 0.264906 0.264906 0.264906 0.264906 0.264906 0.264906 0.264906 0.264906 0.264906 0.264906 0.264906 0.264906 0.264906 0.264906 0.264906 0.264906 0.264906 0.264906 0.264906 0.264906 0.264906 0.264906 0.264906 0.264906 0.264906 0.264906 0.264906 0.264906 0.264906 0.264906 0.264906 0.264906 0.264906 0.264906 0.264906 0.264906 0.264906 0.264906 0.264906 0.264906 0.264906 0.264906 0.264906 0.264906 0.264906 0.264906 0.264906 0.269680 0.269680 0.269680 0.269680 0.269680 0.269680 0.269680 0.269680 0.269680 0.269680 0.269680 0.269680 0.264906 0.264906 0.264906 0.264906 0.264906 0.264906 0.264906 0.264906 0.264906 0.264906 0.264906 0.264906 0.269680 0.269680 0.269680 0.269680 0.269680 0.269680 0.269680 0.269680 0.269680 0.269680 0.269680 0.264906 0.264906 0.264906 0.264906 0.264906 0.264906 0.264906 0.264906 0.264906 0.264906 0.264906 0.256074 0.256074 0.256074 0.256074 0.256074 0.256074 0.256074 0.256074 0.256074 0.256074 0.256074 0.264906 0.264906 0.264906 0.264906 0.264906 0.264906 0.264906 0.264906 0.264906 0.264906 0.260378 0.260378 0.260378 0.260378 0.260378 0.260378 0.260378 0.260378 0.260378 0.260378 0.264906 0.264906 0.264906 0.264906 0.264906 0.264906 0.264906 0.264906 0.264906 0.260378 0.260378 0.260378 0.260378 0.260378 0.260378 0.260378 0.260378 0.260378 0.256074 0.256074 0.256074 0.256074 0.256074 0.256074 0.256074 0.256074 0.256074 0.251976 0.251976 0.251976 0.251976 0.251976 0.251976 0.251976 0.251976 0.251976 0.251976 0.251976 0.251976 0.251976 0.251976 0.251976 0.251976 0.251976 0.251976
