# Output from CTFFind version 4.1.9, run on 2019-11-02 17:44:19
# Input file: stack11_bm3d_averaged_1_1.0_0_250_half.mrc ; Number of micrographs: 1
# Pixel size: 3.000 Angstroms ; acceleration voltage: 300.0 keV ; spherical aberration: 0.00 mm ; amplitude contrast: 0.07
# Box size: 512 pixels ; min. res.: 30.0 Angstroms ; max. res.: 5.0 Angstroms ; min. def.: 5000.0 um; max. def. 50000.0 um; num. frames averaged: 1
# 6 lines per micrograph: #1 - spatial frequency (1/Angstroms); #2 - 1D rotational average of spectrum (assuming no astigmatism); #3 - 1D rotational average of spectrum; #4 - CTF fit; #5 - cross-correlation between spectrum and CTF fit; #6 - 2sigma of expected cross correlation of noise
0.000000 0.000651 0.001302 0.001953 0.002604 0.003255 0.003906 0.004557 0.005208 0.005859 0.006510 0.007161 0.007812 0.008464 0.009115 0.009766 0.010417 0.011068 0.011719 0.012370 0.013021 0.013672 0.014323 0.014974 0.015625 0.016276 0.016927 0.017578 0.018229 0.018880 0.019531 0.020182 0.020833 0.021484 0.022135 0.022786 0.023438 0.024089 0.024740 0.025391 0.026042 0.026693 0.027344 0.027995 0.028646 0.029297 0.029948 0.030599 0.031250 0.031901 0.032552 0.033203 0.033854 0.034505 0.035156 0.035807 0.036458 0.037109 0.037760 0.038411 0.039062 0.039714 0.040365 0.041016 0.041667 0.042318 0.042969 0.043620 0.044271 0.044922 0.045573 0.046224 0.046875 0.047526 0.048177 0.048828 0.049479 0.050130 0.050781 0.051432 0.052083 0.052734 0.053385 0.054036 0.054688 0.055339 0.055990 0.056641 0.057292 0.057943 0.058594 0.059245 0.059896 0.060547 0.061198 0.061849 0.062500 0.063151 0.063802 0.064453 0.065104 0.065755 0.066406 0.067057 0.067708 0.068359 0.069010 0.069661 0.070312 0.070964 0.071615 0.072266 0.072917 0.073568 0.074219 0.074870 0.075521 0.076172 0.076823 0.077474 0.078125 0.078776 0.079427 0.080078 0.080729 0.081380 0.082031 0.082682 0.083333 0.083984 0.084635 0.085286 0.085938 0.086589 0.087240 0.087891 0.088542 0.089193 0.089844 0.090495 0.091146 0.091797 0.092448 0.093099 0.093750 0.094401 0.095052 0.095703 0.096354 0.097005 0.097656 0.098307 0.098958 0.099609 0.100260 0.100911 0.101562 0.102214 0.102865 0.103516 0.104167 0.104818 0.105469 0.106120 0.106771 0.107422 0.108073 0.108724 0.109375 0.110026 0.110677 0.111328 0.111979 0.112630 0.113281 0.113932 0.114583 0.115234 0.115885 0.116536 0.117188 0.117839 0.118490 0.119141 0.119792 0.120443 0.121094 0.121745 0.122396 0.123047 0.123698 0.124349 0.125000 0.125651 0.126302 0.126953 0.127604 0.128255 0.128906 0.129557 0.130208 0.130859 0.131510 0.132161 0.132812 0.133464 0.134115 0.134766 0.135417 0.136068 0.136719 0.137370 0.138021 0.138672 0.139323 0.139974 0.140625 0.141276 0.141927 0.142578 0.143229 0.143880 0.144531 0.145182 0.145833 0.146484 0.147135 0.147786 0.148438 0.149089 0.149740 0.150391 0.151042 0.151693 0.152344 0.152995 0.153646 0.154297 0.154948 0.155599 0.156250 0.156901 0.157552 0.158203 0.158854 0.159505 0.160156 0.160807 0.161458 0.162109 0.162760 0.163411 0.164062 0.164714 0.165365 0.166016 0.166667 0.167318 0.167969 0.168620 0.169271 0.169922 0.170573 0.171224 0.171875 0.172526 0.173177 0.173828 0.174479 0.175130 0.175781 0.176432 0.177083 0.177734 0.178385 0.179036 0.179688 0.180339 0.180990 0.181641 0.182292 0.182943 0.183594 0.184245 0.184896 0.185547 0.186198 0.186849 0.187500 0.188151 0.188802 0.189453 0.190104 0.190755 0.191406 0.192057 0.192708 0.193359 0.194010 0.194661 0.195312 0.195964 0.196615 0.197266 0.197917 0.198568 0.199219 0.199870 0.200521 0.201172 0.201823 0.202474 0.203125 0.203776 0.204427 0.205078 0.205729 0.206380 0.207031 0.207682 0.208333 0.208984 0.209635 0.210286 0.210938 0.211589 0.212240 0.212891 0.213542 0.214193 0.214844 0.215495 0.216146 0.216797 0.217448 0.218099 0.218750 0.219401 0.220052 0.220703 0.221354 0.222005 0.222656 0.223307 0.223958 0.224609 0.225260 0.225911 0.226562 0.227214 0.227865 0.228516 0.229167 0.229818 0.230469 0.231120 0.231771 0.232422 0.233073 0.233724 0.234375 0.235026 0.235677
       0.31825        0.31825        0.31825        0.31825        0.31825        0.31825        0.31825        0.31825        0.31825        0.31825        0.31825        0.31825        0.31825        0.31825        0.31825        0.31825        0.31825        0.31825        0.31825        0.31825        0.31825        0.31825        0.31825        0.31825        0.31825        0.31825        0.31825        0.31825        0.31825        0.31825        0.31825        0.31825        0.31825        0.31825        0.31825        0.31825        0.31825        0.31825        0.31825        0.31825        0.31825        0.31825        0.31825        0.31825        0.31825        0.31825        0.31825        0.31825        0.31825        0.31825        0.31825        0.68452        0.86954        0.52379        0.08979       -0.06061       -0.42051       -0.20508       -0.29462       -0.11497       -0.07307       -0.11749       -0.06490       -0.20428       -0.23130       -0.25560       -0.32614       -0.33592       -0.48429       -0.38016       -0.46357       -0.44635       -0.41833       -0.46647       -0.53833       -0.55799       -0.58564       -0.62222       -0.57510       -0.41352       -0.37711       -0.32604       -0.31026       -0.21337       -0.20136        0.01775        0.07760        0.11137        0.22835        0.37218        0.44323        0.51288        0.56000        0.55720        0.56733        0.69770        0.81208        0.73676        0.73265        0.66578        0.58074        0.48346        0.41049        0.49507        0.37883        0.21082        0.07754        0.05371        0.01834       -0.05959       -0.03387       -0.01919       -0.06909       -0.00858       -0.01532        0.21287        0.25028        0.28779        0.42971        0.45995        0.40642        0.54276        0.62845        0.69894        0.76037        0.68877        0.65248        0.69809        0.58549        0.50193        0.41975        0.28892        0.18940        0.15661        0.10433        0.04189        0.01521        0.00126        0.07556        0.13088        0.20745        0.28342        0.39817        0.42267        0.51121        0.60547        0.63239        0.62389        0.63048        0.55702        0.44811        0.45032        0.35355        0.23124        0.17808        0.14827        0.11494        0.12104        0.07241        0.10312        0.23399        0.26509        0.34780        0.35800        0.44963        0.51387        0.53930        0.55118        0.47239        0.43496        0.39256        0.36372        0.30390        0.25188        0.20099        0.18998        0.16407        0.19185        0.18056        0.27332        0.33542        0.37110        0.42959        0.46006        0.47970        0.44183        0.39404        0.41795        0.37040        0.28862        0.26869        0.22314        0.21606        0.19442        0.21826        0.23168        0.32932        0.37425        0.36858        0.46096        0.43972        0.43680        0.43125        0.39680        0.34469        0.32452        0.27508        0.24488        0.23899        0.27498        0.27345        0.30319        0.30847        0.33886        0.32769        0.40848        0.42122        0.37733        0.34673        0.36926        0.28237        0.28428        0.26100        0.28293        0.26283        0.27824        0.28819        0.31027        0.35187        0.36457        0.36265        0.33836        0.35465        0.28499        0.31870        0.26838        0.24535        0.29069        0.28445        0.31038        0.31146        0.32935        0.33311        0.31595        0.31535        0.28633        0.29328        0.26583        0.27998        0.25931        0.30660        0.28518        0.27078        0.30812        0.31462        0.32291        0.28448        0.30433        0.28667        0.25322        0.24529        0.22147        0.28252        0.27620        0.32289        0.31371        0.31868        0.32017        0.31159        0.27691        0.29000        0.32901        0.26962        0.26150        0.29734        0.29208        0.33676        0.33255        0.34983        0.33128        0.30968        0.28114        0.27100        0.25766        0.22973        0.27812        0.30591        0.29437        0.28161        0.29613        0.27535        0.32781        0.31890        0.24835        0.21835        0.28166        0.32924        0.27461        0.31255        0.32534        0.32719        0.30877        0.32183        0.33988        0.30470        0.29484        0.26140        0.28772        0.35949        0.35603        0.26315        0.26557        0.25743        0.29506        0.22224        0.29109        0.22501        0.24946        0.33333        0.32088        0.34231        0.29512        0.24883        0.24253        0.24366        0.23375        0.19852        0.23354        0.26708        0.31070        0.26560        0.30907        0.31245        0.27635        0.26996        0.21069        0.16757        0.19683        0.23063        0.20688        0.21238        0.23086        0.20082        0.24382        0.34249        0.30774        0.31893        0.23382        0.22741        0.22345        0.28667        0.29402        0.13452        0.21299        0.22723        0.11518        0.19923        0.10919        0.14314        0.18096        0.09507       -0.11912       -0.57049
2.608509 2.581215 2.554070 2.527072 2.500223 2.473522 2.446969 2.420565 2.394309 2.368200 2.342241 2.316429 2.290765 2.265250 2.239883 2.214664 2.189594 2.164671 2.139897 2.115271 2.090793 2.066464 2.042283 2.018249 1.994365 1.970628 1.947039 1.923599 1.900307 1.877163 1.854168 1.831320 1.808621 1.786070 1.763667 1.741413 1.719307 1.697349 1.675539 1.653877 1.632363 1.610998 1.589781 1.568712 1.547792 1.527019 1.506395 1.485919 1.465592 1.445412 1.425381 1.646057 2.055798 1.627320 1.138794 0.995353 0.430076 0.816159 0.567215 0.839495 0.781782 0.793212 0.757471 0.715365 0.570109 0.519430 0.490735 0.445504 0.212299 0.383572 0.204421 0.309341 0.241350 0.183207 0.134100 0.010088 0.041894 -0.014586 -0.056377 0.105935 0.208925 0.196830 0.159548 0.328733 0.195804 0.493082 0.583818 0.557515 0.599460 0.877760 0.813344 0.944314 0.890329 0.978766 0.946177 1.079985 1.143020 1.077501 1.123334 0.947604 0.946540 0.782965 0.655661 0.773325 0.708971 0.469182 0.308375 0.252995 0.223130 0.147751 0.091213 0.128488 0.071755 0.143859 0.056670 0.261642 0.377636 0.352164 0.480109 0.576751 0.463349 0.555680 0.700525 0.744429 0.771739 0.735845 0.725007 0.712629 0.628603 0.568292 0.424628 0.287034 0.203924 0.077112 0.125736 -0.049121 -0.029146 -0.080545 -0.043189 -0.002000 0.145438 0.089359 0.293112 0.281152 0.363977 0.459690 0.521539 0.514733 0.516802 0.511012 0.331826 0.309894 0.277704 0.102415 0.043335 -0.015346 -0.028356 -0.044385 -0.092173 -0.107508 -0.006468 0.060928 0.130473 0.148574 0.227768 0.326107 0.313691 0.425119 0.393390 0.281173 0.234605 0.240636 0.194120 0.105270 0.073012 0.012844 0.003654 0.004818 -0.020218 0.062250 0.147409 0.145496 0.234618 0.253852 0.309492 0.248243 0.222337 0.186388 0.211759 0.140441 0.045513 0.032812 -0.009419 -0.010078 -0.034660 0.020858 0.015300 0.170367 0.130597 0.178189 0.240531 0.195374 0.186474 0.198763 0.140549 0.096282 0.057155 0.047183 -0.032328 0.006530 0.026357 0.053516 0.055171 0.081639 0.091502 0.118015 0.142797 0.194956 0.081932 0.100459 0.074907 0.006997 0.009159 0.008475 -0.000978 0.021400 0.001458 0.025918 0.068593 0.085666 0.127160 0.053169 0.110083 0.056551 0.012007 0.061057 -0.034076 -0.010905 0.033910 0.001221 0.061502 0.050937 0.052964 0.071410 0.055188 0.042805 0.025297 0.009235 0.016217 0.007968 -0.013877 0.073059 -0.010764 0.017421 0.059829 0.052683 0.046739 0.046167 0.042523 0.019496 -0.009891 -0.038120 -0.010689 0.024716 0.030948 0.077688 0.058677 0.066003 0.084326 0.067566 0.032246 0.071465 0.088777 0.017079 0.021787 0.066682 0.052148 0.100056 0.105686 0.101075 0.119869 0.069081 0.037872 0.037044 -0.000312 0.005215 0.056693 0.079132 0.041941 0.037638 0.031632 0.023656 0.096548 0.047957 -0.047354 -0.048519 0.035478 0.088358 0.004758 0.028312 0.069835 0.080472 0.037356 0.053966 0.079274 0.038688 0.041476 -0.039567 0.027492 0.118005 0.075190 -0.052931 -0.024395 -0.045760 0.044418 -0.110247 0.033344 -0.096661 -0.034645 0.055245 0.041148 0.021467 -0.038607 -0.053910 -0.071704 -0.081714 -0.064625 -0.097017 -0.089729 -0.026252 0.051078 -0.032742 0.053216 0.005694 -0.039471 0.047130 -0.099921 -0.097993 -0.077033 0.000959 -0.035963 -0.043085 0.017032 0.001092 0.019048 0.204448 0.003825 0.171474 0.043900 0.232809 0.249322 0.325283 0.280460 0.098937 0.216514 0.271093 0.049156 0.220739 0.115937 0.117298 0.252435 0.097420 -0.593496
0.072396 0.072899 0.074406 0.076918 0.080434 0.084953 0.090473 0.096994 0.104513 0.113028 0.122534 0.133027 0.144503 0.156955 0.170375 0.184754 0.200080 0.216342 0.233524 0.251608 0.270576 0.290403 0.311064 0.332530 0.354767 0.377739 0.401403 0.425714 0.450621 0.476069 0.501996 0.528336 0.555014 0.581954 0.609069 0.636267 0.663451 0.690515 0.717348 0.743831 0.769837 0.795236 0.819887 0.843646 0.866363 0.887878 0.908032 0.926656 0.943581 0.958631 0.971631 0.982403 0.990768 0.996551 0.999575 0.999669 0.996667 0.990410 0.980747 0.967539 0.950658 0.929990 0.905440 0.876930 0.844403 0.807827 0.767194 0.722523 0.673866 0.621302 0.564949 0.504957 0.441513 0.374844 0.305217 0.232936 0.158348 0.081840 0.003838 0.075192 0.154748 0.234290 0.313249 0.391024 0.466990 0.540500 0.610891 0.677492 0.739628 0.796628 0.847831 0.892597 0.930316 0.960414 0.982362 0.995690 0.999994 0.994944 0.980296 0.955897 0.921699 0.877760 0.824258 0.761487 0.689872 0.609961 0.522435 0.428100 0.327886 0.222848 0.114147 0.003050 0.109087 0.220830 0.330690 0.437136 0.538618 0.633592 0.720545 0.798016 0.864628 0.919117 0.960352 0.987371 0.999400 0.995880 0.976491 0.941165 0.890110 0.823811 0.743046 0.648880 0.542662 0.426020 0.300834 0.169218 0.033492 0.103858 0.240227 0.372926 0.499246 0.616511 0.722138 0.813694 0.888964 0.946006 0.983211 0.999357 0.993650 0.965773 0.915906 0.844755 0.753551 0.644050 0.518508 0.379654 0.230635 0.074962 0.083576 0.240992 0.393200 0.536124 0.665807 0.778529 0.870920 0.940068 0.983629 0.999910 0.987956 0.947603 0.879518 0.785215 0.667041 0.528140 0.372387 0.204295 0.028895 0.148402 0.321971 0.486149 0.635421 0.764609 0.869073 0.944879 0.988969 0.999306 0.974980 0.916284 0.824754 0.703154 0.555424 0.386574 0.202536 0.009973 0.183955 0.371848 0.546346 0.700429 0.827709 0.922702 0.981099 0.999973 0.977960 0.915361 0.814198 0.678178 0.512595 0.324161 0.120740 0.088943 0.295679 0.490163 0.663432 0.807278 0.914657 0.980068 0.999853 0.972441 0.898490 0.780924 0.624868 0.437461 0.227566 0.005374 0.218071 0.431412 0.623556 0.784270 0.904737 0.978076 0.999770 0.967981 0.883737 0.750955 0.576321 0.368992 0.140156 0.097535 0.330666 0.545795 0.730238 0.872850 0.964716 0.999756 0.975175 0.891723 0.753754 0.569066 0.348504 0.105374 0.145323 0.387813 0.606527 0.787115 0.917424 0.988351 0.994527 0.934789 0.812364 0.634770 0.413436 0.163001 0.099607 0.356280 0.588984 0.781038 0.918337 0.990438 0.991412 0.920395 0.781786 0.585060 0.344190 0.076711 0.197500 0.457704 0.683844 0.858140 0.966509 0.999777 0.954524 0.833499 0.645558 0.405102 0.131045 0.154637 0.428602 0.668089 0.852809 0.966711 0.999457 0.947429 0.814212 0.610450 0.353100 0.064082 0.231518 0.507607 0.739405 0.905676 0.990762 0.986126 0.891307 0.714145 0.470254 0.181731 0.124766 0.420450 0.677085 0.869731 0.979210 0.994108 0.912069 0.740226 0.494716 0.199256 0.117046 0.422533 0.686140 0.880593 0.985289 0.988589 0.889212 0.696602 0.430162 0.117417 0.208760 0.513540 0.763887 0.932158 0.999261 0.956923 0.808836 0.570508 0.267765 0.065943 0.393155 0.676602 0.883472 0.989290 0.980928 0.858364 0.634960 0.336157 0.003297 0.343306 0.643130 0.866294 0.985089 0.984153 0.862583 0.634351 0.326859 0.022221 0.369460 0.671065 0.888409 0.993081 0.970732 0.823194 0.568567 0.239156 0.122460
1.000000 1.000000 1.000000 1.000000 1.000000 1.000000 1.000000 1.000000 1.000000 1.000000 1.000000 1.000000 1.000000 1.000000 1.000000 1.000000 1.000000 1.000000 1.000000 1.000000 1.000000 1.000000 1.000000 1.000000 1.000000 1.000000 1.000000 1.000000 1.000000 1.000000 1.000000 1.000000 1.000000 1.000000 1.000000 1.000000 1.000000 1.000000 1.000000 1.000000 1.000000 1.000000 1.000000 1.000000 1.000000 1.000000 1.000000 1.000000 1.000000 1.000000 1.000000 1.000000 0.930154 0.930154 0.930154 0.920125 0.920125 0.920125 0.920125 0.920125 0.920125 0.920125 0.920125 0.920125 0.920125 0.920125 0.920125 0.920125 0.920125 0.920125 0.920125 0.920125 0.920125 0.920125 0.920125 0.920125 0.920125 0.920125 0.920125 0.920125 0.920125 0.920125 0.920125 0.920125 0.920125 0.920125 0.920125 0.920125 0.920125 0.920125 0.920125 0.920125 0.920125 0.920125 0.920125 0.920125 0.950549 0.951769 0.959657 0.959507 0.959023 0.956970 0.956050 0.954952 0.954495 0.954767 0.955366 0.956188 0.964886 0.965950 0.967511 0.968340 0.969063 0.969722 0.969567 0.970302 0.969533 0.968995 0.968500 0.964584 0.965177 0.965748 0.965893 0.966927 0.966814 0.968821 0.968958 0.968374 0.967508 0.966780 0.966076 0.965660 0.965388 0.965888 0.966178 0.967471 0.970630 0.970079 0.969763 0.969921 0.970026 0.970210 0.970647 0.972329 0.968672 0.969296 0.967685 0.968145 0.969710 0.969607 0.969392 0.970746 0.971103 0.971474 0.969198 0.965296 0.959407 0.958294 0.955085 0.946441 0.944416 0.945284 0.947276 0.947567 0.946510 0.939203 0.939812 0.933759 0.934852 0.938136 0.933180 0.932540 0.933646 0.932408 0.930630 0.930038 0.927279 0.923779 0.921661 0.921479 0.924554 0.925432 0.926596 0.926262 0.920852 0.912453 0.897959 0.893980 0.888569 0.891756 0.880168 0.879610 0.879420 0.875548 0.879326 0.880880 0.881881 0.878056 0.858273 0.836143 0.826957 0.831280 0.836950 0.833371 0.831840 0.824856 0.837118 0.819751 0.832819 0.838267 0.835707 0.836014 0.835165 0.831950 0.825216 0.824531 0.826828 0.828069 0.827417 0.827861 0.823696 0.813459 0.816936 0.754491 0.740142 0.735940 0.741539 0.747478 0.749558 0.748530 0.756254 0.761169 0.753658 0.737832 0.730535 0.722388 0.727610 0.731685 0.736349 0.725456 0.706380 0.698086 0.660727 0.677815 0.702336 0.657097 0.681359 0.691619 0.686099 0.685040 0.677860 0.671594 0.664972 0.668134 0.680442 0.698577 0.717937 0.743092 0.738791 0.729758 0.726946 0.710124 0.702757 0.696134 0.703643 0.686111 0.681428 0.700941 0.701219 0.687850 0.671201 0.655319 0.645167 0.643821 0.649267 0.642174 0.639604 0.622715 0.593829 0.586081 0.623107 0.639709 0.658243 0.628628 0.615203 0.604404 0.577182 0.591927 0.540580 0.540351 0.563400 0.570658 0.547207 0.533243 0.542582 0.558560 0.566015 0.557169 0.530311 0.517241 0.531162 0.559753 0.551206 0.528851 0.535686 0.532863 0.527857 0.462015 0.459488 0.428949 0.399630 0.345673 0.321341 0.316200 0.300314 0.295248 0.262930 0.258492 0.270125 0.279806 0.286346 0.286421 0.267822 0.277556 0.272060 0.258807 0.199014 0.189073 0.180758 0.170480 0.170653 0.150543 0.171096 0.229165 0.230997 0.230997 0.230997 0.230997 0.230997 0.230997 0.240549 0.240549 0.240549 0.240549 0.240549 0.240549 0.240549 0.240549 0.240549 0.250652 0.250652 0.250652 0.250652 0.250652 0.250652 0.250652 0.250652 0.250652 0.250652 0.250652 0.250652 0.250652 0.250652
0.000000 0.000000 0.000000 0.000000 0.000000 0.000000 0.000000 0.000000 0.000000 0.000000 0.000000 0.000000 0.000000 0.000000 0.000000 0.000000 0.000000 0.000000 0.000000 0.000000 0.000000 0.000000 0.000000 0.000000 0.000000 0.000000 0.000000 0.000000 0.000000 0.000000 0.000000 0.000000 0.000000 0.000000 0.000000 0.000000 0.000000 0.000000 0.000000 0.000000 0.000000 0.000000 0.000000 0.000000 0.000000 0.000000 0.000000 0.000000 0.000000 0.000000 0.000000 0.000000 0.180334 0.180334 0.180334 0.199007 0.199007 0.199007 0.199007 0.199007 0.199007 0.199007 0.199007 0.199007 0.199007 0.199007 0.199007 0.199007 0.199007 0.199007 0.199007 0.199007 0.199007 0.199007 0.199007 0.199007 0.199007 0.199007 0.199007 0.199007 0.199007 0.199007 0.199007 0.199007 0.199007 0.199007 0.199007 0.199007 0.199007 0.199007 0.199007 0.199007 0.199007 0.199007 0.199007 0.199007 0.225018 0.225018 0.225018 0.225018 0.225018 0.225018 0.225018 0.225018 0.225018 0.225018 0.225018 0.225018 0.225018 0.225018 0.225018 0.225018 0.225018 0.225018 0.225018 0.225018 0.225018 0.225018 0.225018 0.225018 0.225018 0.225018 0.225018 0.225018 0.225018 0.244339 0.244339 0.244339 0.244339 0.244339 0.244339 0.244339 0.244339 0.244339 0.244339 0.244339 0.244339 0.244339 0.244339 0.244339 0.244339 0.244339 0.244339 0.244339 0.244339 0.244339 0.244339 0.244339 0.251976 0.251976 0.251976 0.251976 0.251976 0.251976 0.251976 0.251976 0.251976 0.251976 0.251976 0.251976 0.251976 0.251976 0.251976 0.251976 0.251976 0.251976 0.251976 0.251976 0.264906 0.264906 0.264906 0.264906 0.264906 0.264906 0.264906 0.264906 0.264906 0.264906 0.264906 0.264906 0.264906 0.264906 0.264906 0.264906 0.264906 0.264906 0.264906 0.264906 0.264906 0.264906 0.264906 0.264906 0.264906 0.264906 0.264906 0.264906 0.264906 0.264906 0.264906 0.264906 0.264906 0.264906 0.264906 0.264906 0.264906 0.264906 0.264906 0.264906 0.264906 0.264906 0.264906 0.264906 0.264906 0.264906 0.264906 0.264906 0.264906 0.264906 0.264906 0.264906 0.264906 0.264906 0.264906 0.264906 0.264906 0.264906 0.264906 0.264906 0.264906 0.264906 0.256074 0.256074 0.256074 0.256074 0.256074 0.256074 0.256074 0.256074 0.256074 0.256074 0.256074 0.256074 0.256074 0.256074 0.269680 0.269680 0.269680 0.269680 0.269680 0.269680 0.269680 0.269680 0.269680 0.269680 0.269680 0.269680 0.264906 0.264906 0.264906 0.264906 0.264906 0.264906 0.264906 0.264906 0.264906 0.264906 0.264906 0.264906 0.269680 0.269680 0.269680 0.269680 0.269680 0.269680 0.269680 0.269680 0.269680 0.269680 0.269680 0.264906 0.264906 0.264906 0.264906 0.264906 0.264906 0.264906 0.264906 0.264906 0.264906 0.264906 0.256074 0.256074 0.256074 0.256074 0.256074 0.256074 0.256074 0.256074 0.256074 0.256074 0.256074 0.264906 0.264906 0.264906 0.264906 0.264906 0.264906 0.264906 0.264906 0.264906 0.264906 0.260378 0.260378 0.260378 0.260378 0.260378 0.260378 0.260378 0.260378 0.260378 0.260378 0.256074 0.256074 0.256074 0.256074 0.256074 0.256074 0.256074 0.256074 0.256074 0.256074 0.260378 0.260378 0.260378 0.260378 0.260378 0.260378 0.260378 0.260378 0.260378 0.256074 0.256074 0.256074 0.256074 0.256074 0.256074 0.256074 0.256074 0.256074 0.251976 0.251976 0.251976 0.251976 0.251976 0.251976 0.251976 0.251976 0.251976 0.251976 0.251976 0.251976 0.251976 0.251976
