# Output from CTFFind version 4.1.9, run on 2019-11-03 20:05:38
# Input file: stack16_bm3d_averaged_1_7.0_0_750_half.mrc ; Number of micrographs: 1
# Pixel size: 3.000 Angstroms ; acceleration voltage: 300.0 keV ; spherical aberration: 0.00 mm ; amplitude contrast: 0.07
# Box size: 512 pixels ; min. res.: 30.0 Angstroms ; max. res.: 5.0 Angstroms ; min. def.: 5000.0 um; max. def. 50000.0 um; num. frames averaged: 1
# 6 lines per micrograph: #1 - spatial frequency (1/Angstroms); #2 - 1D rotational average of spectrum (assuming no astigmatism); #3 - 1D rotational average of spectrum; #4 - CTF fit; #5 - cross-correlation between spectrum and CTF fit; #6 - 2sigma of expected cross correlation of noise
0.000000 0.000651 0.001302 0.001953 0.002604 0.003255 0.003906 0.004557 0.005208 0.005859 0.006510 0.007161 0.007812 0.008464 0.009115 0.009766 0.010417 0.011068 0.011719 0.012370 0.013021 0.013672 0.014323 0.014974 0.015625 0.016276 0.016927 0.017578 0.018229 0.018880 0.019531 0.020182 0.020833 0.021484 0.022135 0.022786 0.023438 0.024089 0.024740 0.025391 0.026042 0.026693 0.027344 0.027995 0.028646 0.029297 0.029948 0.030599 0.031250 0.031901 0.032552 0.033203 0.033854 0.034505 0.035156 0.035807 0.036458 0.037109 0.037760 0.038411 0.039062 0.039714 0.040365 0.041016 0.041667 0.042318 0.042969 0.043620 0.044271 0.044922 0.045573 0.046224 0.046875 0.047526 0.048177 0.048828 0.049479 0.050130 0.050781 0.051432 0.052083 0.052734 0.053385 0.054036 0.054688 0.055339 0.055990 0.056641 0.057292 0.057943 0.058594 0.059245 0.059896 0.060547 0.061198 0.061849 0.062500 0.063151 0.063802 0.064453 0.065104 0.065755 0.066406 0.067057 0.067708 0.068359 0.069010 0.069661 0.070312 0.070964 0.071615 0.072266 0.072917 0.073568 0.074219 0.074870 0.075521 0.076172 0.076823 0.077474 0.078125 0.078776 0.079427 0.080078 0.080729 0.081380 0.082031 0.082682 0.083333 0.083984 0.084635 0.085286 0.085938 0.086589 0.087240 0.087891 0.088542 0.089193 0.089844 0.090495 0.091146 0.091797 0.092448 0.093099 0.093750 0.094401 0.095052 0.095703 0.096354 0.097005 0.097656 0.098307 0.098958 0.099609 0.100260 0.100911 0.101562 0.102214 0.102865 0.103516 0.104167 0.104818 0.105469 0.106120 0.106771 0.107422 0.108073 0.108724 0.109375 0.110026 0.110677 0.111328 0.111979 0.112630 0.113281 0.113932 0.114583 0.115234 0.115885 0.116536 0.117188 0.117839 0.118490 0.119141 0.119792 0.120443 0.121094 0.121745 0.122396 0.123047 0.123698 0.124349 0.125000 0.125651 0.126302 0.126953 0.127604 0.128255 0.128906 0.129557 0.130208 0.130859 0.131510 0.132161 0.132812 0.133464 0.134115 0.134766 0.135417 0.136068 0.136719 0.137370 0.138021 0.138672 0.139323 0.139974 0.140625 0.141276 0.141927 0.142578 0.143229 0.143880 0.144531 0.145182 0.145833 0.146484 0.147135 0.147786 0.148438 0.149089 0.149740 0.150391 0.151042 0.151693 0.152344 0.152995 0.153646 0.154297 0.154948 0.155599 0.156250 0.156901 0.157552 0.158203 0.158854 0.159505 0.160156 0.160807 0.161458 0.162109 0.162760 0.163411 0.164062 0.164714 0.165365 0.166016 0.166667 0.167318 0.167969 0.168620 0.169271 0.169922 0.170573 0.171224 0.171875 0.172526 0.173177 0.173828 0.174479 0.175130 0.175781 0.176432 0.177083 0.177734 0.178385 0.179036 0.179688 0.180339 0.180990 0.181641 0.182292 0.182943 0.183594 0.184245 0.184896 0.185547 0.186198 0.186849 0.187500 0.188151 0.188802 0.189453 0.190104 0.190755 0.191406 0.192057 0.192708 0.193359 0.194010 0.194661 0.195312 0.195964 0.196615 0.197266 0.197917 0.198568 0.199219 0.199870 0.200521 0.201172 0.201823 0.202474 0.203125 0.203776 0.204427 0.205078 0.205729 0.206380 0.207031 0.207682 0.208333 0.208984 0.209635 0.210286 0.210938 0.211589 0.212240 0.212891 0.213542 0.214193 0.214844 0.215495 0.216146 0.216797 0.217448 0.218099 0.218750 0.219401 0.220052 0.220703 0.221354 0.222005 0.222656 0.223307 0.223958 0.224609 0.225260 0.225911 0.226562 0.227214 0.227865 0.228516 0.229167 0.229818 0.230469 0.231120 0.231771 0.232422 0.233073 0.233724 0.234375 0.235026 0.235677
       0.35613        0.35613        0.35613        0.35613        0.35613        0.35613        0.35613        0.35613        0.35613        0.35613        0.35613        0.35613        0.35613        0.35613        0.35613        0.35613        0.35613        0.35613        0.35613        0.35613        0.35613        0.35613        0.35613        0.35613        0.35613        0.35613        0.35613        0.35613        0.35613        0.35613        0.35613        0.35613        0.35613        0.35613        0.35613        0.35613        0.35613        0.35613        0.35613        0.35613        0.35613        0.35613        0.35613        0.35613        0.35613        0.35613        0.35613        0.35613        0.35613        0.35613        0.35613        0.43387        0.55870        0.34515       -0.21582       -0.44741       -0.53821       -0.64080       -0.70880       -0.71353       -0.80615       -0.88205       -0.67228       -0.82525       -0.81075       -0.95139       -0.99086       -0.87221       -0.83111       -0.79096       -0.70041       -0.63211       -0.54193       -0.44909       -0.38547       -0.15781       -0.05642        0.04890        0.26869        0.26396        0.32283        0.37505        0.40783        0.53063        0.54246        0.57794        0.53579        0.47826        0.50927        0.53589        0.45980        0.33816        0.22438        0.18983        0.11794        0.02353        0.00701       -0.00242        0.06816        0.03488        0.08639        0.05888        0.17635        0.20413        0.41343        0.46455        0.55103        0.65962        0.68639        0.71381        0.64206        0.61430        0.55030        0.44616        0.39425        0.28798        0.22646        0.22391        0.11261        0.12507        0.12715        0.09766        0.10507        0.31011        0.42370        0.53109        0.53681        0.56961        0.60854        0.58955        0.57256        0.58705        0.57166        0.47311        0.31606        0.27438        0.26658        0.16493        0.10135        0.18078        0.22387        0.29541        0.35933        0.43347        0.47896        0.53519        0.60518        0.54983        0.50803        0.51175        0.36166        0.29039        0.27097        0.18562        0.21474        0.24986        0.28721        0.29204        0.33769        0.43664        0.47057        0.50192        0.45719        0.44528        0.49321        0.40282        0.33456        0.29471        0.27086        0.24235        0.23357        0.24565        0.34633        0.45539        0.44052        0.49175        0.55745        0.45650        0.41852        0.36172        0.32521        0.28312        0.29015        0.27733        0.29664        0.36509        0.37155        0.44683        0.47582        0.44679        0.46917        0.38575        0.38465        0.35844        0.28173        0.26287        0.26145        0.34520        0.38673        0.36938        0.39487        0.43716        0.44919        0.38869        0.34380        0.32933        0.35932        0.32388        0.29186        0.29671        0.36601        0.38278        0.40116        0.39287        0.39954        0.42738        0.41369        0.33227        0.29672        0.31944        0.34777        0.39175        0.36788        0.40881        0.35265        0.37611        0.39815        0.34770        0.36071        0.32877        0.31002        0.34386        0.35341        0.33761        0.36890        0.38432        0.33539        0.35581        0.33001        0.32385        0.30787        0.32855        0.33186        0.33352        0.37314        0.38212        0.36651        0.31579        0.30915        0.29394        0.33849        0.32254        0.32213        0.37803        0.36266        0.34722        0.32403        0.31268        0.31248        0.28455        0.32637        0.34079        0.35323        0.37852        0.36119        0.32556        0.34562        0.36392        0.34404        0.36122        0.35331        0.32242        0.33985        0.29839        0.32590        0.30708        0.32228        0.29184        0.32784        0.35575        0.33396        0.36280        0.32131        0.34249        0.36236        0.34803        0.32686        0.33677        0.37395        0.35224        0.35738        0.33789        0.31783        0.32877        0.32209        0.33325        0.33186        0.37018        0.33642        0.33861        0.30319        0.30025        0.27798        0.28246        0.36747        0.31728        0.33712        0.30075        0.27008        0.27971        0.36932        0.31289        0.29128        0.32970        0.32388        0.29952        0.26428        0.30489        0.27483        0.30816        0.31362        0.34913        0.34145        0.32703        0.32198        0.27326        0.28855        0.28764        0.29038        0.30632        0.36523        0.30637        0.21340        0.30962        0.30601        0.34097        0.27100        0.29960        0.28932        0.33344        0.28805        0.27683        0.27899        0.25261        0.31326        0.33758        0.32763        0.26126        0.32046        0.27185        0.24345        0.22828        0.33012        0.25738        0.16074        0.11524        0.20183        0.35002        0.26599        0.19232        0.14466       -0.40122       -0.53408
3.237000 3.195778 3.154825 3.114139 3.073721 3.033571 2.993690 2.954076 2.914731 2.875653 2.836844 2.798303 2.760029 2.722024 2.684287 2.646818 2.609617 2.572684 2.536019 2.499622 2.463493 2.427632 2.392039 2.356714 2.321657 2.286869 2.252348 2.218095 2.184111 2.150395 2.116946 2.083766 2.050853 2.018209 1.985833 1.953725 1.921884 1.890312 1.859008 1.827972 1.797204 1.766704 1.736472 1.706509 1.676813 1.647385 1.618225 1.589334 1.560710 1.532354 1.504267 1.540224 1.609892 1.550633 0.843137 0.600701 0.462060 0.392327 0.295296 0.223314 0.191706 -0.047805 0.212237 0.078968 -0.026537 -0.104298 -0.236194 -0.141815 -0.049724 -0.093802 -0.070319 0.038651 0.039340 0.233401 0.109924 0.358811 0.464443 0.499095 0.774713 0.683062 0.698859 0.822551 0.795483 0.845247 0.923006 0.852039 0.885294 0.725180 0.784254 0.844615 0.690204 0.605131 0.433434 0.428272 0.326900 0.192759 0.187696 0.113303 0.207974 0.119313 0.206810 0.104399 0.214164 0.226989 0.434046 0.398240 0.566359 0.604842 0.624762 0.714119 0.600328 0.569869 0.456459 0.407132 0.282491 0.258972 0.088642 0.147803 -0.031683 0.035362 -0.030981 -0.045963 -0.061855 0.020716 0.257874 0.287908 0.351851 0.289529 0.374863 0.383611 0.404756 0.386168 0.351895 0.320613 0.116332 0.069239 0.059976 -0.024745 -0.154505 -0.058811 -0.065430 0.032985 0.070929 0.144508 0.206782 0.219183 0.311455 0.398927 0.276535 0.359023 0.223708 0.141862 0.063737 0.032690 -0.000166 0.052716 0.068440 0.091824 0.117676 0.167655 0.236886 0.301545 0.264295 0.204952 0.249334 0.223811 0.108328 0.053542 0.054850 0.023768 0.004723 -0.027518 0.028680 0.166535 0.194705 0.186627 0.294194 0.184979 0.192503 0.070683 0.062841 0.014241 -0.006975 -0.005493 -0.012315 0.045560 0.073876 0.100725 0.155904 0.138609 0.222262 0.137815 0.076381 0.098424 0.040413 -0.048341 -0.017882 0.028390 0.069222 0.072007 0.064484 0.150233 0.109405 0.155502 0.036448 0.046134 0.044811 0.044616 0.027292 -0.020485 0.040028 0.051420 0.091808 0.098741 0.085624 0.112604 0.123340 0.079637 0.010842 -0.011206 0.020655 0.074487 0.075122 0.087355 0.083401 0.053702 0.101661 0.066123 0.041448 0.075348 -0.011208 0.011268 0.066417 0.040188 0.044513 0.073897 0.078861 0.048101 0.066671 0.017737 0.018776 0.010619 0.055454 0.015206 0.039303 0.074177 0.078058 0.045062 -0.005330 -0.002433 -0.019501 0.044567 0.001144 0.012023 0.073154 0.044555 0.003999 0.012344 -0.017697 0.005129 -0.039382 0.008489 0.018235 0.045841 0.045810 0.029921 -0.002814 0.005773 0.039065 0.009074 0.035422 0.008936 -0.013112 0.015541 -0.045075 -0.030369 -0.054699 -0.012115 -0.068785 0.006027 0.008911 -0.006408 -0.014724 -0.003294 -0.001624 0.027553 0.011576 -0.012686 0.011050 0.025297 0.032574 0.029057 0.004288 0.009972 0.008348 -0.008208 0.015824 -0.006608 0.095526 0.033483 0.025652 0.004530 -0.008420 -0.028080 0.003372 0.076842 -0.003249 0.052237 -0.023382 -0.024135 -0.023552 0.093221 0.002616 -0.024679 0.067270 0.052734 0.005683 0.001112 0.014970 0.003970 0.044245 0.037787 0.094731 0.049437 0.051660 0.044704 -0.006852 0.020433 -0.000800 -0.001743 0.018396 0.088813 -0.008053 -0.083783 0.038083 0.002537 0.077723 -0.048576 -0.009209 -0.006558 0.018031 -0.005986 -0.028733 -0.013043 -0.067272 0.047375 0.040706 0.050618 -0.113976 0.032355 0.023068 -0.011152 -0.071751 0.102572 0.025748 -0.050943 -0.120990 0.165972 0.347024 0.211448 0.130869 0.145876 -0.513176
0.072396 0.073047 0.074998 0.078249 0.082799 0.088647 0.095791 0.104227 0.113951 0.124958 0.137243 0.150795 0.165606 0.181663 0.198950 0.217448 0.237136 0.257987 0.279972 0.303053 0.327191 0.352339 0.378442 0.405440 0.433265 0.461841 0.491081 0.520892 0.551170 0.581799 0.612657 0.643606 0.674500 0.705181 0.735480 0.765215 0.794193 0.822213 0.849059 0.874507 0.898324 0.920269 0.940091 0.957536 0.972345 0.984256 0.993007 0.998337 0.999991 0.997720 0.991287 0.980467 0.965054 0.944862 0.919729 0.889524 0.854148 0.813540 0.767681 0.716596 0.660362 0.599109 0.533024 0.462354 0.387411 0.308572 0.226279 0.141045 0.053448 0.035867 0.126190 0.216750 0.306720 0.395223 0.481338 0.564110 0.642559 0.715693 0.782520 0.842062 0.893370 0.935542 0.967739 0.989201 0.999271 0.997406 0.983200 0.956398 0.916914 0.864846 0.800485 0.724328 0.637086 0.539682 0.433256 0.319158 0.198940 0.074337 0.052744 0.180256 0.306039 0.427854 0.543423 0.650471 0.746779 0.830224 0.898842 0.950870 0.984806 0.999455 0.993978 0.967932 0.921307 0.854553 0.768596 0.664853 0.545214 0.412036 0.268105 0.116595 0.039000 0.194928 0.347274 0.492053 0.625314 0.743257 0.842346 0.919427 0.971842 0.997533 0.995138 0.964072 0.904585 0.817800 0.705725 0.571236 0.418026 0.250530 0.073812 0.106571 0.284735 0.454661 0.610394 0.746261 0.857094 0.938438 0.986756 0.999604 0.975778 0.915421 0.820081 0.692716 0.537643 0.360427 0.167712 0.033009 0.233661 0.425915 0.601524 0.752696 0.872449 0.954964 0.995898 0.992646 0.944537 0.852953 0.721348 0.555173 0.361702 0.149745 0.070719 0.288988 0.494159 0.675666 0.823851 0.930502 0.989346 0.996464 0.950598 0.853326 0.709086 0.525043 0.310791 0.077902 0.160667 0.391279 0.600381 0.775331 0.905181 0.981410 0.998540 0.954585 0.851312 0.694262 0.492535 0.258343 0.006305 0.247405 0.486089 0.693636 0.855617 0.960353 0.999806 0.970276 0.872813 0.713300 0.502209 0.253990 0.013849 0.281932 0.530397 0.740380 0.895478 0.983098 0.995551 0.930820 0.792905 0.591705 0.342404 0.064430 0.220017 0.487689 0.716207 0.885965 0.981871 0.994790 0.922512 0.770169 0.550000 0.280503 0.015028 0.310463 0.579113 0.796147 0.940964 0.999222 0.964378 0.838542 0.632532 0.365090 0.061302 0.249688 0.537408 0.773068 0.932500 0.998720 0.963875 0.830311 0.610617 0.326601 0.007269 0.314061 0.603204 0.828745 0.965541 0.997643 0.920305 0.740823 0.478040 0.160551 0.176307 0.494289 0.756604 0.932219 0.999646 0.949738 0.787100 0.529904 0.208041 0.140185 0.472538 0.747969 0.931723 0.999868 0.942585 0.765774 0.490703 0.151656 0.208181 0.542136 0.806107 0.964466 0.995025 0.892350 0.668911 0.353821 0.010737 0.375037 0.688513 0.906847 0.998350 0.948773 0.763755 0.468495 0.104568 0.275753 0.616907 0.868192 0.991405 0.966865 0.796811 0.505567 0.136352 0.254942 0.608094 0.867837 0.992630 0.961524 0.777957 0.469760 0.085217 0.314265 0.663873 0.905941 0.999600 0.927945 0.701386 0.356495 0.049598 0.448471 0.771881 0.963515 0.989010 0.842415 0.547855 0.155896 0.264836 0.639545 0.900569 0.999774 0.917698 0.667737 0.294343 0.134516 0.539573 0.844822 0.991953 0.951733 0.730203 0.368224 0.065688 0.488059 0.816487 0.985794 0.961252 0.746084 0.381583 0.060412 0.491413 0.823911 0.989267 0.952172 0.718599 0.335372 0.118801 0.549259 0.865013 0.998163 0.918832 0.642302 0.226602 0.239290 0.654222
1.000000 1.000000 1.000000 1.000000 1.000000 1.000000 1.000000 1.000000 1.000000 1.000000 1.000000 1.000000 1.000000 1.000000 1.000000 1.000000 1.000000 1.000000 1.000000 1.000000 1.000000 1.000000 1.000000 1.000000 1.000000 1.000000 1.000000 1.000000 1.000000 1.000000 1.000000 1.000000 1.000000 1.000000 1.000000 1.000000 1.000000 1.000000 1.000000 1.000000 1.000000 1.000000 1.000000 1.000000 1.000000 1.000000 1.000000 1.000000 1.000000 1.000000 1.000000 1.000000 0.923064 0.923064 0.923064 0.923064 0.923064 0.923064 0.923064 0.923064 0.923064 0.923064 0.923064 0.923064 0.923064 0.923064 0.923064 0.923064 0.923064 0.923064 0.923064 0.923064 0.923064 0.923064 0.923064 0.923064 0.923064 0.923064 0.923064 0.923064 0.923064 0.923064 0.923064 0.923064 0.923064 0.913218 0.911334 0.912484 0.911023 0.909589 0.908999 0.908604 0.909643 0.911242 0.913322 0.934971 0.938072 0.939317 0.940646 0.942024 0.944314 0.942145 0.949696 0.956195 0.955120 0.956251 0.950050 0.951478 0.950808 0.950059 0.951414 0.951563 0.949851 0.947816 0.946106 0.945529 0.945295 0.948952 0.949445 0.949592 0.950188 0.950131 0.950847 0.951441 0.949563 0.951816 0.943887 0.942554 0.947825 0.945721 0.947083 0.947042 0.947731 0.948530 0.948850 0.949123 0.945869 0.945379 0.944386 0.937766 0.930568 0.930838 0.932933 0.935657 0.932989 0.930473 0.931778 0.933514 0.932587 0.935921 0.926964 0.922638 0.896080 0.882208 0.873193 0.873383 0.877518 0.880215 0.877997 0.872177 0.863927 0.860397 0.859639 0.856093 0.847525 0.862708 0.856900 0.852974 0.856492 0.859736 0.865064 0.863277 0.859109 0.854227 0.849154 0.838470 0.839612 0.841225 0.845516 0.827530 0.816037 0.832637 0.825362 0.816727 0.824682 0.826668 0.823950 0.822580 0.822895 0.820745 0.814234 0.806568 0.810500 0.819492 0.820723 0.811098 0.808794 0.807171 0.806695 0.801243 0.806649 0.808764 0.805278 0.797625 0.815164 0.783512 0.803711 0.805000 0.787204 0.771709 0.760477 0.769284 0.778354 0.775947 0.770415 0.778174 0.778090 0.770409 0.746627 0.736609 0.744194 0.742506 0.732349 0.719609 0.726407 0.722644 0.720063 0.717679 0.721073 0.721882 0.699570 0.713469 0.718197 0.710447 0.723142 0.725900 0.716880 0.720178 0.724397 0.727756 0.728458 0.698180 0.701263 0.645076 0.634727 0.592165 0.588676 0.583448 0.527702 0.532753 0.514155 0.499741 0.500427 0.468344 0.517853 0.424015 0.413086 0.438693 0.367217 0.329782 0.347673 0.349143 0.361080 0.363828 0.360002 0.363108 0.347263 0.321975 0.297406 0.324531 0.340292 0.314593 0.316140 0.292957 0.278654 0.229318 0.244685 0.248890 0.280490 0.283435 0.267720 0.288867 0.330488 0.270123 0.254237 0.232444 0.258425 0.264608 0.259078 0.248325 0.265625 0.206423 0.211368 0.231711 0.233666 0.278142 0.304865 0.327722 0.325036 0.330025 0.359582 0.313747 0.324033 0.328794 0.319321 0.345446 0.348778 0.355607 0.350171 0.381823 0.379771 0.385648 0.387498 0.402906 0.439879 0.415796 0.393912 0.356821 0.368214 0.365807 0.375426 0.318195 0.292876 0.292442 0.258814 0.215134 0.216833 0.217097 0.171957 0.164936 0.147541 0.115206 0.113875 0.122028 0.150394 0.121312 0.136899 0.139610 0.139610 0.139610 0.139610 0.139610 0.139610 0.139610 0.139610 0.139610 0.139610 0.139610 0.139610 0.139610 0.139610 0.161267 0.161267 0.161267 0.161267 0.161267 0.161267 0.161267 0.161267 0.161267 0.161267 0.161267 0.161267
0.000000 0.000000 0.000000 0.000000 0.000000 0.000000 0.000000 0.000000 0.000000 0.000000 0.000000 0.000000 0.000000 0.000000 0.000000 0.000000 0.000000 0.000000 0.000000 0.000000 0.000000 0.000000 0.000000 0.000000 0.000000 0.000000 0.000000 0.000000 0.000000 0.000000 0.000000 0.000000 0.000000 0.000000 0.000000 0.000000 0.000000 0.000000 0.000000 0.000000 0.000000 0.000000 0.000000 0.000000 0.000000 0.000000 0.000000 0.000000 0.000000 0.000000 0.000000 0.000000 0.209657 0.209657 0.209657 0.209657 0.209657 0.209657 0.209657 0.209657 0.209657 0.209657 0.209657 0.209657 0.209657 0.209657 0.209657 0.209657 0.209657 0.209657 0.209657 0.209657 0.209657 0.209657 0.209657 0.209657 0.209657 0.209657 0.209657 0.209657 0.209657 0.209657 0.209657 0.209657 0.209657 0.244339 0.244339 0.244339 0.244339 0.244339 0.244339 0.244339 0.244339 0.244339 0.244339 0.244339 0.244339 0.244339 0.244339 0.244339 0.244339 0.244339 0.244339 0.244339 0.244339 0.244339 0.244339 0.244339 0.244339 0.244339 0.260378 0.260378 0.260378 0.260378 0.260378 0.260378 0.260378 0.260378 0.260378 0.260378 0.260378 0.260378 0.260378 0.260378 0.260378 0.260378 0.260378 0.260378 0.260378 0.260378 0.269680 0.269680 0.269680 0.269680 0.269680 0.269680 0.269680 0.269680 0.269680 0.269680 0.269680 0.269680 0.269680 0.269680 0.269680 0.269680 0.269680 0.269680 0.269680 0.269680 0.269680 0.269680 0.269680 0.269680 0.269680 0.269680 0.269680 0.269680 0.269680 0.269680 0.269680 0.269680 0.269680 0.280056 0.280056 0.280056 0.280056 0.280056 0.280056 0.280056 0.280056 0.280056 0.280056 0.280056 0.280056 0.280056 0.280056 0.280056 0.280056 0.280056 0.280056 0.280056 0.280056 0.280056 0.280056 0.280056 0.280056 0.280056 0.280056 0.280056 0.274721 0.274721 0.274721 0.274721 0.274721 0.274721 0.274721 0.274721 0.274721 0.274721 0.274721 0.274721 0.274721 0.285714 0.285714 0.285714 0.285714 0.285714 0.285714 0.285714 0.285714 0.285714 0.285714 0.285714 0.280056 0.280056 0.280056 0.280056 0.280056 0.280056 0.280056 0.280056 0.280056 0.280056 0.280056 0.274721 0.274721 0.274721 0.274721 0.274721 0.274721 0.274721 0.274721 0.274721 0.274721 0.274721 0.280056 0.280056 0.280056 0.280056 0.280056 0.280056 0.280056 0.280056 0.280056 0.280056 0.285714 0.285714 0.285714 0.285714 0.285714 0.285714 0.285714 0.285714 0.285714 0.269680 0.269680 0.269680 0.269680 0.269680 0.269680 0.269680 0.269680 0.269680 0.269680 0.274721 0.274721 0.274721 0.274721 0.274721 0.274721 0.274721 0.274721 0.274721 0.285714 0.285714 0.285714 0.285714 0.285714 0.285714 0.285714 0.285714 0.264906 0.264906 0.264906 0.264906 0.264906 0.264906 0.264906 0.264906 0.264906 0.274721 0.274721 0.274721 0.274721 0.274721 0.274721 0.274721 0.274721 0.269680 0.269680 0.269680 0.269680 0.269680 0.269680 0.269680 0.269680 0.269680 0.269680 0.269680 0.269680 0.269680 0.269680 0.269680 0.269680 0.280056 0.280056 0.280056 0.280056 0.280056 0.280056 0.280056 0.260378 0.260378 0.260378 0.260378 0.260378 0.260378 0.260378 0.260378 0.269680 0.269680 0.269680 0.269680 0.269680 0.269680 0.269680 0.264906 0.264906 0.264906 0.264906 0.264906 0.264906 0.264906 0.264906 0.264906 0.264906 0.264906 0.264906 0.264906 0.264906 0.260378 0.260378 0.260378 0.260378 0.260378 0.260378 0.260378 0.260378 0.260378 0.260378 0.260378 0.260378
