# Output from CTFFind version 4.1.9, run on 2019-11-03 20:10:46
# Input file: stack16_bm3d_averaged_1_6.0_0_3000_half.mrc ; Number of micrographs: 1
# Pixel size: 3.000 Angstroms ; acceleration voltage: 300.0 keV ; spherical aberration: 0.00 mm ; amplitude contrast: 0.07
# Box size: 512 pixels ; min. res.: 30.0 Angstroms ; max. res.: 5.0 Angstroms ; min. def.: 5000.0 um; max. def. 50000.0 um; num. frames averaged: 1
# 6 lines per micrograph: #1 - spatial frequency (1/Angstroms); #2 - 1D rotational average of spectrum (assuming no astigmatism); #3 - 1D rotational average of spectrum; #4 - CTF fit; #5 - cross-correlation between spectrum and CTF fit; #6 - 2sigma of expected cross correlation of noise
0.000000 0.000651 0.001302 0.001953 0.002604 0.003255 0.003906 0.004557 0.005208 0.005859 0.006510 0.007161 0.007812 0.008464 0.009115 0.009766 0.010417 0.011068 0.011719 0.012370 0.013021 0.013672 0.014323 0.014974 0.015625 0.016276 0.016927 0.017578 0.018229 0.018880 0.019531 0.020182 0.020833 0.021484 0.022135 0.022786 0.023438 0.024089 0.024740 0.025391 0.026042 0.026693 0.027344 0.027995 0.028646 0.029297 0.029948 0.030599 0.031250 0.031901 0.032552 0.033203 0.033854 0.034505 0.035156 0.035807 0.036458 0.037109 0.037760 0.038411 0.039062 0.039714 0.040365 0.041016 0.041667 0.042318 0.042969 0.043620 0.044271 0.044922 0.045573 0.046224 0.046875 0.047526 0.048177 0.048828 0.049479 0.050130 0.050781 0.051432 0.052083 0.052734 0.053385 0.054036 0.054688 0.055339 0.055990 0.056641 0.057292 0.057943 0.058594 0.059245 0.059896 0.060547 0.061198 0.061849 0.062500 0.063151 0.063802 0.064453 0.065104 0.065755 0.066406 0.067057 0.067708 0.068359 0.069010 0.069661 0.070312 0.070964 0.071615 0.072266 0.072917 0.073568 0.074219 0.074870 0.075521 0.076172 0.076823 0.077474 0.078125 0.078776 0.079427 0.080078 0.080729 0.081380 0.082031 0.082682 0.083333 0.083984 0.084635 0.085286 0.085938 0.086589 0.087240 0.087891 0.088542 0.089193 0.089844 0.090495 0.091146 0.091797 0.092448 0.093099 0.093750 0.094401 0.095052 0.095703 0.096354 0.097005 0.097656 0.098307 0.098958 0.099609 0.100260 0.100911 0.101562 0.102214 0.102865 0.103516 0.104167 0.104818 0.105469 0.106120 0.106771 0.107422 0.108073 0.108724 0.109375 0.110026 0.110677 0.111328 0.111979 0.112630 0.113281 0.113932 0.114583 0.115234 0.115885 0.116536 0.117188 0.117839 0.118490 0.119141 0.119792 0.120443 0.121094 0.121745 0.122396 0.123047 0.123698 0.124349 0.125000 0.125651 0.126302 0.126953 0.127604 0.128255 0.128906 0.129557 0.130208 0.130859 0.131510 0.132161 0.132812 0.133464 0.134115 0.134766 0.135417 0.136068 0.136719 0.137370 0.138021 0.138672 0.139323 0.139974 0.140625 0.141276 0.141927 0.142578 0.143229 0.143880 0.144531 0.145182 0.145833 0.146484 0.147135 0.147786 0.148438 0.149089 0.149740 0.150391 0.151042 0.151693 0.152344 0.152995 0.153646 0.154297 0.154948 0.155599 0.156250 0.156901 0.157552 0.158203 0.158854 0.159505 0.160156 0.160807 0.161458 0.162109 0.162760 0.163411 0.164062 0.164714 0.165365 0.166016 0.166667 0.167318 0.167969 0.168620 0.169271 0.169922 0.170573 0.171224 0.171875 0.172526 0.173177 0.173828 0.174479 0.175130 0.175781 0.176432 0.177083 0.177734 0.178385 0.179036 0.179688 0.180339 0.180990 0.181641 0.182292 0.182943 0.183594 0.184245 0.184896 0.185547 0.186198 0.186849 0.187500 0.188151 0.188802 0.189453 0.190104 0.190755 0.191406 0.192057 0.192708 0.193359 0.194010 0.194661 0.195312 0.195964 0.196615 0.197266 0.197917 0.198568 0.199219 0.199870 0.200521 0.201172 0.201823 0.202474 0.203125 0.203776 0.204427 0.205078 0.205729 0.206380 0.207031 0.207682 0.208333 0.208984 0.209635 0.210286 0.210938 0.211589 0.212240 0.212891 0.213542 0.214193 0.214844 0.215495 0.216146 0.216797 0.217448 0.218099 0.218750 0.219401 0.220052 0.220703 0.221354 0.222005 0.222656 0.223307 0.223958 0.224609 0.225260 0.225911 0.226562 0.227214 0.227865 0.228516 0.229167 0.229818 0.230469 0.231120 0.231771 0.232422 0.233073 0.233724 0.234375 0.235026 0.235677
       0.34360        0.34360        0.34360        0.34360        0.34360        0.34360        0.34360        0.34360        0.34360        0.34360        0.34360        0.34360        0.34360        0.34360        0.34360        0.34360        0.34360        0.34360        0.34360        0.34360        0.34360        0.34360        0.34360        0.34360        0.34360        0.34360        0.34360        0.34360        0.34360        0.34360        0.34360        0.34360        0.34360        0.34360        0.34360        0.34360        0.34360        0.34360        0.34360        0.34360        0.34360        0.34360        0.34360        0.34360        0.34360        0.34360        0.34360        0.34360        0.34360        0.34360        0.34360        0.42396        0.55540        0.34118       -0.21421       -0.45571       -0.55013       -0.64992       -0.72045       -0.72892       -0.82438       -0.89597       -0.68958       -0.84597       -0.82685       -0.97244       -1.00984       -0.89104       -0.84992       -0.80500       -0.72076       -0.65115       -0.56267       -0.46823       -0.40251       -0.17400       -0.07114        0.02880        0.25184        0.25369        0.31032        0.36896        0.39855        0.51444        0.53509        0.57094        0.53124        0.47063        0.50424        0.52127        0.44317        0.32770        0.20904        0.17636        0.10781        0.00204       -0.01401       -0.02258        0.05043        0.01679        0.06882        0.04275        0.15827        0.19184        0.40492        0.45716        0.54791        0.65662        0.68741        0.71253        0.63401        0.60997        0.53520        0.43702        0.38475        0.27105        0.21340        0.20787        0.09681        0.10427        0.09902        0.08117        0.09215        0.30290        0.41196        0.51815        0.53161        0.56997        0.60719        0.58646        0.57346        0.58118        0.56395        0.46309        0.30091        0.26087        0.24869        0.14289        0.08616        0.16232        0.19822        0.27998        0.35042        0.42246        0.46991        0.52833        0.59931        0.54339        0.50565        0.49702        0.35258        0.26798        0.25457        0.17144        0.18783        0.22758        0.27013        0.27840        0.32057        0.42350        0.45760        0.49763        0.45021        0.44069        0.48217        0.38861        0.32657        0.28316        0.25389        0.22759        0.22659        0.23549        0.33290        0.43893        0.42739        0.48748        0.55121        0.44334        0.40960        0.35321        0.30890        0.26466        0.27672        0.26700        0.28523        0.34072        0.35021        0.43123        0.47059        0.43601        0.45600        0.37039        0.37536        0.35243        0.26566        0.24737        0.24456        0.32324        0.37560        0.36364        0.38735        0.43101        0.43746        0.37171        0.33652        0.31750        0.34746        0.30924        0.27687        0.27921        0.35046        0.36772        0.38392        0.38593        0.38533        0.41431        0.39922        0.31743        0.28596        0.31265        0.34043        0.37118        0.35661        0.40110        0.34002        0.36809        0.38937        0.33294        0.35116        0.31659        0.29711        0.33492        0.33817        0.32473        0.34900        0.36707        0.32405        0.34406        0.31642        0.31298        0.29031        0.31606        0.31220        0.32504        0.36313        0.36732        0.34910        0.30523        0.29500        0.28289        0.32559        0.30698        0.31148        0.36665        0.35599        0.33832        0.31139        0.30193        0.30826        0.27228        0.30883        0.32312        0.33161        0.36728        0.34500        0.30410        0.33148        0.33905        0.32458        0.35263        0.34259        0.30866        0.33023        0.28921        0.32004        0.29173        0.31026        0.28667        0.31796        0.35159        0.32777        0.35107        0.30740        0.32323        0.34618        0.33655        0.31190        0.31336        0.35284        0.33527        0.33021        0.32160        0.30932        0.30806        0.31088        0.31940        0.31845        0.34822        0.33838        0.33674        0.29040        0.28016        0.26530        0.26638        0.35901        0.30834        0.34512        0.29357        0.25899        0.27746        0.36001        0.30541        0.28008        0.30400        0.31334        0.29451        0.26492        0.30558        0.26934        0.28368        0.30268        0.32839        0.33139        0.31839        0.30293        0.26343        0.26844        0.26374        0.26987        0.29113        0.35729        0.28907        0.19717        0.29929        0.28064        0.31804        0.24657        0.29882        0.30235        0.33301        0.28967        0.27470        0.26385        0.23999        0.29771        0.34164        0.34377        0.24419        0.28667        0.23401        0.22888        0.20766        0.33093        0.24885        0.17830        0.12450        0.21098        0.32373        0.22027        0.18910        0.09822       -0.50296       -0.60630
3.162867 3.122873 3.083137 3.043661 3.004444 2.965486 2.926787 2.888347 2.850166 2.812245 2.774582 2.737178 2.700033 2.663148 2.626521 2.590154 2.554045 2.518196 2.482605 2.447274 2.412202 2.377389 2.342835 2.308540 2.274504 2.240727 2.207209 2.173950 2.140950 2.108209 2.075728 2.043505 2.011541 1.979837 1.948391 1.917205 1.886278 1.855609 1.825200 1.795050 1.765159 1.735527 1.706154 1.677039 1.648185 1.619589 1.591252 1.563174 1.535355 1.507796 1.480495 1.515193 1.596557 1.536524 0.843272 0.592406 0.453059 0.384849 0.289293 0.213869 0.179958 -0.051417 0.202312 0.067436 -0.032585 -0.114065 -0.239972 -0.146565 -0.059015 -0.093940 -0.076761 0.033781 0.030733 0.224833 0.106218 0.353704 0.461053 0.487840 0.764188 0.684523 0.691330 0.825212 0.796144 0.837040 0.922875 0.853316 0.889737 0.725373 0.791751 0.844654 0.683516 0.604286 0.436644 0.425437 0.339315 0.187906 0.184078 0.115600 0.209099 0.120414 0.209590 0.105602 0.218245 0.230162 0.444604 0.405877 0.577668 0.616691 0.647460 0.723259 0.609662 0.585869 0.461567 0.412696 0.293686 0.264680 0.096826 0.156847 -0.025519 0.038643 -0.032509 -0.040595 -0.050583 0.031116 0.272930 0.294901 0.365553 0.308350 0.390550 0.401710 0.426451 0.406785 0.359893 0.335166 0.127096 0.080546 0.065343 -0.015939 -0.152767 -0.045707 -0.066204 0.039140 0.082191 0.156566 0.222674 0.231755 0.321599 0.411190 0.295823 0.364671 0.239798 0.140519 0.067695 0.040035 0.002963 0.047657 0.071952 0.100730 0.117822 0.176249 0.241043 0.309386 0.275981 0.216941 0.256335 0.227659 0.111409 0.067610 0.050594 0.028707 0.007454 -0.013074 0.032840 0.170295 0.189271 0.193285 0.302618 0.189102 0.197652 0.077383 0.069188 0.004409 -0.007121 0.000743 -0.006886 0.042114 0.061240 0.095243 0.156984 0.142895 0.222097 0.132406 0.077427 0.100104 0.046382 -0.055144 -0.023112 0.022873 0.061334 0.074850 0.071189 0.152254 0.121385 0.152059 0.036872 0.052737 0.045215 0.049122 0.025394 -0.021721 0.039357 0.046626 0.088585 0.102324 0.090789 0.110143 0.125598 0.077568 0.013768 -0.005457 0.028759 0.078377 0.066584 0.093794 0.088373 0.053861 0.108168 0.066731 0.042038 0.080284 -0.016545 0.017353 0.063174 0.038151 0.043387 0.060532 0.073111 0.050921 0.063622 0.013698 0.019730 0.001118 0.051180 0.004978 0.044090 0.067454 0.075958 0.040940 -0.008002 -0.004825 -0.018917 0.037316 -0.000049 0.013461 0.071290 0.052485 -0.002232 0.009859 -0.013853 0.009423 -0.043019 0.001443 0.007293 0.034999 0.048926 0.021875 -0.013600 0.005293 0.018583 0.003416 0.039998 0.011750 -0.017579 0.023323 -0.043223 -0.022577 -0.053925 -0.012435 -0.053649 0.010508 0.020115 -0.001319 -0.003599 -0.006047 0.001980 0.025249 0.021192 -0.011709 0.002831 0.025206 0.039030 0.017236 0.010584 0.025045 -0.002151 -0.001959 0.018542 -0.004460 0.084037 0.049157 0.033540 0.001968 -0.010196 -0.034078 -0.000933 0.083708 -0.009079 0.068692 -0.023751 -0.024852 -0.020264 0.095023 -0.001042 -0.020333 0.043640 0.047809 0.011123 0.005259 0.025944 0.003976 0.026604 0.034854 0.070938 0.066286 0.048495 0.037369 -0.005422 0.005081 -0.006480 -0.011977 0.007151 0.102730 -0.022900 -0.093750 0.050606 -0.017394 0.067480 -0.059115 0.003845 0.013131 0.024887 0.003257 -0.019674 -0.021202 -0.072867 0.034183 0.049617 0.061208 -0.125352 0.003760 -0.018738 -0.012970 -0.117124 0.103229 0.014621 -0.033490 -0.088022 0.188075 0.271969 0.151541 0.144531 0.101492 -0.576762
0.072396 0.073047 0.074998 0.078249 0.082800 0.088648 0.095792 0.104228 0.113953 0.124961 0.137246 0.150799 0.165611 0.181668 0.198955 0.217454 0.237143 0.257996 0.279981 0.303064 0.327203 0.352351 0.378455 0.405455 0.433281 0.461857 0.491099 0.520911 0.551189 0.581820 0.612678 0.643628 0.674523 0.705204 0.735503 0.765238 0.794217 0.822236 0.849082 0.874529 0.898345 0.920288 0.940109 0.957552 0.972359 0.984267 0.993014 0.998341 0.999991 0.997715 0.991277 0.980452 0.965033 0.944834 0.919695 0.889483 0.854099 0.813484 0.767617 0.716524 0.660281 0.599020 0.532926 0.462249 0.387298 0.308452 0.226153 0.140912 0.053310 0.036009 0.126335 0.216897 0.306868 0.395369 0.481481 0.564248 0.642691 0.715817 0.782633 0.842162 0.893456 0.935611 0.967789 0.989232 0.999279 0.997391 0.983160 0.956332 0.916822 0.864727 0.800340 0.724158 0.636891 0.539464 0.433018 0.318903 0.198670 0.074057 0.053031 0.180544 0.306324 0.428130 0.543684 0.650712 0.746994 0.830408 0.898989 0.950975 0.984866 0.999466 0.993938 0.967839 0.921161 0.854354 0.768348 0.664557 0.544876 0.411663 0.267704 0.116174 0.039430 0.195357 0.347691 0.492446 0.625672 0.743568 0.842601 0.919616 0.971957 0.997568 0.995088 0.963935 0.904362 0.817496 0.705345 0.570789 0.417524 0.249987 0.073245 0.107145 0.285296 0.455190 0.610870 0.746667 0.857413 0.938655 0.986859 0.999585 0.975635 0.915154 0.819697 0.692225 0.537061 0.359774 0.167013 0.033726 0.234368 0.426581 0.602120 0.753193 0.872822 0.955194 0.995969 0.992549 0.944273 0.852528 0.720778 0.554480 0.360915 0.148900 0.071581 0.289824 0.494926 0.676323 0.824363 0.930837 0.989480 0.996385 0.950304 0.852826 0.708402 0.524210 0.309850 0.076905 0.161665 0.392219 0.601207 0.775991 0.905629 0.981614 0.998481 0.954260 0.850734 0.693460 0.491557 0.257244 0.005157 0.248528 0.487112 0.694487 0.856234 0.960688 0.999829 0.969978 0.872205 0.712420 0.501112 0.252752 0.015142 0.283183 0.531514 0.741273 0.896075 0.983346 0.995421 0.930315 0.792056 0.590569 0.341071 0.063000 0.221427 0.488962 0.717234 0.886654 0.982154 0.994635 0.921922 0.769185 0.548703 0.279002 0.016607 0.311979 0.580422 0.797127 0.941517 0.999285 0.963937 0.837627 0.631222 0.363502 0.059584 0.251368 0.538880 0.774184 0.933141 0.998809 0.963392 0.829294 0.609160 0.324852 0.005404 0.315849 0.604718 0.829813 0.966041 0.997507 0.919537 0.739494 0.476293 0.158573 0.178293 0.496055 0.757942 0.932963 0.999699 0.949080 0.785795 0.528094 0.205944 0.142322 0.474457 0.749424 0.932522 0.999902 0.941834 0.764320 0.488720 0.149389 0.210437 0.544086 0.807491 0.965086 0.994785 0.891268 0.667117 0.351551 0.013182 0.377313 0.690306 0.907895 0.998492 0.947971 0.762107 0.466229 0.101999 0.278249 0.618964 0.869496 0.991749 0.966180 0.795183 0.503232 0.133654 0.257593 0.610284 0.869213 0.992965 0.960747 0.776176 0.467239 0.082355 0.317005 0.666044 0.907176 0.999679 0.926838 0.699256 0.353692 0.052615 0.451183 0.773822 0.964334 0.988547 0.840734 0.545229 0.152775 0.267895 0.641993 0.901964 0.999838 0.916402 0.665297 0.291199 0.137796 0.542371 0.846609 0.992373 0.950688 0.727868 0.365030 0.069128 0.491086 0.818499 0.986379 0.960271 0.743712 0.378273 0.064006 0.494566 0.825968 0.989795 0.951042 0.716021 0.331869 0.122520 0.552398 0.866906 0.998386 0.917314 0.639350 0.222833 0.243066 0.657178
1.000000 1.000000 1.000000 1.000000 1.000000 1.000000 1.000000 1.000000 1.000000 1.000000 1.000000 1.000000 1.000000 1.000000 1.000000 1.000000 1.000000 1.000000 1.000000 1.000000 1.000000 1.000000 1.000000 1.000000 1.000000 1.000000 1.000000 1.000000 1.000000 1.000000 1.000000 1.000000 1.000000 1.000000 1.000000 1.000000 1.000000 1.000000 1.000000 1.000000 1.000000 1.000000 1.000000 1.000000 1.000000 1.000000 1.000000 1.000000 1.000000 1.000000 1.000000 1.000000 0.923122 0.923122 0.923122 0.923122 0.923122 0.923122 0.923122 0.923122 0.923122 0.923122 0.923122 0.923122 0.923122 0.923122 0.923122 0.923122 0.923122 0.923122 0.923122 0.923122 0.923122 0.923122 0.923122 0.923122 0.923122 0.923122 0.923122 0.923122 0.923122 0.923122 0.923122 0.923122 0.923122 0.913227 0.911335 0.912490 0.911037 0.909591 0.909001 0.908608 0.909647 0.911249 0.913327 0.934967 0.938071 0.939316 0.940642 0.942016 0.944301 0.942137 0.949703 0.956206 0.955140 0.956278 0.950103 0.951519 0.950859 0.950117 0.951464 0.951601 0.949900 0.947874 0.946292 0.945737 0.945424 0.949006 0.949603 0.949756 0.950351 0.950295 0.951012 0.951613 0.949753 0.952014 0.944118 0.942782 0.948052 0.945962 0.947332 0.947293 0.947982 0.948784 0.949104 0.949375 0.946343 0.945904 0.945053 0.936788 0.929822 0.929356 0.931873 0.935170 0.932722 0.929252 0.930435 0.932687 0.931986 0.935653 0.926420 0.922248 0.897735 0.885221 0.874477 0.874778 0.878212 0.880714 0.878381 0.871084 0.861701 0.857958 0.857963 0.853901 0.846404 0.862370 0.856643 0.854421 0.858283 0.861411 0.866809 0.864172 0.859699 0.855044 0.850514 0.842428 0.844034 0.848115 0.852246 0.835777 0.826428 0.843627 0.833767 0.824615 0.832296 0.834274 0.831282 0.830016 0.830512 0.828757 0.822327 0.816311 0.819809 0.828721 0.828475 0.817633 0.814481 0.810934 0.810479 0.804846 0.809158 0.809888 0.806303 0.799261 0.815855 0.782121 0.804941 0.805134 0.789830 0.773819 0.761977 0.771627 0.782312 0.784428 0.776190 0.775468 0.774984 0.766233 0.738186 0.738214 0.745140 0.743563 0.731131 0.714348 0.721335 0.725433 0.721452 0.717790 0.720813 0.721622 0.696176 0.709711 0.713769 0.701192 0.715865 0.718020 0.708799 0.711056 0.713975 0.717116 0.710881 0.671597 0.674721 0.660222 0.654249 0.608988 0.607851 0.605251 0.546286 0.551272 0.519932 0.504165 0.503307 0.484999 0.537086 0.478754 0.463480 0.493821 0.420743 0.349141 0.365605 0.365023 0.378523 0.385470 0.367533 0.367775 0.355254 0.335927 0.336636 0.361089 0.377612 0.341977 0.345461 0.334199 0.309454 0.276298 0.291937 0.295259 0.320020 0.322027 0.300981 0.327724 0.364425 0.304864 0.283740 0.263475 0.285050 0.298912 0.302717 0.291901 0.279179 0.256263 0.238229 0.262506 0.261981 0.280731 0.299757 0.328152 0.321863 0.324281 0.351983 0.304126 0.318697 0.320439 0.310618 0.326330 0.329806 0.332439 0.321618 0.342242 0.321825 0.334139 0.324029 0.322836 0.380494 0.360084 0.334250 0.323583 0.328667 0.329536 0.311262 0.259145 0.239767 0.237350 0.182708 0.153824 0.155839 0.156049 0.112919 0.092774 0.076859 0.039407 0.038525 0.041888 0.078678 0.047390 0.069009 0.072921 0.072921 0.072921 0.072921 0.072921 0.072921 0.072921 0.072921 0.072921 0.072921 0.072921 0.072921 0.072921 0.072921 0.095456 0.095456 0.095456 0.095456 0.095456 0.095456 0.095456 0.095456 0.095456 0.095456 0.095456 0.095456
0.000000 0.000000 0.000000 0.000000 0.000000 0.000000 0.000000 0.000000 0.000000 0.000000 0.000000 0.000000 0.000000 0.000000 0.000000 0.000000 0.000000 0.000000 0.000000 0.000000 0.000000 0.000000 0.000000 0.000000 0.000000 0.000000 0.000000 0.000000 0.000000 0.000000 0.000000 0.000000 0.000000 0.000000 0.000000 0.000000 0.000000 0.000000 0.000000 0.000000 0.000000 0.000000 0.000000 0.000000 0.000000 0.000000 0.000000 0.000000 0.000000 0.000000 0.000000 0.000000 0.209657 0.209657 0.209657 0.209657 0.209657 0.209657 0.209657 0.209657 0.209657 0.209657 0.209657 0.209657 0.209657 0.209657 0.209657 0.209657 0.209657 0.209657 0.209657 0.209657 0.209657 0.209657 0.209657 0.209657 0.209657 0.209657 0.209657 0.209657 0.209657 0.209657 0.209657 0.209657 0.209657 0.244339 0.244339 0.244339 0.244339 0.244339 0.244339 0.244339 0.244339 0.244339 0.244339 0.244339 0.244339 0.244339 0.244339 0.244339 0.244339 0.244339 0.244339 0.244339 0.244339 0.244339 0.244339 0.244339 0.244339 0.244339 0.260378 0.260378 0.260378 0.260378 0.260378 0.260378 0.260378 0.260378 0.260378 0.260378 0.260378 0.260378 0.260378 0.260378 0.260378 0.260378 0.260378 0.260378 0.260378 0.260378 0.269680 0.269680 0.269680 0.269680 0.269680 0.269680 0.269680 0.269680 0.269680 0.269680 0.269680 0.269680 0.269680 0.269680 0.269680 0.269680 0.269680 0.269680 0.269680 0.269680 0.269680 0.269680 0.269680 0.269680 0.269680 0.269680 0.269680 0.269680 0.269680 0.269680 0.269680 0.269680 0.269680 0.280056 0.280056 0.280056 0.280056 0.280056 0.280056 0.280056 0.280056 0.280056 0.280056 0.280056 0.280056 0.280056 0.280056 0.280056 0.280056 0.280056 0.280056 0.280056 0.280056 0.280056 0.280056 0.280056 0.280056 0.280056 0.280056 0.280056 0.274721 0.274721 0.274721 0.274721 0.274721 0.274721 0.274721 0.274721 0.274721 0.274721 0.274721 0.274721 0.274721 0.285714 0.285714 0.285714 0.285714 0.285714 0.285714 0.285714 0.285714 0.285714 0.285714 0.285714 0.280056 0.280056 0.280056 0.280056 0.280056 0.280056 0.280056 0.280056 0.280056 0.280056 0.280056 0.274721 0.274721 0.274721 0.274721 0.274721 0.274721 0.274721 0.274721 0.274721 0.274721 0.274721 0.280056 0.280056 0.280056 0.280056 0.280056 0.280056 0.280056 0.280056 0.280056 0.280056 0.285714 0.285714 0.285714 0.285714 0.285714 0.285714 0.285714 0.285714 0.285714 0.269680 0.269680 0.269680 0.269680 0.269680 0.269680 0.269680 0.269680 0.269680 0.269680 0.274721 0.274721 0.274721 0.274721 0.274721 0.274721 0.274721 0.274721 0.274721 0.285714 0.285714 0.285714 0.285714 0.285714 0.285714 0.285714 0.285714 0.264906 0.264906 0.264906 0.264906 0.264906 0.264906 0.264906 0.264906 0.264906 0.274721 0.274721 0.274721 0.274721 0.274721 0.274721 0.274721 0.274721 0.269680 0.269680 0.269680 0.269680 0.269680 0.269680 0.269680 0.269680 0.269680 0.269680 0.269680 0.269680 0.269680 0.269680 0.269680 0.269680 0.280056 0.280056 0.280056 0.280056 0.280056 0.280056 0.280056 0.260378 0.260378 0.260378 0.260378 0.260378 0.260378 0.260378 0.260378 0.269680 0.269680 0.269680 0.269680 0.269680 0.269680 0.269680 0.264906 0.264906 0.264906 0.264906 0.264906 0.264906 0.264906 0.264906 0.264906 0.264906 0.264906 0.264906 0.264906 0.264906 0.260378 0.260378 0.260378 0.260378 0.260378 0.260378 0.260378 0.260378 0.260378 0.260378 0.260378 0.260378
