# Output from CTFFind version 4.1.9, run on 2019-11-02 17:47:30
# Input file: stack6_bm3d_averaged_1_1.5_0_1500_half.mrc ; Number of micrographs: 1
# Pixel size: 3.000 Angstroms ; acceleration voltage: 300.0 keV ; spherical aberration: 0.00 mm ; amplitude contrast: 0.07
# Box size: 512 pixels ; min. res.: 30.0 Angstroms ; max. res.: 5.0 Angstroms ; min. def.: 5000.0 um; max. def. 50000.0 um; num. frames averaged: 1
# 6 lines per micrograph: #1 - spatial frequency (1/Angstroms); #2 - 1D rotational average of spectrum (assuming no astigmatism); #3 - 1D rotational average of spectrum; #4 - CTF fit; #5 - cross-correlation between spectrum and CTF fit; #6 - 2sigma of expected cross correlation of noise
0.000000 0.000651 0.001302 0.001953 0.002604 0.003255 0.003906 0.004557 0.005208 0.005859 0.006510 0.007161 0.007812 0.008464 0.009115 0.009766 0.010417 0.011068 0.011719 0.012370 0.013021 0.013672 0.014323 0.014974 0.015625 0.016276 0.016927 0.017578 0.018229 0.018880 0.019531 0.020182 0.020833 0.021484 0.022135 0.022786 0.023438 0.024089 0.024740 0.025391 0.026042 0.026693 0.027344 0.027995 0.028646 0.029297 0.029948 0.030599 0.031250 0.031901 0.032552 0.033203 0.033854 0.034505 0.035156 0.035807 0.036458 0.037109 0.037760 0.038411 0.039062 0.039714 0.040365 0.041016 0.041667 0.042318 0.042969 0.043620 0.044271 0.044922 0.045573 0.046224 0.046875 0.047526 0.048177 0.048828 0.049479 0.050130 0.050781 0.051432 0.052083 0.052734 0.053385 0.054036 0.054688 0.055339 0.055990 0.056641 0.057292 0.057943 0.058594 0.059245 0.059896 0.060547 0.061198 0.061849 0.062500 0.063151 0.063802 0.064453 0.065104 0.065755 0.066406 0.067057 0.067708 0.068359 0.069010 0.069661 0.070312 0.070964 0.071615 0.072266 0.072917 0.073568 0.074219 0.074870 0.075521 0.076172 0.076823 0.077474 0.078125 0.078776 0.079427 0.080078 0.080729 0.081380 0.082031 0.082682 0.083333 0.083984 0.084635 0.085286 0.085938 0.086589 0.087240 0.087891 0.088542 0.089193 0.089844 0.090495 0.091146 0.091797 0.092448 0.093099 0.093750 0.094401 0.095052 0.095703 0.096354 0.097005 0.097656 0.098307 0.098958 0.099609 0.100260 0.100911 0.101562 0.102214 0.102865 0.103516 0.104167 0.104818 0.105469 0.106120 0.106771 0.107422 0.108073 0.108724 0.109375 0.110026 0.110677 0.111328 0.111979 0.112630 0.113281 0.113932 0.114583 0.115234 0.115885 0.116536 0.117188 0.117839 0.118490 0.119141 0.119792 0.120443 0.121094 0.121745 0.122396 0.123047 0.123698 0.124349 0.125000 0.125651 0.126302 0.126953 0.127604 0.128255 0.128906 0.129557 0.130208 0.130859 0.131510 0.132161 0.132812 0.133464 0.134115 0.134766 0.135417 0.136068 0.136719 0.137370 0.138021 0.138672 0.139323 0.139974 0.140625 0.141276 0.141927 0.142578 0.143229 0.143880 0.144531 0.145182 0.145833 0.146484 0.147135 0.147786 0.148438 0.149089 0.149740 0.150391 0.151042 0.151693 0.152344 0.152995 0.153646 0.154297 0.154948 0.155599 0.156250 0.156901 0.157552 0.158203 0.158854 0.159505 0.160156 0.160807 0.161458 0.162109 0.162760 0.163411 0.164062 0.164714 0.165365 0.166016 0.166667 0.167318 0.167969 0.168620 0.169271 0.169922 0.170573 0.171224 0.171875 0.172526 0.173177 0.173828 0.174479 0.175130 0.175781 0.176432 0.177083 0.177734 0.178385 0.179036 0.179688 0.180339 0.180990 0.181641 0.182292 0.182943 0.183594 0.184245 0.184896 0.185547 0.186198 0.186849 0.187500 0.188151 0.188802 0.189453 0.190104 0.190755 0.191406 0.192057 0.192708 0.193359 0.194010 0.194661 0.195312 0.195964 0.196615 0.197266 0.197917 0.198568 0.199219 0.199870 0.200521 0.201172 0.201823 0.202474 0.203125 0.203776 0.204427 0.205078 0.205729 0.206380 0.207031 0.207682 0.208333 0.208984 0.209635 0.210286 0.210938 0.211589 0.212240 0.212891 0.213542 0.214193 0.214844 0.215495 0.216146 0.216797 0.217448 0.218099 0.218750 0.219401 0.220052 0.220703 0.221354 0.222005 0.222656 0.223307 0.223958 0.224609 0.225260 0.225911 0.226562 0.227214 0.227865 0.228516 0.229167 0.229818 0.230469 0.231120 0.231771 0.232422 0.233073 0.233724 0.234375 0.235026 0.235677
       0.30829        0.30829        0.30829        0.30829        0.30829        0.30829        0.30829        0.30829        0.30829        0.30829        0.30829        0.30829        0.30829        0.30829        0.30829        0.30829        0.30829        0.30829        0.30829        0.30829        0.30829        0.30829        0.30829        0.30829        0.30829        0.30829        0.30829        0.30829        0.30829        0.30829        0.30829        0.30829        0.30829        0.30829        0.30829        0.30829        0.30829        0.30829        0.30829        0.30829        0.30829        0.30829        0.30829        0.30829        0.30829        0.30829        0.30829        0.30829        0.30829        0.30829        0.30829        0.63179        0.80942        0.41041        0.30510        0.18400       -0.10857        0.11139       -0.00124        0.03138        0.11311        0.33587        0.42085        0.39839        0.22119       -0.01541        0.04402        0.07054       -0.17358       -0.18078       -0.08834       -0.11178       -0.29831       -0.19049       -0.30616       -0.26128       -0.28570       -0.40865       -0.47605       -0.47537       -0.42126       -0.34437       -0.43668       -0.36603       -0.41419       -0.35385       -0.27711       -0.20260       -0.19718       -0.13381       -0.08754        0.03957        0.07975        0.25057        0.28476        0.37221        0.40091        0.51263        0.58738        0.60771        0.73611        0.69504        0.73865        0.64930        0.66142        0.69211        0.63132        0.61473        0.60685        0.43171        0.39115        0.35156        0.32668        0.22429        0.12969        0.05969        0.05025       -0.00069       -0.08147       -0.02828       -0.03360       -0.07320        0.06571        0.16268        0.25454        0.31422        0.33302        0.42347        0.53877        0.58533        0.53419        0.67066        0.55953        0.53221        0.59913        0.62860        0.52730        0.46133        0.40024        0.37670        0.24465        0.20349        0.13056        0.11411        0.05399        0.05500        0.09913        0.15480        0.14810        0.17780        0.22101        0.23753        0.32763        0.44673        0.48598        0.49235        0.51826        0.57710        0.57313        0.52330        0.41571        0.38199        0.36230        0.26566        0.24126        0.21330        0.20360        0.19560        0.17656        0.15742        0.12476        0.18604        0.24157        0.33988        0.37684        0.40565        0.46158        0.53191        0.46804        0.48369        0.42743        0.40436        0.38094        0.36302        0.28602        0.25212        0.19974        0.23469        0.21665        0.19452        0.21282        0.21831        0.24041        0.30566        0.39806        0.39128        0.37603        0.38977        0.45033        0.47440        0.43261        0.35417        0.31917        0.27684        0.26391        0.24984        0.21530        0.28101        0.29345        0.29332        0.30946        0.30063        0.33349        0.37593        0.36835        0.36621        0.35104        0.31528        0.32934        0.32085        0.29393        0.28750        0.26857        0.21360        0.26614        0.27064        0.29769        0.31460        0.33654        0.36870        0.32944        0.31088        0.35652        0.36262        0.25927        0.29065        0.30487        0.23945        0.20888        0.26415        0.27081        0.27492        0.29762        0.30109        0.33000        0.33079        0.35156        0.32203        0.32196        0.30710        0.29184        0.26454        0.23929        0.25031        0.25619        0.27684        0.29754        0.29130        0.28937        0.31893        0.33456        0.26912        0.30399        0.26626        0.25633        0.26297        0.25222        0.25401        0.26132        0.31158        0.27967        0.31295        0.28963        0.27285        0.30903        0.29862        0.32609        0.31416        0.29665        0.24832        0.24773        0.26128        0.25985        0.30973        0.31182        0.33159        0.32223        0.31081        0.26018        0.28944        0.21638        0.18874        0.25950        0.26925        0.25651        0.27939        0.31170        0.29443        0.35609        0.29759        0.24557        0.21496        0.24035        0.29393        0.30218        0.30049        0.26952        0.27922        0.25912        0.30996        0.27261        0.25073        0.26882        0.24468        0.28605        0.25187        0.28027        0.32720        0.28972        0.20786        0.23839        0.27993        0.31302        0.24488        0.26210        0.24191        0.29161        0.28658        0.37810        0.28706        0.26292        0.26975        0.24424        0.21440        0.18841        0.24135        0.20415        0.19649        0.17271        0.19538        0.24718        0.21341        0.24255        0.20011        0.23921        0.21912        0.21261        0.18360        0.15966        0.18906        0.23954        0.14848        0.06673        0.21589        0.17812        0.12330        0.23419        0.15304        0.22342        0.18654       -0.09184       -0.52830       -0.92617
2.867993 2.839704 2.811562 2.783564 2.755713 2.728008 2.700448 2.673034 2.645766 2.618643 2.591667 2.564836 2.538150 2.511611 2.485217 2.458969 2.432867 2.406910 2.381100 2.355435 2.329915 2.304542 2.279314 2.254232 2.229296 2.204505 2.179860 2.155361 2.131008 2.106800 2.082738 2.058822 2.035052 2.011427 1.987949 1.964615 1.941428 1.918387 1.895491 1.872741 1.850136 1.827678 1.805365 1.783198 1.761176 1.739301 1.717571 1.695987 1.674548 1.653256 1.632109 1.930597 2.275808 1.701744 1.742277 1.386980 0.943993 1.207591 1.035419 1.083019 1.031892 1.503605 1.521483 1.547123 1.281436 0.949176 0.826149 1.019599 0.718941 0.491906 0.596031 0.681520 0.420723 0.492616 0.329826 0.364826 0.256127 0.160919 -0.035952 0.009791 0.034208 0.077924 0.045174 0.088090 -0.043462 0.029135 0.109670 0.228216 0.283237 0.217267 0.334332 0.562977 0.446881 0.731525 0.808732 0.887109 0.908875 1.122009 1.143382 1.181699 1.330225 1.231428 1.380196 1.195402 1.112273 1.317064 1.129944 1.058848 1.132203 0.889052 0.733202 0.675087 0.671815 0.474489 0.393495 0.269412 0.215095 0.096887 -0.011377 0.096971 0.023974 -0.066222 0.114999 0.260861 0.309076 0.463298 0.481421 0.550967 0.715258 0.815078 0.652347 0.959289 0.806268 0.649318 0.767524 0.785436 0.707879 0.641782 0.443341 0.501984 0.286142 0.177480 0.136540 0.004374 -0.018146 -0.109028 -0.019281 0.005182 0.086799 -0.047242 0.252444 0.102701 0.201656 0.372102 0.424049 0.527608 0.424420 0.562678 0.669139 0.507974 0.385137 0.329023 0.319161 0.144013 0.127638 0.014983 0.094011 0.013501 0.002672 -0.035016 -0.116653 -0.017331 0.013506 0.101118 0.285506 0.207562 0.349729 0.373086 0.428858 0.402025 0.411394 0.342174 0.226911 0.309975 0.167178 0.162433 0.001800 0.058797 0.067999 -0.016386 0.000162 0.008647 0.062108 0.078368 0.232125 0.298076 0.242381 0.210579 0.379176 0.386768 0.358328 0.251123 0.170264 0.144662 0.087125 0.075417 0.031344 0.022671 0.134771 0.054202 0.183813 0.084070 0.125905 0.222492 0.217939 0.214491 0.201067 0.194987 0.113797 0.167524 0.123151 0.098707 0.120254 -0.010201 0.026274 0.082275 0.047345 0.148684 0.107985 0.209222 0.191015 0.126597 0.134954 0.217559 0.123230 0.064614 0.093840 0.062862 -0.001302 -0.017104 0.062667 0.071702 0.041567 0.116072 0.111314 0.125046 0.148371 0.165231 0.136322 0.095234 0.109150 0.090985 0.019320 0.011469 0.039464 0.010332 0.077312 0.111866 0.074155 0.056863 0.132365 0.120296 0.022977 0.118530 0.023246 0.020389 0.034285 0.009403 0.004387 0.070348 0.086138 0.017000 0.104119 0.073482 0.012136 0.118127 0.063888 0.083972 0.097413 0.026086 -0.012040 -0.020943 0.032567 0.001803 0.066800 0.091972 0.094613 0.059201 0.134511 -0.013778 0.060370 -0.104151 -0.042787 -0.008090 0.016598 0.013674 0.012610 0.094374 0.053499 0.112638 -0.025593 -0.051472 -0.100282 -0.078762 0.072603 0.016831 0.035989 -0.024205 -0.017325 -0.036062 0.055645 -0.017556 -0.070052 -0.016274 -0.100757 0.020855 -0.044237 0.006596 0.059785 -0.015672 -0.105992 -0.021603 0.042312 0.031944 -0.037857 0.007655 -0.059725 0.105687 0.069779 0.172721 0.034164 0.004318 0.044650 0.032764 -0.052286 -0.023388 0.053465 -0.018355 -0.046938 -0.051193 -0.031025 0.101184 -0.053923 0.098608 -0.006789 0.101589 -0.014816 0.079958 -0.066354 -0.031209 -0.050857 0.118282 -0.021571 -0.237258 0.302988 0.243426 0.176250 0.391082 0.221955 0.282726 0.277153 -0.125405 -1.297454
0.072396 0.072834 0.074149 0.076340 0.079407 0.083348 0.088164 0.093853 0.100413 0.107843 0.116139 0.125300 0.135320 0.146196 0.157923 0.170493 0.183900 0.198134 0.213184 0.229041 0.245688 0.263112 0.281293 0.300212 0.319847 0.340172 0.361159 0.382777 0.404991 0.427763 0.451050 0.474809 0.498988 0.523534 0.548388 0.573486 0.598762 0.624142 0.649547 0.674897 0.700101 0.725068 0.749698 0.773887 0.797528 0.820506 0.842702 0.863994 0.884254 0.903351 0.921149 0.937510 0.952293 0.965356 0.976553 0.985741 0.992773 0.997506 0.999798 0.999510 0.996508 0.990662 0.981850 0.969957 0.954878 0.936518 0.914794 0.889639 0.861000 0.828840 0.793142 0.753909 0.711165 0.664958 0.615360 0.562468 0.506409 0.447334 0.385428 0.320903 0.254000 0.184994 0.114190 0.041923 0.031444 0.105515 0.179869 0.254059 0.327611 0.400032 0.470810 0.539417 0.605313 0.667952 0.726782 0.781257 0.830835 0.874991 0.913214 0.945025 0.969972 0.987645 0.997679 0.999760 0.993635 0.979116 0.956087 0.924511 0.884431 0.835981 0.779385 0.714963 0.643131 0.564402 0.479390 0.388802 0.293441 0.194196 0.092042 0.011970 0.116726 0.221053 0.323735 0.423526 0.519163 0.609388 0.692958 0.768670 0.835374 0.891997 0.937563 0.971207 0.992200 0.999964 0.994088 0.974347 0.940709 0.893353 0.832669 0.759269 0.673985 0.577866 0.472173 0.358367 0.238094 0.113166 0.014463 0.142726 0.269473 0.392506 0.509619 0.618639 0.717464 0.804111 0.876760 0.933791 0.973833 0.995796 0.998910 0.982754 0.947279 0.892824 0.820133 0.730347 0.625005 0.506023 0.375669 0.236526 0.091454 0.056475 0.204027 0.347884 0.484714 0.611249 0.724369 0.821181 0.899103 0.955936 0.989940 0.999889 0.985131 0.945623 0.881954 0.795361 0.687713 0.561491 0.419740 0.266011 0.104280 0.061156 0.225773 0.384954 0.534111 0.668832 0.784998 0.878937 0.947538 0.988370 0.999781 0.980976 0.932075 0.854137 0.749166 0.620072 0.470616 0.305311 0.129297 0.051800 0.232050 0.405406 0.565916 0.707914 0.826250 0.916472 0.975019 0.999371 0.988178 0.941350 0.860096 0.746928 0.605603 0.441021 0.259081 0.066478 0.129531 0.321390 0.501541 0.662714 0.798246 0.902351 0.970402 0.999146 0.986887 0.933603 0.841000 0.712490 0.553091 0.369269 0.168685 0.040100 0.247979 0.445701 0.624272 0.775382 0.891806 0.967765 0.999246 0.984236 0.922876 0.817519 0.672673 0.494851 0.292303 0.074655 0.147523 0.363229 0.561566 0.732307 0.866429 0.956625 0.997720 0.987004 0.924447 0.812766 0.657357 0.466078 0.248873 0.017303 0.216071 0.438348 0.637008 0.800626 0.919555 0.986523 0.997113 0.950098 0.847590 0.695005 0.500819 0.276147 0.034140 0.210778 0.443741 0.650350 0.817581 0.934634 0.993661 0.990336 0.924222 0.798886 0.621782 0.403840 0.158851 0.097384 0.348041 0.576390 0.766903 0.906358 0.984769 0.996167 0.939099 0.816838 0.637259 0.412395 0.157690 0.109041 0.368828 0.602887 0.793999 0.927805 0.993922 0.986813 0.906305 0.757724 0.551614 0.303059 0.030617 0.245014 0.502569 0.721858 0.885364 0.979697 0.996746 0.934435 0.797029 0.594925 0.343939 0.064119 0.221800 0.490239 0.718710 0.887736 0.982557 0.994475 0.921738 0.769822 0.551122 0.284010 0.008638 0.301368 0.568349 0.785649 0.933436 0.997828 0.972289 0.858360 0.665692 0.411317 0.118224 0.186680 0.474976 0.719425 0.896538 0.988903 0.986977 0.890154 0.707003 0.454618 0.157099 0.156666 0.455793 0.710416 0.894715
1.000000 1.000000 1.000000 1.000000 1.000000 1.000000 1.000000 1.000000 1.000000 1.000000 1.000000 1.000000 1.000000 1.000000 1.000000 1.000000 1.000000 1.000000 1.000000 1.000000 1.000000 1.000000 1.000000 1.000000 1.000000 1.000000 1.000000 1.000000 1.000000 1.000000 1.000000 1.000000 1.000000 1.000000 1.000000 1.000000 1.000000 1.000000 1.000000 1.000000 1.000000 1.000000 1.000000 1.000000 1.000000 1.000000 1.000000 1.000000 1.000000 1.000000 1.000000 1.000000 0.833623 0.833623 0.833623 0.833623 0.833623 0.833623 0.833623 0.815822 0.815822 0.815822 0.815822 0.815822 0.815822 0.815822 0.815822 0.815822 0.815822 0.815822 0.815822 0.815822 0.815822 0.815822 0.815822 0.815822 0.815822 0.815822 0.815822 0.815822 0.815822 0.815822 0.815822 0.815822 0.815822 0.815822 0.815822 0.815822 0.815822 0.815822 0.815822 0.815822 0.815822 0.815822 0.815822 0.815822 0.815822 0.815822 0.815822 0.815822 0.815822 0.815822 0.815822 0.955045 0.955668 0.952774 0.951701 0.950059 0.946670 0.942440 0.941993 0.943336 0.943543 0.944158 0.945488 0.946456 0.948044 0.949023 0.949820 0.950614 0.958716 0.962421 0.962151 0.961874 0.952800 0.959634 0.957611 0.955291 0.956036 0.956311 0.957003 0.956894 0.956740 0.956267 0.954890 0.955588 0.955417 0.954682 0.953648 0.951557 0.951505 0.951071 0.951214 0.952183 0.952894 0.953680 0.954204 0.954196 0.954364 0.954357 0.954264 0.949525 0.949540 0.942677 0.943188 0.944241 0.943860 0.942824 0.941360 0.941428 0.941325 0.941275 0.941128 0.941336 0.923711 0.923765 0.923790 0.924625 0.919374 0.908958 0.902087 0.896624 0.897687 0.901740 0.906333 0.906566 0.903017 0.902179 0.884726 0.881758 0.865891 0.862359 0.853113 0.862991 0.864908 0.866410 0.861059 0.859994 0.858370 0.855568 0.841852 0.846429 0.846898 0.843021 0.839602 0.837462 0.834744 0.836784 0.845420 0.840433 0.837663 0.839531 0.828609 0.817448 0.816024 0.818306 0.826969 0.838916 0.837423 0.836554 0.829292 0.825200 0.818162 0.812126 0.813054 0.815193 0.812083 0.815975 0.816857 0.826262 0.815654 0.809314 0.814376 0.826098 0.830956 0.832241 0.833205 0.830237 0.832304 0.808785 0.809512 0.811403 0.773925 0.775280 0.766064 0.765130 0.763260 0.763471 0.760518 0.755801 0.750080 0.730616 0.744092 0.752208 0.721980 0.728947 0.722466 0.713663 0.689169 0.691499 0.702499 0.712157 0.713806 0.721560 0.711714 0.711902 0.721646 0.721362 0.727319 0.722628 0.716901 0.712861 0.715429 0.709724 0.695389 0.691437 0.691079 0.690306 0.686017 0.668570 0.678399 0.664131 0.652820 0.641375 0.600443 0.580497 0.568025 0.556997 0.538823 0.515097 0.528757 0.531125 0.521814 0.511698 0.488942 0.447636 0.427384 0.425876 0.407921 0.401888 0.383100 0.333268 0.344231 0.332818 0.333505 0.311445 0.299799 0.281249 0.216603 0.217365 0.173292 0.198495 0.209449 0.202351 0.184436 0.173550 0.204601 0.214125 0.227839 0.226005 0.245953 0.207743 0.146685 0.170760 0.165225 0.173966 0.158511 0.122935 0.150933 0.147379 0.158198 0.163988 0.117793 0.088171 0.062738 0.057733 0.067802 0.089926 0.104484 0.093202 0.076570 -0.013573 0.018851 0.044924 0.044924 0.044924 0.044924 0.044924 0.044924 0.044924 0.044924 0.044924 0.044924 0.044924 -0.011529 -0.011529 -0.011529 -0.011529 -0.011529 -0.011529 -0.011529 -0.011529 -0.011529 -0.011529 -0.011529 -0.011529 -0.011529 -0.011529 -0.011529 -0.011529 -0.011529 -0.011529 -0.011529
0.000000 0.000000 0.000000 0.000000 0.000000 0.000000 0.000000 0.000000 0.000000 0.000000 0.000000 0.000000 0.000000 0.000000 0.000000 0.000000 0.000000 0.000000 0.000000 0.000000 0.000000 0.000000 0.000000 0.000000 0.000000 0.000000 0.000000 0.000000 0.000000 0.000000 0.000000 0.000000 0.000000 0.000000 0.000000 0.000000 0.000000 0.000000 0.000000 0.000000 0.000000 0.000000 0.000000 0.000000 0.000000 0.000000 0.000000 0.000000 0.000000 0.000000 0.000000 0.000000 0.173422 0.173422 0.173422 0.173422 0.173422 0.173422 0.173422 0.191565 0.191565 0.191565 0.191565 0.191565 0.191565 0.191565 0.191565 0.191565 0.191565 0.191565 0.191565 0.191565 0.191565 0.191565 0.191565 0.191565 0.191565 0.191565 0.191565 0.191565 0.191565 0.191565 0.191565 0.191565 0.191565 0.191565 0.191565 0.191565 0.191565 0.191565 0.191565 0.191565 0.191565 0.191565 0.191565 0.191565 0.191565 0.191565 0.191565 0.191565 0.191565 0.191565 0.191565 0.219529 0.219529 0.219529 0.219529 0.219529 0.219529 0.219529 0.219529 0.219529 0.219529 0.219529 0.219529 0.219529 0.219529 0.219529 0.219529 0.219529 0.219529 0.219529 0.219529 0.219529 0.219529 0.219529 0.219529 0.219529 0.219529 0.219529 0.219529 0.219529 0.219529 0.219529 0.237356 0.237356 0.237356 0.237356 0.237356 0.237356 0.237356 0.237356 0.237356 0.237356 0.237356 0.237356 0.237356 0.237356 0.237356 0.237356 0.237356 0.237356 0.237356 0.237356 0.237356 0.237356 0.237356 0.237356 0.244339 0.244339 0.244339 0.244339 0.244339 0.244339 0.244339 0.244339 0.244339 0.244339 0.244339 0.244339 0.244339 0.244339 0.244339 0.244339 0.244339 0.244339 0.244339 0.244339 0.244339 0.248069 0.248069 0.248069 0.248069 0.248069 0.248069 0.248069 0.248069 0.248069 0.248069 0.248069 0.248069 0.248069 0.248069 0.248069 0.248069 0.248069 0.248069 0.248069 0.248069 0.248069 0.248069 0.248069 0.248069 0.248069 0.248069 0.248069 0.248069 0.248069 0.248069 0.248069 0.248069 0.248069 0.248069 0.248069 0.248069 0.248069 0.256074 0.256074 0.256074 0.256074 0.256074 0.256074 0.256074 0.256074 0.256074 0.256074 0.256074 0.256074 0.256074 0.256074 0.256074 0.256074 0.256074 0.256074 0.256074 0.256074 0.256074 0.256074 0.256074 0.256074 0.256074 0.256074 0.256074 0.256074 0.256074 0.256074 0.256074 0.256074 0.256074 0.256074 0.256074 0.256074 0.256074 0.256074 0.256074 0.256074 0.256074 0.256074 0.256074 0.256074 0.256074 0.260378 0.260378 0.260378 0.260378 0.260378 0.260378 0.260378 0.260378 0.260378 0.260378 0.260378 0.260378 0.260378 0.256074 0.256074 0.256074 0.256074 0.256074 0.256074 0.256074 0.256074 0.256074 0.256074 0.256074 0.256074 0.256074 0.260378 0.260378 0.260378 0.260378 0.260378 0.260378 0.260378 0.260378 0.260378 0.260378 0.260378 0.260378 0.251976 0.251976 0.251976 0.251976 0.251976 0.251976 0.251976 0.251976 0.251976 0.251976 0.251976 0.251976 0.256074 0.256074 0.256074 0.256074 0.256074 0.256074 0.256074 0.256074 0.256074 0.256074 0.256074 0.251976 0.251976 0.251976 0.251976 0.251976 0.251976 0.251976 0.251976 0.251976 0.251976 0.251976 0.248069 0.248069 0.248069 0.248069 0.248069 0.248069 0.248069 0.248069 0.248069 0.248069 0.248069 0.256074 0.256074 0.256074 0.256074 0.256074 0.256074 0.256074 0.256074 0.256074 0.256074 0.256074 0.256074 0.256074 0.256074 0.256074 0.256074 0.256074 0.256074 0.256074
