# Output from CTFFind version 4.1.9, run on 2019-11-02 17:44:44
# Input file: stack1_bm3d_averaged_1_1.5_0_750_half.mrc ; Number of micrographs: 1
# Pixel size: 3.000 Angstroms ; acceleration voltage: 300.0 keV ; spherical aberration: 0.00 mm ; amplitude contrast: 0.07
# Box size: 512 pixels ; min. res.: 30.0 Angstroms ; max. res.: 5.0 Angstroms ; min. def.: 5000.0 um; max. def. 50000.0 um; num. frames averaged: 1
# 6 lines per micrograph: #1 - spatial frequency (1/Angstroms); #2 - 1D rotational average of spectrum (assuming no astigmatism); #3 - 1D rotational average of spectrum; #4 - CTF fit; #5 - cross-correlation between spectrum and CTF fit; #6 - 2sigma of expected cross correlation of noise
0.000000 0.000651 0.001302 0.001953 0.002604 0.003255 0.003906 0.004557 0.005208 0.005859 0.006510 0.007161 0.007812 0.008464 0.009115 0.009766 0.010417 0.011068 0.011719 0.012370 0.013021 0.013672 0.014323 0.014974 0.015625 0.016276 0.016927 0.017578 0.018229 0.018880 0.019531 0.020182 0.020833 0.021484 0.022135 0.022786 0.023438 0.024089 0.024740 0.025391 0.026042 0.026693 0.027344 0.027995 0.028646 0.029297 0.029948 0.030599 0.031250 0.031901 0.032552 0.033203 0.033854 0.034505 0.035156 0.035807 0.036458 0.037109 0.037760 0.038411 0.039062 0.039714 0.040365 0.041016 0.041667 0.042318 0.042969 0.043620 0.044271 0.044922 0.045573 0.046224 0.046875 0.047526 0.048177 0.048828 0.049479 0.050130 0.050781 0.051432 0.052083 0.052734 0.053385 0.054036 0.054688 0.055339 0.055990 0.056641 0.057292 0.057943 0.058594 0.059245 0.059896 0.060547 0.061198 0.061849 0.062500 0.063151 0.063802 0.064453 0.065104 0.065755 0.066406 0.067057 0.067708 0.068359 0.069010 0.069661 0.070312 0.070964 0.071615 0.072266 0.072917 0.073568 0.074219 0.074870 0.075521 0.076172 0.076823 0.077474 0.078125 0.078776 0.079427 0.080078 0.080729 0.081380 0.082031 0.082682 0.083333 0.083984 0.084635 0.085286 0.085938 0.086589 0.087240 0.087891 0.088542 0.089193 0.089844 0.090495 0.091146 0.091797 0.092448 0.093099 0.093750 0.094401 0.095052 0.095703 0.096354 0.097005 0.097656 0.098307 0.098958 0.099609 0.100260 0.100911 0.101562 0.102214 0.102865 0.103516 0.104167 0.104818 0.105469 0.106120 0.106771 0.107422 0.108073 0.108724 0.109375 0.110026 0.110677 0.111328 0.111979 0.112630 0.113281 0.113932 0.114583 0.115234 0.115885 0.116536 0.117188 0.117839 0.118490 0.119141 0.119792 0.120443 0.121094 0.121745 0.122396 0.123047 0.123698 0.124349 0.125000 0.125651 0.126302 0.126953 0.127604 0.128255 0.128906 0.129557 0.130208 0.130859 0.131510 0.132161 0.132812 0.133464 0.134115 0.134766 0.135417 0.136068 0.136719 0.137370 0.138021 0.138672 0.139323 0.139974 0.140625 0.141276 0.141927 0.142578 0.143229 0.143880 0.144531 0.145182 0.145833 0.146484 0.147135 0.147786 0.148438 0.149089 0.149740 0.150391 0.151042 0.151693 0.152344 0.152995 0.153646 0.154297 0.154948 0.155599 0.156250 0.156901 0.157552 0.158203 0.158854 0.159505 0.160156 0.160807 0.161458 0.162109 0.162760 0.163411 0.164062 0.164714 0.165365 0.166016 0.166667 0.167318 0.167969 0.168620 0.169271 0.169922 0.170573 0.171224 0.171875 0.172526 0.173177 0.173828 0.174479 0.175130 0.175781 0.176432 0.177083 0.177734 0.178385 0.179036 0.179688 0.180339 0.180990 0.181641 0.182292 0.182943 0.183594 0.184245 0.184896 0.185547 0.186198 0.186849 0.187500 0.188151 0.188802 0.189453 0.190104 0.190755 0.191406 0.192057 0.192708 0.193359 0.194010 0.194661 0.195312 0.195964 0.196615 0.197266 0.197917 0.198568 0.199219 0.199870 0.200521 0.201172 0.201823 0.202474 0.203125 0.203776 0.204427 0.205078 0.205729 0.206380 0.207031 0.207682 0.208333 0.208984 0.209635 0.210286 0.210938 0.211589 0.212240 0.212891 0.213542 0.214193 0.214844 0.215495 0.216146 0.216797 0.217448 0.218099 0.218750 0.219401 0.220052 0.220703 0.221354 0.222005 0.222656 0.223307 0.223958 0.224609 0.225260 0.225911 0.226562 0.227214 0.227865 0.228516 0.229167 0.229818 0.230469 0.231120 0.231771 0.232422 0.233073 0.233724 0.234375 0.235026 0.235677
       0.32806        0.32806        0.32806        0.32806        0.32806        0.32806        0.32806        0.32806        0.32806        0.32806        0.32806        0.32806        0.32806        0.32806        0.32806        0.32806        0.32806        0.32806        0.32806        0.32806        0.32806        0.32806        0.32806        0.32806        0.32806        0.32806        0.32806        0.32806        0.32806        0.32806        0.32806        0.32806        0.32806        0.32806        0.32806        0.32806        0.32806        0.32806        0.32806        0.32806        0.32806        0.32806        0.32806        0.32806        0.32806        0.32806        0.32806        0.32806        0.32806        0.32806        0.32806        0.49759        0.71464        0.42255        0.18697       -0.08245       -0.26191       -0.07071       -0.13485       -0.06080       -0.00676       -0.15367       -0.10144       -0.05472       -0.00650       -0.15696       -0.22672       -0.34760       -0.46681       -0.56649       -0.52250       -0.45507       -0.37637       -0.55619       -0.45674       -0.62648       -0.51039       -0.47703       -0.39640       -0.38745       -0.34006       -0.25204       -0.16887       -0.14493        0.02748       -0.01866        0.11276        0.16303        0.30352        0.40999        0.45942        0.49663        0.53962        0.54706        0.68496        0.64013        0.67396        0.58603        0.55273        0.64753        0.52265        0.42520        0.38397        0.31331        0.22707        0.25672        0.24637        0.09763        0.07614       -0.00350       -0.01155        0.02993       -0.01444        0.06600        0.09184        0.22718        0.28146        0.29278        0.38192        0.56114        0.53274        0.57282        0.66519        0.69366        0.62442        0.63268        0.63079        0.54529        0.56856        0.39496        0.34386        0.25964        0.17983        0.07094        0.13925        0.11016        0.09324        0.10541        0.20216        0.20016        0.31199        0.35292        0.40835        0.48581        0.57027        0.54082        0.55222        0.60061        0.52944        0.45806        0.48003        0.32089        0.24225        0.25344        0.23858        0.13285        0.13769        0.14771        0.21809        0.24119        0.32932        0.36903        0.39218        0.45865        0.44169        0.47486        0.44260        0.46912        0.44256        0.39621        0.37390        0.35524        0.31394        0.28488        0.20288        0.19795        0.21996        0.26395        0.25661        0.33918        0.36998        0.34949        0.40579        0.44770        0.43818        0.42325        0.43988        0.36506        0.32835        0.27638        0.25384        0.28524        0.25711        0.28882        0.29715        0.33962        0.33321        0.39154        0.39121        0.42103        0.40452        0.43331        0.39938        0.36207        0.27826        0.28247        0.29435        0.27073        0.25199        0.32220        0.36466        0.33392        0.35473        0.36225        0.34701        0.40426        0.39913        0.36045        0.33499        0.30189        0.30831        0.31616        0.30994        0.29655        0.27867        0.33355        0.35397        0.37135        0.33344        0.32889        0.33083        0.34445        0.30616        0.27825        0.30369        0.31319        0.32966        0.31514        0.32593        0.34919        0.32434        0.31419        0.32507        0.29517        0.25603        0.24596        0.26137        0.30232        0.31654        0.35400        0.29611        0.30234        0.32383        0.28777        0.31356        0.28568        0.27406        0.28385        0.29046        0.30450        0.34153        0.32038        0.32536        0.32730        0.31779        0.33249        0.31425        0.31956        0.31395        0.26955        0.28144        0.29856        0.28302        0.31554        0.32240        0.33076        0.32013        0.34549        0.32392        0.28057        0.23966        0.26675        0.32687        0.35277        0.34450        0.31649        0.28995        0.29676        0.30867        0.24949        0.29029        0.30002        0.32074        0.29021        0.28900        0.26522        0.32825        0.33548        0.33609        0.31290        0.29064        0.30289        0.38918        0.33193        0.30740        0.30100        0.29935        0.28366        0.29542        0.27926        0.30802        0.22794        0.26252        0.29842        0.31339        0.29179        0.26194        0.28465        0.23236        0.21776        0.27467        0.30292        0.29998        0.28763        0.27882        0.32675        0.25613        0.22578        0.28797        0.25089        0.26180        0.27200        0.36753        0.27121        0.28120        0.25631        0.23632        0.26758        0.26332        0.23215        0.17063        0.22403        0.21975        0.24694        0.30721        0.26443        0.34241        0.30591        0.25409        0.23323        0.20232        0.24794        0.29230        0.22447        0.14917        0.19021        0.24108        0.22300        0.29719        0.24514        0.05122       -0.42432       -0.94792
2.640645 2.612890 2.585283 2.557825 2.530516 2.503354 2.476341 2.449477 2.422760 2.396193 2.369773 2.343502 2.317380 2.291406 2.265580 2.239902 2.214373 2.188993 2.163760 2.138677 2.113741 2.088954 2.064315 2.039825 2.015483 1.991290 1.967245 1.943348 1.919600 1.896000 1.872548 1.849245 1.826090 1.803084 1.780226 1.757517 1.734956 1.712543 1.690279 1.668163 1.646195 1.624376 1.602705 1.581183 1.559809 1.538583 1.517506 1.496577 1.475797 1.455165 1.434681 1.503640 1.806759 1.502964 1.142964 0.924768 0.535141 0.898941 0.624699 0.854208 0.908722 0.578386 0.689827 0.765740 0.808821 0.613806 0.523535 0.344189 0.096106 0.068114 0.039317 0.069981 0.294426 -0.044581 0.070699 -0.137257 -0.023598 -0.017432 0.073142 0.058034 0.103956 0.173689 0.274725 0.239937 0.474154 0.391756 0.539176 0.522535 0.762119 0.784109 0.869938 0.923112 0.928943 0.943650 1.076464 0.968811 1.132773 0.938134 0.847962 1.006040 0.841108 0.753413 0.621236 0.587996 0.457615 0.413451 0.502587 0.262296 0.194499 0.160389 0.013330 0.204253 -0.006789 0.116338 0.174706 0.260204 0.338220 0.341760 0.429465 0.544665 0.663883 0.537115 0.736278 0.859013 0.635823 0.696702 0.670452 0.587737 0.534177 0.468116 0.304582 0.213867 0.120767 -0.033750 -0.014056 0.053797 -0.085098 -0.053854 0.059211 0.048823 0.108760 0.223339 0.239833 0.313839 0.424369 0.433746 0.458279 0.469503 0.445933 0.322964 0.339355 0.248141 0.044523 0.065401 0.023329 -0.049372 -0.098369 -0.094456 -0.012401 -0.046642 0.079887 0.131387 0.138712 0.258338 0.221282 0.251561 0.284348 0.254178 0.249101 0.213273 0.165306 0.119782 0.114586 0.030961 0.019566 -0.111498 -0.043842 0.012138 -0.000103 0.013512 0.101921 0.080138 0.130607 0.192396 0.261043 0.165771 0.197619 0.113264 0.137054 0.020228 -0.035736 0.016891 -0.020113 -0.002765 -0.002677 0.035076 0.071502 0.060419 0.140932 0.107377 0.161226 0.072038 0.154708 0.092130 -0.003812 -0.055725 -0.025497 -0.034756 -0.068276 -0.063426 0.052850 0.061461 -0.009488 0.065482 0.063592 0.068160 0.145575 0.072850 0.072866 0.043957 -0.021255 0.032716 0.004283 0.012184 0.005581 -0.005953 0.050198 0.060633 0.066679 0.035607 0.046099 0.014134 0.067359 -0.010700 -0.018681 0.023221 0.011373 0.056845 0.033921 0.038922 0.064451 0.032611 0.014395 0.032634 -0.009751 -0.051199 -0.036985 -0.028242 0.020797 0.036659 0.104451 -0.005037 0.049339 0.053548 -0.000274 0.066003 0.025084 0.010711 0.041545 0.053343 0.050375 0.100730 0.059153 0.081217 0.077211 0.099815 0.070401 0.077703 0.095332 0.047185 -0.007801 0.050799 0.036112 0.049087 0.071194 0.094961 0.009929 0.071179 0.090046 0.027563 0.025069 -0.070999 -0.007831 0.114948 0.084194 0.068949 0.049975 -0.003138 0.046766 0.032756 -0.048399 0.046532 0.044304 0.066417 0.042899 -0.016038 -0.002636 0.061645 0.050723 0.027270 0.041713 -0.024107 0.062444 0.117827 0.030026 -0.005913 0.006388 -0.001704 -0.017274 -0.017972 -0.028081 -0.001139 -0.099853 -0.029024 -0.011855 0.023347 -0.031284 -0.047933 -0.004253 -0.064648 -0.043381 -0.043778 0.049348 0.013385 0.024187 -0.005108 0.082460 -0.057183 -0.035227 0.010816 -0.033372 0.020947 -0.009640 0.164281 -0.052872 0.006825 0.029799 -0.042908 0.001627 0.000256 -0.030533 -0.145608 -0.020885 -0.046807 -0.008407 0.025011 -0.009989 0.130006 0.048113 0.019907 -0.085685 -0.052587 -0.032201 0.031032 0.268034 0.178352 0.236232 0.248686 0.301070 0.320971 0.265627 0.061822 -1.103344
0.072396 0.072910 0.074450 0.077018 0.080611 0.085229 0.090871 0.097536 0.105220 0.113921 0.123635 0.134358 0.146084 0.158807 0.172517 0.187206 0.202862 0.219471 0.237018 0.255483 0.274846 0.295082 0.316164 0.338060 0.360735 0.384150 0.408261 0.433019 0.458370 0.484255 0.510608 0.537359 0.564430 0.591737 0.619191 0.646694 0.674141 0.701422 0.728418 0.755004 0.781046 0.806405 0.830935 0.854483 0.876890 0.897991 0.917616 0.935590 0.951737 0.965873 0.977817 0.987383 0.994389 0.998653 0.999995 0.998242 0.993225 0.984787 0.972777 0.957059 0.937510 0.914025 0.886518 0.854921 0.819193 0.779318 0.735309 0.687207 0.635088 0.579062 0.519276 0.455914 0.389202 0.319404 0.246829 0.171826 0.094787 0.016145 0.063624 0.144008 0.224455 0.304379 0.383164 0.460166 0.534718 0.606138 0.673733 0.736803 0.794657 0.846610 0.892002 0.930200 0.960610 0.982687 0.995948 0.999974 0.994428 0.979062 0.953725 0.918374 0.873078 0.818032 0.753554 0.680095 0.598240 0.508708 0.412352 0.310155 0.203221 0.092775 0.019859 0.133261 0.245937 0.356337 0.462872 0.563941 0.657953 0.743357 0.818665 0.882485 0.933548 0.970738 0.993118 0.999962 0.990772 0.965309 0.923604 0.865978 0.793048 0.705735 0.605262 0.493143 0.371176 0.241411 0.106134 0.032174 0.170882 0.307247 0.438477 0.561781 0.674436 0.773849 0.857617 0.923602 0.969982 0.995316 0.998595 0.979287 0.937371 0.873367 0.788343 0.683917 0.562243 0.425979 0.278241 0.122542 0.037282 0.197162 0.352895 0.500256 0.635114 0.753550 0.851986 0.927294 0.976913 0.998947 0.992253 0.956505 0.892237 0.800869 0.684696 0.546850 0.391239 0.222452 0.045635 0.133657 0.309624 0.476409 0.628298 0.759920 0.866451 0.943797 0.988780 0.999278 0.974350 0.914312 0.820776 0.696639 0.546020 0.374150 0.187211 0.007864 0.203646 0.392480 0.566787 0.719378 0.843755 0.934413 0.987100 0.999048 0.969138 0.898010 0.788097 0.643580 0.470266 0.275383 0.067304 0.144798 0.351341 0.542765 0.709987 0.844838 0.940492 0.991835 0.995771 0.951445 0.860355 0.726354 0.555539 0.356004 0.137500 0.089026 0.311960 0.519612 0.700836 0.845643 0.945784 0.995247 0.990663 0.931575 0.820548 0.663127 0.467605 0.244631 0.006670 0.232677 0.459436 0.660075 0.822338 0.936013 0.993620 0.990947 0.927411 0.806194 0.634162 0.421525 0.181289 0.071498 0.320681 0.550000 0.744183 0.889975 0.977083 0.998963 0.953364 0.842601 0.673526 0.457172 0.208095 0.056560 0.318206 0.558112 0.758765 0.905158 0.985975 0.994522 0.929353 0.794511 0.599371 0.358073 0.088541 0.188775 0.452459 0.681750 0.858234 0.967338 0.999624 0.951663 0.826478 0.633456 0.387728 0.109076 0.179628 0.454259 0.691455 0.870638 0.975837 0.997206 0.932018 0.785083 0.568505 0.300786 0.005319 0.291613 0.563134 0.784237 0.934120 0.998221 0.969719 0.850359 0.650490 0.388274 0.088146 0.221420 0.510556 0.750897 0.918407 0.995852 0.974667 0.856018 0.650909 0.379276 0.068164 0.250904 0.545069 0.783549 0.940899 0.999808 0.953123 0.804829 0.569873 0.272783 0.054785 0.377355 0.659456 0.869546 0.983611 0.988019 0.881285 0.674486 0.390277 0.060533 0.277150 0.583680 0.823019 0.966492 0.996312 0.907940 0.710895 0.427896 0.092400 0.255273 0.572725 0.820651 0.967790 0.994976 0.897776 0.687363 0.389400 0.041066 0.313479 0.628650 0.863318 0.986260 0.980444 0.845571 0.598415 0.270950 0.093655 0.446629 0.740104 0.933656 0.999982
1.000000 1.000000 1.000000 1.000000 1.000000 1.000000 1.000000 1.000000 1.000000 1.000000 1.000000 1.000000 1.000000 1.000000 1.000000 1.000000 1.000000 1.000000 1.000000 1.000000 1.000000 1.000000 1.000000 1.000000 1.000000 1.000000 1.000000 1.000000 1.000000 1.000000 1.000000 1.000000 1.000000 1.000000 1.000000 1.000000 1.000000 1.000000 1.000000 1.000000 1.000000 1.000000 1.000000 1.000000 1.000000 1.000000 1.000000 1.000000 1.000000 1.000000 1.000000 1.000000 0.917322 0.917322 0.903315 0.903315 0.903315 0.903315 0.903315 0.903315 0.903315 0.903315 0.903315 0.903315 0.903315 0.903315 0.903315 0.903315 0.903315 0.903315 0.903315 0.903315 0.903315 0.903315 0.903315 0.903315 0.903315 0.903315 0.903315 0.903315 0.903315 0.903315 0.903315 0.903315 0.903315 0.903315 0.903315 0.903315 0.903315 0.903315 0.903315 0.903315 0.903315 0.903315 0.903315 0.901426 0.905986 0.907971 0.906220 0.909835 0.909927 0.907600 0.907199 0.906795 0.907074 0.908477 0.919085 0.930235 0.940802 0.942227 0.947327 0.951830 0.954066 0.955009 0.956375 0.965844 0.963347 0.962849 0.963614 0.965356 0.967685 0.966207 0.966089 0.969060 0.969861 0.968029 0.966015 0.965337 0.964657 0.964344 0.963898 0.964049 0.963967 0.964477 0.964727 0.964984 0.965125 0.965151 0.966174 0.967340 0.969597 0.970638 0.970405 0.969098 0.963170 0.967120 0.967431 0.967177 0.967079 0.966596 0.966961 0.953034 0.948563 0.948538 0.943546 0.942599 0.939665 0.938219 0.936174 0.936383 0.935451 0.936495 0.933414 0.922199 0.909514 0.897192 0.917363 0.906755 0.893671 0.872332 0.871999 0.869659 0.870359 0.864064 0.857393 0.852492 0.849401 0.850191 0.851028 0.854897 0.852741 0.840516 0.843392 0.840674 0.811077 0.798469 0.782217 0.780964 0.778706 0.780030 0.779054 0.777455 0.785430 0.774805 0.773705 0.765670 0.746918 0.712846 0.701740 0.711325 0.720713 0.721999 0.718658 0.703654 0.662354 0.674240 0.702168 0.692639 0.695108 0.686850 0.680665 0.683149 0.684248 0.675834 0.667521 0.666530 0.664593 0.671244 0.676320 0.671148 0.662730 0.649143 0.635665 0.621399 0.633185 0.636644 0.602331 0.597404 0.586229 0.578176 0.568231 0.542907 0.538197 0.513331 0.502845 0.501130 0.500006 0.503407 0.510442 0.512376 0.494542 0.511671 0.513875 0.542636 0.519921 0.519548 0.521224 0.526429 0.512511 0.495946 0.490307 0.491318 0.501703 0.527963 0.563109 0.546798 0.533760 0.523633 0.535022 0.510955 0.520691 0.548522 0.523835 0.460582 0.408697 0.405929 0.364758 0.360236 0.338612 0.328514 0.333285 0.325402 0.315484 0.302253 0.287402 0.237642 0.197659 0.178116 0.156519 0.164281 0.186615 0.180360 0.182862 0.215093 0.262274 0.266152 0.256088 0.229602 0.215793 0.178865 0.180283 0.199745 0.155521 0.150660 0.142192 0.122909 0.102976 0.056381 0.090700 -0.004112 -0.022045 -0.026946 -0.004512 0.004626 0.008656 0.010912 -0.022938 -0.013281 0.021529 0.025453 0.014386 -0.044972 -0.024725 -0.012145 -0.014407 -0.032647 -0.056771 -0.055743 -0.078026 -0.079629 -0.066660 -0.030323 0.032276 0.037238 0.031956 0.066419 0.067163 0.048764 0.049692 0.026044 0.013583 -0.004799 -0.018720 -0.061391 -0.091671 -0.091671 -0.081797 -0.081797 -0.081797 -0.081797 -0.081797 -0.081797 -0.081797 -0.081797 -0.081797 -0.085328 -0.085328 -0.085328 -0.085328 -0.085328 -0.085328 -0.085328 -0.085328 -0.085328 -0.062149 -0.062149 -0.062149 -0.062149 -0.062149 -0.062149 -0.062149 -0.062149 -0.062149
0.000000 0.000000 0.000000 0.000000 0.000000 0.000000 0.000000 0.000000 0.000000 0.000000 0.000000 0.000000 0.000000 0.000000 0.000000 0.000000 0.000000 0.000000 0.000000 0.000000 0.000000 0.000000 0.000000 0.000000 0.000000 0.000000 0.000000 0.000000 0.000000 0.000000 0.000000 0.000000 0.000000 0.000000 0.000000 0.000000 0.000000 0.000000 0.000000 0.000000 0.000000 0.000000 0.000000 0.000000 0.000000 0.000000 0.000000 0.000000 0.000000 0.000000 0.000000 0.000000 0.181818 0.181818 0.199007 0.199007 0.199007 0.199007 0.199007 0.199007 0.199007 0.199007 0.199007 0.199007 0.199007 0.199007 0.199007 0.199007 0.199007 0.199007 0.199007 0.199007 0.199007 0.199007 0.199007 0.199007 0.199007 0.199007 0.199007 0.199007 0.199007 0.199007 0.199007 0.199007 0.199007 0.199007 0.199007 0.199007 0.199007 0.199007 0.199007 0.199007 0.199007 0.199007 0.199007 0.230940 0.230940 0.230940 0.230940 0.230940 0.230940 0.230940 0.230940 0.230940 0.230940 0.230940 0.230940 0.230940 0.230940 0.230940 0.230940 0.230940 0.230940 0.230940 0.230940 0.230940 0.230940 0.230940 0.230940 0.230940 0.230940 0.230940 0.230940 0.244339 0.244339 0.244339 0.244339 0.244339 0.244339 0.244339 0.244339 0.244339 0.244339 0.244339 0.244339 0.244339 0.244339 0.244339 0.244339 0.244339 0.244339 0.244339 0.244339 0.244339 0.244339 0.244339 0.251976 0.251976 0.251976 0.251976 0.251976 0.251976 0.251976 0.251976 0.251976 0.251976 0.251976 0.251976 0.251976 0.251976 0.251976 0.251976 0.251976 0.251976 0.251976 0.251976 0.264906 0.264906 0.264906 0.264906 0.264906 0.264906 0.264906 0.264906 0.264906 0.264906 0.264906 0.264906 0.264906 0.264906 0.264906 0.264906 0.264906 0.264906 0.264906 0.264906 0.264906 0.264906 0.264906 0.264906 0.264906 0.264906 0.264906 0.264906 0.264906 0.264906 0.264906 0.264906 0.264906 0.264906 0.264906 0.264906 0.264906 0.264906 0.264906 0.264906 0.264906 0.264906 0.264906 0.264906 0.264906 0.264906 0.264906 0.264906 0.264906 0.264906 0.264906 0.264906 0.264906 0.264906 0.264906 0.264906 0.264906 0.264906 0.264906 0.264906 0.264906 0.264906 0.264906 0.264906 0.264906 0.264906 0.264906 0.264906 0.264906 0.264906 0.264906 0.264906 0.264906 0.264906 0.264906 0.269680 0.269680 0.269680 0.269680 0.269680 0.269680 0.269680 0.269680 0.269680 0.269680 0.269680 0.269680 0.264906 0.264906 0.264906 0.264906 0.264906 0.264906 0.264906 0.264906 0.264906 0.264906 0.264906 0.264906 0.269680 0.269680 0.269680 0.269680 0.269680 0.269680 0.269680 0.269680 0.269680 0.269680 0.269680 0.264906 0.264906 0.264906 0.264906 0.264906 0.264906 0.264906 0.264906 0.264906 0.264906 0.264906 0.256074 0.256074 0.256074 0.256074 0.256074 0.256074 0.256074 0.256074 0.256074 0.256074 0.256074 0.264906 0.264906 0.264906 0.264906 0.264906 0.264906 0.264906 0.264906 0.264906 0.264906 0.260378 0.260378 0.260378 0.260378 0.260378 0.260378 0.260378 0.260378 0.260378 0.260378 0.264906 0.264906 0.264906 0.264906 0.264906 0.264906 0.264906 0.264906 0.264906 0.260378 0.260378 0.260378 0.260378 0.260378 0.260378 0.260378 0.260378 0.260378 0.256074 0.256074 0.256074 0.256074 0.256074 0.256074 0.256074 0.256074 0.256074 0.251976 0.251976 0.251976 0.251976 0.251976 0.251976 0.251976 0.251976 0.251976 0.264906 0.264906 0.264906 0.264906 0.264906 0.264906 0.264906 0.264906 0.264906
