# Output from CTFFind version 4.1.9, run on 2019-11-03 20:10:07
# Input file: stack16_bm3d_averaged_1_5.5_0_2500_half.mrc ; Number of micrographs: 1
# Pixel size: 3.000 Angstroms ; acceleration voltage: 300.0 keV ; spherical aberration: 0.00 mm ; amplitude contrast: 0.07
# Box size: 512 pixels ; min. res.: 30.0 Angstroms ; max. res.: 5.0 Angstroms ; min. def.: 5000.0 um; max. def. 50000.0 um; num. frames averaged: 1
# 6 lines per micrograph: #1 - spatial frequency (1/Angstroms); #2 - 1D rotational average of spectrum (assuming no astigmatism); #3 - 1D rotational average of spectrum; #4 - CTF fit; #5 - cross-correlation between spectrum and CTF fit; #6 - 2sigma of expected cross correlation of noise
0.000000 0.000651 0.001302 0.001953 0.002604 0.003255 0.003906 0.004557 0.005208 0.005859 0.006510 0.007161 0.007812 0.008464 0.009115 0.009766 0.010417 0.011068 0.011719 0.012370 0.013021 0.013672 0.014323 0.014974 0.015625 0.016276 0.016927 0.017578 0.018229 0.018880 0.019531 0.020182 0.020833 0.021484 0.022135 0.022786 0.023438 0.024089 0.024740 0.025391 0.026042 0.026693 0.027344 0.027995 0.028646 0.029297 0.029948 0.030599 0.031250 0.031901 0.032552 0.033203 0.033854 0.034505 0.035156 0.035807 0.036458 0.037109 0.037760 0.038411 0.039062 0.039714 0.040365 0.041016 0.041667 0.042318 0.042969 0.043620 0.044271 0.044922 0.045573 0.046224 0.046875 0.047526 0.048177 0.048828 0.049479 0.050130 0.050781 0.051432 0.052083 0.052734 0.053385 0.054036 0.054688 0.055339 0.055990 0.056641 0.057292 0.057943 0.058594 0.059245 0.059896 0.060547 0.061198 0.061849 0.062500 0.063151 0.063802 0.064453 0.065104 0.065755 0.066406 0.067057 0.067708 0.068359 0.069010 0.069661 0.070312 0.070964 0.071615 0.072266 0.072917 0.073568 0.074219 0.074870 0.075521 0.076172 0.076823 0.077474 0.078125 0.078776 0.079427 0.080078 0.080729 0.081380 0.082031 0.082682 0.083333 0.083984 0.084635 0.085286 0.085938 0.086589 0.087240 0.087891 0.088542 0.089193 0.089844 0.090495 0.091146 0.091797 0.092448 0.093099 0.093750 0.094401 0.095052 0.095703 0.096354 0.097005 0.097656 0.098307 0.098958 0.099609 0.100260 0.100911 0.101562 0.102214 0.102865 0.103516 0.104167 0.104818 0.105469 0.106120 0.106771 0.107422 0.108073 0.108724 0.109375 0.110026 0.110677 0.111328 0.111979 0.112630 0.113281 0.113932 0.114583 0.115234 0.115885 0.116536 0.117188 0.117839 0.118490 0.119141 0.119792 0.120443 0.121094 0.121745 0.122396 0.123047 0.123698 0.124349 0.125000 0.125651 0.126302 0.126953 0.127604 0.128255 0.128906 0.129557 0.130208 0.130859 0.131510 0.132161 0.132812 0.133464 0.134115 0.134766 0.135417 0.136068 0.136719 0.137370 0.138021 0.138672 0.139323 0.139974 0.140625 0.141276 0.141927 0.142578 0.143229 0.143880 0.144531 0.145182 0.145833 0.146484 0.147135 0.147786 0.148438 0.149089 0.149740 0.150391 0.151042 0.151693 0.152344 0.152995 0.153646 0.154297 0.154948 0.155599 0.156250 0.156901 0.157552 0.158203 0.158854 0.159505 0.160156 0.160807 0.161458 0.162109 0.162760 0.163411 0.164062 0.164714 0.165365 0.166016 0.166667 0.167318 0.167969 0.168620 0.169271 0.169922 0.170573 0.171224 0.171875 0.172526 0.173177 0.173828 0.174479 0.175130 0.175781 0.176432 0.177083 0.177734 0.178385 0.179036 0.179688 0.180339 0.180990 0.181641 0.182292 0.182943 0.183594 0.184245 0.184896 0.185547 0.186198 0.186849 0.187500 0.188151 0.188802 0.189453 0.190104 0.190755 0.191406 0.192057 0.192708 0.193359 0.194010 0.194661 0.195312 0.195964 0.196615 0.197266 0.197917 0.198568 0.199219 0.199870 0.200521 0.201172 0.201823 0.202474 0.203125 0.203776 0.204427 0.205078 0.205729 0.206380 0.207031 0.207682 0.208333 0.208984 0.209635 0.210286 0.210938 0.211589 0.212240 0.212891 0.213542 0.214193 0.214844 0.215495 0.216146 0.216797 0.217448 0.218099 0.218750 0.219401 0.220052 0.220703 0.221354 0.222005 0.222656 0.223307 0.223958 0.224609 0.225260 0.225911 0.226562 0.227214 0.227865 0.228516 0.229167 0.229818 0.230469 0.231120 0.231771 0.232422 0.233073 0.233724 0.234375 0.235026 0.235677
       0.33793        0.33793        0.33793        0.33793        0.33793        0.33793        0.33793        0.33793        0.33793        0.33792        0.33793        0.33793        0.33793        0.33793        0.33793        0.33793        0.33793        0.33792        0.33793        0.33793        0.33793        0.33792        0.33792        0.33793        0.33793        0.33793        0.33793        0.33792        0.33793        0.33793        0.33793        0.33793        0.33793        0.33793        0.33793        0.33793        0.33793        0.33793        0.33793        0.33792        0.33793        0.33793        0.33793        0.33792        0.33793        0.33793        0.33793        0.33792        0.33793        0.33793        0.33792        0.41976        0.55488        0.34111       -0.21072       -0.45840       -0.55430       -0.65270       -0.72467       -0.73583       -0.83402       -0.90199       -0.69733       -0.85537       -0.83379       -0.98177       -1.01786       -0.89985       -0.85892       -0.81089       -0.73018       -0.65980       -0.57203       -0.47698       -0.40983       -0.18207       -0.07831        0.01940        0.24395        0.24846        0.30481        0.36672        0.39394        0.50652        0.53237        0.56869        0.52977        0.46807        0.50367        0.51378        0.43455        0.32345        0.20209        0.17110        0.10364       -0.00838       -0.02439       -0.03239        0.04204        0.00679        0.06066        0.03576        0.15080        0.18741        0.40102        0.45450        0.54663        0.65501        0.68814        0.71173        0.63191        0.60897        0.52963        0.43332        0.38077        0.26396        0.20771        0.20033        0.08962        0.09391        0.08343        0.07348        0.08712        0.29859        0.40744        0.51156        0.53088        0.57095        0.60718        0.58562        0.57444        0.57944        0.56054        0.46026        0.29415        0.25454        0.23911        0.13381        0.07897        0.15215        0.18458        0.27250        0.34686        0.41730        0.46753        0.52685        0.59831        0.54248        0.50504        0.49063        0.34928        0.25617        0.24578        0.16596        0.17328        0.21527        0.26051        0.27275        0.31255        0.41693        0.44972        0.49684        0.44939        0.44058        0.47669        0.38169        0.32207        0.27755        0.24571        0.22029        0.22241        0.23100        0.32728        0.43192        0.42280        0.48589        0.54836        0.43885        0.40746        0.35047        0.30101        0.25593        0.26885        0.26331        0.28052        0.32886        0.34057        0.42293        0.46819        0.43262        0.44999        0.36236        0.37119        0.34985        0.25720        0.23895        0.23707        0.31189        0.36942        0.36193        0.38521        0.42937        0.43183        0.36476        0.33362        0.31201        0.34196        0.30135        0.27010        0.27185        0.34202        0.36187        0.37620        0.38457        0.37833        0.40765        0.39054        0.30793        0.28107        0.31017        0.33741        0.36203        0.35345        0.39878        0.33503        0.36598        0.38558        0.32637        0.34634        0.30912        0.29104        0.33237        0.33164        0.31958        0.33938        0.35895        0.31986        0.33958        0.30921        0.30701        0.28266        0.30938        0.30305        0.32293        0.36024        0.35957        0.34127        0.29952        0.28675        0.27831        0.32024        0.29881        0.30718        0.36115        0.35518        0.33416        0.30527        0.29826        0.30600        0.26751        0.29791        0.31157        0.32232        0.36009        0.33663        0.29307        0.32518        0.32484        0.31536        0.35041        0.33814        0.30351        0.32756        0.28587        0.31718        0.28461        0.30346        0.28597        0.31389        0.35394        0.32699        0.34706        0.30073        0.31301        0.33623        0.32890        0.30309        0.30114        0.33904        0.32546        0.31970        0.31223        0.30748        0.29876        0.30393        0.31445        0.31583        0.33734        0.33756        0.33444        0.28603        0.27433        0.26245        0.26186        0.35537        0.30527        0.34834        0.29027        0.25635        0.27838        0.35429        0.30121        0.27667        0.28839        0.30769        0.28883        0.26628        0.30608        0.26748        0.27109        0.29940        0.31689        0.32813        0.31818        0.29401        0.26158        0.25960        0.25496        0.26212        0.28487        0.35073        0.28270        0.19688        0.29392        0.26966        0.30819        0.23576        0.30214        0.30646        0.32677        0.28556        0.27028        0.26262        0.23400        0.28918        0.34038        0.35206        0.23731        0.27033        0.21786        0.22047        0.19995        0.33056        0.24362        0.19914        0.13177        0.22348        0.29819        0.20253        0.17821        0.06545       -0.55685       -0.69960
3.131187 3.091744 3.052556 3.013622 2.974944 2.936520 2.898352 2.860439 2.822781 2.785377 2.748229 2.711336 2.674698 2.638314 2.602186 2.566313 2.530695 2.495332 2.460224 2.425371 2.390773 2.356430 2.322343 2.288510 2.254932 2.221609 2.188541 2.155728 2.123171 2.090868 2.058820 2.027028 1.995490 1.964207 1.933180 1.902407 1.871890 1.841627 1.811620 1.781867 1.752370 1.723127 1.694140 1.665408 1.636930 1.608708 1.580741 1.553028 1.525571 1.498369 1.471422 1.505615 1.593634 1.533412 0.846778 0.589459 0.450127 0.382087 0.287070 0.209419 0.172478 -0.053888 0.197316 0.061482 -0.036114 -0.119206 -0.242274 -0.150012 -0.064565 -0.094518 -0.080536 0.031134 0.026561 0.221008 0.104675 0.351215 0.459739 0.483125 0.760606 0.686239 0.689153 0.829068 0.797697 0.834895 0.919680 0.861471 0.894267 0.727861 0.799206 0.846523 0.680595 0.605464 0.440256 0.425435 0.347160 0.185873 0.182673 0.116465 0.210949 0.119967 0.211139 0.106986 0.222497 0.233604 0.451539 0.410943 0.585026 0.624034 0.660956 0.728766 0.617167 0.596614 0.467182 0.416884 0.301210 0.269603 0.101983 0.162509 -0.021639 0.039753 -0.033836 -0.038558 -0.043015 0.036060 0.282042 0.299302 0.375258 0.319866 0.400406 0.412303 0.438767 0.419496 0.364951 0.345819 0.134142 0.086892 0.067599 -0.008999 -0.151774 -0.039382 -0.067316 0.042391 0.089207 0.164319 0.232593 0.240023 0.328898 0.422715 0.306924 0.369999 0.250627 0.140837 0.068924 0.047182 0.004922 0.045336 0.073637 0.106169 0.119300 0.183204 0.243471 0.310425 0.288832 0.226429 0.261677 0.231004 0.113332 0.076585 0.048030 0.032751 0.008033 -0.004987 0.037096 0.173063 0.190489 0.197991 0.308470 0.193620 0.203971 0.083839 0.073631 -0.000130 -0.006018 0.003988 -0.002200 0.041581 0.055988 0.093932 0.158923 0.145867 0.224355 0.130078 0.077950 0.102883 0.048020 -0.059506 -0.024998 0.019006 0.057836 0.075279 0.077236 0.155002 0.128826 0.150597 0.038433 0.055511 0.045594 0.050917 0.023599 -0.021738 0.037717 0.045302 0.087002 0.107782 0.091613 0.108280 0.126966 0.074381 0.012828 -0.001562 0.033098 0.080609 0.063428 0.099476 0.095214 0.051347 0.111123 0.068291 0.042017 0.080639 -0.019911 0.021033 0.061919 0.037731 0.044424 0.053380 0.070116 0.053449 0.061232 0.011423 0.019600 -0.002930 0.045386 0.002095 0.047588 0.068275 0.071722 0.038652 -0.010882 -0.008313 -0.017185 0.032553 -0.001425 0.014582 0.069933 0.057618 -0.007531 0.009404 -0.012065 0.010346 -0.044232 -0.006375 0.000746 0.030381 0.047144 0.017758 -0.019079 0.006245 0.006440 0.002380 0.043227 0.012752 -0.015680 0.041733 -0.042870 -0.017641 -0.050605 -0.013623 -0.041984 0.014496 0.039460 -0.000291 0.004081 -0.007256 0.004321 0.021436 0.024887 -0.011567 -0.001680 0.022789 0.043694 0.011368 0.011461 0.036842 -0.008206 -0.000554 0.021662 0.000360 0.074134 0.055678 0.034030 0.001540 -0.008097 -0.035687 -0.001905 0.078221 -0.003342 0.073458 -0.019275 -0.024112 -0.018757 0.093471 -0.004621 -0.014697 0.022958 0.042836 0.009966 0.005907 0.029567 0.004493 0.013618 0.028407 0.065882 0.077505 0.050887 0.032387 0.000884 -0.003565 -0.003189 -0.017656 0.002836 0.107345 -0.025263 -0.093128 0.054597 -0.016051 0.044924 -0.056867 0.014782 0.018568 0.021862 0.000387 -0.019785 -0.017364 -0.073945 0.023708 0.050634 0.068847 -0.125817 -0.004727 -0.039625 -0.016856 -0.125419 0.107122 0.011904 0.000155 -0.073044 0.196571 0.249137 0.137455 0.141149 0.070125 -0.663985
0.072396 0.073047 0.074998 0.078250 0.082801 0.088650 0.095794 0.104231 0.113956 0.124965 0.137251 0.150805 0.165618 0.181677 0.198966 0.217466 0.237157 0.258011 0.279998 0.303082 0.327223 0.352373 0.378480 0.405481 0.433309 0.461887 0.491130 0.520944 0.551224 0.581857 0.612716 0.643668 0.674564 0.705246 0.735546 0.765281 0.794260 0.822278 0.849123 0.874569 0.898383 0.920324 0.940142 0.957581 0.972383 0.984286 0.993028 0.998348 0.999990 0.997707 0.991260 0.980424 0.964995 0.944784 0.919633 0.889408 0.854011 0.813382 0.767500 0.716392 0.660135 0.598859 0.532750 0.462058 0.387094 0.308234 0.225923 0.140672 0.053060 0.036267 0.126598 0.217163 0.307135 0.395634 0.481741 0.564500 0.642930 0.716041 0.782838 0.842344 0.893611 0.935737 0.967881 0.989286 0.999294 0.997362 0.983086 0.956212 0.916654 0.864512 0.800077 0.723849 0.636538 0.539070 0.432587 0.318440 0.198181 0.073549 0.053550 0.181066 0.306839 0.428629 0.544156 0.651148 0.747383 0.830740 0.899255 0.951167 0.984975 0.999487 0.993866 0.967671 0.920896 0.853995 0.767898 0.664023 0.544266 0.410988 0.266978 0.115412 0.040208 0.196135 0.348446 0.493158 0.626321 0.744134 0.843064 0.919959 0.972166 0.997630 0.994997 0.963688 0.903960 0.816944 0.704656 0.569979 0.416614 0.249004 0.072217 0.108184 0.286313 0.456148 0.611734 0.747403 0.857990 0.939046 0.987045 0.999551 0.975374 0.914669 0.818999 0.691334 0.536006 0.358592 0.165747 0.035026 0.235648 0.427786 0.603197 0.754092 0.873497 0.955608 0.996095 0.992373 0.943793 0.851757 0.719743 0.553224 0.359490 0.147372 0.073141 0.291339 0.496316 0.677517 0.825289 0.931441 0.989721 0.996240 0.949769 0.851920 0.707164 0.522698 0.308145 0.075097 0.163474 0.393922 0.602702 0.777183 0.906438 0.981981 0.998371 0.953668 0.849683 0.692006 0.489782 0.255255 0.003078 0.250562 0.488965 0.696028 0.857351 0.961293 0.999867 0.969433 0.871101 0.710822 0.499123 0.250507 0.017484 0.285451 0.533533 0.742888 0.897152 0.983789 0.995181 0.929394 0.790512 0.588511 0.338651 0.060410 0.223980 0.491267 0.719092 0.887895 0.982662 0.994347 0.920849 0.767400 0.546347 0.276275 0.019472 0.314721 0.582792 0.798897 0.942511 0.999394 0.963130 0.835962 0.628841 0.360622 0.056469 0.254409 0.541548 0.776204 0.934294 0.998962 0.962508 0.827443 0.606516 0.321675 0.002020 0.319083 0.607452 0.831741 0.966937 0.997253 0.918137 0.737083 0.473121 0.154987 0.181892 0.499255 0.760360 0.934305 0.999785 0.947876 0.783420 0.524815 0.202134 0.146199 0.477925 0.752049 0.933961 0.999950 0.940460 0.761674 0.485119 0.145280 0.214526 0.547618 0.809986 0.966196 0.994337 0.889294 0.663860 0.347434 0.017607 0.381439 0.693548 0.909781 0.998731 0.946501 0.759111 0.462114 0.097345 0.282771 0.622682 0.871845 0.992353 0.964921 0.792220 0.498990 0.128760 0.262389 0.614238 0.871692 0.993552 0.959319 0.772928 0.462663 0.077172 0.321964 0.669967 0.909394 0.999800 0.924808 0.695385 0.348598 0.058077 0.456092 0.777319 0.965795 0.987686 0.837663 0.540456 0.147126 0.273433 0.646422 0.904462 0.999926 0.914026 0.660859 0.285486 0.143741 0.547437 0.849830 0.993108 0.948763 0.723612 0.359227 0.075368 0.496560 0.822121 0.987405 0.958465 0.739387 0.372269 0.070507 0.500251 0.829666 0.990718 0.948960 0.711323 0.325493 0.129248 0.558077 0.870304 0.998755 0.914531 0.633973 0.215985 0.249898 0.662509
1.000000 1.000000 1.000000 1.000000 1.000000 1.000000 1.000000 1.000000 1.000000 1.000000 1.000000 1.000000 1.000000 1.000000 1.000000 1.000000 1.000000 1.000000 1.000000 1.000000 1.000000 1.000000 1.000000 1.000000 1.000000 1.000000 1.000000 1.000000 1.000000 1.000000 1.000000 1.000000 1.000000 1.000000 1.000000 1.000000 1.000000 1.000000 1.000000 1.000000 1.000000 1.000000 1.000000 1.000000 1.000000 1.000000 1.000000 1.000000 1.000000 1.000000 1.000000 1.000000 0.926260 0.926260 0.926260 0.926260 0.926260 0.926260 0.926260 0.926260 0.926260 0.926260 0.926260 0.926260 0.926260 0.926260 0.926260 0.926260 0.926260 0.926260 0.926260 0.926260 0.926260 0.926260 0.926260 0.926260 0.926260 0.926260 0.926260 0.926260 0.926260 0.926260 0.926260 0.926260 0.926260 0.913333 0.911423 0.912586 0.913773 0.913679 0.913125 0.912759 0.913794 0.915344 0.917360 0.938975 0.942007 0.943173 0.944465 0.945889 0.948323 0.946306 0.954030 0.960655 0.959676 0.960687 0.954510 0.955816 0.955187 0.954460 0.956033 0.956102 0.954484 0.952578 0.951096 0.950593 0.950301 0.953824 0.954369 0.954539 0.955089 0.955021 0.955740 0.956348 0.954447 0.956632 0.948766 0.947564 0.952961 0.951079 0.952623 0.952587 0.953284 0.954060 0.954346 0.954589 0.951413 0.951079 0.950350 0.940632 0.933749 0.932371 0.934908 0.938270 0.935787 0.931862 0.933163 0.935650 0.934981 0.934343 0.925068 0.921442 0.898864 0.887278 0.875855 0.876307 0.879320 0.881590 0.879196 0.871147 0.861333 0.857596 0.857884 0.853749 0.846729 0.863139 0.857462 0.856074 0.860120 0.863164 0.868642 0.865200 0.860797 0.856256 0.851863 0.845416 0.847331 0.852261 0.856266 0.840998 0.832507 0.850059 0.838998 0.830312 0.837783 0.839824 0.836914 0.835825 0.836610 0.834696 0.827939 0.822938 0.825946 0.834924 0.833973 0.822845 0.819006 0.814356 0.814178 0.807555 0.810714 0.810649 0.806909 0.799879 0.815094 0.782091 0.805688 0.804504 0.790135 0.774447 0.763555 0.772603 0.784094 0.786835 0.778077 0.773364 0.772611 0.766538 0.739462 0.742957 0.750273 0.748694 0.736508 0.716410 0.723577 0.730582 0.725501 0.721436 0.724414 0.725232 0.696987 0.709799 0.713518 0.699058 0.714361 0.716368 0.707233 0.707952 0.710085 0.712523 0.705532 0.665251 0.667894 0.664799 0.656744 0.607545 0.606940 0.606181 0.555505 0.559401 0.524575 0.507304 0.506810 0.501762 0.548814 0.514245 0.496787 0.527225 0.461194 0.372043 0.387158 0.384046 0.396167 0.405447 0.379808 0.379037 0.367237 0.345619 0.354507 0.375040 0.390269 0.358928 0.360252 0.354694 0.324519 0.298348 0.312127 0.315140 0.334777 0.336789 0.313591 0.343661 0.381308 0.324332 0.299984 0.282488 0.282504 0.296778 0.302554 0.292035 0.263465 0.257115 0.225507 0.250493 0.242463 0.244239 0.259030 0.291192 0.285304 0.297831 0.316835 0.268857 0.284176 0.286017 0.275591 0.280884 0.289113 0.287845 0.276174 0.294591 0.263042 0.276847 0.254452 0.235563 0.300690 0.282361 0.251937 0.251928 0.257178 0.264271 0.235554 0.187934 0.173049 0.177263 0.113994 0.088308 0.088578 0.087907 0.044747 0.017257 0.002205 -0.036357 -0.036227 -0.035148 0.001388 -0.029765 -0.003839 0.006311 0.006311 0.006311 0.006311 0.006311 0.006311 0.006311 0.006311 0.006311 0.006311 0.006311 0.006311 0.006311 0.006311 0.029146 0.029146 0.029146 0.029146 0.029146 0.029146 0.029146 0.029146 0.029146 0.029146 0.029146 0.029146
0.000000 0.000000 0.000000 0.000000 0.000000 0.000000 0.000000 0.000000 0.000000 0.000000 0.000000 0.000000 0.000000 0.000000 0.000000 0.000000 0.000000 0.000000 0.000000 0.000000 0.000000 0.000000 0.000000 0.000000 0.000000 0.000000 0.000000 0.000000 0.000000 0.000000 0.000000 0.000000 0.000000 0.000000 0.000000 0.000000 0.000000 0.000000 0.000000 0.000000 0.000000 0.000000 0.000000 0.000000 0.000000 0.000000 0.000000 0.000000 0.000000 0.000000 0.000000 0.000000 0.209657 0.209657 0.209657 0.209657 0.209657 0.209657 0.209657 0.209657 0.209657 0.209657 0.209657 0.209657 0.209657 0.209657 0.209657 0.209657 0.209657 0.209657 0.209657 0.209657 0.209657 0.209657 0.209657 0.209657 0.209657 0.209657 0.209657 0.209657 0.209657 0.209657 0.209657 0.209657 0.209657 0.244339 0.244339 0.244339 0.244339 0.244339 0.244339 0.244339 0.244339 0.244339 0.244339 0.244339 0.244339 0.244339 0.244339 0.244339 0.244339 0.244339 0.244339 0.244339 0.244339 0.244339 0.244339 0.244339 0.244339 0.244339 0.260378 0.260378 0.260378 0.260378 0.260378 0.260378 0.260378 0.260378 0.260378 0.260378 0.260378 0.260378 0.260378 0.260378 0.260378 0.260378 0.260378 0.260378 0.260378 0.260378 0.269680 0.269680 0.269680 0.269680 0.269680 0.269680 0.269680 0.269680 0.269680 0.269680 0.269680 0.269680 0.269680 0.269680 0.269680 0.269680 0.269680 0.269680 0.269680 0.269680 0.269680 0.269680 0.269680 0.269680 0.269680 0.269680 0.269680 0.269680 0.269680 0.269680 0.269680 0.269680 0.269680 0.280056 0.280056 0.280056 0.280056 0.280056 0.280056 0.280056 0.280056 0.280056 0.280056 0.280056 0.280056 0.280056 0.280056 0.280056 0.280056 0.280056 0.280056 0.280056 0.280056 0.280056 0.280056 0.280056 0.280056 0.280056 0.280056 0.280056 0.274721 0.274721 0.274721 0.274721 0.274721 0.274721 0.274721 0.274721 0.274721 0.274721 0.274721 0.274721 0.274721 0.285714 0.285714 0.285714 0.285714 0.285714 0.285714 0.285714 0.285714 0.285714 0.285714 0.285714 0.280056 0.280056 0.280056 0.280056 0.280056 0.280056 0.280056 0.280056 0.280056 0.280056 0.280056 0.274721 0.274721 0.274721 0.274721 0.274721 0.274721 0.274721 0.274721 0.274721 0.274721 0.274721 0.280056 0.280056 0.280056 0.280056 0.280056 0.280056 0.280056 0.280056 0.280056 0.280056 0.285714 0.285714 0.285714 0.285714 0.285714 0.285714 0.285714 0.285714 0.285714 0.269680 0.269680 0.269680 0.269680 0.269680 0.269680 0.269680 0.269680 0.269680 0.269680 0.274721 0.274721 0.274721 0.274721 0.274721 0.274721 0.274721 0.274721 0.274721 0.285714 0.285714 0.285714 0.285714 0.285714 0.285714 0.285714 0.285714 0.264906 0.264906 0.264906 0.264906 0.264906 0.264906 0.264906 0.264906 0.264906 0.274721 0.274721 0.274721 0.274721 0.274721 0.274721 0.274721 0.274721 0.269680 0.269680 0.269680 0.269680 0.269680 0.269680 0.269680 0.269680 0.269680 0.269680 0.269680 0.269680 0.269680 0.269680 0.269680 0.269680 0.280056 0.280056 0.280056 0.280056 0.280056 0.280056 0.280056 0.260378 0.260378 0.260378 0.260378 0.260378 0.260378 0.260378 0.260378 0.269680 0.269680 0.269680 0.269680 0.269680 0.269680 0.269680 0.264906 0.264906 0.264906 0.264906 0.264906 0.264906 0.264906 0.264906 0.264906 0.264906 0.264906 0.264906 0.264906 0.264906 0.260378 0.260378 0.260378 0.260378 0.260378 0.260378 0.260378 0.260378 0.260378 0.260378 0.260378 0.260378
