# Output from CTFFind version 4.1.9, run on 2019-11-03 20:10:33
# Input file: stack11_bm3d_averaged_1_6.0_0_3000_half.mrc ; Number of micrographs: 1
# Pixel size: 3.000 Angstroms ; acceleration voltage: 300.0 keV ; spherical aberration: 0.00 mm ; amplitude contrast: 0.07
# Box size: 512 pixels ; min. res.: 30.0 Angstroms ; max. res.: 5.0 Angstroms ; min. def.: 5000.0 um; max. def. 50000.0 um; num. frames averaged: 1
# 6 lines per micrograph: #1 - spatial frequency (1/Angstroms); #2 - 1D rotational average of spectrum (assuming no astigmatism); #3 - 1D rotational average of spectrum; #4 - CTF fit; #5 - cross-correlation between spectrum and CTF fit; #6 - 2sigma of expected cross correlation of noise
0.000000 0.000651 0.001302 0.001953 0.002604 0.003255 0.003906 0.004557 0.005208 0.005859 0.006510 0.007161 0.007812 0.008464 0.009115 0.009766 0.010417 0.011068 0.011719 0.012370 0.013021 0.013672 0.014323 0.014974 0.015625 0.016276 0.016927 0.017578 0.018229 0.018880 0.019531 0.020182 0.020833 0.021484 0.022135 0.022786 0.023438 0.024089 0.024740 0.025391 0.026042 0.026693 0.027344 0.027995 0.028646 0.029297 0.029948 0.030599 0.031250 0.031901 0.032552 0.033203 0.033854 0.034505 0.035156 0.035807 0.036458 0.037109 0.037760 0.038411 0.039062 0.039714 0.040365 0.041016 0.041667 0.042318 0.042969 0.043620 0.044271 0.044922 0.045573 0.046224 0.046875 0.047526 0.048177 0.048828 0.049479 0.050130 0.050781 0.051432 0.052083 0.052734 0.053385 0.054036 0.054688 0.055339 0.055990 0.056641 0.057292 0.057943 0.058594 0.059245 0.059896 0.060547 0.061198 0.061849 0.062500 0.063151 0.063802 0.064453 0.065104 0.065755 0.066406 0.067057 0.067708 0.068359 0.069010 0.069661 0.070312 0.070964 0.071615 0.072266 0.072917 0.073568 0.074219 0.074870 0.075521 0.076172 0.076823 0.077474 0.078125 0.078776 0.079427 0.080078 0.080729 0.081380 0.082031 0.082682 0.083333 0.083984 0.084635 0.085286 0.085938 0.086589 0.087240 0.087891 0.088542 0.089193 0.089844 0.090495 0.091146 0.091797 0.092448 0.093099 0.093750 0.094401 0.095052 0.095703 0.096354 0.097005 0.097656 0.098307 0.098958 0.099609 0.100260 0.100911 0.101562 0.102214 0.102865 0.103516 0.104167 0.104818 0.105469 0.106120 0.106771 0.107422 0.108073 0.108724 0.109375 0.110026 0.110677 0.111328 0.111979 0.112630 0.113281 0.113932 0.114583 0.115234 0.115885 0.116536 0.117188 0.117839 0.118490 0.119141 0.119792 0.120443 0.121094 0.121745 0.122396 0.123047 0.123698 0.124349 0.125000 0.125651 0.126302 0.126953 0.127604 0.128255 0.128906 0.129557 0.130208 0.130859 0.131510 0.132161 0.132812 0.133464 0.134115 0.134766 0.135417 0.136068 0.136719 0.137370 0.138021 0.138672 0.139323 0.139974 0.140625 0.141276 0.141927 0.142578 0.143229 0.143880 0.144531 0.145182 0.145833 0.146484 0.147135 0.147786 0.148438 0.149089 0.149740 0.150391 0.151042 0.151693 0.152344 0.152995 0.153646 0.154297 0.154948 0.155599 0.156250 0.156901 0.157552 0.158203 0.158854 0.159505 0.160156 0.160807 0.161458 0.162109 0.162760 0.163411 0.164062 0.164714 0.165365 0.166016 0.166667 0.167318 0.167969 0.168620 0.169271 0.169922 0.170573 0.171224 0.171875 0.172526 0.173177 0.173828 0.174479 0.175130 0.175781 0.176432 0.177083 0.177734 0.178385 0.179036 0.179688 0.180339 0.180990 0.181641 0.182292 0.182943 0.183594 0.184245 0.184896 0.185547 0.186198 0.186849 0.187500 0.188151 0.188802 0.189453 0.190104 0.190755 0.191406 0.192057 0.192708 0.193359 0.194010 0.194661 0.195312 0.195964 0.196615 0.197266 0.197917 0.198568 0.199219 0.199870 0.200521 0.201172 0.201823 0.202474 0.203125 0.203776 0.204427 0.205078 0.205729 0.206380 0.207031 0.207682 0.208333 0.208984 0.209635 0.210286 0.210938 0.211589 0.212240 0.212891 0.213542 0.214193 0.214844 0.215495 0.216146 0.216797 0.217448 0.218099 0.218750 0.219401 0.220052 0.220703 0.221354 0.222005 0.222656 0.223307 0.223958 0.224609 0.225260 0.225911 0.226562 0.227214 0.227865 0.228516 0.229167 0.229818 0.230469 0.231120 0.231771 0.232422 0.233073 0.233724 0.234375 0.235026 0.235677
       0.34352        0.34352        0.34352        0.34352        0.34352        0.34352        0.34352        0.34352        0.34352        0.34352        0.34352        0.34352        0.34352        0.34352        0.34352        0.34352        0.34352        0.34352        0.34352        0.34352        0.34352        0.34352        0.34352        0.34352        0.34352        0.34352        0.34352        0.34352        0.34352        0.34352        0.34352        0.34352        0.34352        0.34352        0.34352        0.34352        0.34352        0.34352        0.34352        0.34352        0.34352        0.34352        0.34352        0.34352        0.34352        0.34352        0.34352        0.34352        0.34352        0.34352        0.34352        0.69842        0.85858        0.53753        0.10544       -0.02936       -0.38842       -0.18043       -0.28796       -0.11453       -0.05507       -0.11159       -0.05330       -0.16854       -0.20652       -0.21582       -0.30792       -0.31943       -0.44573       -0.36260       -0.42776       -0.42239       -0.39586       -0.41147       -0.45212       -0.51074       -0.56000       -0.55440       -0.52819       -0.35904       -0.32959       -0.29341       -0.27339       -0.18614       -0.17181        0.05956        0.13979        0.17210        0.26394        0.38139        0.45784        0.52351        0.59891        0.59627        0.58294        0.69937        0.80448        0.70513        0.74352        0.62174        0.56903        0.48373        0.43169        0.51231        0.39690        0.26782        0.11531        0.10938        0.08906       -0.01711        0.04015        0.04944        0.00733        0.02666        0.02768        0.23766        0.27124        0.29610        0.43471        0.45345        0.41452        0.59691        0.62182        0.64022        0.72661        0.67748        0.64770        0.65962        0.56125        0.46296        0.41935        0.30357        0.26611        0.18205        0.13542        0.05258        0.06225        0.07104        0.09833        0.15695        0.24328        0.29509        0.41902        0.46481        0.48149        0.56821        0.60480        0.63774        0.61733        0.56037        0.46084        0.47368        0.37924        0.27435        0.21064        0.15727        0.17025        0.15229        0.15628        0.18476        0.31951        0.33333        0.40375        0.44433        0.42782        0.48385        0.56305        0.55483        0.50178        0.45746        0.41248        0.36949        0.33944        0.30660        0.26018        0.24582        0.25026        0.25460        0.22481        0.30859        0.36408        0.38544        0.43978        0.45657        0.46949        0.42662        0.40967        0.40246        0.36294        0.33253        0.27420        0.27728        0.26758        0.24208        0.29283        0.28999        0.35030        0.38147        0.43135        0.47667        0.40887        0.42372        0.43336        0.41118        0.34924        0.32682        0.29370        0.32391        0.27411        0.32027        0.31289        0.33068        0.33912        0.36299        0.31653        0.39121        0.41425        0.38074        0.35037        0.37082        0.31723        0.29407        0.30575        0.32048        0.30796        0.31999        0.34282        0.35416        0.34062        0.36575        0.36458        0.41885        0.38845        0.33843        0.34634        0.29927        0.29254        0.32545        0.31978        0.33009        0.34166        0.34043        0.38600        0.33087        0.33043        0.33787        0.34594        0.30458        0.31278        0.28096        0.30352        0.32970        0.30568        0.33011        0.35582        0.36546        0.29634        0.33848        0.29816        0.29742        0.27974        0.24664        0.30454        0.30495        0.34284        0.33871        0.34221        0.32649        0.34996        0.31432        0.34597        0.31039        0.32239        0.28854        0.33491        0.32545        0.36715        0.32757        0.33599        0.33998        0.29345        0.27557        0.31087        0.25023        0.22865        0.34149        0.32213        0.36464        0.34636        0.36149        0.33248        0.33607        0.34910        0.26501        0.26261        0.31639        0.30158        0.31167        0.31790        0.34027        0.33145        0.29280        0.29103        0.34497        0.32164        0.31687        0.29335        0.32250        0.34085        0.39531        0.35828        0.31728        0.28173        0.30349        0.28884        0.30247        0.27508        0.26606        0.31342        0.33135        0.34496        0.35458        0.33052        0.29198        0.30117        0.26848        0.27564        0.25542        0.30982        0.26570        0.24224        0.29784        0.29251        0.26412        0.29563        0.21649        0.21413        0.24476        0.19184        0.26954        0.34558        0.25150        0.23645        0.31694        0.30669        0.31501        0.31531        0.26702        0.24895        0.19009        0.21166        0.19969        0.26472        0.23485        0.28150        0.35638        0.35295        0.24759        0.16287        0.09951       -0.01109       -0.11293       -0.63045
2.782510 2.753003 2.723656 2.694470 2.665445 2.636581 2.607877 2.579334 2.550952 2.522730 2.494669 2.466769 2.439029 2.411450 2.384032 2.356775 2.329678 2.302742 2.275966 2.249352 2.222898 2.196604 2.170472 2.144500 2.118689 2.093038 2.067548 2.042219 2.017051 1.992043 1.967196 1.942509 1.917984 1.893619 1.869414 1.845371 1.821488 1.797766 1.774204 1.750803 1.727563 1.704484 1.681565 1.658807 1.636210 1.613773 1.591497 1.569382 1.547427 1.525633 1.504000 1.721209 2.144464 1.702298 1.187001 1.051167 0.452053 0.849408 0.562771 0.846759 0.813631 0.819184 0.758257 0.752931 0.596578 0.559504 0.501523 0.429183 0.248350 0.367132 0.200932 0.330162 0.220713 0.208299 0.182513 0.040814 0.006398 0.018178 -0.069172 0.133086 0.232057 0.189199 0.178229 0.327445 0.185019 0.519982 0.624296 0.630722 0.647257 0.877150 0.835410 0.944236 0.936172 1.033282 1.000897 1.086007 1.169517 1.045798 1.163397 0.910755 0.930017 0.795986 0.653738 0.806709 0.697284 0.492687 0.333376 0.251053 0.266874 0.148107 0.133989 0.164583 0.107748 0.122665 0.080402 0.251022 0.354009 0.341884 0.476549 0.545718 0.418114 0.592340 0.730146 0.654629 0.722431 0.710968 0.718806 0.648974 0.596932 0.495483 0.370525 0.276777 0.220587 0.088862 0.116802 -0.110002 -0.048911 -0.063265 -0.081196 -0.020304 0.130554 0.069195 0.241474 0.306722 0.335836 0.378041 0.498645 0.458603 0.487267 0.492743 0.305878 0.294162 0.287209 0.087211 0.045573 -0.077724 -0.013501 -0.062193 -0.094918 -0.076327 0.038805 0.092644 0.124046 0.220975 0.226112 0.225003 0.275173 0.445544 0.393641 0.257425 0.233473 0.223480 0.143471 0.144447 0.116596 -0.004390 0.016154 0.072911 -0.009079 0.047832 0.133911 0.136508 0.216527 0.238175 0.253941 0.169655 0.209853 0.127373 0.134346 0.110873 0.029654 -0.025961 0.000037 -0.019838 -0.053962 0.053810 0.006019 0.106587 0.139021 0.190013 0.170020 0.121552 0.140626 0.162229 0.111871 0.038258 -0.022805 0.032809 0.024981 -0.039777 0.033108 0.022757 0.047650 0.039077 0.052151 0.036239 0.140034 0.125092 0.046888 0.040858 0.045239 0.006401 -0.030462 0.010350 0.008231 -0.001128 0.006912 0.052616 0.053954 0.042127 0.078449 0.059317 0.158341 0.062970 0.038612 0.041520 -0.033433 0.011144 0.045948 0.007503 0.034706 0.054295 0.080298 0.046231 0.042724 0.010820 0.078301 0.023517 0.023016 0.023103 -0.006312 0.035744 0.025910 0.022274 0.068154 0.081680 0.061900 0.040183 0.049267 0.028472 0.019258 -0.020055 -0.023042 0.035327 0.053472 0.082660 0.085233 0.052337 0.074777 0.104104 0.046414 0.096194 0.065502 0.041658 0.021613 0.102813 0.061656 0.115453 0.082303 0.052973 0.109099 0.038059 0.006261 0.086902 -0.035732 -0.022150 0.101078 0.046448 0.159531 0.095350 0.091114 0.053572 0.058481 0.093108 -0.023738 -0.026590 0.052614 0.041389 0.038910 0.028453 0.103081 0.043805 -0.006137 0.053996 0.048069 0.052772 0.059258 -0.011243 0.064380 0.059873 0.112138 0.060508 0.025660 -0.025159 -0.017360 -0.005064 0.004253 -0.052007 -0.026052 0.004548 0.023852 0.029276 0.050674 0.006139 -0.036069 -0.031781 -0.021573 -0.069194 -0.050518 -0.025495 -0.090528 -0.069772 -0.013584 -0.054993 -0.077514 -0.002396 -0.138729 -0.098827 -0.096286 -0.193146 -0.058489 0.062627 -0.069227 -0.157958 0.029831 0.013230 -0.060997 0.029101 -0.089966 0.274154 0.166859 0.217720 0.270971 0.326345 0.257891 0.323187 0.341137 0.410355 0.228666 0.296421 0.123333 -0.016611 -0.697764
0.072396 0.072899 0.074408 0.076922 0.080441 0.084964 0.090489 0.097016 0.104541 0.113063 0.122577 0.133080 0.144565 0.157028 0.170459 0.184850 0.200190 0.216465 0.233661 0.251761 0.270744 0.290587 0.311265 0.332748 0.355002 0.377991 0.401673 0.426002 0.450927 0.476392 0.502336 0.528692 0.555386 0.582340 0.609469 0.636679 0.663874 0.690947 0.717787 0.744274 0.770282 0.795680 0.820327 0.844079 0.866784 0.888285 0.908418 0.927018 0.943913 0.958929 0.971888 0.982614 0.990928 0.996652 0.999611 0.999634 0.996554 0.990213 0.980460 0.967154 0.950169 0.929392 0.904727 0.876096 0.843444 0.806739 0.765973 0.721168 0.672374 0.619673 0.563184 0.503057 0.439482 0.372688 0.302941 0.230549 0.155859 0.079262 0.001184 0.077907 0.157505 0.237072 0.316034 0.393789 0.469710 0.543149 0.613442 0.679918 0.741898 0.798712 0.849699 0.894221 0.931664 0.961458 0.983075 0.996048 0.999973 0.994524 0.979459 0.954632 0.919997 0.875619 0.821679 0.758479 0.686448 0.606143 0.518249 0.423580 0.323075 0.217791 0.108900 0.002326 0.114525 0.226260 0.336036 0.442318 0.543555 0.638202 0.724744 0.801724 0.867768 0.921615 0.962143 0.988395 0.999610 0.995239 0.974974 0.938764 0.886829 0.819674 0.738091 0.643164 0.536262 0.419025 0.293353 0.161377 0.025427 0.112000 0.248284 0.380734 0.506637 0.623317 0.728195 0.818847 0.893071 0.948940 0.984866 0.999650 0.992529 0.963215 0.911922 0.839390 0.746887 0.636203 0.509633 0.369936 0.220291 0.064234 0.094424 0.251681 0.403444 0.545635 0.674306 0.785752 0.876626 0.944052 0.985724 0.999999 0.985976 0.943549 0.873448 0.777251 0.657369 0.517007 0.360096 0.191198 0.015384 0.161904 0.335028 0.498317 0.646272 0.773743 0.876131 0.949561 0.991049 0.998639 0.971514 0.910067 0.815937 0.691989 0.542258 0.371848 0.186761 0.006277 0.200068 0.387195 0.560306 0.712413 0.837186 0.929225 0.984326 0.999689 0.974088 0.907974 0.803522 0.664590 0.496613 0.306421 0.101982 0.107909 0.314003 0.507001 0.677976 0.818800 0.922551 0.983875 0.999296 0.967447 0.889195 0.767684 0.608244 0.418203 0.206578 0.016321 0.239381 0.451231 0.640821 0.798018 0.914163 0.982584 0.999008 0.961875 0.872504 0.735105 0.556635 0.346492 0.116057 0.121894 0.353886 0.566504 0.747175 0.884934 0.971127 0.999993 0.969095 0.879565 0.736144 0.546979 0.323230 0.078440 0.172245 0.412999 0.628320 0.804032 0.928260 0.992270 0.991134 0.924167 0.795088 0.611887 0.386408 0.133611 0.129358 0.384307 0.613282 0.799800 0.930116 0.994249 0.986828 0.907595 0.761561 0.558777 0.313708 0.044259 0.229496 0.486784 0.707710 0.874844 0.974611 0.998485 0.943770 0.813974 0.618678 0.372917 0.096084 0.189541 0.460565 0.694393 0.871144 0.975391 0.997575 0.934964 0.792057 0.580364 0.317575 0.026156 0.268524 0.540382 0.764927 0.921519 0.995322 0.978796 0.872565 0.685542 0.434296 0.141684 0.165186 0.457391 0.706955 0.889529 0.986852 0.988650 0.893838 0.710823 0.456888 0.156661 0.160189 0.461851 0.717559 0.900756 0.991939 0.980820 0.867613 0.663235 0.388381 0.071542 0.253862 0.552996 0.793325 0.948210 0.999959 0.941956 0.779634 0.530123 0.220572 0.114699 0.437949 0.712242 0.905715 0.995363 0.969881 0.831244 0.594728 0.287395 0.054898 0.391595 0.682231 0.891328 0.992801 0.973344 0.834326 0.591902 0.275318 0.076512 0.419691 0.710796 0.912421 0.998073 0.955792 0.789986 0.521164 0.183595 0.178974
1.000000 1.000000 1.000000 1.000000 1.000000 1.000000 1.000000 1.000000 1.000000 1.000000 1.000000 1.000000 1.000000 1.000000 1.000000 1.000000 1.000000 1.000000 1.000000 1.000000 1.000000 1.000000 1.000000 1.000000 1.000000 1.000000 1.000000 1.000000 1.000000 1.000000 1.000000 1.000000 1.000000 1.000000 1.000000 1.000000 1.000000 1.000000 1.000000 1.000000 1.000000 1.000000 1.000000 1.000000 1.000000 1.000000 1.000000 1.000000 1.000000 1.000000 1.000000 1.000000 0.919253 0.919253 0.919253 0.912666 0.912666 0.912666 0.912666 0.912666 0.912666 0.912666 0.912666 0.912666 0.912666 0.912666 0.912666 0.912666 0.912666 0.912666 0.912666 0.912666 0.912666 0.912666 0.912666 0.912666 0.912666 0.912666 0.912666 0.912666 0.912666 0.912666 0.912666 0.912666 0.912666 0.912666 0.912666 0.912666 0.912666 0.912666 0.912666 0.912666 0.912666 0.912666 0.912666 0.912666 0.941640 0.943038 0.951310 0.950868 0.950285 0.948288 0.947074 0.946737 0.946647 0.946984 0.947694 0.948656 0.954870 0.956104 0.960498 0.962182 0.962365 0.964107 0.964821 0.964450 0.956022 0.955794 0.954385 0.953853 0.956379 0.955487 0.954748 0.955721 0.955626 0.955959 0.955952 0.955301 0.954266 0.953215 0.952311 0.951917 0.951725 0.952444 0.952854 0.954294 0.957539 0.958135 0.958273 0.956682 0.955464 0.956735 0.955961 0.955284 0.943515 0.943028 0.941705 0.941750 0.944848 0.944921 0.945511 0.946128 0.947901 0.948265 0.943896 0.943696 0.936700 0.934033 0.932023 0.926526 0.921757 0.923575 0.925487 0.925966 0.926130 0.920715 0.920734 0.918864 0.914803 0.917270 0.917642 0.918922 0.920272 0.916194 0.915409 0.914204 0.912600 0.904965 0.892796 0.891644 0.887077 0.892009 0.892049 0.890941 0.893988 0.883160 0.868041 0.836381 0.838765 0.842014 0.832151 0.827431 0.827442 0.828207 0.832555 0.825976 0.824284 0.818862 0.806859 0.801220 0.793899 0.780585 0.782260 0.773822 0.763812 0.759401 0.783476 0.777506 0.788475 0.792822 0.792536 0.789462 0.781675 0.771512 0.770199 0.764383 0.760726 0.739203 0.731382 0.731529 0.728278 0.717876 0.721981 0.709234 0.709596 0.697877 0.702512 0.707530 0.710832 0.706432 0.701010 0.692991 0.690025 0.702105 0.716177 0.712379 0.709179 0.711277 0.701181 0.691660 0.689363 0.692997 0.687635 0.665455 0.673570 0.699674 0.665958 0.655590 0.662545 0.667842 0.658384 0.660635 0.640885 0.634291 0.612726 0.630075 0.635456 0.652290 0.650006 0.650152 0.660867 0.666745 0.677655 0.679009 0.680604 0.640703 0.643456 0.664280 0.671391 0.657769 0.646323 0.649157 0.646741 0.682087 0.671478 0.627700 0.624248 0.620467 0.580750 0.558603 0.557454 0.562008 0.588233 0.586314 0.566655 0.545135 0.549706 0.553724 0.554853 0.553141 0.540758 0.547458 0.533955 0.510436 0.518746 0.524768 0.522574 0.508251 0.504142 0.514645 0.489197 0.525238 0.497181 0.472873 0.492650 0.489924 0.478521 0.404765 0.420534 0.407403 0.399813 0.353360 0.363345 0.371855 0.356226 0.281298 0.272768 0.273771 0.271635 0.253448 0.235126 0.224251 0.211305 0.190456 0.131324 0.094122 0.094448 0.096722 0.120432 0.080340 0.128238 0.192319 0.192783 0.192783 0.192783 0.192783 0.192783 0.192783 0.192783 0.192783 0.168380 0.168380 0.168380 0.168380 0.168380 0.168380 0.168380 0.168380 0.168380 0.192783 0.192783 0.192783 0.192783 0.192783 0.192783 0.192783 0.192783 0.192783 0.192783 0.192783 0.192783 0.192783 0.192783
0.000000 0.000000 0.000000 0.000000 0.000000 0.000000 0.000000 0.000000 0.000000 0.000000 0.000000 0.000000 0.000000 0.000000 0.000000 0.000000 0.000000 0.000000 0.000000 0.000000 0.000000 0.000000 0.000000 0.000000 0.000000 0.000000 0.000000 0.000000 0.000000 0.000000 0.000000 0.000000 0.000000 0.000000 0.000000 0.000000 0.000000 0.000000 0.000000 0.000000 0.000000 0.000000 0.000000 0.000000 0.000000 0.000000 0.000000 0.000000 0.000000 0.000000 0.000000 0.000000 0.180334 0.180334 0.180334 0.199007 0.199007 0.199007 0.199007 0.199007 0.199007 0.199007 0.199007 0.199007 0.199007 0.199007 0.199007 0.199007 0.199007 0.199007 0.199007 0.199007 0.199007 0.199007 0.199007 0.199007 0.199007 0.199007 0.199007 0.199007 0.199007 0.199007 0.199007 0.199007 0.199007 0.199007 0.199007 0.199007 0.199007 0.199007 0.199007 0.199007 0.199007 0.199007 0.199007 0.199007 0.225018 0.225018 0.225018 0.225018 0.225018 0.225018 0.225018 0.225018 0.225018 0.225018 0.225018 0.225018 0.225018 0.225018 0.225018 0.225018 0.225018 0.225018 0.225018 0.225018 0.225018 0.225018 0.225018 0.225018 0.225018 0.225018 0.225018 0.225018 0.225018 0.244339 0.244339 0.244339 0.244339 0.244339 0.244339 0.244339 0.244339 0.244339 0.244339 0.244339 0.244339 0.244339 0.244339 0.244339 0.244339 0.244339 0.244339 0.244339 0.244339 0.244339 0.244339 0.244339 0.251976 0.251976 0.251976 0.251976 0.251976 0.251976 0.251976 0.251976 0.251976 0.251976 0.251976 0.251976 0.251976 0.251976 0.251976 0.251976 0.251976 0.251976 0.251976 0.251976 0.264906 0.264906 0.264906 0.264906 0.264906 0.264906 0.264906 0.264906 0.264906 0.264906 0.264906 0.264906 0.264906 0.264906 0.264906 0.264906 0.264906 0.264906 0.264906 0.264906 0.264906 0.264906 0.264906 0.264906 0.264906 0.264906 0.264906 0.264906 0.264906 0.264906 0.264906 0.264906 0.264906 0.264906 0.264906 0.264906 0.264906 0.264906 0.264906 0.264906 0.264906 0.264906 0.264906 0.264906 0.264906 0.264906 0.264906 0.264906 0.264906 0.264906 0.264906 0.264906 0.264906 0.264906 0.264906 0.264906 0.264906 0.264906 0.264906 0.264906 0.264906 0.264906 0.264906 0.264906 0.264906 0.264906 0.264906 0.264906 0.264906 0.264906 0.264906 0.264906 0.264906 0.264906 0.264906 0.260378 0.260378 0.260378 0.260378 0.260378 0.260378 0.260378 0.260378 0.260378 0.260378 0.260378 0.260378 0.260378 0.264906 0.264906 0.264906 0.264906 0.264906 0.264906 0.264906 0.264906 0.264906 0.264906 0.264906 0.264906 0.269680 0.269680 0.269680 0.269680 0.269680 0.269680 0.269680 0.269680 0.269680 0.269680 0.269680 0.264906 0.264906 0.264906 0.264906 0.264906 0.264906 0.264906 0.264906 0.264906 0.264906 0.264906 0.256074 0.256074 0.256074 0.256074 0.256074 0.256074 0.256074 0.256074 0.256074 0.256074 0.256074 0.264906 0.264906 0.264906 0.264906 0.264906 0.264906 0.264906 0.264906 0.264906 0.264906 0.260378 0.260378 0.260378 0.260378 0.260378 0.260378 0.260378 0.260378 0.260378 0.260378 0.264906 0.264906 0.264906 0.264906 0.264906 0.264906 0.264906 0.264906 0.264906 0.251976 0.251976 0.251976 0.251976 0.251976 0.251976 0.251976 0.251976 0.251976 0.251976 0.256074 0.256074 0.256074 0.256074 0.256074 0.256074 0.256074 0.256074 0.256074 0.251976 0.251976 0.251976 0.251976 0.251976 0.251976 0.251976 0.251976 0.251976 0.251976 0.251976 0.251976 0.251976 0.251976
