# Output from CTFFind version 4.1.9, run on 2019-11-03 20:04:40
# Input file: stack1_bm3d_averaged_1_6.0_0_750_half.mrc ; Number of micrographs: 1
# Pixel size: 3.000 Angstroms ; acceleration voltage: 300.0 keV ; spherical aberration: 0.00 mm ; amplitude contrast: 0.07
# Box size: 512 pixels ; min. res.: 30.0 Angstroms ; max. res.: 5.0 Angstroms ; min. def.: 5000.0 um; max. def. 50000.0 um; num. frames averaged: 1
# 6 lines per micrograph: #1 - spatial frequency (1/Angstroms); #2 - 1D rotational average of spectrum (assuming no astigmatism); #3 - 1D rotational average of spectrum; #4 - CTF fit; #5 - cross-correlation between spectrum and CTF fit; #6 - 2sigma of expected cross correlation of noise
0.000000 0.000651 0.001302 0.001953 0.002604 0.003255 0.003906 0.004557 0.005208 0.005859 0.006510 0.007161 0.007812 0.008464 0.009115 0.009766 0.010417 0.011068 0.011719 0.012370 0.013021 0.013672 0.014323 0.014974 0.015625 0.016276 0.016927 0.017578 0.018229 0.018880 0.019531 0.020182 0.020833 0.021484 0.022135 0.022786 0.023438 0.024089 0.024740 0.025391 0.026042 0.026693 0.027344 0.027995 0.028646 0.029297 0.029948 0.030599 0.031250 0.031901 0.032552 0.033203 0.033854 0.034505 0.035156 0.035807 0.036458 0.037109 0.037760 0.038411 0.039062 0.039714 0.040365 0.041016 0.041667 0.042318 0.042969 0.043620 0.044271 0.044922 0.045573 0.046224 0.046875 0.047526 0.048177 0.048828 0.049479 0.050130 0.050781 0.051432 0.052083 0.052734 0.053385 0.054036 0.054688 0.055339 0.055990 0.056641 0.057292 0.057943 0.058594 0.059245 0.059896 0.060547 0.061198 0.061849 0.062500 0.063151 0.063802 0.064453 0.065104 0.065755 0.066406 0.067057 0.067708 0.068359 0.069010 0.069661 0.070312 0.070964 0.071615 0.072266 0.072917 0.073568 0.074219 0.074870 0.075521 0.076172 0.076823 0.077474 0.078125 0.078776 0.079427 0.080078 0.080729 0.081380 0.082031 0.082682 0.083333 0.083984 0.084635 0.085286 0.085938 0.086589 0.087240 0.087891 0.088542 0.089193 0.089844 0.090495 0.091146 0.091797 0.092448 0.093099 0.093750 0.094401 0.095052 0.095703 0.096354 0.097005 0.097656 0.098307 0.098958 0.099609 0.100260 0.100911 0.101562 0.102214 0.102865 0.103516 0.104167 0.104818 0.105469 0.106120 0.106771 0.107422 0.108073 0.108724 0.109375 0.110026 0.110677 0.111328 0.111979 0.112630 0.113281 0.113932 0.114583 0.115234 0.115885 0.116536 0.117188 0.117839 0.118490 0.119141 0.119792 0.120443 0.121094 0.121745 0.122396 0.123047 0.123698 0.124349 0.125000 0.125651 0.126302 0.126953 0.127604 0.128255 0.128906 0.129557 0.130208 0.130859 0.131510 0.132161 0.132812 0.133464 0.134115 0.134766 0.135417 0.136068 0.136719 0.137370 0.138021 0.138672 0.139323 0.139974 0.140625 0.141276 0.141927 0.142578 0.143229 0.143880 0.144531 0.145182 0.145833 0.146484 0.147135 0.147786 0.148438 0.149089 0.149740 0.150391 0.151042 0.151693 0.152344 0.152995 0.153646 0.154297 0.154948 0.155599 0.156250 0.156901 0.157552 0.158203 0.158854 0.159505 0.160156 0.160807 0.161458 0.162109 0.162760 0.163411 0.164062 0.164714 0.165365 0.166016 0.166667 0.167318 0.167969 0.168620 0.169271 0.169922 0.170573 0.171224 0.171875 0.172526 0.173177 0.173828 0.174479 0.175130 0.175781 0.176432 0.177083 0.177734 0.178385 0.179036 0.179688 0.180339 0.180990 0.181641 0.182292 0.182943 0.183594 0.184245 0.184896 0.185547 0.186198 0.186849 0.187500 0.188151 0.188802 0.189453 0.190104 0.190755 0.191406 0.192057 0.192708 0.193359 0.194010 0.194661 0.195312 0.195964 0.196615 0.197266 0.197917 0.198568 0.199219 0.199870 0.200521 0.201172 0.201823 0.202474 0.203125 0.203776 0.204427 0.205078 0.205729 0.206380 0.207031 0.207682 0.208333 0.208984 0.209635 0.210286 0.210938 0.211589 0.212240 0.212891 0.213542 0.214193 0.214844 0.215495 0.216146 0.216797 0.217448 0.218099 0.218750 0.219401 0.220052 0.220703 0.221354 0.222005 0.222656 0.223307 0.223958 0.224609 0.225260 0.225911 0.226562 0.227214 0.227865 0.228516 0.229167 0.229818 0.230469 0.231120 0.231771 0.232422 0.233073 0.233724 0.234375 0.235026 0.235677
       0.34974        0.34974        0.34974        0.34974        0.34974        0.34974        0.34974        0.34974        0.34974        0.34974        0.34974        0.34974        0.34974        0.34974        0.34974        0.34974        0.34974        0.34974        0.34974        0.34974        0.34974        0.34974        0.34974        0.34974        0.34974        0.34974        0.34974        0.34974        0.34974        0.34974        0.34974        0.34974        0.34974        0.34974        0.34974        0.34974        0.34974        0.34974        0.34974        0.34974        0.34974        0.34974        0.34974        0.34974        0.34974        0.34974        0.34974        0.34974        0.34974        0.34974        0.34974        0.37401        0.53951        0.24868        0.09721       -0.00601       -0.27109       -0.10729       -0.17196       -0.22039        0.01470       -0.13874       -0.09266       -0.05848       -0.04094       -0.12852       -0.15599       -0.27569       -0.35116       -0.46511       -0.40117       -0.29784       -0.24581       -0.34904       -0.26554       -0.34500       -0.30365       -0.33610       -0.16232       -0.16609       -0.22826       -0.05810       -0.00170       -0.03689        0.08229        0.03002        0.21532        0.23873        0.34099        0.35889        0.41627        0.45529        0.52258        0.58317        0.61730        0.53589        0.50225        0.50982        0.46848        0.54937        0.46798        0.41617        0.41036        0.34213        0.29512        0.31149        0.33620        0.23252        0.19827        0.11426        0.14157        0.15077        0.18250        0.14824        0.21644        0.26394        0.31060        0.30133        0.36143        0.46834        0.40474        0.48797        0.62050        0.59558        0.53573        0.55342        0.59346        0.42321        0.48842        0.38100        0.31697        0.29534        0.26981        0.25635        0.18315        0.17894        0.14378        0.21464        0.26148        0.28787        0.35028        0.31339        0.41774        0.45564        0.46563        0.46482        0.49240        0.53623        0.48322        0.45254        0.41843        0.34172        0.33638        0.29371        0.31455        0.24592        0.23316        0.27423        0.24785        0.27195        0.32980        0.43140        0.43308        0.43249        0.41444        0.48992        0.48659        0.47179        0.45545        0.38180        0.37864        0.40937        0.38252        0.31320        0.28902        0.32495        0.29396        0.30273        0.29562        0.32672        0.36086        0.38827        0.45183        0.47733        0.38009        0.44747        0.43134        0.37284        0.30694        0.36342        0.32415        0.31387        0.33608        0.27223        0.26206        0.31925        0.33803        0.44260        0.41809        0.38314        0.38688        0.41521        0.36117        0.36320        0.33269        0.33244        0.31099        0.30320        0.29661        0.35819        0.36854        0.34588        0.35208        0.40443        0.40080        0.45985        0.40975        0.35511        0.35055        0.35539        0.33470        0.32200        0.34394        0.39113        0.35314        0.36209        0.34013        0.43574        0.37550        0.35166        0.34369        0.37646        0.37740        0.33127        0.32970        0.30011        0.32090        0.33532        0.31271        0.32800        0.34677        0.36094        0.34675        0.34002        0.30431        0.30102        0.28772        0.33550        0.32271        0.35795        0.32288        0.34682        0.36424        0.33727        0.33196        0.31550        0.28624        0.33600        0.32269        0.33018        0.32108        0.31928        0.32597        0.31931        0.34053        0.35576        0.35814        0.33835        0.29575        0.33397        0.30932        0.33942        0.33215        0.27026        0.32148        0.30136        0.33446        0.32347        0.39112        0.33272        0.31043        0.26713        0.31375        0.38504        0.35214        0.32063        0.33659        0.31555        0.32616        0.32555        0.32695        0.29901        0.31554        0.26804        0.28071        0.31350        0.30036        0.29983        0.31311        0.24085        0.31053        0.34249        0.36376        0.35367        0.31597        0.31920        0.28902        0.30865        0.31165        0.28513        0.32011        0.28220        0.30386        0.33495        0.37203        0.35509        0.28783        0.27964        0.33322        0.31100        0.31643        0.35422        0.36397        0.28646        0.28550        0.32640        0.32168        0.26153        0.21686        0.23351        0.26641        0.30270        0.31325        0.27192        0.33881        0.29538        0.25741        0.28615        0.28475        0.21455        0.27355        0.31665        0.26466        0.20179        0.22802        0.31547        0.41730        0.30380        0.24144        0.15689        0.22433        0.28169        0.28581        0.40684        0.23098        0.16954        0.26291        0.31902        0.28456        0.18120       -0.03405       -0.57496       -0.90575
2.748218 2.719958 2.691848 2.663888 2.636078 2.608418 2.580908 2.553549 2.526339 2.499280 2.472371 2.445612 2.419003 2.392544 2.366235 2.340076 2.314068 2.288209 2.262501 2.236943 2.211535 2.186277 2.161169 2.136211 2.111403 2.086746 2.062238 2.037881 2.013674 1.989616 1.965709 1.941953 1.918346 1.894889 1.871583 1.848426 1.825420 1.802564 1.779857 1.757301 1.734895 1.712640 1.690534 1.668578 1.646773 1.625118 1.603612 1.582257 1.561052 1.539997 1.519093 1.444256 1.917280 1.444437 0.956774 0.784345 -0.057323 0.609448 0.127644 0.294752 0.652276 0.371492 0.291228 0.495081 0.419248 0.346609 0.189214 -0.011303 -0.238218 -0.451649 -0.436284 -0.330564 0.124360 -0.420422 -0.176529 -0.324253 -0.224352 -0.428131 -0.029739 -0.088855 -0.199905 0.055665 0.276490 0.063972 0.321330 0.214351 0.645938 0.519009 0.827085 0.796639 0.840910 1.104053 0.977688 1.295353 1.285022 1.132590 1.005653 1.058284 0.984347 0.980195 1.003489 0.801557 0.716135 0.651416 0.587762 0.468748 0.567994 0.416044 0.283324 0.120947 0.069521 0.120630 0.191911 0.107452 0.132802 0.315373 0.358488 0.384973 0.487621 0.546399 0.626625 0.453996 0.912306 0.992541 0.785516 0.745920 0.889870 0.597979 0.540727 0.547950 0.233808 0.271445 0.100525 0.220207 -0.034886 -0.023375 -0.113053 -0.107576 0.170310 0.053673 0.186223 0.240840 0.267940 0.431296 0.459944 0.436085 0.459072 0.577749 0.506496 0.366687 0.364561 0.214279 0.190615 0.095469 0.046994 0.036239 -0.099353 -0.021889 0.005950 -0.072638 -0.015509 0.198072 0.388950 0.251914 0.319563 0.194466 0.515086 0.395980 0.360497 0.327013 0.186412 0.138662 0.363434 0.010177 0.045390 0.008353 0.073133 -0.011140 0.085857 -0.025484 0.160022 -0.017990 0.260258 0.392611 0.231354 0.252256 0.260576 0.193928 0.055910 0.090131 0.109140 -0.011600 0.015949 0.064495 -0.141175 -0.068246 -0.007756 0.150975 0.335618 0.125477 0.166944 0.192463 0.180467 0.090346 0.092435 0.005005 0.050068 -0.036762 -0.032937 0.027301 0.096714 0.109893 0.031995 0.093676 0.169259 0.184533 0.351731 0.088492 0.068583 0.081090 0.026758 0.048725 -0.001649 0.098075 0.158902 0.034908 0.075782 0.057533 0.228433 0.064404 0.040446 0.055042 0.093474 0.094558 -0.018009 0.024313 -0.061808 -0.014350 0.021521 -0.010861 -0.019289 0.057589 0.026452 0.027211 -0.020048 -0.108448 -0.040976 -0.093540 -0.013487 -0.014233 0.026290 -0.013310 0.020099 0.051778 -0.012749 -0.026785 -0.092853 -0.121510 0.002680 -0.067519 -0.009182 -0.032794 -0.046660 -0.030952 -0.061334 0.046604 0.007677 0.075438 -0.033647 -0.048060 -0.008443 -0.019842 0.024208 0.017480 -0.117833 0.011348 -0.065806 0.010998 0.040321 0.177057 0.024799 -0.061951 -0.099010 0.029676 0.167225 0.021390 0.002008 0.044370 -0.010493 0.049075 0.004853 0.027008 -0.008340 0.009969 -0.092641 -0.069829 0.018593 -0.012394 -0.028714 -0.100911 -0.214217 0.025443 0.066366 0.065789 0.021511 0.029561 -0.058787 -0.053553 -0.032923 -0.077159 -0.063149 -0.014980 -0.131184 -0.058672 0.040550 0.083499 0.028298 -0.073998 -0.111114 -0.017750 -0.033762 -0.122677 0.045460 0.023597 -0.128158 -0.096305 -0.047878 -0.016761 -0.151137 -0.228993 -0.185542 -0.008682 -0.007394 -0.084552 -0.136717 0.108685 0.030710 -0.066919 -0.107048 -0.075571 -0.201881 -0.006187 0.053574 -0.059136 -0.162374 -0.072415 -0.056919 0.337843 0.045670 0.024481 -0.330113 -0.032135 0.124759 0.044559 0.380757 -0.027460 0.346831 0.591456 0.729335 0.393076 0.336768 -0.057577 -1.814565
0.072396 0.072905 0.074430 0.076971 0.080528 0.085099 0.090685 0.097282 0.104888 0.113502 0.123118 0.133734 0.145342 0.157938 0.171512 0.186056 0.201557 0.218004 0.235379 0.253666 0.272843 0.292888 0.313772 0.335467 0.357937 0.381145 0.405046 0.429595 0.454739 0.480420 0.506574 0.533133 0.560022 0.587158 0.614455 0.641817 0.669143 0.696325 0.723248 0.749788 0.775818 0.801200 0.825791 0.849444 0.872001 0.893303 0.913182 0.931469 0.947987 0.962560 0.975008 0.985149 0.992802 0.997787 0.999928 0.999051 0.994990 0.987585 0.976686 0.962154 0.943866 0.921711 0.895598 0.865455 0.831234 0.792910 0.750486 0.703993 0.653495 0.599087 0.540902 0.479109 0.413914 0.345564 0.274348 0.200593 0.124670 0.046991 0.031992 0.111790 0.191872 0.271676 0.350606 0.428039 0.503327 0.575804 0.644791 0.709600 0.769547 0.823953 0.872156 0.913518 0.947438 0.973353 0.990759 0.999211 0.998339 0.987854 0.967559 0.937359 0.897265 0.847406 0.788034 0.719523 0.642383 0.557252 0.464900 0.366228 0.262259 0.154136 0.043111 0.069467 0.182168 0.293492 0.401893 0.505800 0.603636 0.693848 0.774929 0.845450 0.904083 0.949636 0.981074 0.997552 0.998437 0.983332 0.952096 0.904863 0.842054 0.764382 0.672858 0.568786 0.453754 0.329617 0.198476 0.062647 0.075375 0.212956 0.347376 0.475880 0.595731 0.704279 0.799016 0.877645 0.938139 0.978802 0.998322 0.995825 0.970915 0.923704 0.854834 0.765492 0.657398 0.532792 0.394399 0.245379 0.089269 0.070097 0.228675 0.382312 0.526856 0.658270 0.772747 0.866834 0.937541 0.982454 0.999822 0.988644 0.948729 0.880737 0.786191 0.667471 0.527771 0.371032 0.201852 0.025354 0.152952 0.327338 0.492043 0.641465 0.770353 0.874014 0.948489 0.990723 0.998712 0.971614 0.909822 0.815001 0.690070 0.539144 0.367424 0.181030 0.013187 0.207903 0.395572 0.568740 0.720326 0.843944 0.934172 0.986825 0.999165 0.970072 0.900148 0.791753 0.648962 0.477445 0.284274 0.077656 0.133399 0.339468 0.531121 0.699369 0.836096 0.934466 0.989304 0.997389 0.957679 0.871435 0.742229 0.575851 0.380074 0.164343 0.060676 0.283593 0.492869 0.677419 0.827214 0.933851 0.991057 0.995093 0.945046 0.842956 0.693801 0.505303 0.287576 0.052613 0.186345 0.415541 0.621499 0.791824 0.915981 0.985975 0.996919 0.947417 0.839754 0.679865 0.477059 0.243540 0.006296 0.256719 0.491644 0.695665 0.855096 0.958912 0.999573 0.973616 0.882010 0.730206 0.527894 0.288435 0.028043 0.235286 0.483019 0.697355 0.862568 0.966175 0.999952 0.960637 0.850316 0.676405 0.451220 0.191187 0.084304 0.354334 0.598012 0.796118 0.932657 0.996200 0.980915 0.887181 0.721710 0.497154 0.231232 0.054620 0.336935 0.592120 0.798463 0.937997 0.998146 0.972930 0.863648 0.678939 0.434198 0.150391 0.147699 0.433584 0.681426 0.868404 0.976861 0.996063 0.923348 0.764567 0.533735 0.251888 0.054744 0.357126 0.626168 0.835524 0.964241 0.998930 0.935269 0.778631 0.543773 0.253555 0.063199 0.374498 0.648405 0.856339 0.976119 0.994418 0.908374 0.726112 0.466122 0.155499 0.172784 0.483340 0.742162 0.920414 0.997703 0.964542 0.823640 0.589851 0.288759 0.046016 0.376502 0.664644 0.876738 0.987431 0.982873 0.862593 0.639827 0.340224 0.000982 0.343030 0.644462 0.868176 0.986077 0.982720 0.857491 0.624975 0.313430 0.038499 0.386508 0.686158 0.898598 0.995693 0.963886 0.806255 0.542445 0.206388 0.157947 0.502181 0.779985
1.000000 1.000000 1.000000 1.000000 1.000000 1.000000 1.000000 1.000000 1.000000 1.000000 1.000000 1.000000 1.000000 1.000000 1.000000 1.000000 1.000000 1.000000 1.000000 1.000000 1.000000 1.000000 1.000000 1.000000 1.000000 1.000000 1.000000 1.000000 1.000000 1.000000 1.000000 1.000000 1.000000 1.000000 1.000000 1.000000 1.000000 1.000000 1.000000 1.000000 1.000000 1.000000 1.000000 1.000000 1.000000 1.000000 1.000000 1.000000 1.000000 1.000000 1.000000 1.000000 0.806208 0.806208 0.806208 0.789624 0.789624 0.789624 0.789624 0.789624 0.789624 0.789624 0.789624 0.789624 0.789624 0.789624 0.789624 0.789624 0.789624 0.789624 0.789624 0.789624 0.789624 0.789624 0.789624 0.789624 0.789624 0.789624 0.789624 0.789624 0.789624 0.789624 0.789624 0.789624 0.789624 0.789624 0.789624 0.789624 0.789624 0.789624 0.789624 0.789624 0.789624 0.789624 0.789624 0.789624 0.815686 0.824400 0.828038 0.831729 0.833165 0.829657 0.828408 0.827418 0.827030 0.828261 0.835357 0.860840 0.878417 0.883904 0.898013 0.902151 0.905720 0.907776 0.914506 0.916132 0.952136 0.951083 0.950808 0.951988 0.955637 0.950805 0.949358 0.948398 0.957873 0.952605 0.949702 0.946669 0.945548 0.941486 0.942607 0.942275 0.938427 0.938817 0.939612 0.939573 0.938945 0.937687 0.937114 0.925828 0.919680 0.918615 0.918465 0.894618 0.889977 0.876732 0.865607 0.876430 0.861458 0.860772 0.852895 0.854446 0.855668 0.848707 0.842471 0.838277 0.832697 0.822291 0.818943 0.816886 0.821927 0.820883 0.826900 0.819657 0.809661 0.797961 0.788186 0.786120 0.770187 0.766633 0.770758 0.768462 0.769548 0.770466 0.768588 0.760232 0.753996 0.746770 0.744691 0.756403 0.765937 0.768485 0.767067 0.766792 0.748291 0.731392 0.705761 0.700987 0.701589 0.676772 0.662484 0.664849 0.668192 0.673466 0.686759 0.680631 0.670393 0.648205 0.626033 0.595374 0.608771 0.619069 0.599800 0.595061 0.585710 0.624065 0.634552 0.652093 0.670325 0.678731 0.676924 0.656949 0.622033 0.626257 0.628746 0.630825 0.629456 0.615056 0.614432 0.630409 0.583823 0.569001 0.554110 0.547188 0.553448 0.569321 0.579440 0.579070 0.556815 0.526657 0.483555 0.467686 0.390887 0.366192 0.359079 0.360756 0.327071 0.319259 0.320960 0.344031 0.341780 0.347228 0.333558 0.294348 0.284738 0.282057 0.263347 0.260472 0.264647 0.263010 0.265433 0.241457 0.205121 0.225504 0.221702 0.205576 0.249305 0.260803 0.236235 0.236181 0.229842 0.208642 0.196316 0.179025 0.167506 0.165777 0.213084 0.201864 0.203146 0.214872 0.226958 0.171745 0.163448 0.139076 0.106489 0.085227 0.067120 0.034666 0.034604 0.040670 0.029136 -0.002931 -0.043285 -0.068188 -0.070808 -0.039637 -0.054439 -0.067278 -0.076105 -0.030859 -0.043789 -0.079417 -0.063999 -0.089899 -0.104963 -0.152547 -0.176266 -0.128535 -0.118806 -0.114907 -0.133846 -0.143456 -0.144837 -0.156282 -0.169096 -0.139282 -0.120651 -0.115206 -0.131608 -0.126171 -0.122432 -0.131154 -0.187561 -0.242773 -0.220710 -0.216839 -0.219362 -0.222559 -0.198942 -0.196600 -0.194497 -0.186291 -0.194502 -0.192665 -0.155428 -0.221230 -0.250858 -0.258428 -0.260400 -0.264511 -0.217334 -0.196749 -0.179248 -0.162851 -0.187657 -0.187657 -0.187657 -0.187657 -0.180049 -0.180049 -0.180049 -0.180049 -0.180049 -0.180049 -0.180049 -0.180049 -0.180049 -0.196616 -0.196616 -0.196616 -0.196616 -0.196616 -0.196616 -0.196616 -0.196616 -0.196616 -0.196616 -0.196616 -0.196616 -0.196616 -0.196616 -0.196616 -0.196616
0.000000 0.000000 0.000000 0.000000 0.000000 0.000000 0.000000 0.000000 0.000000 0.000000 0.000000 0.000000 0.000000 0.000000 0.000000 0.000000 0.000000 0.000000 0.000000 0.000000 0.000000 0.000000 0.000000 0.000000 0.000000 0.000000 0.000000 0.000000 0.000000 0.000000 0.000000 0.000000 0.000000 0.000000 0.000000 0.000000 0.000000 0.000000 0.000000 0.000000 0.000000 0.000000 0.000000 0.000000 0.000000 0.000000 0.000000 0.000000 0.000000 0.000000 0.000000 0.000000 0.180334 0.180334 0.180334 0.199007 0.199007 0.199007 0.199007 0.199007 0.199007 0.199007 0.199007 0.199007 0.199007 0.199007 0.199007 0.199007 0.199007 0.199007 0.199007 0.199007 0.199007 0.199007 0.199007 0.199007 0.199007 0.199007 0.199007 0.199007 0.199007 0.199007 0.199007 0.199007 0.199007 0.199007 0.199007 0.199007 0.199007 0.199007 0.199007 0.199007 0.199007 0.199007 0.199007 0.199007 0.230940 0.230940 0.230940 0.230940 0.230940 0.230940 0.230940 0.230940 0.230940 0.230940 0.230940 0.230940 0.230940 0.230940 0.230940 0.230940 0.230940 0.230940 0.230940 0.230940 0.230940 0.230940 0.230940 0.230940 0.230940 0.230940 0.230940 0.230940 0.244339 0.244339 0.244339 0.244339 0.244339 0.244339 0.244339 0.244339 0.244339 0.244339 0.244339 0.244339 0.244339 0.244339 0.244339 0.244339 0.244339 0.244339 0.244339 0.244339 0.244339 0.244339 0.244339 0.251976 0.251976 0.251976 0.251976 0.251976 0.251976 0.251976 0.251976 0.251976 0.251976 0.251976 0.251976 0.251976 0.251976 0.251976 0.251976 0.251976 0.251976 0.251976 0.251976 0.264906 0.264906 0.264906 0.264906 0.264906 0.264906 0.264906 0.264906 0.264906 0.264906 0.264906 0.264906 0.264906 0.264906 0.264906 0.264906 0.264906 0.264906 0.264906 0.264906 0.264906 0.264906 0.264906 0.264906 0.264906 0.264906 0.264906 0.264906 0.264906 0.264906 0.264906 0.264906 0.264906 0.264906 0.264906 0.264906 0.264906 0.264906 0.264906 0.264906 0.264906 0.264906 0.264906 0.264906 0.264906 0.264906 0.264906 0.264906 0.264906 0.264906 0.264906 0.264906 0.264906 0.264906 0.264906 0.264906 0.264906 0.264906 0.264906 0.264906 0.264906 0.264906 0.264906 0.264906 0.264906 0.264906 0.264906 0.264906 0.264906 0.264906 0.264906 0.264906 0.264906 0.264906 0.264906 0.260378 0.260378 0.260378 0.260378 0.260378 0.260378 0.260378 0.260378 0.260378 0.260378 0.260378 0.260378 0.260378 0.274721 0.274721 0.274721 0.274721 0.274721 0.274721 0.274721 0.274721 0.274721 0.274721 0.274721 0.260378 0.260378 0.260378 0.260378 0.260378 0.260378 0.260378 0.260378 0.260378 0.260378 0.260378 0.260378 0.264906 0.264906 0.264906 0.264906 0.264906 0.264906 0.264906 0.264906 0.264906 0.264906 0.264906 0.269680 0.269680 0.269680 0.269680 0.269680 0.269680 0.269680 0.269680 0.269680 0.269680 0.264906 0.264906 0.264906 0.264906 0.264906 0.264906 0.264906 0.264906 0.264906 0.264906 0.260378 0.260378 0.260378 0.260378 0.260378 0.260378 0.260378 0.260378 0.260378 0.260378 0.256074 0.256074 0.256074 0.256074 0.256074 0.256074 0.256074 0.256074 0.256074 0.256074 0.260378 0.260378 0.260378 0.260378 0.260378 0.260378 0.260378 0.260378 0.260378 0.256074 0.256074 0.256074 0.256074 0.256074 0.256074 0.256074 0.256074 0.256074 0.251976 0.251976 0.251976 0.251976 0.251976 0.251976 0.251976 0.251976 0.251976 0.251976 0.251976 0.251976 0.251976 0.251976 0.251976 0.251976
