# Output from CTFFind version 4.1.9, run on 2019-11-03 20:04:53
# Input file: stack1_bm3d_averaged_1_6.5_0_750_half.mrc ; Number of micrographs: 1
# Pixel size: 3.000 Angstroms ; acceleration voltage: 300.0 keV ; spherical aberration: 0.00 mm ; amplitude contrast: 0.07
# Box size: 512 pixels ; min. res.: 30.0 Angstroms ; max. res.: 5.0 Angstroms ; min. def.: 5000.0 um; max. def. 50000.0 um; num. frames averaged: 1
# 6 lines per micrograph: #1 - spatial frequency (1/Angstroms); #2 - 1D rotational average of spectrum (assuming no astigmatism); #3 - 1D rotational average of spectrum; #4 - CTF fit; #5 - cross-correlation between spectrum and CTF fit; #6 - 2sigma of expected cross correlation of noise
0.000000 0.000651 0.001302 0.001953 0.002604 0.003255 0.003906 0.004557 0.005208 0.005859 0.006510 0.007161 0.007812 0.008464 0.009115 0.009766 0.010417 0.011068 0.011719 0.012370 0.013021 0.013672 0.014323 0.014974 0.015625 0.016276 0.016927 0.017578 0.018229 0.018880 0.019531 0.020182 0.020833 0.021484 0.022135 0.022786 0.023438 0.024089 0.024740 0.025391 0.026042 0.026693 0.027344 0.027995 0.028646 0.029297 0.029948 0.030599 0.031250 0.031901 0.032552 0.033203 0.033854 0.034505 0.035156 0.035807 0.036458 0.037109 0.037760 0.038411 0.039062 0.039714 0.040365 0.041016 0.041667 0.042318 0.042969 0.043620 0.044271 0.044922 0.045573 0.046224 0.046875 0.047526 0.048177 0.048828 0.049479 0.050130 0.050781 0.051432 0.052083 0.052734 0.053385 0.054036 0.054688 0.055339 0.055990 0.056641 0.057292 0.057943 0.058594 0.059245 0.059896 0.060547 0.061198 0.061849 0.062500 0.063151 0.063802 0.064453 0.065104 0.065755 0.066406 0.067057 0.067708 0.068359 0.069010 0.069661 0.070312 0.070964 0.071615 0.072266 0.072917 0.073568 0.074219 0.074870 0.075521 0.076172 0.076823 0.077474 0.078125 0.078776 0.079427 0.080078 0.080729 0.081380 0.082031 0.082682 0.083333 0.083984 0.084635 0.085286 0.085938 0.086589 0.087240 0.087891 0.088542 0.089193 0.089844 0.090495 0.091146 0.091797 0.092448 0.093099 0.093750 0.094401 0.095052 0.095703 0.096354 0.097005 0.097656 0.098307 0.098958 0.099609 0.100260 0.100911 0.101562 0.102214 0.102865 0.103516 0.104167 0.104818 0.105469 0.106120 0.106771 0.107422 0.108073 0.108724 0.109375 0.110026 0.110677 0.111328 0.111979 0.112630 0.113281 0.113932 0.114583 0.115234 0.115885 0.116536 0.117188 0.117839 0.118490 0.119141 0.119792 0.120443 0.121094 0.121745 0.122396 0.123047 0.123698 0.124349 0.125000 0.125651 0.126302 0.126953 0.127604 0.128255 0.128906 0.129557 0.130208 0.130859 0.131510 0.132161 0.132812 0.133464 0.134115 0.134766 0.135417 0.136068 0.136719 0.137370 0.138021 0.138672 0.139323 0.139974 0.140625 0.141276 0.141927 0.142578 0.143229 0.143880 0.144531 0.145182 0.145833 0.146484 0.147135 0.147786 0.148438 0.149089 0.149740 0.150391 0.151042 0.151693 0.152344 0.152995 0.153646 0.154297 0.154948 0.155599 0.156250 0.156901 0.157552 0.158203 0.158854 0.159505 0.160156 0.160807 0.161458 0.162109 0.162760 0.163411 0.164062 0.164714 0.165365 0.166016 0.166667 0.167318 0.167969 0.168620 0.169271 0.169922 0.170573 0.171224 0.171875 0.172526 0.173177 0.173828 0.174479 0.175130 0.175781 0.176432 0.177083 0.177734 0.178385 0.179036 0.179688 0.180339 0.180990 0.181641 0.182292 0.182943 0.183594 0.184245 0.184896 0.185547 0.186198 0.186849 0.187500 0.188151 0.188802 0.189453 0.190104 0.190755 0.191406 0.192057 0.192708 0.193359 0.194010 0.194661 0.195312 0.195964 0.196615 0.197266 0.197917 0.198568 0.199219 0.199870 0.200521 0.201172 0.201823 0.202474 0.203125 0.203776 0.204427 0.205078 0.205729 0.206380 0.207031 0.207682 0.208333 0.208984 0.209635 0.210286 0.210938 0.211589 0.212240 0.212891 0.213542 0.214193 0.214844 0.215495 0.216146 0.216797 0.217448 0.218099 0.218750 0.219401 0.220052 0.220703 0.221354 0.222005 0.222656 0.223307 0.223958 0.224609 0.225260 0.225911 0.226562 0.227214 0.227865 0.228516 0.229167 0.229818 0.230469 0.231120 0.231771 0.232422 0.233073 0.233724 0.234375 0.235026 0.235677
       0.34779        0.34779        0.34779        0.34779        0.34779        0.34779        0.34779        0.34779        0.34779        0.34779        0.34779        0.34779        0.34779        0.34779        0.34779        0.34779        0.34779        0.34779        0.34779        0.34779        0.34779        0.34779        0.34779        0.34779        0.34779        0.34779        0.34779        0.34779        0.34779        0.34779        0.34779        0.34779        0.34779        0.34779        0.34779        0.34779        0.34779        0.34779        0.34779        0.34779        0.34779        0.34779        0.34779        0.34779        0.34779        0.34779        0.34779        0.34779        0.34779        0.34779        0.34779        0.35659        0.50950        0.23569        0.08730        0.00007       -0.27051       -0.11143       -0.16342       -0.22164        0.01211       -0.14214       -0.08031       -0.06120       -0.04451       -0.12679       -0.15905       -0.26143       -0.32283       -0.43724       -0.37178       -0.27139       -0.23332       -0.33173       -0.24907       -0.31684       -0.28325       -0.30871       -0.14267       -0.15174       -0.21509       -0.04467        0.01762       -0.03060        0.07772        0.03283        0.22575        0.24373        0.33892        0.35412        0.39655        0.43493        0.50918        0.56883        0.58662        0.51865        0.49139        0.51194        0.46510        0.53357        0.45567        0.41551        0.41599        0.35034        0.29833        0.30885        0.33726        0.23147        0.19663        0.12524        0.14961        0.16097        0.18562        0.15916        0.22761        0.27885        0.31492        0.29825        0.38032        0.46773        0.40000        0.48927        0.60681        0.56873        0.52842        0.56013        0.59882        0.41947        0.48617        0.39163        0.32142        0.30021        0.28181        0.25571        0.18902        0.18438        0.14807        0.20908        0.26116        0.29086        0.34759        0.30922        0.41357        0.43801        0.46284        0.47986        0.48835        0.52325        0.46705        0.44006        0.41220        0.34281        0.32854        0.30915        0.31947        0.25199        0.24176        0.26113        0.24679        0.27199        0.32806        0.43300        0.45173        0.42490        0.41951        0.47966        0.47060        0.46900        0.46236        0.38088        0.36960        0.40590        0.36817        0.30645        0.29698        0.32563        0.28987        0.30295        0.29918        0.31855        0.35894        0.38328        0.44208        0.45747        0.36951        0.45447        0.42770        0.36232        0.30474        0.35652        0.33087        0.30999        0.32806        0.27789        0.27554        0.32335        0.33941        0.44514        0.41440        0.37298        0.38645        0.42876        0.36291        0.35834        0.33859        0.34202        0.29025        0.28791        0.29886        0.37257        0.37976        0.34128        0.35012        0.39953        0.39635        0.45567        0.40416        0.36103        0.33713        0.34010        0.32907        0.31943        0.34378        0.39208        0.36585        0.36987        0.33085        0.44126        0.36675        0.35007        0.33515        0.37942        0.37673        0.31806        0.31949        0.28710        0.31235        0.33286        0.31400        0.33477        0.34121        0.36023        0.34844        0.33927        0.30405        0.29943        0.28764        0.33689        0.33439        0.35003        0.30761        0.34886        0.34984        0.33909        0.33774        0.30815        0.28563        0.32304        0.32645        0.32719        0.31897        0.30893        0.32324        0.33250        0.33470        0.34029        0.37874        0.34346        0.28221        0.32429        0.32280        0.32934        0.33768        0.28327        0.32590        0.29309        0.32081        0.31326        0.37879        0.33032        0.30839        0.28371        0.29162        0.37457        0.35833        0.32875        0.33250        0.30955        0.31374        0.33514        0.33220        0.28784        0.32128        0.26696        0.26893        0.29195        0.30413        0.30809        0.32234        0.23377        0.29149        0.34356        0.35462        0.34990        0.32757        0.31436        0.30328        0.32161        0.31583        0.25468        0.29191        0.28633        0.32911        0.33065        0.36077        0.35778        0.32205        0.32223        0.34163        0.32912        0.31772        0.33080        0.33430        0.27222        0.29372        0.33057        0.32660        0.24288        0.19775        0.22366        0.29184        0.30701        0.30182        0.26614        0.28979        0.28714        0.24234        0.26276        0.27269        0.23141        0.27032        0.27631        0.25258        0.20673        0.24651        0.32459        0.39340        0.28095        0.24603        0.19254        0.20138        0.29847        0.29862        0.38975        0.23927        0.22025        0.27933        0.35449        0.24050        0.07798       -0.09115       -0.53380       -0.74714
3.395804 3.358082 3.320574 3.283278 3.246195 3.209325 3.172668 3.136224 3.099992 3.063974 3.028169 2.992577 2.957198 2.922031 2.887078 2.852338 2.817810 2.783496 2.749394 2.715506 2.681830 2.648367 2.615118 2.582081 2.549257 2.516646 2.484249 2.452064 2.420092 2.388333 2.356787 2.325454 2.294334 2.263427 2.232733 2.202252 2.171983 2.141928 2.112086 2.082456 2.053040 2.023837 1.994846 1.966069 1.937504 1.909153 1.881014 1.853088 1.825376 1.797876 1.770589 1.680822 2.011194 1.732810 1.116365 1.172788 0.385617 0.927060 0.539227 0.657273 0.944472 0.694520 0.655481 0.778739 0.710712 0.653639 0.490380 0.351351 0.177926 -0.013264 -0.009595 0.090193 0.414465 -0.031624 0.164591 0.041385 0.133353 -0.062803 0.261780 0.190483 0.098206 0.302796 0.494551 0.289944 0.478131 0.387258 0.767756 0.645788 0.874902 0.869124 0.844790 1.064646 0.960740 1.257875 1.157482 1.126879 0.967463 1.017189 0.959053 0.917861 0.953863 0.777076 0.730493 0.659595 0.617710 0.475823 0.566812 0.453912 0.295737 0.198727 0.141533 0.182990 0.230836 0.163849 0.180640 0.349052 0.353844 0.368812 0.465741 0.522739 0.541546 0.409047 0.837360 0.763272 0.693892 0.656751 0.763581 0.526212 0.438903 0.487501 0.197410 0.240169 0.100337 0.174534 -0.022920 -0.030374 -0.104839 -0.103753 0.117927 0.018923 0.133329 0.186657 0.177704 0.323368 0.335236 0.347750 0.344366 0.451141 0.366892 0.280790 0.260809 0.149527 0.115370 0.061289 0.029668 0.006901 -0.077719 -0.074176 -0.059610 -0.076879 -0.051485 0.143605 0.312118 0.191974 0.219475 0.221200 0.443251 0.256665 0.348383 0.292077 0.160163 0.137877 0.297976 0.009804 0.049447 0.038491 0.072085 0.004138 0.093769 -0.011912 0.145101 -0.010504 0.246672 0.310016 0.202564 0.243435 0.226297 0.166629 0.047813 0.082916 0.099548 0.018169 0.008812 0.053836 -0.086936 -0.026312 0.022541 0.125251 0.295900 0.117685 0.126470 0.204461 0.139390 0.107190 0.062863 0.036434 0.053540 -0.073683 -0.019808 0.029200 0.119878 0.105618 0.031563 0.078124 0.176576 0.146247 0.280717 0.098910 0.073926 0.045576 0.018800 0.051746 0.016585 0.080881 0.157101 0.081113 0.074984 0.039292 0.275951 0.046480 0.038258 0.038093 0.106735 0.065083 -0.022062 0.002776 -0.066034 -0.015645 0.028754 0.004092 0.001516 -0.000824 0.047142 0.008805 -0.008896 -0.077003 -0.056285 -0.058398 -0.026797 0.024969 -0.011023 -0.016708 0.014936 0.024152 0.010261 0.045125 -0.049481 -0.042975 0.010741 0.003539 0.025154 0.012133 -0.015541 -0.002767 0.025068 0.034864 0.055093 0.153193 -0.030459 -0.048142 0.028944 0.014148 0.029502 0.032297 -0.056199 0.034333 -0.041243 0.026568 0.009677 0.126002 -0.000426 -0.041478 -0.056536 -0.028687 0.118030 0.058500 -0.011676 0.023308 -0.006324 -0.004071 0.019407 0.009111 -0.052350 0.026138 -0.109847 -0.080221 -0.036712 -0.030178 -0.036915 -0.053045 -0.209800 0.002220 0.067341 0.015103 0.003048 0.023942 -0.046121 -0.038309 -0.050606 -0.052410 -0.117454 -0.094583 -0.111190 -0.014929 0.008621 0.015761 0.021304 -0.050252 -0.013625 -0.043658 0.005566 -0.073455 -0.005885 -0.005368 -0.109582 -0.044993 -0.000217 -0.025329 -0.101183 -0.235955 -0.107278 0.081532 0.026178 -0.038965 -0.008869 0.033933 -0.076710 0.098596 -0.078477 0.011760 -0.083355 0.042408 0.009742 0.011027 -0.131792 0.032171 0.273070 0.189532 0.040716 0.048057 -0.162447 -0.033604 0.110281 0.073360 0.292347 0.336649 0.379477 0.487517 0.630870 0.421589 0.065288 -0.146052 -1.266584
0.072396 0.072906 0.074437 0.076987 0.080556 0.085144 0.090749 0.097369 0.105002 0.113646 0.123296 0.133948 0.145598 0.158237 0.171858 0.186452 0.202006 0.218509 0.235943 0.254291 0.273532 0.293643 0.314595 0.336359 0.358900 0.382179 0.406153 0.430774 0.455989 0.481740 0.507963 0.534589 0.561540 0.588736 0.616087 0.643498 0.670867 0.698083 0.725032 0.751588 0.777623 0.802998 0.827569 0.851187 0.873693 0.894927 0.914720 0.932901 0.949293 0.963717 0.975993 0.985938 0.993370 0.998109 0.999977 0.998801 0.994413 0.986654 0.975375 0.960437 0.941716 0.919105 0.892514 0.861872 0.827133 0.788276 0.745307 0.698260 0.647203 0.592238 0.533500 0.471164 0.405444 0.336592 0.264903 0.190713 0.114399 0.036381 0.042882 0.122890 0.203109 0.282966 0.361859 0.439157 0.514207 0.586336 0.654859 0.719087 0.778330 0.831909 0.879161 0.919451 0.952179 0.976789 0.992782 0.999723 0.997252 0.985095 0.963070 0.931099 0.889214 0.837565 0.776425 0.706198 0.627417 0.540748 0.446990 0.347071 0.242043 0.133077 0.021451 0.091464 0.204211 0.315277 0.423097 0.526090 0.622674 0.711294 0.790449 0.858722 0.914803 0.957526 0.985887 0.999081 0.996519 0.977859 0.943017 0.892190 0.825865 0.744828 0.650161 0.543241 0.425727 0.299544 0.166857 0.030041 0.108361 0.245676 0.379154 0.506025 0.623555 0.729107 0.820207 0.894608 0.950350 0.985819 0.999805 0.991548 0.960777 0.907743 0.833234 0.738584 0.625662 0.496853 0.355020 0.203448 0.045783 0.114055 0.271960 0.423747 0.565262 0.692497 0.801717 0.889570 0.953206 0.990377 0.999536 0.979907 0.931545 0.855368 0.753164 0.627575 0.482044 0.320745 0.148470 0.029492 0.207517 0.379818 0.540629 0.684410 0.806037 0.901006 0.965605 0.997088 0.993803 0.955296 0.882377 0.777133 0.642901 0.484194 0.306562 0.116429 0.079133 0.272650 0.456540 0.623396 0.766311 0.879163 0.956905 0.995810 0.993677 0.949978 0.865940 0.744553 0.590501 0.410017 0.210653 0.000989 0.209719 0.411946 0.596321 0.754083 0.877500 0.960284 0.997929 0.988000 0.930312 0.827016 0.682569 0.503584 0.298564 0.077535 0.148437 0.367769 0.568971 0.741244 0.875086 0.962840 0.999171 0.981428 0.909876 0.787769 0.621260 0.419139 0.192415 0.046260 0.283265 0.504793 0.697647 0.850060 0.952430 0.997975 0.983227 0.908342 0.777195 0.597250 0.379186 0.136316 0.116193 0.362247 0.585844 0.772131 0.908415 0.985072 0.996276 0.940504 0.820753 0.644464 0.423128 0.171591 0.092894 0.351831 0.586756 0.780578 0.918850 0.990894 0.990690 0.917442 0.775775 0.575538 0.331185 0.060795 0.215222 0.475638 0.700063 0.870543 0.973059 0.998739 0.944705 0.814450 0.617725 0.369889 0.090782 0.196802 0.468968 0.702688 0.877796 0.978763 0.996160 0.927621 0.778223 0.560214 0.292111 0.002803 0.298440 0.568218 0.787436 0.935603 0.998405 0.969187 0.849752 0.650388 0.389100 0.090069 0.218518 0.507092 0.747531 0.915960 0.995170 0.976488 0.860828 0.658817 0.389949 0.080793 0.237543 0.532519 0.773497 0.934952 0.999283 0.958822 0.816875 0.587604 0.294748 0.030725 0.353844 0.639347 0.855565 0.978002 0.992210 0.895624 0.698105 0.421083 0.095363 0.242211 0.552886 0.800437 0.955470 0.999001 0.924922 0.740988 0.468174 0.138438 0.208927 0.531916 0.790896 0.953517 0.998879 0.920345 0.726670 0.441205 0.099229 0.256281 0.580030 0.830152 0.973718 0.991184 0.879224 0.651471 0.337059 0.022959 0.380869 0.688583 0.904136
1.000000 1.000000 1.000000 1.000000 1.000000 1.000000 1.000000 1.000000 1.000000 1.000000 1.000000 1.000000 1.000000 1.000000 1.000000 1.000000 1.000000 1.000000 1.000000 1.000000 1.000000 1.000000 1.000000 1.000000 1.000000 1.000000 1.000000 1.000000 1.000000 1.000000 1.000000 1.000000 1.000000 1.000000 1.000000 1.000000 1.000000 1.000000 1.000000 1.000000 1.000000 1.000000 1.000000 1.000000 1.000000 1.000000 1.000000 1.000000 1.000000 1.000000 1.000000 1.000000 0.825801 0.825801 0.825801 0.812870 0.812870 0.812870 0.812870 0.812870 0.812870 0.812870 0.812870 0.812870 0.812870 0.812870 0.812870 0.812870 0.812870 0.812870 0.812870 0.812870 0.812870 0.812870 0.812870 0.812870 0.812870 0.812870 0.812870 0.812870 0.812870 0.812870 0.812870 0.812870 0.812870 0.812870 0.812870 0.812870 0.812870 0.812870 0.812870 0.812870 0.812870 0.812870 0.812870 0.812870 0.851761 0.859357 0.862195 0.865131 0.866014 0.863553 0.862234 0.861786 0.861308 0.861573 0.867691 0.892705 0.909884 0.912703 0.924156 0.927753 0.933044 0.936072 0.952026 0.953497 0.955047 0.954039 0.954608 0.956700 0.961077 0.957454 0.958577 0.958602 0.963269 0.959340 0.958708 0.957457 0.956221 0.953211 0.954376 0.954123 0.951201 0.951639 0.946230 0.946603 0.946920 0.945009 0.943022 0.930025 0.925032 0.924332 0.924512 0.904627 0.897482 0.886915 0.871412 0.893446 0.887040 0.867658 0.866712 0.843238 0.845907 0.845771 0.836610 0.833380 0.830774 0.826089 0.816883 0.817776 0.816784 0.825752 0.830146 0.832345 0.822396 0.802057 0.777645 0.761914 0.761645 0.759582 0.755499 0.759937 0.762021 0.761161 0.758943 0.757130 0.748221 0.758983 0.759204 0.754961 0.748399 0.746602 0.732116 0.726336 0.720073 0.695100 0.674944 0.663555 0.665131 0.650914 0.642587 0.643783 0.650918 0.657549 0.667312 0.660967 0.656967 0.637508 0.610951 0.569057 0.583966 0.592202 0.567695 0.558263 0.544471 0.581650 0.604418 0.627960 0.645200 0.647773 0.651317 0.626998 0.591657 0.577601 0.579999 0.580186 0.579801 0.572454 0.579065 0.596524 0.582484 0.544306 0.545513 0.542519 0.552778 0.570826 0.571967 0.571148 0.537159 0.521163 0.496489 0.468927 0.417656 0.405503 0.406723 0.417930 0.398445 0.386144 0.389815 0.411317 0.398734 0.400986 0.387803 0.383171 0.358690 0.357229 0.360115 0.343610 0.326818 0.276682 0.244969 0.232405 0.244797 0.248943 0.297450 0.321638 0.318833 0.292428 0.292554 0.327257 0.347722 0.360048 0.363457 0.334306 0.317360 0.212082 0.208662 0.245402 0.267478 0.275568 0.254422 0.251965 0.253040 0.228936 0.216000 0.159048 0.114899 0.083541 0.101748 0.106224 0.104134 0.091830 0.042001 0.034848 0.030114 0.020008 -0.007261 -0.011429 0.021666 0.030720 0.042325 0.062125 0.044493 0.012469 0.039320 0.032172 0.044212 0.059942 0.033934 0.040557 0.012885 -0.021526 -0.026496 -0.040975 -0.057529 -0.029869 -0.022719 -0.003437 -0.030283 -0.015575 -0.015437 -0.029761 -0.100175 -0.135902 -0.125352 -0.137920 -0.130210 -0.125461 -0.124727 -0.146078 -0.145067 -0.153016 -0.043351 -0.059184 -0.064645 -0.067578 -0.080690 -0.107688 -0.120356 -0.110855 -0.053732 -0.032037 -0.020391 -0.048073 -0.071971 -0.071971 -0.071971 -0.086585 -0.086585 -0.086585 -0.086585 -0.086585 -0.086585 -0.086585 -0.086585 -0.086585 -0.098023 -0.098023 -0.098023 -0.098023 -0.098023 -0.098023 -0.098023 -0.098023 -0.098023 -0.098023 -0.098023 -0.098023 -0.098023 -0.098023 -0.098023 -0.098023 -0.098023
0.000000 0.000000 0.000000 0.000000 0.000000 0.000000 0.000000 0.000000 0.000000 0.000000 0.000000 0.000000 0.000000 0.000000 0.000000 0.000000 0.000000 0.000000 0.000000 0.000000 0.000000 0.000000 0.000000 0.000000 0.000000 0.000000 0.000000 0.000000 0.000000 0.000000 0.000000 0.000000 0.000000 0.000000 0.000000 0.000000 0.000000 0.000000 0.000000 0.000000 0.000000 0.000000 0.000000 0.000000 0.000000 0.000000 0.000000 0.000000 0.000000 0.000000 0.000000 0.000000 0.180334 0.180334 0.180334 0.199007 0.199007 0.199007 0.199007 0.199007 0.199007 0.199007 0.199007 0.199007 0.199007 0.199007 0.199007 0.199007 0.199007 0.199007 0.199007 0.199007 0.199007 0.199007 0.199007 0.199007 0.199007 0.199007 0.199007 0.199007 0.199007 0.199007 0.199007 0.199007 0.199007 0.199007 0.199007 0.199007 0.199007 0.199007 0.199007 0.199007 0.199007 0.199007 0.199007 0.199007 0.230940 0.230940 0.230940 0.230940 0.230940 0.230940 0.230940 0.230940 0.230940 0.230940 0.230940 0.230940 0.230940 0.230940 0.230940 0.230940 0.230940 0.230940 0.230940 0.230940 0.230940 0.230940 0.230940 0.230940 0.230940 0.230940 0.230940 0.230940 0.244339 0.244339 0.244339 0.244339 0.244339 0.244339 0.244339 0.244339 0.244339 0.244339 0.244339 0.244339 0.244339 0.244339 0.244339 0.244339 0.244339 0.244339 0.244339 0.244339 0.244339 0.244339 0.244339 0.256074 0.256074 0.256074 0.256074 0.256074 0.256074 0.256074 0.256074 0.256074 0.256074 0.256074 0.256074 0.256074 0.256074 0.256074 0.256074 0.256074 0.256074 0.256074 0.256074 0.256074 0.256074 0.256074 0.256074 0.256074 0.256074 0.256074 0.256074 0.256074 0.256074 0.256074 0.256074 0.256074 0.256074 0.256074 0.256074 0.256074 0.264906 0.264906 0.264906 0.264906 0.264906 0.264906 0.264906 0.264906 0.264906 0.264906 0.264906 0.264906 0.264906 0.264906 0.264906 0.264906 0.264906 0.264906 0.264906 0.264906 0.264906 0.264906 0.264906 0.264906 0.264906 0.264906 0.264906 0.264906 0.264906 0.264906 0.264906 0.264906 0.264906 0.264906 0.264906 0.264906 0.264906 0.264906 0.264906 0.264906 0.264906 0.264906 0.264906 0.264906 0.264906 0.264906 0.264906 0.264906 0.264906 0.264906 0.264906 0.264906 0.264906 0.264906 0.264906 0.264906 0.264906 0.264906 0.269680 0.269680 0.269680 0.269680 0.269680 0.269680 0.269680 0.269680 0.269680 0.269680 0.269680 0.269680 0.264906 0.264906 0.264906 0.264906 0.264906 0.264906 0.264906 0.264906 0.264906 0.264906 0.264906 0.264906 0.269680 0.269680 0.269680 0.269680 0.269680 0.269680 0.269680 0.269680 0.269680 0.269680 0.269680 0.264906 0.264906 0.264906 0.264906 0.264906 0.264906 0.264906 0.264906 0.264906 0.264906 0.264906 0.256074 0.256074 0.256074 0.256074 0.256074 0.256074 0.256074 0.256074 0.256074 0.256074 0.256074 0.264906 0.264906 0.264906 0.264906 0.264906 0.264906 0.264906 0.264906 0.264906 0.264906 0.260378 0.260378 0.260378 0.260378 0.260378 0.260378 0.260378 0.260378 0.260378 0.260378 0.264906 0.264906 0.264906 0.264906 0.264906 0.264906 0.264906 0.264906 0.264906 0.260378 0.260378 0.260378 0.260378 0.260378 0.260378 0.260378 0.260378 0.260378 0.256074 0.256074 0.256074 0.256074 0.256074 0.256074 0.256074 0.256074 0.256074 0.251976 0.251976 0.251976 0.251976 0.251976 0.251976 0.251976 0.251976 0.251976 0.251976 0.251976 0.251976 0.251976 0.251976 0.251976 0.251976 0.251976
