# Output from CTFFind version 4.1.9, run on 2019-11-03 20:06:56
# Input file: stack6_bm3d_averaged_1_7.5_0_1250_half.mrc ; Number of micrographs: 1
# Pixel size: 3.000 Angstroms ; acceleration voltage: 300.0 keV ; spherical aberration: 0.00 mm ; amplitude contrast: 0.07
# Box size: 512 pixels ; min. res.: 30.0 Angstroms ; max. res.: 5.0 Angstroms ; min. def.: 5000.0 um; max. def. 50000.0 um; num. frames averaged: 1
# 6 lines per micrograph: #1 - spatial frequency (1/Angstroms); #2 - 1D rotational average of spectrum (assuming no astigmatism); #3 - 1D rotational average of spectrum; #4 - CTF fit; #5 - cross-correlation between spectrum and CTF fit; #6 - 2sigma of expected cross correlation of noise
0.000000 0.000651 0.001302 0.001953 0.002604 0.003255 0.003906 0.004557 0.005208 0.005859 0.006510 0.007161 0.007812 0.008464 0.009115 0.009766 0.010417 0.011068 0.011719 0.012370 0.013021 0.013672 0.014323 0.014974 0.015625 0.016276 0.016927 0.017578 0.018229 0.018880 0.019531 0.020182 0.020833 0.021484 0.022135 0.022786 0.023438 0.024089 0.024740 0.025391 0.026042 0.026693 0.027344 0.027995 0.028646 0.029297 0.029948 0.030599 0.031250 0.031901 0.032552 0.033203 0.033854 0.034505 0.035156 0.035807 0.036458 0.037109 0.037760 0.038411 0.039062 0.039714 0.040365 0.041016 0.041667 0.042318 0.042969 0.043620 0.044271 0.044922 0.045573 0.046224 0.046875 0.047526 0.048177 0.048828 0.049479 0.050130 0.050781 0.051432 0.052083 0.052734 0.053385 0.054036 0.054688 0.055339 0.055990 0.056641 0.057292 0.057943 0.058594 0.059245 0.059896 0.060547 0.061198 0.061849 0.062500 0.063151 0.063802 0.064453 0.065104 0.065755 0.066406 0.067057 0.067708 0.068359 0.069010 0.069661 0.070312 0.070964 0.071615 0.072266 0.072917 0.073568 0.074219 0.074870 0.075521 0.076172 0.076823 0.077474 0.078125 0.078776 0.079427 0.080078 0.080729 0.081380 0.082031 0.082682 0.083333 0.083984 0.084635 0.085286 0.085938 0.086589 0.087240 0.087891 0.088542 0.089193 0.089844 0.090495 0.091146 0.091797 0.092448 0.093099 0.093750 0.094401 0.095052 0.095703 0.096354 0.097005 0.097656 0.098307 0.098958 0.099609 0.100260 0.100911 0.101562 0.102214 0.102865 0.103516 0.104167 0.104818 0.105469 0.106120 0.106771 0.107422 0.108073 0.108724 0.109375 0.110026 0.110677 0.111328 0.111979 0.112630 0.113281 0.113932 0.114583 0.115234 0.115885 0.116536 0.117188 0.117839 0.118490 0.119141 0.119792 0.120443 0.121094 0.121745 0.122396 0.123047 0.123698 0.124349 0.125000 0.125651 0.126302 0.126953 0.127604 0.128255 0.128906 0.129557 0.130208 0.130859 0.131510 0.132161 0.132812 0.133464 0.134115 0.134766 0.135417 0.136068 0.136719 0.137370 0.138021 0.138672 0.139323 0.139974 0.140625 0.141276 0.141927 0.142578 0.143229 0.143880 0.144531 0.145182 0.145833 0.146484 0.147135 0.147786 0.148438 0.149089 0.149740 0.150391 0.151042 0.151693 0.152344 0.152995 0.153646 0.154297 0.154948 0.155599 0.156250 0.156901 0.157552 0.158203 0.158854 0.159505 0.160156 0.160807 0.161458 0.162109 0.162760 0.163411 0.164062 0.164714 0.165365 0.166016 0.166667 0.167318 0.167969 0.168620 0.169271 0.169922 0.170573 0.171224 0.171875 0.172526 0.173177 0.173828 0.174479 0.175130 0.175781 0.176432 0.177083 0.177734 0.178385 0.179036 0.179688 0.180339 0.180990 0.181641 0.182292 0.182943 0.183594 0.184245 0.184896 0.185547 0.186198 0.186849 0.187500 0.188151 0.188802 0.189453 0.190104 0.190755 0.191406 0.192057 0.192708 0.193359 0.194010 0.194661 0.195312 0.195964 0.196615 0.197266 0.197917 0.198568 0.199219 0.199870 0.200521 0.201172 0.201823 0.202474 0.203125 0.203776 0.204427 0.205078 0.205729 0.206380 0.207031 0.207682 0.208333 0.208984 0.209635 0.210286 0.210938 0.211589 0.212240 0.212891 0.213542 0.214193 0.214844 0.215495 0.216146 0.216797 0.217448 0.218099 0.218750 0.219401 0.220052 0.220703 0.221354 0.222005 0.222656 0.223307 0.223958 0.224609 0.225260 0.225911 0.226562 0.227214 0.227865 0.228516 0.229167 0.229818 0.230469 0.231120 0.231771 0.232422 0.233073 0.233724 0.234375 0.235026 0.235677
       0.33337        0.33337        0.33337        0.33337        0.33337        0.33337        0.33337        0.33337        0.33337        0.33337        0.33337        0.33337        0.33337        0.33337        0.33337        0.33337        0.33337        0.33337        0.33337        0.33337        0.33337        0.33337        0.33337        0.33337        0.33337        0.33337        0.33337        0.33337        0.33337        0.33337        0.33337        0.33337        0.33337        0.33337        0.33337        0.33337        0.33337        0.33337        0.33337        0.33337        0.33337        0.33337        0.33337        0.33337        0.33337        0.33337        0.33337        0.33337        0.33337        0.33337        0.33337        0.59595        0.70848        0.36619        0.17247        0.14005       -0.12777        0.11322        0.04189        0.04420        0.09410        0.30995        0.30669        0.23598        0.14199       -0.03704       -0.00930        0.05268       -0.08789       -0.09448       -0.06790       -0.07390       -0.17151       -0.10869       -0.21780       -0.23706       -0.23548       -0.29348       -0.36387       -0.29261       -0.20176       -0.16584       -0.27336       -0.19887       -0.23806       -0.17930       -0.12050       -0.06175       -0.03403        0.02096        0.07006        0.15251        0.19346        0.23587        0.34737        0.41222        0.36228        0.48464        0.54581        0.55421        0.62986        0.55392        0.58406        0.60485        0.60465        0.59372        0.56030        0.59729        0.54161        0.39969        0.35595        0.37847        0.34451        0.21364        0.20573        0.17535        0.11864        0.11611        0.04458        0.11235        0.08982        0.05769        0.13819        0.19263        0.27903        0.34922        0.36738        0.39990        0.44915        0.48179        0.42331        0.63716        0.55090        0.48230        0.56969        0.50418        0.55967        0.51784        0.39195        0.32996        0.31621        0.27076        0.26063        0.21673        0.19900        0.17777        0.26965        0.24772        0.26620        0.23712        0.27601        0.33980        0.33885        0.45096        0.44653        0.43359        0.41869        0.48280        0.43668        0.41681        0.40877        0.39740        0.33693        0.28408        0.28492        0.27299        0.27141        0.21669        0.20663        0.25419        0.27123        0.29137        0.35190        0.38759        0.42808        0.41831        0.42982        0.49228        0.47602        0.43085        0.38324        0.41906        0.38334        0.33187        0.34161        0.33285        0.27501        0.28565        0.28200        0.25871        0.32220        0.30161        0.32074        0.34074        0.40047        0.42385        0.41359        0.44245        0.39213        0.43493        0.40816        0.33699        0.30241        0.27809        0.28833        0.26084        0.22967        0.31575        0.37863        0.34013        0.31253        0.36838        0.29517        0.35362        0.40479        0.38966        0.36670        0.38038        0.34969        0.36426        0.33622        0.30879        0.28984        0.27223        0.32367        0.33515        0.35508        0.36938        0.39116        0.37307        0.36890        0.32820        0.35834        0.36671        0.34714        0.33093        0.29169        0.29020        0.27300        0.34222        0.33814        0.35150        0.32030        0.35141        0.37463        0.34052        0.35826        0.35124        0.31688        0.31398        0.31107        0.28422        0.27492        0.26529        0.25621        0.27693        0.26969        0.30549        0.27644        0.31821        0.36277        0.26540        0.29704        0.28399        0.25158        0.30648        0.28894        0.29003        0.31648        0.33063        0.33148        0.31869        0.31762        0.31470        0.36486        0.36133        0.30433        0.32842        0.32043        0.37071        0.28111        0.28020        0.29778        0.30824        0.33408        0.36867        0.35911        0.29807        0.23402        0.29922        0.26997        0.26078        0.26231        0.27850        0.31148        0.24092        0.30802        0.33436        0.36910        0.31128        0.31870        0.28643        0.29604        0.29220        0.26926        0.29172        0.27140        0.28589        0.35361        0.35034        0.28590        0.32733        0.33074        0.26275        0.23176        0.18984        0.33400        0.32898        0.36203        0.34764        0.29400        0.23251        0.22184        0.27950        0.27320        0.27232        0.29546        0.29404        0.24799        0.28429        0.28555        0.31022        0.28355        0.28144        0.27608        0.24739        0.23492        0.29122        0.25217        0.21669        0.26109        0.25897        0.26413        0.22673        0.20643        0.27340        0.30564        0.28077        0.20457        0.14751        0.28829        0.22691        0.26120        0.27501        0.16729        0.16218        0.20463        0.24239        0.30418        0.09211       -0.11834       -0.61118       -0.97122
2.431470 2.410872 2.390366 2.369950 2.349626 2.329392 2.309250 2.289199 2.269239 2.249371 2.229593 2.209907 2.190311 2.170807 2.151394 2.132073 2.112842 2.093702 2.074654 2.055697 2.036830 2.018056 1.999372 1.980779 1.962277 1.943867 1.925548 1.907320 1.889183 1.871137 1.853182 1.835319 1.817546 1.799865 1.782275 1.764776 1.747368 1.730051 1.712826 1.695691 1.678648 1.661696 1.644835 1.628065 1.611386 1.594799 1.578302 1.561897 1.545583 1.529360 1.513228 1.870920 2.213417 1.537332 1.331926 1.107468 0.519667 0.937305 0.803873 0.848076 0.701486 1.429203 1.195741 1.213098 0.989046 0.595342 0.469993 0.748828 0.605754 0.285407 0.270952 0.488837 0.249589 0.267338 0.110749 -0.001927 -0.016464 -0.009018 -0.321329 -0.141754 0.013764 0.012477 -0.080268 -0.013460 -0.103038 -0.081765 0.069560 0.200001 0.262001 0.282074 0.389448 0.634932 0.565289 0.672765 0.830840 1.067115 0.807975 1.274773 1.198848 1.275973 1.375298 1.266267 1.163645 1.380267 1.242846 1.348870 1.209904 1.211936 1.225544 0.966908 0.720096 0.751971 0.799001 0.483692 0.451718 0.374090 0.242741 0.198593 0.034938 0.238222 0.176296 0.063148 0.144094 0.240891 0.366731 0.608529 0.611912 0.633749 0.698291 0.882174 0.595951 1.030156 1.057263 0.777195 0.928553 0.772763 0.892589 0.922643 0.654712 0.410168 0.441150 0.389973 0.223466 0.247658 0.162077 -0.014989 0.255620 0.236662 0.263331 0.159443 0.248747 0.335220 0.276692 0.502734 0.604643 0.558350 0.367914 0.650252 0.562975 0.416629 0.543756 0.434410 0.266486 0.311082 0.140293 0.216883 0.025229 0.215993 -0.053614 0.057802 0.067434 0.259908 0.047282 0.400153 0.351554 0.406173 0.379967 0.420310 0.592692 0.410624 0.344246 0.398976 0.196766 0.364540 0.106198 0.268523 0.064695 0.089946 0.080117 0.061467 0.045724 0.158046 0.057053 0.159298 0.242301 0.287340 0.329714 0.263971 0.345321 0.264053 0.293806 0.188451 0.104630 0.019381 -0.006545 0.017285 -0.063065 -0.072081 0.127606 0.219568 0.052554 0.108523 0.131420 0.007911 0.192290 0.260595 0.188651 0.179174 0.129514 0.170216 0.104597 0.096230 0.045981 -0.087273 -0.000549 0.132769 0.056116 0.155731 0.136841 0.222072 0.177953 0.151853 0.107245 0.187645 0.100733 0.145433 0.090676 0.006591 -0.011981 -0.013075 0.128808 0.121774 0.132927 0.060308 0.152204 0.164972 0.043709 0.145652 0.054576 -0.009075 0.028220 0.008437 -0.060127 -0.060886 -0.117526 -0.049124 -0.052545 -0.098426 0.009556 -0.051221 0.043968 0.104929 -0.115613 0.021260 -0.052433 -0.095624 0.050762 -0.022330 -0.060372 0.044628 0.100691 0.031131 0.058240 -0.045303 0.026331 0.207589 0.011351 -0.049808 0.079385 0.040756 0.111693 -0.112654 -0.047863 -0.004776 0.043405 0.060779 0.103368 0.131011 -0.051747 -0.111090 0.009052 -0.062280 -0.065550 -0.046928 -0.043753 0.055206 -0.175835 0.129539 0.134760 0.185224 0.038004 0.060020 0.036173 0.031004 0.096269 -0.022332 0.041811 0.011292 0.052052 0.145433 0.193061 0.043770 0.170081 0.169078 -0.040104 -0.010417 -0.160256 0.239897 0.133837 0.216135 0.175358 0.028287 -0.061820 -0.091706 0.020801 0.011999 -0.019686 0.051277 0.048778 -0.080762 0.018499 0.114064 0.068045 0.035936 0.005751 0.056716 -0.111130 -0.013140 0.059435 -0.034960 -0.124763 0.035230 -0.013153 -0.042301 -0.040847 -0.121464 0.081606 0.120918 -0.005004 -0.094800 -0.350998 0.175531 0.510962 0.456068 0.577355 0.262361 0.323575 0.417535 0.511232 0.584781 0.035415 0.012921 -0.938275
0.072396 0.072838 0.074163 0.076371 0.079462 0.083435 0.088289 0.094022 0.100634 0.108122 0.116484 0.125716 0.135815 0.146776 0.158594 0.171262 0.184772 0.199116 0.214282 0.230259 0.247032 0.264586 0.282903 0.301961 0.321739 0.342209 0.363344 0.385111 0.407474 0.430396 0.453833 0.477738 0.502061 0.526747 0.551735 0.576960 0.602354 0.627843 0.653346 0.678779 0.704051 0.729069 0.753731 0.777931 0.801559 0.824499 0.846629 0.867825 0.887956 0.906890 0.924488 0.940610 0.955112 0.967851 0.978680 0.987451 0.994019 0.998237 0.999964 0.999060 0.995388 0.988821 0.979236 0.966518 0.950564 0.931282 0.908590 0.882425 0.852736 0.819493 0.782682 0.742313 0.698416 0.651047 0.600285 0.546238 0.489041 0.428857 0.365881 0.300336 0.232478 0.162594 0.091002 0.018050 0.055883 0.130388 0.205031 0.279348 0.352856 0.425047 0.495396 0.563366 0.628407 0.689964 0.747479 0.800402 0.848190 0.890315 0.926273 0.955588 0.977820 0.992569 0.999485 0.998277 0.988713 0.970632 0.943948 0.908657 0.864842 0.812675 0.752424 0.684454 0.609231 0.527317 0.439375 0.346165 0.248540 0.147440 0.043885 0.061028 0.166143 0.270251 0.372106 0.470437 0.563965 0.651424 0.731572 0.803218 0.865233 0.916578 0.956321 0.983654 0.997916 0.998607 0.985407 0.958192 0.917039 0.862242 0.794319 0.714007 0.622269 0.520285 0.409446 0.291336 0.167716 0.040506 0.088250 0.216406 0.341757 0.462066 0.575119 0.678750 0.770902 0.849658 0.913296 0.960323 0.989521 0.999980 0.991137 0.962795 0.915150 0.848800 0.764752 0.664419 0.549605 0.422480 0.285552 0.141622 0.006269 0.154897 0.300927 0.440980 0.571721 0.689935 0.792613 0.877034 0.940842 0.982127 0.999484 0.992074 0.959665 0.902665 0.822136 0.719788 0.597962 0.459586 0.308120 0.147478 0.018066 0.183983 0.345614 0.498297 0.637510 0.759000 0.858929 0.934004 0.981593 0.999836 0.987727 0.945176 0.873050 0.773168 0.648289 0.502048 0.338864 0.163824 0.017463 0.199040 0.374797 0.538674 0.684877 0.808085 0.903659 0.967832 0.997874 0.992225 0.950588 0.873990 0.764777 0.626575 0.464192 0.283467 0.091080 0.105682 0.299199 0.481803 0.646095 0.785242 0.893285 0.965408 0.998170 0.989698 0.939809 0.850073 0.723801 0.565943 0.382939 0.182460 0.026882 0.235900 0.435226 0.615737 0.768976 0.887568 0.965597 0.998919 0.985421 0.925170 0.820481 0.675864 0.497862 0.294798 0.076395 0.146661 0.363236 0.562304 0.733521 0.867767 0.957665 0.998014 0.986118 0.922006 0.808499 0.651135 0.457938 0.239048 0.006209 0.227834 0.450029 0.647754 0.809529 0.925727 0.989163 0.995583 0.943987 0.836772 0.679681 0.481538 0.253798 0.009912 0.235431 0.467203 0.670938 0.833664 0.944749 0.996643 0.985427 0.911160 0.777971 0.593885 0.370404 0.121820 0.135662 0.384967 0.609279 0.793179 0.923751 0.991510 0.991152 0.922021 0.788260 0.598637 0.366026 0.106581 0.161341 0.418481 0.646035 0.827068 0.947796 0.998685 0.975268 0.878586 0.715243 0.497021 0.240102 0.036101 0.310362 0.561273 0.768927 0.916516 0.991754 0.987952 0.904681 0.747947 0.529842 0.267673 0.017345 0.301778 0.561874 0.775578 0.924413 0.995148 0.981031 0.882517 0.707374 0.470168 0.191118 0.105567 0.393759 0.647693 0.844311 0.965377 0.999256 0.942097 0.798357 0.580554 0.308267 0.006448 0.296823 0.572914 0.795383 0.942524 0.999570 0.960250 0.827572 0.613716 0.339009 0.030078 0.282680 0.568056 0.797160 0.946401 0.999962
1.000000 1.000000 1.000000 1.000000 1.000000 1.000000 1.000000 1.000000 1.000000 1.000000 1.000000 1.000000 1.000000 1.000000 1.000000 1.000000 1.000000 1.000000 1.000000 1.000000 1.000000 1.000000 1.000000 1.000000 1.000000 1.000000 1.000000 1.000000 1.000000 1.000000 1.000000 1.000000 1.000000 1.000000 1.000000 1.000000 1.000000 1.000000 1.000000 1.000000 1.000000 1.000000 1.000000 1.000000 1.000000 1.000000 1.000000 1.000000 1.000000 1.000000 1.000000 1.000000 0.769521 0.769521 0.769521 0.769521 0.769521 0.769521 0.769521 0.757773 0.757773 0.757773 0.757773 0.757773 0.757773 0.757773 0.757773 0.757773 0.757773 0.757773 0.757773 0.757773 0.757773 0.757773 0.757773 0.757773 0.757773 0.757773 0.757773 0.757773 0.757773 0.757773 0.757773 0.757773 0.757773 0.757773 0.757773 0.757773 0.757773 0.757773 0.757773 0.757773 0.757773 0.757773 0.757773 0.757773 0.757773 0.757773 0.757773 0.757773 0.757773 0.757773 0.757773 0.900546 0.902009 0.905057 0.900472 0.902401 0.897181 0.890698 0.892094 0.893822 0.893628 0.894452 0.896154 0.898211 0.905557 0.914479 0.916396 0.923322 0.926710 0.926672 0.928139 0.926663 0.934081 0.931454 0.929656 0.917728 0.921277 0.923252 0.922278 0.921121 0.917970 0.923618 0.922215 0.920107 0.914796 0.910826 0.908850 0.910486 0.908207 0.908798 0.908985 0.909938 0.908113 0.908911 0.905060 0.906018 0.904924 0.901378 0.898464 0.898230 0.899696 0.897995 0.894575 0.888152 0.894036 0.894128 0.893298 0.892212 0.892423 0.893218 0.894000 0.894679 0.892238 0.892292 0.889719 0.891487 0.888049 0.883366 0.877311 0.877713 0.880252 0.887446 0.889567 0.888171 0.885252 0.876737 0.866070 0.863640 0.852212 0.822387 0.824412 0.827607 0.829603 0.829950 0.828916 0.825112 0.821000 0.813062 0.804290 0.809054 0.809539 0.802372 0.798458 0.799384 0.800222 0.807580 0.811288 0.803128 0.799835 0.802101 0.798094 0.799261 0.803262 0.796025 0.793170 0.800122 0.808240 0.808218 0.792682 0.788445 0.785884 0.773928 0.781107 0.787628 0.786715 0.788156 0.785149 0.773316 0.771990 0.765347 0.776237 0.783273 0.782556 0.777565 0.760782 0.717194 0.702421 0.667832 0.665880 0.667492 0.633737 0.634000 0.635467 0.639459 0.582903 0.559175 0.544956 0.545992 0.555208 0.560341 0.553884 0.527415 0.544819 0.541090 0.526552 0.522488 0.504523 0.491185 0.474136 0.476577 0.475783 0.468434 0.436782 0.438461 0.458540 0.467665 0.462726 0.458809 0.431128 0.410786 0.410238 0.402393 0.402104 0.408502 0.416980 0.359092 0.336013 0.322688 0.351432 0.349178 0.347339 0.366481 0.359228 0.352592 0.327406 0.306799 0.275949 0.288622 0.309288 0.312574 0.316046 0.284762 0.275881 0.260929 0.264939 0.310063 0.299608 0.322963 0.328819 0.333835 0.358182 0.331523 0.308090 0.286576 0.329319 0.338129 0.307697 0.302385 0.316832 0.329603 0.328538 0.324382 0.319289 0.365745 0.368346 0.346331 0.346531 0.313860 0.333197 0.363693 0.361907 0.368209 0.378193 0.384597 0.346807 0.269941 0.240460 0.244011 0.220934 0.220905 0.207296 0.192316 0.184344 0.196752 0.218334 0.224381 0.256302 0.224623 0.178895 0.088853 0.155377 0.071798 0.087043 0.087043 0.087043 0.087043 0.087043 0.087043 0.087043 0.087043 0.124379 0.124379 0.124379 0.124379 0.124379 0.124379 0.124379 0.124379 0.124379 0.124379 0.124379 0.124379 0.124379 0.124379 0.124379 0.124379 0.124379 0.124379 0.124379 0.124379 0.124379
0.000000 0.000000 0.000000 0.000000 0.000000 0.000000 0.000000 0.000000 0.000000 0.000000 0.000000 0.000000 0.000000 0.000000 0.000000 0.000000 0.000000 0.000000 0.000000 0.000000 0.000000 0.000000 0.000000 0.000000 0.000000 0.000000 0.000000 0.000000 0.000000 0.000000 0.000000 0.000000 0.000000 0.000000 0.000000 0.000000 0.000000 0.000000 0.000000 0.000000 0.000000 0.000000 0.000000 0.000000 0.000000 0.000000 0.000000 0.000000 0.000000 0.000000 0.000000 0.000000 0.173422 0.173422 0.173422 0.173422 0.173422 0.173422 0.173422 0.191565 0.191565 0.191565 0.191565 0.191565 0.191565 0.191565 0.191565 0.191565 0.191565 0.191565 0.191565 0.191565 0.191565 0.191565 0.191565 0.191565 0.191565 0.191565 0.191565 0.191565 0.191565 0.191565 0.191565 0.191565 0.191565 0.191565 0.191565 0.191565 0.191565 0.191565 0.191565 0.191565 0.191565 0.191565 0.191565 0.191565 0.191565 0.191565 0.191565 0.191565 0.191565 0.191565 0.191565 0.222222 0.222222 0.222222 0.222222 0.222222 0.222222 0.222222 0.222222 0.222222 0.222222 0.222222 0.222222 0.222222 0.222222 0.222222 0.222222 0.222222 0.222222 0.222222 0.222222 0.222222 0.222222 0.222222 0.222222 0.222222 0.222222 0.222222 0.222222 0.222222 0.222222 0.234082 0.234082 0.234082 0.234082 0.234082 0.234082 0.234082 0.234082 0.234082 0.234082 0.234082 0.234082 0.234082 0.234082 0.234082 0.234082 0.234082 0.234082 0.234082 0.234082 0.234082 0.234082 0.234082 0.234082 0.234082 0.244339 0.244339 0.244339 0.244339 0.244339 0.244339 0.244339 0.244339 0.244339 0.244339 0.244339 0.244339 0.244339 0.244339 0.244339 0.244339 0.244339 0.244339 0.244339 0.244339 0.244339 0.248069 0.248069 0.248069 0.248069 0.248069 0.248069 0.248069 0.248069 0.248069 0.248069 0.248069 0.248069 0.248069 0.248069 0.248069 0.248069 0.248069 0.248069 0.248069 0.256074 0.256074 0.256074 0.256074 0.256074 0.256074 0.256074 0.256074 0.256074 0.256074 0.256074 0.256074 0.256074 0.256074 0.256074 0.256074 0.256074 0.256074 0.256074 0.256074 0.256074 0.256074 0.256074 0.256074 0.256074 0.256074 0.256074 0.256074 0.256074 0.256074 0.256074 0.256074 0.256074 0.256074 0.256074 0.256074 0.256074 0.256074 0.256074 0.256074 0.256074 0.256074 0.256074 0.256074 0.256074 0.256074 0.256074 0.256074 0.256074 0.256074 0.256074 0.256074 0.256074 0.256074 0.256074 0.256074 0.256074 0.256074 0.256074 0.256074 0.256074 0.256074 0.260378 0.260378 0.260378 0.260378 0.260378 0.260378 0.260378 0.260378 0.260378 0.260378 0.260378 0.260378 0.260378 0.256074 0.256074 0.256074 0.256074 0.256074 0.256074 0.256074 0.256074 0.256074 0.256074 0.256074 0.256074 0.256074 0.260378 0.260378 0.260378 0.260378 0.260378 0.260378 0.260378 0.260378 0.260378 0.260378 0.260378 0.260378 0.251976 0.251976 0.251976 0.251976 0.251976 0.251976 0.251976 0.251976 0.251976 0.251976 0.251976 0.251976 0.256074 0.256074 0.256074 0.256074 0.256074 0.256074 0.256074 0.256074 0.256074 0.256074 0.256074 0.251976 0.251976 0.251976 0.251976 0.251976 0.251976 0.251976 0.251976 0.251976 0.251976 0.251976 0.260378 0.260378 0.260378 0.260378 0.260378 0.260378 0.260378 0.260378 0.260378 0.260378 0.244339 0.244339 0.244339 0.244339 0.244339 0.244339 0.244339 0.244339 0.244339 0.244339 0.244339 0.244339 0.244339 0.244339 0.244339 0.244339 0.244339 0.244339 0.244339 0.244339 0.244339
