# Output from CTFFind version 4.1.9, run on 2019-11-03 19:47:20
# Input file: stack11_bm3d_averaged_1_5.25_0_1250_half.mrc ; Number of micrographs: 1
# Pixel size: 3.000 Angstroms ; acceleration voltage: 300.0 keV ; spherical aberration: 0.00 mm ; amplitude contrast: 0.07
# Box size: 512 pixels ; min. res.: 30.0 Angstroms ; max. res.: 5.0 Angstroms ; min. def.: 5000.0 um; max. def. 50000.0 um; num. frames averaged: 1
# 6 lines per micrograph: #1 - spatial frequency (1/Angstroms); #2 - 1D rotational average of spectrum (assuming no astigmatism); #3 - 1D rotational average of spectrum; #4 - CTF fit; #5 - cross-correlation between spectrum and CTF fit; #6 - 2sigma of expected cross correlation of noise
0.000000 0.000651 0.001302 0.001953 0.002604 0.003255 0.003906 0.004557 0.005208 0.005859 0.006510 0.007161 0.007812 0.008464 0.009115 0.009766 0.010417 0.011068 0.011719 0.012370 0.013021 0.013672 0.014323 0.014974 0.015625 0.016276 0.016927 0.017578 0.018229 0.018880 0.019531 0.020182 0.020833 0.021484 0.022135 0.022786 0.023438 0.024089 0.024740 0.025391 0.026042 0.026693 0.027344 0.027995 0.028646 0.029297 0.029948 0.030599 0.031250 0.031901 0.032552 0.033203 0.033854 0.034505 0.035156 0.035807 0.036458 0.037109 0.037760 0.038411 0.039062 0.039714 0.040365 0.041016 0.041667 0.042318 0.042969 0.043620 0.044271 0.044922 0.045573 0.046224 0.046875 0.047526 0.048177 0.048828 0.049479 0.050130 0.050781 0.051432 0.052083 0.052734 0.053385 0.054036 0.054688 0.055339 0.055990 0.056641 0.057292 0.057943 0.058594 0.059245 0.059896 0.060547 0.061198 0.061849 0.062500 0.063151 0.063802 0.064453 0.065104 0.065755 0.066406 0.067057 0.067708 0.068359 0.069010 0.069661 0.070312 0.070964 0.071615 0.072266 0.072917 0.073568 0.074219 0.074870 0.075521 0.076172 0.076823 0.077474 0.078125 0.078776 0.079427 0.080078 0.080729 0.081380 0.082031 0.082682 0.083333 0.083984 0.084635 0.085286 0.085938 0.086589 0.087240 0.087891 0.088542 0.089193 0.089844 0.090495 0.091146 0.091797 0.092448 0.093099 0.093750 0.094401 0.095052 0.095703 0.096354 0.097005 0.097656 0.098307 0.098958 0.099609 0.100260 0.100911 0.101562 0.102214 0.102865 0.103516 0.104167 0.104818 0.105469 0.106120 0.106771 0.107422 0.108073 0.108724 0.109375 0.110026 0.110677 0.111328 0.111979 0.112630 0.113281 0.113932 0.114583 0.115234 0.115885 0.116536 0.117188 0.117839 0.118490 0.119141 0.119792 0.120443 0.121094 0.121745 0.122396 0.123047 0.123698 0.124349 0.125000 0.125651 0.126302 0.126953 0.127604 0.128255 0.128906 0.129557 0.130208 0.130859 0.131510 0.132161 0.132812 0.133464 0.134115 0.134766 0.135417 0.136068 0.136719 0.137370 0.138021 0.138672 0.139323 0.139974 0.140625 0.141276 0.141927 0.142578 0.143229 0.143880 0.144531 0.145182 0.145833 0.146484 0.147135 0.147786 0.148438 0.149089 0.149740 0.150391 0.151042 0.151693 0.152344 0.152995 0.153646 0.154297 0.154948 0.155599 0.156250 0.156901 0.157552 0.158203 0.158854 0.159505 0.160156 0.160807 0.161458 0.162109 0.162760 0.163411 0.164062 0.164714 0.165365 0.166016 0.166667 0.167318 0.167969 0.168620 0.169271 0.169922 0.170573 0.171224 0.171875 0.172526 0.173177 0.173828 0.174479 0.175130 0.175781 0.176432 0.177083 0.177734 0.178385 0.179036 0.179688 0.180339 0.180990 0.181641 0.182292 0.182943 0.183594 0.184245 0.184896 0.185547 0.186198 0.186849 0.187500 0.188151 0.188802 0.189453 0.190104 0.190755 0.191406 0.192057 0.192708 0.193359 0.194010 0.194661 0.195312 0.195964 0.196615 0.197266 0.197917 0.198568 0.199219 0.199870 0.200521 0.201172 0.201823 0.202474 0.203125 0.203776 0.204427 0.205078 0.205729 0.206380 0.207031 0.207682 0.208333 0.208984 0.209635 0.210286 0.210938 0.211589 0.212240 0.212891 0.213542 0.214193 0.214844 0.215495 0.216146 0.216797 0.217448 0.218099 0.218750 0.219401 0.220052 0.220703 0.221354 0.222005 0.222656 0.223307 0.223958 0.224609 0.225260 0.225911 0.226562 0.227214 0.227865 0.228516 0.229167 0.229818 0.230469 0.231120 0.231771 0.232422 0.233073 0.233724 0.234375 0.235026 0.235677
       0.34027        0.34027        0.34027        0.34027        0.34027        0.34027        0.34027        0.34027        0.34027        0.34027        0.34027        0.34027        0.34027        0.34027        0.34027        0.34027        0.34027        0.34027        0.34027        0.34027        0.34027        0.34027        0.34027        0.34027        0.34027        0.34027        0.34027        0.34027        0.34027        0.34027        0.34027        0.34027        0.34027        0.34027        0.34027        0.34027        0.34027        0.34027        0.34027        0.34027        0.34027        0.34027        0.34027        0.34027        0.34027        0.34027        0.34027        0.34027        0.34027        0.34027        0.34027        0.69655        0.85916        0.53527        0.10434       -0.03121       -0.39290       -0.18235       -0.28771       -0.11372       -0.05595       -0.11099       -0.05376       -0.17283       -0.20898       -0.21923       -0.30978       -0.32197       -0.44945       -0.36368       -0.43153       -0.42510       -0.39853       -0.41771       -0.45950       -0.51508       -0.56158       -0.56067       -0.53449       -0.36412       -0.33588       -0.29798       -0.27780       -0.18895       -0.17604        0.05567        0.13440        0.16655        0.25975        0.38077        0.45646        0.52151        0.59326        0.59095        0.57926        0.69749        0.80629        0.70730        0.74133        0.62562        0.56789        0.48275        0.42822        0.51104        0.39482        0.25918        0.11150        0.10320        0.08090       -0.02251        0.03063        0.04244        0.00008        0.02278        0.02017        0.23696        0.26900        0.29434        0.43147        0.45158        0.41149        0.58944        0.62396        0.64631        0.72926        0.67807        0.64866        0.66410        0.56322        0.46569        0.41909        0.30124        0.25713        0.17727        0.13271        0.05285        0.05689        0.06240        0.09509        0.15248        0.23880        0.29040        0.41240        0.46165        0.48260        0.57264        0.60618        0.63766        0.62056        0.56227        0.45894        0.47172        0.37769        0.26771        0.20656        0.15819        0.16655        0.14868        0.14717        0.17532        0.31097        0.32391        0.39777        0.43691        0.42761        0.48726        0.55959        0.55335        0.49733        0.45542        0.40925        0.36352        0.33400        0.30005        0.25147        0.24092        0.23948        0.24896        0.22128        0.30568        0.36142        0.38683        0.43886        0.45583        0.47121        0.42538        0.40604        0.40262        0.36049        0.32329        0.27222        0.26959        0.26283        0.23527        0.28432        0.28383        0.34666        0.37769        0.42426        0.47678        0.41091        0.42422        0.43219        0.40788        0.34725        0.32438        0.29248        0.31699        0.27009        0.31433        0.30710        0.32552        0.33362        0.35773        0.31803        0.39372        0.41549        0.37884        0.34784        0.37092        0.31405        0.29209        0.30012        0.32045        0.30493        0.31769        0.33682        0.34918        0.34009        0.36768        0.36721        0.41036        0.38370        0.33474        0.34227        0.29639        0.28541        0.32182        0.31640        0.32731        0.33702        0.33427        0.37887        0.32841        0.32890        0.33405        0.33960        0.30235        0.31009        0.27622        0.30093        0.32469        0.30364        0.32468        0.34963        0.35764        0.29205        0.33029        0.29377        0.29982        0.27975        0.24334        0.29961        0.30087        0.34200        0.33652        0.33734        0.32434        0.34815        0.31036        0.34365        0.31416        0.31493        0.28301        0.32957        0.31744        0.35960        0.32348        0.33460        0.34101        0.29399        0.27362        0.30868        0.24685        0.22620        0.33835        0.32055        0.35598        0.33997        0.35679        0.32687        0.33653        0.34444        0.26251        0.25438        0.31192        0.30293        0.30942        0.31958        0.33892        0.33346        0.29585        0.29112        0.34288        0.32042        0.30808        0.28540        0.32218        0.34379        0.39662        0.34755        0.30893        0.27716        0.30293        0.28288        0.29474        0.26960        0.25877        0.31201        0.33283        0.34339        0.35199        0.32311        0.28525        0.29774        0.26569        0.27028        0.24991        0.31282        0.27313        0.23506        0.30564        0.30270        0.26736        0.29208        0.21051        0.21295        0.24867        0.18889        0.26181        0.33358        0.24605        0.22754        0.31525        0.31644        0.32007        0.31697        0.26099        0.23499        0.18792        0.21630        0.19221        0.23695        0.22387        0.27071        0.33487        0.32011        0.23194        0.13060        0.06562       -0.01636       -0.10013       -0.61093
2.754989 2.725743 2.696657 2.667732 2.638966 2.610360 2.581915 2.553629 2.525504 2.497538 2.469733 2.442087 2.414602 2.387277 2.360112 2.333106 2.306261 2.279576 2.253051 2.226686 2.200481 2.174437 2.148552 2.122827 2.097262 2.071858 2.046613 2.021528 1.996604 1.971839 1.947235 1.922791 1.898506 1.874382 1.850418 1.826614 1.802969 1.779485 1.756161 1.732997 1.709994 1.687150 1.664466 1.641942 1.619578 1.597375 1.575331 1.553447 1.531724 1.510160 1.488757 1.705508 2.125185 1.685360 1.177379 1.043211 0.446172 0.844182 0.561996 0.844300 0.807492 0.815447 0.756354 0.745090 0.591715 0.554214 0.498901 0.428582 0.244142 0.369259 0.199736 0.328108 0.222410 0.203943 0.178478 0.038932 0.012036 0.016408 -0.068371 0.130138 0.228749 0.187217 0.175022 0.327714 0.184403 0.514491 0.618823 0.621726 0.638647 0.873998 0.830241 0.939492 0.924101 1.022501 0.989165 1.077882 1.165728 1.039733 1.153048 0.910415 0.925754 0.791165 0.649075 0.799720 0.697978 0.484057 0.329985 0.250558 0.261724 0.147104 0.127832 0.160037 0.106036 0.125856 0.075689 0.252294 0.357585 0.342526 0.472838 0.545251 0.418238 0.587392 0.725225 0.665700 0.727946 0.708587 0.718168 0.654901 0.598599 0.503396 0.375917 0.277955 0.220364 0.085240 0.119435 -0.097476 -0.045672 -0.060571 -0.075415 -0.018732 0.135523 0.070834 0.242198 0.306762 0.338785 0.387174 0.504139 0.468832 0.479689 0.492189 0.305979 0.291887 0.284181 0.086111 0.042495 -0.071618 -0.010436 -0.061382 -0.092799 -0.082375 0.037594 0.087559 0.123143 0.217282 0.227824 0.234872 0.288811 0.437551 0.393291 0.266868 0.240398 0.225306 0.151049 0.147913 0.118098 0.003368 0.020960 0.073160 0.000391 0.059204 0.143505 0.146783 0.230851 0.246612 0.272956 0.194487 0.220227 0.147282 0.161459 0.122867 0.050844 -0.006426 0.015787 -0.000672 -0.038718 0.066130 0.024288 0.123814 0.153151 0.200844 0.186449 0.151972 0.158785 0.177961 0.127675 0.057072 -0.002406 0.050657 0.032037 -0.021279 0.040493 0.037991 0.059914 0.050618 0.063644 0.063909 0.137943 0.143962 0.054949 0.052517 0.053478 0.016826 -0.022939 0.016809 0.019337 0.006866 0.016056 0.050772 0.060624 0.055109 0.082037 0.056056 0.149163 0.060976 0.032735 0.039197 -0.036015 0.004320 0.041056 0.003038 0.033643 0.050437 0.024663 0.117077 0.028478 0.001554 0.056364 0.004211 0.008959 0.003603 -0.025399 0.021947 0.006637 0.001735 0.052188 0.054703 0.057097 0.032946 0.037835 0.028023 0.018774 -0.020485 -0.026833 0.029626 0.050506 0.079884 0.083902 0.060981 0.074857 0.111311 0.054270 0.108304 0.080910 0.043902 0.033896 0.105969 0.070285 0.116952 0.091590 0.062878 0.122785 0.049556 0.011567 0.090682 -0.032553 -0.011897 0.108411 0.052546 0.154858 0.092964 0.101721 0.050619 0.074246 0.092767 -0.019162 -0.029167 0.056361 0.053735 0.042286 0.036826 0.104653 0.053831 -0.000240 0.056142 0.052652 0.053996 0.053211 -0.016046 0.069285 0.069634 0.131984 0.037796 0.019929 -0.027193 -0.004496 -0.015197 -0.001543 -0.051123 -0.032357 0.007878 0.029836 0.025115 0.038860 -0.000817 -0.043109 -0.038228 -0.026230 -0.074065 -0.060880 -0.015522 0.003276 -0.095030 -0.002308 -0.040323 -0.069871 0.000993 -0.139936 -0.086230 -0.094653 -0.198012 -0.038533 0.055719 -0.054944 -0.156843 0.040203 0.047172 -0.044469 0.051186 -0.067514 0.256674 0.158623 0.224048 0.253316 0.283829 0.242217 0.307008 0.326917 0.366698 0.210690 0.241517 0.083400 -0.022378 -0.668357
0.072396 0.072899 0.074407 0.076920 0.080438 0.084959 0.090483 0.097007 0.104530 0.113049 0.122560 0.133059 0.144541 0.156999 0.170426 0.184813 0.200147 0.216417 0.233608 0.251702 0.270679 0.290516 0.311187 0.332663 0.354911 0.377893 0.401568 0.425890 0.450808 0.476267 0.502204 0.528553 0.555242 0.582190 0.609313 0.636519 0.663710 0.690780 0.717616 0.744102 0.770109 0.795507 0.820156 0.843911 0.866620 0.888127 0.908268 0.926877 0.943784 0.958813 0.971788 0.982532 0.990866 0.996613 0.999597 0.999647 0.996598 0.990290 0.980572 0.967304 0.950359 0.929625 0.905004 0.876420 0.843817 0.807162 0.766448 0.721695 0.672954 0.620306 0.563870 0.503795 0.440272 0.373526 0.303825 0.231476 0.156826 0.080263 0.002215 0.076852 0.156434 0.235992 0.314952 0.392715 0.468654 0.542120 0.612452 0.678976 0.741017 0.797903 0.848975 0.893592 0.931142 0.961054 0.982800 0.995911 0.999983 0.994689 0.979786 0.955126 0.920660 0.876453 0.822683 0.759650 0.687780 0.607628 0.519877 0.425337 0.324945 0.219756 0.110939 0.000238 0.112412 0.224152 0.333960 0.440306 0.541639 0.636414 0.723116 0.800287 0.866552 0.920649 0.961452 0.988003 0.999533 0.995493 0.975569 0.939702 0.888109 0.821286 0.740021 0.645389 0.538751 0.421745 0.296261 0.164424 0.028561 0.108838 0.245156 0.377703 0.503770 0.620679 0.725849 0.816853 0.891484 0.947810 0.984233 0.999547 0.992976 0.964219 0.913481 0.841484 0.749485 0.639259 0.513087 0.373715 0.224313 0.068403 0.090211 0.247533 0.399470 0.541948 0.671015 0.782959 0.874424 0.942520 0.984927 0.999982 0.986763 0.945141 0.875823 0.780360 0.661139 0.521342 0.364878 0.196290 0.020633 0.156662 0.329963 0.493602 0.642072 0.770214 0.873411 0.947766 0.990267 0.998925 0.972887 0.912508 0.819386 0.696346 0.547389 0.377579 0.192896 0.000036 0.193815 0.381244 0.554901 0.707782 0.833533 0.926724 0.983108 0.999837 0.975629 0.910879 0.807700 0.669894 0.502841 0.313325 0.109273 0.100545 0.306897 0.500482 0.672357 0.814362 0.919528 0.982443 0.999562 0.969435 0.892851 0.772868 0.614735 0.425706 0.214742 0.007893 0.231115 0.443556 0.634152 0.792725 0.910557 0.980893 0.999367 0.964310 0.876925 0.741311 0.564320 0.355258 0.125428 0.112438 0.344892 0.558501 0.740650 0.880306 0.968712 0.999980 0.971535 0.884360 0.743046 0.555607 0.333076 0.088912 0.161801 0.403251 0.619909 0.797534 0.924138 0.990842 0.992549 0.928384 0.801878 0.620842 0.396948 0.145041 0.117812 0.373459 0.603907 0.792600 0.925646 0.992883 0.988724 0.912676 0.769511 0.569057 0.325589 0.056873 0.217095 0.475548 0.698531 0.868471 0.971595 0.999124 0.948079 0.821674 0.629210 0.385476 0.109679 0.176005 0.448216 0.684279 0.864156 0.972173 0.998465 0.939958 0.800794 0.592151 0.331430 0.040899 0.254190 0.527743 0.755145 0.915529 0.993732 0.981826 0.880011 0.696787 0.448351 0.157273 0.149511 0.443130 0.695492 0.882020 0.984088 0.990980 0.901114 0.722404 0.471686 0.173249 0.143460 0.446681 0.705516 0.893132 0.989590 0.984075 0.876217 0.676363 0.404713 0.089386 0.236402 0.537809 0.782093 0.942224 0.999956 0.948028 0.791196 0.545966 0.238971 0.095785 0.420668 0.698599 0.897338 0.993300 0.974467 0.842037 0.610548 0.306435 0.034861 0.372955 0.667257 0.881891 0.990133 0.977871 0.845590 0.608602 0.295444 0.055440 0.400318 0.695609 0.903420 0.996500 0.961953 0.803189 0.539783 0.205260 0.157081
1.000000 1.000000 1.000000 1.000000 1.000000 1.000000 1.000000 1.000000 1.000000 1.000000 1.000000 1.000000 1.000000 1.000000 1.000000 1.000000 1.000000 1.000000 1.000000 1.000000 1.000000 1.000000 1.000000 1.000000 1.000000 1.000000 1.000000 1.000000 1.000000 1.000000 1.000000 1.000000 1.000000 1.000000 1.000000 1.000000 1.000000 1.000000 1.000000 1.000000 1.000000 1.000000 1.000000 1.000000 1.000000 1.000000 1.000000 1.000000 1.000000 1.000000 1.000000 1.000000 0.920471 0.920471 0.920471 0.912426 0.912426 0.912426 0.912426 0.912426 0.912426 0.912426 0.912426 0.912426 0.912426 0.912426 0.912426 0.912426 0.912426 0.912426 0.912426 0.912426 0.912426 0.912426 0.912426 0.912426 0.912426 0.912426 0.912426 0.912426 0.912426 0.912426 0.912426 0.912426 0.912426 0.912426 0.912426 0.912426 0.912426 0.912426 0.912426 0.912426 0.912426 0.912426 0.912426 0.912426 0.941552 0.942981 0.951188 0.950800 0.950207 0.948153 0.946967 0.946616 0.946516 0.946846 0.947553 0.948514 0.954756 0.955985 0.960412 0.962078 0.962835 0.963495 0.964169 0.963768 0.955164 0.954951 0.953569 0.953005 0.955531 0.954588 0.953806 0.954774 0.954662 0.955325 0.955251 0.954565 0.953489 0.952400 0.951463 0.951050 0.950844 0.951572 0.951987 0.953455 0.956744 0.957329 0.957461 0.957615 0.957718 0.959005 0.958001 0.957431 0.945460 0.945200 0.944063 0.944151 0.947345 0.947351 0.947927 0.948529 0.950243 0.950592 0.945987 0.944944 0.937098 0.934570 0.931675 0.926175 0.921478 0.923361 0.924939 0.925635 0.926005 0.921027 0.920916 0.918777 0.915349 0.917869 0.917817 0.919146 0.920525 0.918913 0.918313 0.917190 0.915541 0.907902 0.895682 0.894563 0.892755 0.897549 0.898307 0.897283 0.900359 0.888966 0.873504 0.851925 0.854295 0.857599 0.848299 0.844832 0.845051 0.845813 0.849559 0.842206 0.839782 0.835207 0.824971 0.818476 0.812476 0.803778 0.803189 0.794997 0.785571 0.781977 0.806665 0.800433 0.810245 0.814808 0.814379 0.812155 0.806565 0.798458 0.774405 0.774081 0.760103 0.736771 0.737301 0.735998 0.735193 0.732537 0.738333 0.728815 0.726595 0.709331 0.707675 0.712283 0.715919 0.713667 0.713089 0.717924 0.722601 0.705455 0.695417 0.685832 0.690680 0.694003 0.693251 0.696834 0.673552 0.650028 0.633853 0.645431 0.652710 0.627776 0.643240 0.656704 0.631253 0.627925 0.618265 0.620530 0.610019 0.612961 0.611660 0.610924 0.616472 0.630586 0.620346 0.618340 0.628948 0.632323 0.644276 0.643857 0.646489 0.612935 0.614806 0.636355 0.640742 0.624493 0.640774 0.629355 0.642184 0.678906 0.671950 0.638501 0.632853 0.619598 0.580713 0.565747 0.561153 0.570121 0.602736 0.598851 0.574132 0.547298 0.551063 0.561451 0.567271 0.567775 0.551811 0.560914 0.550046 0.526838 0.535176 0.542203 0.540016 0.526494 0.510900 0.512484 0.517530 0.531660 0.529457 0.493037 0.513078 0.508547 0.496295 0.427699 0.441969 0.428723 0.417968 0.375266 0.385877 0.394245 0.378859 0.299792 0.284698 0.285533 0.285314 0.273311 0.252411 0.228481 0.219955 0.184018 0.188468 0.174113 0.148361 0.147246 0.130887 0.121341 0.126493 0.097650 0.150760 0.213150 0.214859 0.214859 0.214859 0.214859 0.214859 0.214859 0.199070 0.199070 0.199070 0.199070 0.199070 0.199070 0.199070 0.199070 0.199070 0.222750 0.222750 0.222750 0.222750 0.222750 0.222750 0.222750 0.222750 0.222750 0.222750 0.222750 0.222750 0.222750 0.222750
0.000000 0.000000 0.000000 0.000000 0.000000 0.000000 0.000000 0.000000 0.000000 0.000000 0.000000 0.000000 0.000000 0.000000 0.000000 0.000000 0.000000 0.000000 0.000000 0.000000 0.000000 0.000000 0.000000 0.000000 0.000000 7.000000 4.000000 0.000000 0.000000 0.000000 0.000000 0.000000 0.000000 0.000000 0.000000 0.000000 0.000000 0.000000 0.000000 0.000000 0.000000 0.000000 0.000000 0.000000 0.000000 0.000000 0.000000 0.000000 0.000000 0.000000 0.000000 0.000000 0.180334 0.180334 0.180334 0.199007 0.199007 0.199007 0.199007 0.199007 0.199007 0.199007 0.199007 0.199007 0.199007 0.199007 0.199007 0.199007 0.199007 0.199007 0.199007 0.199007 0.199007 0.199007 0.199007 0.199007 0.199007 0.199007 0.199007 0.199007 0.199007 0.199007 0.199007 0.199007 0.199007 0.199007 0.199007 0.199007 0.199007 0.199007 0.199007 0.199007 0.199007 0.199007 0.199007 0.199007 0.225018 0.225018 0.225018 0.225018 0.225018 0.225018 0.225018 0.225018 0.225018 0.225018 0.225018 0.225018 0.225018 0.225018 0.225018 0.225018 0.225018 0.225018 0.225018 0.225018 0.225018 0.225018 0.225018 0.225018 0.225018 0.225018 0.225018 0.225018 0.225018 0.244339 0.244339 0.244339 0.244339 0.244339 0.244339 0.244339 0.244339 0.244339 0.244339 0.244339 0.244339 0.244339 0.244339 0.244339 0.244339 0.244339 0.244339 0.244339 0.244339 0.244339 0.244339 0.244339 0.251976 0.251976 0.251976 0.251976 0.251976 0.251976 0.251976 0.251976 0.251976 0.251976 0.251976 0.251976 0.251976 0.251976 0.251976 0.251976 0.251976 0.251976 0.251976 0.251976 0.264906 0.264906 0.264906 0.264906 0.264906 0.264906 0.264906 0.264906 0.264906 0.264906 0.264906 0.264906 0.264906 0.264906 0.264906 0.264906 0.264906 0.264906 0.264906 0.264906 0.264906 0.264906 0.264906 0.264906 0.264906 0.264906 0.264906 0.264906 0.264906 0.264906 0.264906 0.264906 0.264906 0.264906 0.264906 0.264906 0.264906 0.264906 0.264906 0.264906 0.264906 0.264906 0.264906 0.264906 0.264906 0.264906 0.264906 0.264906 0.264906 0.264906 0.264906 0.264906 0.264906 0.264906 0.264906 0.264906 0.264906 0.264906 0.264906 0.264906 0.264906 0.264906 0.256074 0.256074 0.256074 0.256074 0.256074 0.256074 0.256074 0.256074 0.256074 0.256074 0.256074 0.256074 0.256074 0.256074 0.269680 0.269680 0.269680 0.269680 0.269680 0.269680 0.269680 0.269680 0.269680 0.269680 0.269680 0.269680 0.264906 0.264906 0.264906 0.264906 0.264906 0.264906 0.264906 0.264906 0.264906 0.264906 0.264906 0.264906 0.269680 0.269680 0.269680 0.269680 0.269680 0.269680 0.269680 0.269680 0.269680 0.269680 0.269680 0.264906 0.264906 0.264906 0.264906 0.264906 0.264906 0.264906 0.264906 0.264906 0.264906 0.264906 0.256074 0.256074 0.256074 0.256074 0.256074 0.256074 0.256074 0.256074 0.256074 0.256074 0.256074 0.264906 0.264906 0.264906 0.264906 0.264906 0.264906 0.264906 0.264906 0.264906 0.264906 0.260378 0.260378 0.260378 0.260378 0.260378 0.260378 0.260378 0.260378 0.260378 0.260378 0.256074 0.256074 0.256074 0.256074 0.256074 0.256074 0.256074 0.256074 0.256074 0.256074 0.260378 0.260378 0.260378 0.260378 0.260378 0.260378 0.260378 0.260378 0.260378 0.256074 0.256074 0.256074 0.256074 0.256074 0.256074 0.256074 0.256074 0.256074 0.251976 0.251976 0.251976 0.251976 0.251976 0.251976 0.251976 0.251976 0.251976 0.251976 0.251976 0.251976 0.251976 0.251976
