# Output from CTFFind version 4.1.9, run on 2019-11-03 20:07:40
# Input file: stack1_bm3d_averaged_1_10_0_1500_half.mrc ; Number of micrographs: 1
# Pixel size: 3.000 Angstroms ; acceleration voltage: 300.0 keV ; spherical aberration: 0.00 mm ; amplitude contrast: 0.07
# Box size: 512 pixels ; min. res.: 30.0 Angstroms ; max. res.: 5.0 Angstroms ; min. def.: 5000.0 um; max. def. 50000.0 um; num. frames averaged: 1
# 6 lines per micrograph: #1 - spatial frequency (1/Angstroms); #2 - 1D rotational average of spectrum (assuming no astigmatism); #3 - 1D rotational average of spectrum; #4 - CTF fit; #5 - cross-correlation between spectrum and CTF fit; #6 - 2sigma of expected cross correlation of noise
0.000000 0.000651 0.001302 0.001953 0.002604 0.003255 0.003906 0.004557 0.005208 0.005859 0.006510 0.007161 0.007812 0.008464 0.009115 0.009766 0.010417 0.011068 0.011719 0.012370 0.013021 0.013672 0.014323 0.014974 0.015625 0.016276 0.016927 0.017578 0.018229 0.018880 0.019531 0.020182 0.020833 0.021484 0.022135 0.022786 0.023438 0.024089 0.024740 0.025391 0.026042 0.026693 0.027344 0.027995 0.028646 0.029297 0.029948 0.030599 0.031250 0.031901 0.032552 0.033203 0.033854 0.034505 0.035156 0.035807 0.036458 0.037109 0.037760 0.038411 0.039062 0.039714 0.040365 0.041016 0.041667 0.042318 0.042969 0.043620 0.044271 0.044922 0.045573 0.046224 0.046875 0.047526 0.048177 0.048828 0.049479 0.050130 0.050781 0.051432 0.052083 0.052734 0.053385 0.054036 0.054688 0.055339 0.055990 0.056641 0.057292 0.057943 0.058594 0.059245 0.059896 0.060547 0.061198 0.061849 0.062500 0.063151 0.063802 0.064453 0.065104 0.065755 0.066406 0.067057 0.067708 0.068359 0.069010 0.069661 0.070312 0.070964 0.071615 0.072266 0.072917 0.073568 0.074219 0.074870 0.075521 0.076172 0.076823 0.077474 0.078125 0.078776 0.079427 0.080078 0.080729 0.081380 0.082031 0.082682 0.083333 0.083984 0.084635 0.085286 0.085938 0.086589 0.087240 0.087891 0.088542 0.089193 0.089844 0.090495 0.091146 0.091797 0.092448 0.093099 0.093750 0.094401 0.095052 0.095703 0.096354 0.097005 0.097656 0.098307 0.098958 0.099609 0.100260 0.100911 0.101562 0.102214 0.102865 0.103516 0.104167 0.104818 0.105469 0.106120 0.106771 0.107422 0.108073 0.108724 0.109375 0.110026 0.110677 0.111328 0.111979 0.112630 0.113281 0.113932 0.114583 0.115234 0.115885 0.116536 0.117188 0.117839 0.118490 0.119141 0.119792 0.120443 0.121094 0.121745 0.122396 0.123047 0.123698 0.124349 0.125000 0.125651 0.126302 0.126953 0.127604 0.128255 0.128906 0.129557 0.130208 0.130859 0.131510 0.132161 0.132812 0.133464 0.134115 0.134766 0.135417 0.136068 0.136719 0.137370 0.138021 0.138672 0.139323 0.139974 0.140625 0.141276 0.141927 0.142578 0.143229 0.143880 0.144531 0.145182 0.145833 0.146484 0.147135 0.147786 0.148438 0.149089 0.149740 0.150391 0.151042 0.151693 0.152344 0.152995 0.153646 0.154297 0.154948 0.155599 0.156250 0.156901 0.157552 0.158203 0.158854 0.159505 0.160156 0.160807 0.161458 0.162109 0.162760 0.163411 0.164062 0.164714 0.165365 0.166016 0.166667 0.167318 0.167969 0.168620 0.169271 0.169922 0.170573 0.171224 0.171875 0.172526 0.173177 0.173828 0.174479 0.175130 0.175781 0.176432 0.177083 0.177734 0.178385 0.179036 0.179688 0.180339 0.180990 0.181641 0.182292 0.182943 0.183594 0.184245 0.184896 0.185547 0.186198 0.186849 0.187500 0.188151 0.188802 0.189453 0.190104 0.190755 0.191406 0.192057 0.192708 0.193359 0.194010 0.194661 0.195312 0.195964 0.196615 0.197266 0.197917 0.198568 0.199219 0.199870 0.200521 0.201172 0.201823 0.202474 0.203125 0.203776 0.204427 0.205078 0.205729 0.206380 0.207031 0.207682 0.208333 0.208984 0.209635 0.210286 0.210938 0.211589 0.212240 0.212891 0.213542 0.214193 0.214844 0.215495 0.216146 0.216797 0.217448 0.218099 0.218750 0.219401 0.220052 0.220703 0.221354 0.222005 0.222656 0.223307 0.223958 0.224609 0.225260 0.225911 0.226562 0.227214 0.227865 0.228516 0.229167 0.229818 0.230469 0.231120 0.231771 0.232422 0.233073 0.233724 0.234375 0.235026 0.235677
       0.35009        0.35009        0.35009        0.35009        0.35009        0.35009        0.35009        0.35009        0.35009        0.35009        0.35009        0.35009        0.35009        0.35009        0.35009        0.35009        0.35009        0.35009        0.35009        0.35009        0.35009        0.35009        0.35009        0.35009        0.35009        0.35009        0.35009        0.35009        0.35009        0.35009        0.35009        0.35009        0.35009        0.35009        0.35009        0.35009        0.35009        0.35009        0.35009        0.35009        0.35009        0.35009        0.35009        0.35009        0.35009        0.35009        0.35009        0.35009        0.35009        0.35009        0.35009        0.31563        0.41979        0.21606        0.06925        0.01490       -0.24344       -0.10748       -0.11842       -0.20361        0.01147       -0.12942       -0.01129       -0.04608       -0.02991       -0.09596       -0.15449       -0.20854       -0.23581       -0.33848       -0.27043       -0.18271       -0.17851       -0.27673       -0.19366       -0.23033       -0.20077       -0.22653       -0.08697       -0.11061       -0.14652        0.00085        0.07296        0.01189        0.06768        0.07484        0.28057        0.26508        0.34632        0.36672        0.36685        0.40117        0.47746        0.52022        0.51827        0.49158        0.50009        0.52072        0.48983        0.49521        0.41677        0.41846        0.41138        0.37273        0.31412        0.32519        0.32349        0.21308        0.21212        0.15958        0.18231        0.17352        0.16673        0.17359        0.27077        0.34497        0.33465        0.28372        0.41670        0.48538        0.40288        0.49654        0.57682        0.51154        0.50432        0.58463        0.59175        0.43333        0.48535        0.42470        0.35885        0.32839        0.28925        0.26739        0.20832        0.21143        0.19705        0.22598        0.25554        0.28327        0.34557        0.32675        0.40938        0.40807        0.45595        0.51163        0.46075        0.47710        0.42817        0.43705        0.41036        0.35237        0.31288        0.32237        0.32045        0.25728        0.25899        0.26260        0.27067        0.28496        0.32347        0.42993        0.48596        0.42999        0.46428        0.46457        0.42058        0.45939        0.44792        0.41520        0.36772        0.37751        0.35493        0.32770        0.31069        0.29886        0.28163        0.30257        0.32059        0.34176        0.40371        0.37905        0.38336        0.39418        0.37058        0.42730        0.40609        0.36215        0.33428        0.34336        0.32200        0.29379        0.32459        0.33634        0.34325        0.34529        0.32789        0.41173        0.40178        0.40884        0.42751        0.45442        0.40010        0.37355        0.35227        0.34834        0.29754        0.28602        0.33241        0.39717        0.39992        0.35619        0.36627        0.40647        0.39529        0.45827        0.37263        0.39387        0.34897        0.31597        0.30889        0.30937        0.34925        0.35646        0.37479        0.37852        0.33248        0.42489        0.34068        0.34862        0.35910        0.40030        0.37432        0.30177        0.32222        0.27855        0.34442        0.32925        0.34298        0.34842        0.32537        0.36187        0.32874        0.35795        0.35001        0.31817        0.29195        0.31555        0.36084        0.31009        0.30408        0.33331        0.32381        0.33563        0.33678        0.31206        0.30366        0.28436        0.32367        0.33422        0.34430        0.29121        0.31001        0.34609        0.32568        0.30644        0.38808        0.34994        0.29992        0.32619        0.33920        0.32867        0.34241        0.30584        0.33647        0.27621        0.32712        0.38773        0.36399        0.30157        0.33696        0.33087        0.32897        0.34501        0.33950        0.30540        0.28533        0.29526        0.29896        0.36178        0.37183        0.32214        0.36006        0.31666        0.29127        0.27958        0.32898        0.37004        0.30938        0.27463        0.31730        0.35611        0.28436        0.31136        0.31816        0.28910        0.31720        0.33120        0.30425        0.33875        0.31665        0.31680        0.33724        0.35353        0.26503        0.30952        0.37893        0.32291        0.24429        0.29983        0.29523        0.31775        0.27727        0.21708        0.24013        0.32705        0.39707        0.33159        0.27318        0.21164        0.29052        0.29471        0.27140        0.32934        0.31306        0.27444        0.27112        0.26796        0.25901        0.34762        0.23587        0.31343        0.28446        0.27023        0.27128        0.34399        0.22825        0.27724        0.18555        0.30839        0.22683        0.27182        0.22971        0.31606        0.24272        0.28339        0.33966        0.33120        0.21211       -0.13884       -0.20915       -0.58991       -0.64691
2.764518 2.736939 2.709506 2.682219 2.655077 2.628082 2.601233 2.574530 2.547972 2.521561 2.495295 2.469175 2.443202 2.417374 2.391692 2.366156 2.340766 2.315522 2.290424 2.265471 2.240665 2.216005 2.191490 2.167122 2.142899 2.118822 2.094891 2.071107 2.047468 2.023975 2.000628 1.977426 1.954371 1.931462 1.908699 1.886081 1.863610 1.841284 1.819104 1.797071 1.775183 1.753441 1.731845 1.710395 1.689091 1.667933 1.646921 1.626054 1.605334 1.584759 1.564331 1.392883 1.758159 1.365384 0.844836 0.669363 -0.273436 0.432504 0.027185 0.146744 0.529832 0.179444 0.355648 0.346239 0.303105 0.281084 -0.050384 -0.107192 -0.240346 -0.478351 -0.456616 -0.241023 0.037509 -0.514141 -0.238715 -0.384481 -0.123019 -0.480034 -0.052747 -0.187169 -0.204203 0.039349 0.360961 0.095295 0.188475 0.174395 0.843358 0.596042 0.844508 0.982906 0.756552 1.069461 0.973547 1.368794 1.217298 1.092911 1.172695 1.218357 1.162058 1.010435 1.022354 0.879757 0.824825 0.735165 0.772871 0.485988 0.627840 0.425737 0.231203 0.223108 0.120549 0.151285 0.156758 0.070546 0.260796 0.557473 0.460773 0.454211 0.592715 0.759927 0.741430 0.543906 1.113751 0.945060 0.869899 0.958688 1.065197 0.815578 0.563975 0.798437 0.346667 0.455351 0.195498 0.232318 0.054273 0.017140 -0.034521 0.010521 0.160228 0.034561 0.207621 0.414568 0.301770 0.479273 0.482822 0.620593 0.674883 0.581610 0.520368 0.403407 0.448935 0.351135 0.189423 0.178768 0.143038 0.105246 0.085137 -0.073969 -0.024789 0.093941 0.017916 0.300645 0.539350 0.523092 0.365634 0.570595 0.495046 0.429188 0.508573 0.471937 0.315701 0.284893 0.349803 0.101888 0.161015 0.036857 0.163818 0.021811 0.193045 0.102765 0.341357 0.173759 0.275644 0.344241 0.185828 0.448334 0.216054 0.262845 0.158776 0.142305 0.114343 0.068235 0.029248 0.098241 0.162556 0.089158 0.101602 0.155557 0.368489 0.221202 0.295799 0.491933 0.202201 0.345127 0.088886 0.153278 0.099647 -0.079513 0.016832 0.102786 0.324128 0.184843 0.105730 0.229371 0.192999 0.375730 0.305002 0.202423 0.254874 0.031250 0.010804 0.033377 0.073077 0.122922 0.207755 0.183400 0.119013 0.081898 0.298306 0.015171 0.152833 0.148901 0.252883 0.074427 0.041800 -0.022419 -0.032595 0.124823 0.058317 0.125505 0.044598 0.076127 0.104994 0.000242 0.119218 0.079620 -0.077135 -0.016288 -0.037287 0.162151 -0.091393 0.000900 0.041550 -0.035005 0.021787 0.039783 -0.058359 -0.060336 -0.111835 0.040046 0.025559 0.075233 -0.104636 -0.037544 0.038505 0.005677 -0.078537 0.125472 0.000512 -0.101665 -0.044888 0.079117 0.002155 -0.062416 -0.080792 0.069764 -0.237741 0.044456 0.166069 0.037869 -0.049633 0.039367 -0.043175 0.036607 0.059595 0.028025 -0.038625 -0.194569 -0.011731 -0.077638 0.124054 0.058237 -0.012749 0.132157 -0.057641 -0.082422 -0.099225 -0.012100 0.089345 -0.035532 -0.133111 0.073479 0.125715 -0.001358 -0.022376 0.033195 -0.045810 0.012177 0.088383 0.050919 0.097004 0.136933 0.091518 0.195773 0.153707 -0.029819 0.099691 0.200195 0.096264 -0.139021 0.165102 -0.065511 0.178364 -0.087166 -0.161958 -0.137272 0.226334 0.258002 0.095104 -0.247373 -0.305654 -0.037318 -0.207763 -0.160369 0.112950 0.046942 -0.132384 -0.038813 -0.191036 -0.056736 0.213976 -0.206872 0.208462 0.118422 0.176080 0.101874 0.414755 0.123159 0.521793 0.230554 0.512440 0.487184 0.437299 0.449812 0.803613 0.557323 0.711060 0.915665 0.685324 0.994478 -0.845972 -0.506312 -1.612778
0.072396 0.072904 0.074427 0.076966 0.080520 0.085087 0.090666 0.097257 0.104856 0.113460 0.123067 0.133672 0.145269 0.157852 0.171413 0.185942 0.201429 0.217859 0.235217 0.253486 0.272646 0.292671 0.313536 0.335211 0.357661 0.380848 0.404729 0.429257 0.454380 0.480041 0.506176 0.532715 0.559586 0.586705 0.613986 0.641334 0.668649 0.695821 0.722735 0.749271 0.775299 0.800683 0.825280 0.848942 0.871514 0.892835 0.912739 0.931055 0.947610 0.962225 0.974722 0.984919 0.992635 0.997690 0.999909 0.999118 0.995150 0.987846 0.977055 0.962640 0.944475 0.922450 0.896474 0.866475 0.832402 0.794230 0.751962 0.705629 0.655290 0.601043 0.543017 0.481380 0.416336 0.348131 0.277051 0.203423 0.127614 0.050033 0.028869 0.108604 0.188645 0.268431 0.347369 0.424838 0.500192 0.572766 0.641882 0.706856 0.767001 0.821641 0.870113 0.911780 0.946038 0.972325 0.990133 0.999017 0.998601 0.988593 0.968794 0.939100 0.899521 0.850177 0.791312 0.723297 0.646631 0.561945 0.470002 0.371693 0.268036 0.160163 0.049320 0.063152 0.175829 0.287216 0.395772 0.499929 0.598112 0.688768 0.770389 0.841543 0.900898 0.947252 0.979565 0.996979 0.998847 0.984759 0.954558 0.908359 0.846564 0.769866 0.679254 0.576014 0.461710 0.338181 0.207507 0.071987 0.065898 0.203527 0.338188 0.467128 0.587616 0.696993 0.792746 0.872563 0.934398 0.976533 0.997628 0.996777 0.973547 0.928012 0.860774 0.772976 0.666295 0.542929 0.405563 0.257322 0.101711 0.057463 0.216174 0.370281 0.515635 0.648189 0.764121 0.859949 0.932646 0.979750 0.999454 0.990695 0.953212 0.887590 0.795278 0.678580 0.540616 0.385264 0.217057 0.041075 0.137210 0.312093 0.477812 0.628752 0.759636 0.865715 0.942962 0.988239 0.999444 0.975622 0.917052 0.825276 0.703094 0.554505 0.384604 0.199425 0.005747 0.189152 0.377745 0.552568 0.706500 0.833083 0.926798 0.983330 0.999793 0.974902 0.909080 0.804505 0.665076 0.496298 0.305102 0.099578 0.111344 0.318280 0.511793 0.682843 0.823209 0.925916 0.985600 0.998822 0.964302 0.883042 0.758365 0.595814 0.402949 0.189033 0.035392 0.259009 0.470283 0.658064 0.812190 0.924059 0.987141 0.997397 0.953579 0.857383 0.713443 0.529167 0.314396 0.080915 0.158166 0.389130 0.598446 0.773567 0.903712 0.980558 0.998827 0.956685 0.855963 0.702147 0.504143 0.273810 0.025291 0.225816 0.463441 0.672059 0.837732 0.949068 0.998056 0.980693 0.897369 0.752960 0.556616 0.321248 0.062731 0.201143 0.451852 0.671458 0.843906 0.956247 0.999648 0.970164 0.869149 0.703306 0.484309 0.228070 0.046389 0.318286 0.566667 0.772019 0.917831 0.991994 0.987859 0.904916 0.748990 0.531926 0.270769 0.013509 0.297652 0.557997 0.772473 0.922497 0.994648 0.981946 0.884611 0.710220 0.473221 0.193824 0.103660 0.392884 0.647811 0.845054 0.966093 0.999082 0.940105 0.793725 0.572749 0.297228 0.007301 0.312103 0.587958 0.807955 0.950188 0.999996 0.951594 0.808830 0.585037 0.301889 0.012597 0.326773 0.608524 0.828557 0.963524 0.998573 0.929101 0.761468 0.512553 0.208184 0.119452 0.435154 0.704489 0.897565 0.992439 0.977718 0.854057 0.634336 0.342470 0.010925 0.322828 0.620494 0.847391 0.976537 0.991989 0.890936 0.684304 0.395748 0.059058 0.285677 0.596823 0.836233 0.973995 0.992282 0.887815 0.672558 0.372523 0.024771 0.327070 0.638225 0.868515 0.987611 0.979168 0.843229 0.596537 0.270656 0.091907 0.443212 0.736131
1.000000 1.000000 1.000000 1.000000 1.000000 1.000000 1.000000 1.000000 1.000000 1.000000 1.000000 1.000000 1.000000 1.000000 1.000000 1.000000 1.000000 1.000000 1.000000 1.000000 1.000000 1.000000 1.000000 1.000000 1.000000 1.000000 1.000000 1.000000 1.000000 1.000000 1.000000 1.000000 1.000000 1.000000 1.000000 1.000000 1.000000 1.000000 1.000000 1.000000 1.000000 1.000000 1.000000 1.000000 1.000000 1.000000 1.000000 1.000000 1.000000 1.000000 1.000000 1.000000 0.791829 0.791829 0.791829 0.751925 0.751925 0.751925 0.751925 0.751925 0.751925 0.751925 0.751925 0.751925 0.751925 0.751925 0.751925 0.751925 0.751925 0.751925 0.751925 0.751925 0.751925 0.751925 0.751925 0.751925 0.751925 0.751925 0.751925 0.751925 0.751925 0.751925 0.751925 0.751925 0.751925 0.751925 0.751925 0.751925 0.751925 0.751925 0.751925 0.751925 0.751925 0.751925 0.751925 0.751925 0.802197 0.811193 0.815946 0.824303 0.826155 0.824580 0.822132 0.820964 0.821419 0.822116 0.829493 0.851067 0.862411 0.865154 0.877139 0.880961 0.884284 0.883225 0.906337 0.905243 0.954167 0.953212 0.952935 0.953823 0.960822 0.961780 0.960809 0.959128 0.964299 0.965051 0.963500 0.960949 0.960165 0.957541 0.957077 0.954265 0.954317 0.955140 0.954067 0.954601 0.955017 0.954690 0.952449 0.950124 0.947855 0.947091 0.950173 0.937006 0.933939 0.924519 0.920694 0.929722 0.925031 0.921981 0.920634 0.922102 0.914815 0.881341 0.881303 0.861523 0.854208 0.840274 0.833389 0.833181 0.838103 0.847290 0.851333 0.853554 0.846063 0.833798 0.818146 0.826999 0.811051 0.796873 0.801677 0.788561 0.782103 0.783197 0.769928 0.765235 0.753574 0.748457 0.746551 0.756569 0.760845 0.762242 0.755276 0.754565 0.741086 0.730270 0.708113 0.708141 0.716607 0.711208 0.712931 0.708673 0.710002 0.717076 0.714132 0.705792 0.692890 0.685014 0.670687 0.644336 0.655568 0.628125 0.623545 0.626163 0.599907 0.628314 0.627327 0.669683 0.683493 0.686360 0.682327 0.676709 0.654857 0.670577 0.671015 0.660979 0.662311 0.664241 0.661618 0.658828 0.650790 0.551201 0.544305 0.543067 0.544535 0.532064 0.546360 0.548132 0.536899 0.524898 0.506765 0.467298 0.407727 0.343922 0.349345 0.345862 0.326668 0.317025 0.308461 0.340321 0.345560 0.349592 0.301520 0.267169 0.262170 0.235044 0.224803 0.190953 0.200979 0.229663 0.222383 0.192919 0.160053 0.152882 0.132033 0.138225 0.140225 0.108285 0.138613 0.102040 0.091188 0.062862 0.082649 0.069547 0.021718 -0.074015 -0.038890 -0.040678 -0.005227 -0.009542 -0.032434 0.010891 -0.009621 -0.040545 -0.043462 -0.065732 -0.104265 -0.047907 -0.048992 -0.069653 -0.054176 -0.062833 -0.043205 -0.048084 -0.067147 -0.082430 -0.102850 -0.078371 -0.065122 -0.008551 -0.009875 -0.006656 -0.049956 -0.041223 -0.040926 -0.079597 -0.054094 0.000441 0.015948 0.014916 0.009559 0.026569 0.049850 0.049212 0.064008 0.049816 0.047985 0.027858 0.049571 0.041088 0.019733 0.021160 0.034668 0.038565 0.061320 0.051783 0.057893 0.079790 0.049435 0.063366 0.075018 0.061175 0.073452 0.068864 0.115236 0.076305 0.049872 0.046359 0.053135 0.035027 0.066737 0.122892 0.142602 0.115446 0.112928 0.112928 0.112928 0.112928 0.115210 0.115210 0.115210 0.115210 0.115210 0.115210 0.115210 0.115210 0.115210 0.090083 0.090083 0.090083 0.090083 0.090083 0.090083 0.090083 0.090083 0.090083 0.090083 0.090083 0.090083 0.090083 0.090083 0.090083 0.090083
0.000000 0.000000 0.000000 0.000000 0.000000 0.000000 0.000000 0.000000 0.000000 0.000000 0.000000 0.000000 0.000000 0.000000 0.000000 0.000000 0.000000 0.000000 0.000000 0.000000 0.000000 0.000000 0.000000 0.000000 0.000000 0.000000 0.000000 0.000000 0.000000 0.000000 0.000000 0.000000 0.000000 0.000000 0.000000 0.000000 0.000000 0.000000 0.000000 0.000000 0.000000 0.000000 0.000000 0.000000 0.000000 0.000000 0.000000 0.000000 0.000000 0.000000 0.000000 0.000000 0.180334 0.180334 0.180334 0.199007 0.199007 0.199007 0.199007 0.199007 0.199007 0.199007 0.199007 0.199007 0.199007 0.199007 0.199007 0.199007 0.199007 0.199007 0.199007 0.199007 0.199007 0.199007 0.199007 0.199007 0.199007 0.199007 0.199007 0.199007 0.199007 0.199007 0.199007 0.199007 0.199007 0.199007 0.199007 0.199007 0.199007 0.199007 0.199007 0.199007 0.199007 0.199007 0.199007 0.199007 0.230940 0.230940 0.230940 0.230940 0.230940 0.230940 0.230940 0.230940 0.230940 0.230940 0.230940 0.230940 0.230940 0.230940 0.230940 0.230940 0.230940 0.230940 0.230940 0.230940 0.230940 0.230940 0.230940 0.230940 0.230940 0.230940 0.230940 0.230940 0.244339 0.244339 0.244339 0.244339 0.244339 0.244339 0.244339 0.244339 0.244339 0.244339 0.244339 0.244339 0.244339 0.244339 0.244339 0.244339 0.244339 0.244339 0.244339 0.244339 0.244339 0.244339 0.244339 0.251976 0.251976 0.251976 0.251976 0.251976 0.251976 0.251976 0.251976 0.251976 0.251976 0.251976 0.251976 0.251976 0.251976 0.251976 0.251976 0.251976 0.251976 0.251976 0.251976 0.264906 0.264906 0.264906 0.264906 0.264906 0.264906 0.264906 0.264906 0.264906 0.264906 0.264906 0.264906 0.264906 0.264906 0.264906 0.264906 0.264906 0.264906 0.264906 0.264906 0.264906 0.264906 0.264906 0.264906 0.264906 0.264906 0.264906 0.264906 0.264906 0.264906 0.264906 0.264906 0.264906 0.264906 0.264906 0.264906 0.264906 0.264906 0.264906 0.264906 0.264906 0.264906 0.264906 0.264906 0.264906 0.264906 0.264906 0.264906 0.264906 0.264906 0.264906 0.264906 0.264906 0.264906 0.264906 0.264906 0.264906 0.264906 0.264906 0.264906 0.264906 0.264906 0.264906 0.264906 0.264906 0.264906 0.264906 0.264906 0.264906 0.264906 0.264906 0.264906 0.264906 0.264906 0.264906 0.260378 0.260378 0.260378 0.260378 0.260378 0.260378 0.260378 0.260378 0.260378 0.260378 0.260378 0.260378 0.260378 0.264906 0.264906 0.264906 0.264906 0.264906 0.264906 0.264906 0.264906 0.264906 0.264906 0.264906 0.264906 0.269680 0.269680 0.269680 0.269680 0.269680 0.269680 0.269680 0.269680 0.269680 0.269680 0.269680 0.264906 0.264906 0.264906 0.264906 0.264906 0.264906 0.264906 0.264906 0.264906 0.264906 0.264906 0.269680 0.269680 0.269680 0.269680 0.269680 0.269680 0.269680 0.269680 0.269680 0.269680 0.251976 0.251976 0.251976 0.251976 0.251976 0.251976 0.251976 0.251976 0.251976 0.251976 0.251976 0.269680 0.269680 0.269680 0.269680 0.269680 0.269680 0.269680 0.269680 0.269680 0.256074 0.256074 0.256074 0.256074 0.256074 0.256074 0.256074 0.256074 0.256074 0.256074 0.260378 0.260378 0.260378 0.260378 0.260378 0.260378 0.260378 0.260378 0.260378 0.256074 0.256074 0.256074 0.256074 0.256074 0.256074 0.256074 0.256074 0.256074 0.251976 0.251976 0.251976 0.251976 0.251976 0.251976 0.251976 0.251976 0.251976 0.251976 0.251976 0.251976 0.251976 0.251976 0.251976 0.251976
