# Output from CTFFind version 4.1.9, run on 2019-11-03 20:04:24
# Input file: stack16_bm3d_averaged_1_6.5_0_250_half.mrc ; Number of micrographs: 1
# Pixel size: 3.000 Angstroms ; acceleration voltage: 300.0 keV ; spherical aberration: 0.00 mm ; amplitude contrast: 0.07
# Box size: 512 pixels ; min. res.: 30.0 Angstroms ; max. res.: 5.0 Angstroms ; min. def.: 5000.0 um; max. def. 50000.0 um; num. frames averaged: 1
# 6 lines per micrograph: #1 - spatial frequency (1/Angstroms); #2 - 1D rotational average of spectrum (assuming no astigmatism); #3 - 1D rotational average of spectrum; #4 - CTF fit; #5 - cross-correlation between spectrum and CTF fit; #6 - 2sigma of expected cross correlation of noise
0.000000 0.000651 0.001302 0.001953 0.002604 0.003255 0.003906 0.004557 0.005208 0.005859 0.006510 0.007161 0.007812 0.008464 0.009115 0.009766 0.010417 0.011068 0.011719 0.012370 0.013021 0.013672 0.014323 0.014974 0.015625 0.016276 0.016927 0.017578 0.018229 0.018880 0.019531 0.020182 0.020833 0.021484 0.022135 0.022786 0.023438 0.024089 0.024740 0.025391 0.026042 0.026693 0.027344 0.027995 0.028646 0.029297 0.029948 0.030599 0.031250 0.031901 0.032552 0.033203 0.033854 0.034505 0.035156 0.035807 0.036458 0.037109 0.037760 0.038411 0.039062 0.039714 0.040365 0.041016 0.041667 0.042318 0.042969 0.043620 0.044271 0.044922 0.045573 0.046224 0.046875 0.047526 0.048177 0.048828 0.049479 0.050130 0.050781 0.051432 0.052083 0.052734 0.053385 0.054036 0.054688 0.055339 0.055990 0.056641 0.057292 0.057943 0.058594 0.059245 0.059896 0.060547 0.061198 0.061849 0.062500 0.063151 0.063802 0.064453 0.065104 0.065755 0.066406 0.067057 0.067708 0.068359 0.069010 0.069661 0.070312 0.070964 0.071615 0.072266 0.072917 0.073568 0.074219 0.074870 0.075521 0.076172 0.076823 0.077474 0.078125 0.078776 0.079427 0.080078 0.080729 0.081380 0.082031 0.082682 0.083333 0.083984 0.084635 0.085286 0.085938 0.086589 0.087240 0.087891 0.088542 0.089193 0.089844 0.090495 0.091146 0.091797 0.092448 0.093099 0.093750 0.094401 0.095052 0.095703 0.096354 0.097005 0.097656 0.098307 0.098958 0.099609 0.100260 0.100911 0.101562 0.102214 0.102865 0.103516 0.104167 0.104818 0.105469 0.106120 0.106771 0.107422 0.108073 0.108724 0.109375 0.110026 0.110677 0.111328 0.111979 0.112630 0.113281 0.113932 0.114583 0.115234 0.115885 0.116536 0.117188 0.117839 0.118490 0.119141 0.119792 0.120443 0.121094 0.121745 0.122396 0.123047 0.123698 0.124349 0.125000 0.125651 0.126302 0.126953 0.127604 0.128255 0.128906 0.129557 0.130208 0.130859 0.131510 0.132161 0.132812 0.133464 0.134115 0.134766 0.135417 0.136068 0.136719 0.137370 0.138021 0.138672 0.139323 0.139974 0.140625 0.141276 0.141927 0.142578 0.143229 0.143880 0.144531 0.145182 0.145833 0.146484 0.147135 0.147786 0.148438 0.149089 0.149740 0.150391 0.151042 0.151693 0.152344 0.152995 0.153646 0.154297 0.154948 0.155599 0.156250 0.156901 0.157552 0.158203 0.158854 0.159505 0.160156 0.160807 0.161458 0.162109 0.162760 0.163411 0.164062 0.164714 0.165365 0.166016 0.166667 0.167318 0.167969 0.168620 0.169271 0.169922 0.170573 0.171224 0.171875 0.172526 0.173177 0.173828 0.174479 0.175130 0.175781 0.176432 0.177083 0.177734 0.178385 0.179036 0.179688 0.180339 0.180990 0.181641 0.182292 0.182943 0.183594 0.184245 0.184896 0.185547 0.186198 0.186849 0.187500 0.188151 0.188802 0.189453 0.190104 0.190755 0.191406 0.192057 0.192708 0.193359 0.194010 0.194661 0.195312 0.195964 0.196615 0.197266 0.197917 0.198568 0.199219 0.199870 0.200521 0.201172 0.201823 0.202474 0.203125 0.203776 0.204427 0.205078 0.205729 0.206380 0.207031 0.207682 0.208333 0.208984 0.209635 0.210286 0.210938 0.211589 0.212240 0.212891 0.213542 0.214193 0.214844 0.215495 0.216146 0.216797 0.217448 0.218099 0.218750 0.219401 0.220052 0.220703 0.221354 0.222005 0.222656 0.223307 0.223958 0.224609 0.225260 0.225911 0.226562 0.227214 0.227865 0.228516 0.229167 0.229818 0.230469 0.231120 0.231771 0.232422 0.233073 0.233724 0.234375 0.235026 0.235677
       0.35338        0.35338        0.35338        0.35338        0.35338        0.35338        0.35338        0.35338        0.35338        0.35338        0.35338        0.35338        0.35338        0.35338        0.35338        0.35338        0.35338        0.35338        0.35338        0.35338        0.35338        0.35338        0.35338        0.35338        0.35338        0.35338        0.35338        0.35338        0.35338        0.35338        0.35338        0.35338        0.35338        0.35338        0.35338        0.35338        0.35338        0.35338        0.35338        0.35338        0.35338        0.35338        0.35338        0.35338        0.35338        0.35338        0.35338        0.35338        0.35338        0.35338        0.35338        0.43173        0.55771        0.34394       -0.21559       -0.44930       -0.54062       -0.64306       -0.71133       -0.71705       -0.81003       -0.88534       -0.67592       -0.82996       -0.81461       -0.95549       -0.99496       -0.87647       -0.83536       -0.79408       -0.70488       -0.63598       -0.54641       -0.45341       -0.38942       -0.16125       -0.05941        0.04450        0.26521        0.26185        0.31993        0.37381        0.40606        0.52737        0.54102        0.57621        0.53478        0.47636        0.50802        0.53292        0.45665        0.33556        0.22092        0.18705        0.11590        0.01876        0.00259       -0.00693        0.06430        0.03092        0.08243        0.05527        0.17215        0.20130        0.41172        0.46225        0.55017        0.65875        0.68644        0.71412        0.64079        0.61297        0.54719        0.44480        0.39214        0.28417        0.22417        0.22067        0.10867        0.12021        0.12180        0.09390        0.10192        0.30880        0.42086        0.52850        0.53544        0.56956        0.60798        0.58851        0.57289        0.58578        0.57005        0.47126        0.31231        0.27103        0.26257        0.16013        0.09860        0.17677        0.21835        0.29250        0.35722        0.43033        0.47641        0.53351        0.60398        0.54872        0.50702        0.50842        0.35939        0.28555        0.26719        0.18223        0.20938        0.24546        0.28302        0.28839        0.33455        0.43393        0.46763        0.50079        0.45505        0.44463        0.49103        0.39979        0.33282        0.29235        0.26703        0.23962        0.23181        0.24333        0.34303        0.45146        0.43780        0.49049        0.55598        0.45427        0.41654        0.35985        0.32257        0.27907        0.28767        0.27522        0.29419        0.36002        0.36703        0.44332        0.47503        0.44409        0.46663        0.38289        0.38250        0.35683        0.27791        0.25923        0.25714        0.34043        0.38385        0.36775        0.39291        0.43550        0.44635        0.38515        0.34187        0.32671        0.35720        0.32112        0.28891        0.29322        0.36242        0.37942        0.39781        0.39166        0.39629        0.42466        0.41100        0.32971        0.29414        0.31791        0.34567        0.38743        0.36570        0.40698        0.34923        0.37381        0.39640        0.34462        0.35857        0.32585        0.30659        0.34176        0.34996        0.33462        0.36435        0.38074        0.33334        0.35266        0.32659        0.32155        0.30402        0.32575        0.32740        0.33134        0.37080        0.37886        0.36256        0.31367        0.30646        0.29165        0.33589        0.31939        0.31991        0.37559        0.36120        0.34547        0.32096        0.31033        0.31116        0.28220        0.32369        0.33769        0.34939        0.37543        0.35776        0.32108        0.34245        0.35925        0.33997        0.35968        0.35137        0.31929        0.33750        0.29631        0.32440        0.30350        0.31935        0.28987        0.32502        0.35353        0.33220        0.35997        0.31899        0.33818        0.35869        0.34595        0.32316        0.33164        0.37060        0.34999        0.35115        0.33446        0.31594        0.32421        0.32017        0.33080        0.32805        0.36526        0.33616        0.33745        0.29899        0.29577        0.27373        0.27920        0.36709        0.31657        0.33946        0.29980        0.26732        0.27829        0.36756        0.31240        0.28864        0.32447        0.32148        0.29802        0.26350        0.30523        0.27316        0.30317        0.31162        0.34568        0.33921        0.32487        0.31844        0.27042        0.28475        0.28162        0.28414        0.30196        0.36414        0.30287        0.20786        0.30791        0.30046        0.33563        0.26597        0.29832        0.29046        0.33381        0.28914        0.27679        0.27315        0.25035        0.31193        0.34045        0.33166        0.25736        0.31477        0.26532        0.24156        0.22385        0.33029        0.25641        0.16347        0.11380        0.20347        0.34608        0.25384        0.19202        0.13814       -0.42264       -0.53657
3.222740 3.181750 3.141026 3.100568 3.060377 3.020452 2.980793 2.941401 2.902275 2.863416 2.824822 2.786496 2.748435 2.710641 2.673114 2.635852 2.598857 2.562128 2.525666 2.489470 2.453541 2.417877 2.382481 2.347350 2.312486 2.277888 2.243557 2.209492 2.175693 2.142160 2.108894 2.075895 2.043161 2.010695 1.978494 1.946560 1.914892 1.883490 1.852355 1.821486 1.790884 1.760548 1.730478 1.700675 1.671138 1.641867 1.612862 1.584124 1.555653 1.527448 1.499509 1.535287 1.607070 1.547575 0.843541 0.599165 0.460586 0.390845 0.294417 0.221490 0.189531 -0.048551 0.210544 0.076623 -0.028153 -0.105556 -0.236801 -0.142765 -0.051691 -0.093639 -0.071802 0.038087 0.037602 0.231607 0.108751 0.357877 0.463675 0.496751 0.772424 0.683485 0.696938 0.823065 0.795636 0.843524 0.923136 0.851851 0.886125 0.724939 0.785156 0.844492 0.689165 0.604441 0.433478 0.427405 0.329887 0.191247 0.186847 0.113361 0.207782 0.119170 0.207060 0.104157 0.214490 0.227023 0.436192 0.399162 0.568294 0.606442 0.628805 0.716175 0.602564 0.572371 0.456988 0.408661 0.284707 0.259531 0.090208 0.149721 -0.030959 0.034943 -0.031233 -0.045197 -0.060595 0.023199 0.260066 0.289293 0.353931 0.293194 0.377597 0.386371 0.409088 0.390060 0.353103 0.323613 0.118011 0.070282 0.060627 -0.023940 -0.153642 -0.056626 -0.066256 0.034025 0.073298 0.145690 0.209385 0.220520 0.313241 0.400974 0.279467 0.359276 0.226132 0.140966 0.063635 0.033086 0.000074 0.051225 0.068586 0.092191 0.116946 0.169579 0.236792 0.302934 0.265444 0.207238 0.250661 0.224611 0.108227 0.056346 0.053703 0.024558 0.005446 -0.024956 0.028902 0.166670 0.192934 0.188108 0.295326 0.186113 0.194146 0.071458 0.064440 0.012872 -0.007016 -0.003874 -0.011394 0.044665 0.072136 0.098966 0.156580 0.139363 0.221697 0.136575 0.077058 0.098258 0.041172 -0.049983 -0.019806 0.026939 0.067347 0.072264 0.065080 0.150672 0.115237 0.152428 0.036697 0.047196 0.045415 0.046158 0.027479 -0.020332 0.040429 0.049837 0.091584 0.099882 0.086647 0.112404 0.123833 0.080157 0.011858 -0.009740 0.022117 0.074982 0.073677 0.088985 0.084128 0.053318 0.102874 0.066091 0.041525 0.076514 -0.013122 0.011871 0.065796 0.039446 0.044058 0.068486 0.079384 0.048511 0.066017 0.016529 0.019495 0.008375 0.054774 0.012936 0.040106 0.070956 0.078615 0.043910 -0.005190 -0.002535 -0.019241 0.043321 0.000940 0.012425 0.073175 0.046326 0.002721 0.011366 -0.016841 0.005637 -0.039404 0.008100 0.016468 0.044426 0.045333 0.028505 -0.004547 0.005128 0.035645 0.008176 0.036804 0.012044 -0.015823 0.016851 -0.044630 -0.028838 -0.054804 -0.012403 -0.066273 0.006580 0.009702 -0.005661 -0.010239 -0.005170 -0.001988 0.027377 0.013811 -0.013082 0.009091 0.026691 0.034172 0.027263 0.006052 0.012949 0.005995 -0.005793 0.016750 -0.006932 0.092889 0.036522 0.026933 0.002316 -0.008472 -0.030944 0.003034 0.080199 -0.003428 0.056131 -0.023260 -0.025269 -0.023637 0.093615 0.003602 -0.024758 0.062956 0.051727 0.006008 0.001883 0.017706 0.003446 0.040361 0.038214 0.090830 0.052205 0.051106 0.044143 -0.007846 0.018509 -0.003027 -0.005343 0.015234 0.092531 -0.011277 -0.087646 0.041412 -0.001877 0.074461 -0.050590 -0.007594 -0.003919 0.020219 -0.002493 -0.026031 -0.018144 -0.068257 0.046942 0.044819 0.053001 -0.118027 0.027142 0.015881 -0.004413 -0.091028 0.102685 0.023947 -0.048653 -0.118393 0.185872 0.301564 0.193658 0.133512 0.139747 -0.514401
0.072396 0.073047 0.074998 0.078249 0.082800 0.088648 0.095792 0.104228 0.113952 0.124960 0.137245 0.150798 0.165610 0.181667 0.198954 0.217454 0.237142 0.257994 0.279979 0.303062 0.327201 0.352349 0.378453 0.405453 0.433279 0.461855 0.491096 0.520908 0.551186 0.581817 0.612675 0.643625 0.674519 0.705201 0.735500 0.765235 0.794214 0.822233 0.849078 0.874526 0.898342 0.920285 0.940106 0.957550 0.972357 0.984265 0.993013 0.998340 0.999991 0.997716 0.991279 0.980454 0.965036 0.944838 0.919700 0.889489 0.854107 0.813492 0.767626 0.716534 0.660293 0.599033 0.532941 0.462264 0.387315 0.308469 0.226171 0.140932 0.053330 0.035989 0.126314 0.216875 0.306846 0.395348 0.481460 0.564228 0.642672 0.715799 0.782617 0.842148 0.893443 0.935601 0.967782 0.989227 0.999278 0.997393 0.983166 0.956342 0.916835 0.864744 0.800361 0.724183 0.636919 0.539496 0.433053 0.318940 0.198709 0.074098 0.052989 0.180502 0.306282 0.428089 0.543645 0.650677 0.746962 0.830381 0.898967 0.950960 0.984857 0.999465 0.993944 0.967853 0.921182 0.854383 0.768385 0.664601 0.544926 0.411718 0.267763 0.116236 0.039367 0.195294 0.347630 0.492388 0.625619 0.743523 0.842564 0.919589 0.971940 0.997562 0.995095 0.963955 0.904395 0.817540 0.705401 0.570855 0.417598 0.250067 0.073328 0.107060 0.285214 0.455112 0.610801 0.746608 0.857366 0.938623 0.986844 0.999588 0.975656 0.915194 0.819753 0.692297 0.537146 0.359870 0.167115 0.033621 0.234264 0.426482 0.602033 0.753120 0.872767 0.955160 0.995959 0.992564 0.944312 0.852590 0.720861 0.554582 0.361031 0.149025 0.071453 0.289701 0.494813 0.676228 0.824288 0.930788 0.989461 0.996397 0.950348 0.852900 0.708503 0.524332 0.309988 0.077052 0.161520 0.392081 0.601086 0.775893 0.905563 0.981584 0.998489 0.954308 0.850819 0.693578 0.491702 0.257405 0.005325 0.248364 0.486962 0.694362 0.856144 0.960639 0.999826 0.970022 0.872295 0.712549 0.501274 0.252933 0.014953 0.283000 0.531349 0.741142 0.895988 0.983310 0.995440 0.930389 0.792181 0.590735 0.341266 0.063210 0.221220 0.488776 0.717085 0.886554 0.982113 0.994657 0.922009 0.769329 0.548894 0.279221 0.016375 0.311757 0.580229 0.796984 0.941436 0.999276 0.964002 0.837762 0.631415 0.363737 0.059836 0.251121 0.538665 0.774023 0.933046 0.998796 0.963463 0.829443 0.609375 0.325108 0.005679 0.315585 0.604496 0.829658 0.965968 0.997528 0.919650 0.739689 0.476548 0.158863 0.178000 0.495797 0.757748 0.932855 0.999692 0.949177 0.785988 0.528360 0.206250 0.142009 0.474175 0.749209 0.932407 0.999897 0.941945 0.764534 0.489010 0.149721 0.210105 0.543801 0.807288 0.964995 0.994821 0.891427 0.667382 0.351883 0.012824 0.376981 0.690044 0.907742 0.998471 0.948088 0.762349 0.466560 0.102378 0.277883 0.618665 0.869305 0.991699 0.966281 0.795422 0.503575 0.134050 0.257202 0.609964 0.869013 0.992916 0.960861 0.776435 0.467610 0.082777 0.316603 0.665728 0.906995 0.999668 0.927001 0.699573 0.354098 0.052173 0.450788 0.773537 0.964214 0.988616 0.840981 0.545613 0.153235 0.267446 0.641637 0.901759 0.999829 0.916595 0.665655 0.291659 0.137320 0.541960 0.846349 0.992313 0.950842 0.728208 0.365498 0.068626 0.490641 0.818205 0.986293 0.960415 0.744059 0.378761 0.063481 0.494102 0.825667 0.989719 0.951207 0.716399 0.332380 0.121975 0.551940 0.866628 0.998355 0.917539 0.639784 0.223384 0.242511 0.656746
1.000000 1.000000 1.000000 1.000000 1.000000 1.000000 1.000000 1.000000 1.000000 1.000000 1.000000 1.000000 1.000000 1.000000 1.000000 1.000000 1.000000 1.000000 1.000000 1.000000 1.000000 1.000000 1.000000 1.000000 1.000000 1.000000 1.000000 1.000000 1.000000 1.000000 1.000000 1.000000 1.000000 1.000000 1.000000 1.000000 1.000000 1.000000 1.000000 1.000000 1.000000 1.000000 1.000000 1.000000 1.000000 1.000000 1.000000 1.000000 1.000000 1.000000 1.000000 1.000000 0.923143 0.923143 0.923143 0.923143 0.923143 0.923143 0.923143 0.923143 0.923143 0.923143 0.923143 0.923143 0.923143 0.923143 0.923143 0.923143 0.923143 0.923143 0.923143 0.923143 0.923143 0.923143 0.923143 0.923143 0.923143 0.923143 0.923143 0.923143 0.923143 0.923143 0.923143 0.923143 0.923143 0.913268 0.911376 0.912530 0.911076 0.909631 0.909042 0.908648 0.909688 0.911289 0.913366 0.935007 0.938110 0.939354 0.940681 0.942055 0.944343 0.942179 0.949745 0.956248 0.955182 0.956317 0.950138 0.951555 0.950893 0.950151 0.951501 0.951639 0.949937 0.947911 0.946208 0.945637 0.945405 0.949059 0.949550 0.949703 0.950298 0.950242 0.950959 0.951559 0.949697 0.951957 0.944057 0.942721 0.947989 0.945896 0.947264 0.947225 0.947913 0.948716 0.949035 0.949303 0.946161 0.945665 0.944686 0.937740 0.930689 0.930883 0.933050 0.935862 0.933189 0.930430 0.931730 0.933621 0.932773 0.936157 0.927233 0.923041 0.896589 0.883003 0.873671 0.873855 0.877868 0.880529 0.878267 0.872207 0.863572 0.860045 0.859462 0.855797 0.847482 0.862808 0.857063 0.853659 0.857235 0.860469 0.865805 0.863912 0.859723 0.854895 0.849955 0.839725 0.840991 0.844070 0.848290 0.830908 0.820039 0.836679 0.828409 0.819183 0.826964 0.828878 0.826034 0.824812 0.825092 0.822937 0.816556 0.809044 0.812905 0.821890 0.822998 0.813405 0.811084 0.809186 0.808712 0.803136 0.808226 0.809935 0.806384 0.798933 0.816582 0.784205 0.804859 0.806040 0.788802 0.773205 0.761855 0.770176 0.779730 0.778024 0.772996 0.778800 0.778558 0.771200 0.745876 0.737472 0.744667 0.742915 0.731793 0.718352 0.725261 0.723680 0.720602 0.717753 0.720919 0.720547 0.697207 0.710507 0.714968 0.706871 0.720471 0.723439 0.714394 0.717523 0.721252 0.724395 0.724819 0.695815 0.699474 0.649010 0.637227 0.591023 0.587402 0.584942 0.527384 0.532574 0.512033 0.497344 0.498022 0.468308 0.519360 0.436891 0.423508 0.450539 0.377033 0.332506 0.350310 0.351541 0.364732 0.370888 0.364991 0.367580 0.352417 0.328561 0.309486 0.334277 0.350982 0.322794 0.326054 0.305515 0.289144 0.241724 0.256415 0.260894 0.291693 0.295005 0.278469 0.302508 0.342813 0.282783 0.266281 0.244486 0.270315 0.277396 0.271649 0.260973 0.274143 0.220651 0.222196 0.242371 0.243916 0.285006 0.312003 0.337447 0.333029 0.336651 0.366991 0.320299 0.330619 0.334370 0.324280 0.348759 0.352169 0.358043 0.351490 0.381280 0.370091 0.378746 0.378982 0.389960 0.431434 0.407522 0.384491 0.352019 0.360943 0.359725 0.362501 0.305935 0.282889 0.281734 0.243099 0.203510 0.205228 0.205452 0.161491 0.149931 0.134980 0.099652 0.098541 0.105523 0.134783 0.104816 0.121923 0.126119 0.126119 0.126119 0.126119 0.126119 0.126119 0.126119 0.126119 0.126119 0.126119 0.126119 0.126119 0.126119 0.126119 0.148065 0.148065 0.148065 0.148065 0.148065 0.148065 0.148065 0.148065 0.148065 0.148065 0.148065 0.148065
0.000000 0.000000 0.000000 0.000000 0.000000 0.000000 0.000000 0.000000 0.000000 0.000000 0.000000 0.000000 0.000000 0.000000 0.000000 0.000000 0.000000 0.000000 0.000000 0.000000 0.000000 0.000000 0.000000 0.000000 0.000000 0.000000 0.000000 0.000000 0.000000 0.000000 0.000000 0.000000 0.000000 0.000000 0.000000 0.000000 0.000000 0.000000 0.000000 0.000000 0.000000 0.000000 0.000000 0.000000 0.000000 0.000000 0.000000 0.000000 0.000000 0.000000 0.000000 0.000000 0.209657 0.209657 0.209657 0.209657 0.209657 0.209657 0.209657 0.209657 0.209657 0.209657 0.209657 0.209657 0.209657 0.209657 0.209657 0.209657 0.209657 0.209657 0.209657 0.209657 0.209657 0.209657 0.209657 0.209657 0.209657 0.209657 0.209657 0.209657 0.209657 0.209657 0.209657 0.209657 0.209657 0.244339 0.244339 0.244339 0.244339 0.244339 0.244339 0.244339 0.244339 0.244339 0.244339 0.244339 0.244339 0.244339 0.244339 0.244339 0.244339 0.244339 0.244339 0.244339 0.244339 0.244339 0.244339 0.244339 0.244339 0.244339 0.260378 0.260378 0.260378 0.260378 0.260378 0.260378 0.260378 0.260378 0.260378 0.260378 0.260378 0.260378 0.260378 0.260378 0.260378 0.260378 0.260378 0.260378 0.260378 0.260378 0.269680 0.269680 0.269680 0.269680 0.269680 0.269680 0.269680 0.269680 0.269680 0.269680 0.269680 0.269680 0.269680 0.269680 0.269680 0.269680 0.269680 0.269680 0.269680 0.269680 0.269680 0.269680 0.269680 0.269680 0.269680 0.269680 0.269680 0.269680 0.269680 0.269680 0.269680 0.269680 0.269680 0.280056 0.280056 0.280056 0.280056 0.280056 0.280056 0.280056 0.280056 0.280056 0.280056 0.280056 0.280056 0.280056 0.280056 0.280056 0.280056 0.280056 0.280056 0.280056 0.280056 0.280056 0.280056 0.280056 0.280056 0.280056 0.280056 0.280056 0.274721 0.274721 0.274721 0.274721 0.274721 0.274721 0.274721 0.274721 0.274721 0.274721 0.274721 0.274721 0.274721 0.285714 0.285714 0.285714 0.285714 0.285714 0.285714 0.285714 0.285714 0.285714 0.285714 0.285714 0.280056 0.280056 0.280056 0.280056 0.280056 0.280056 0.280056 0.280056 0.280056 0.280056 0.280056 0.274721 0.274721 0.274721 0.274721 0.274721 0.274721 0.274721 0.274721 0.274721 0.274721 0.274721 0.280056 0.280056 0.280056 0.280056 0.280056 0.280056 0.280056 0.280056 0.280056 0.280056 0.285714 0.285714 0.285714 0.285714 0.285714 0.285714 0.285714 0.285714 0.285714 0.269680 0.269680 0.269680 0.269680 0.269680 0.269680 0.269680 0.269680 0.269680 0.269680 0.274721 0.274721 0.274721 0.274721 0.274721 0.274721 0.274721 0.274721 0.274721 0.285714 0.285714 0.285714 0.285714 0.285714 0.285714 0.285714 0.285714 0.264906 0.264906 0.264906 0.264906 0.264906 0.264906 0.264906 0.264906 0.264906 0.274721 0.274721 0.274721 0.274721 0.274721 0.274721 0.274721 0.274721 0.269680 0.269680 0.269680 0.269680 0.269680 0.269680 0.269680 0.269680 0.269680 0.269680 0.269680 0.269680 0.269680 0.269680 0.269680 0.269680 0.280056 0.280056 0.280056 0.280056 0.280056 0.280056 0.280056 0.260378 0.260378 0.260378 0.260378 0.260378 0.260378 0.260378 0.260378 0.269680 0.269680 0.269680 0.269680 0.269680 0.269680 0.269680 0.264906 0.264906 0.264906 0.264906 0.264906 0.264906 0.264906 0.264906 0.264906 0.264906 0.264906 0.264906 0.264906 0.264906 0.260378 0.260378 0.260378 0.260378 0.260378 0.260378 0.260378 0.260378 0.260378 0.260378 0.260378 0.260378
