# Output from CTFFind version 4.1.9, run on 2019-11-02 17:49:54
# Input file: stack1_bm3d_averaged_1_0.75_0_3000_half.mrc ; Number of micrographs: 1
# Pixel size: 3.000 Angstroms ; acceleration voltage: 300.0 keV ; spherical aberration: 0.00 mm ; amplitude contrast: 0.07
# Box size: 512 pixels ; min. res.: 30.0 Angstroms ; max. res.: 5.0 Angstroms ; min. def.: 5000.0 um; max. def. 50000.0 um; num. frames averaged: 1
# 6 lines per micrograph: #1 - spatial frequency (1/Angstroms); #2 - 1D rotational average of spectrum (assuming no astigmatism); #3 - 1D rotational average of spectrum; #4 - CTF fit; #5 - cross-correlation between spectrum and CTF fit; #6 - 2sigma of expected cross correlation of noise
0.000000 0.000651 0.001302 0.001953 0.002604 0.003255 0.003906 0.004557 0.005208 0.005859 0.006510 0.007161 0.007812 0.008464 0.009115 0.009766 0.010417 0.011068 0.011719 0.012370 0.013021 0.013672 0.014323 0.014974 0.015625 0.016276 0.016927 0.017578 0.018229 0.018880 0.019531 0.020182 0.020833 0.021484 0.022135 0.022786 0.023438 0.024089 0.024740 0.025391 0.026042 0.026693 0.027344 0.027995 0.028646 0.029297 0.029948 0.030599 0.031250 0.031901 0.032552 0.033203 0.033854 0.034505 0.035156 0.035807 0.036458 0.037109 0.037760 0.038411 0.039062 0.039714 0.040365 0.041016 0.041667 0.042318 0.042969 0.043620 0.044271 0.044922 0.045573 0.046224 0.046875 0.047526 0.048177 0.048828 0.049479 0.050130 0.050781 0.051432 0.052083 0.052734 0.053385 0.054036 0.054688 0.055339 0.055990 0.056641 0.057292 0.057943 0.058594 0.059245 0.059896 0.060547 0.061198 0.061849 0.062500 0.063151 0.063802 0.064453 0.065104 0.065755 0.066406 0.067057 0.067708 0.068359 0.069010 0.069661 0.070312 0.070964 0.071615 0.072266 0.072917 0.073568 0.074219 0.074870 0.075521 0.076172 0.076823 0.077474 0.078125 0.078776 0.079427 0.080078 0.080729 0.081380 0.082031 0.082682 0.083333 0.083984 0.084635 0.085286 0.085938 0.086589 0.087240 0.087891 0.088542 0.089193 0.089844 0.090495 0.091146 0.091797 0.092448 0.093099 0.093750 0.094401 0.095052 0.095703 0.096354 0.097005 0.097656 0.098307 0.098958 0.099609 0.100260 0.100911 0.101562 0.102214 0.102865 0.103516 0.104167 0.104818 0.105469 0.106120 0.106771 0.107422 0.108073 0.108724 0.109375 0.110026 0.110677 0.111328 0.111979 0.112630 0.113281 0.113932 0.114583 0.115234 0.115885 0.116536 0.117188 0.117839 0.118490 0.119141 0.119792 0.120443 0.121094 0.121745 0.122396 0.123047 0.123698 0.124349 0.125000 0.125651 0.126302 0.126953 0.127604 0.128255 0.128906 0.129557 0.130208 0.130859 0.131510 0.132161 0.132812 0.133464 0.134115 0.134766 0.135417 0.136068 0.136719 0.137370 0.138021 0.138672 0.139323 0.139974 0.140625 0.141276 0.141927 0.142578 0.143229 0.143880 0.144531 0.145182 0.145833 0.146484 0.147135 0.147786 0.148438 0.149089 0.149740 0.150391 0.151042 0.151693 0.152344 0.152995 0.153646 0.154297 0.154948 0.155599 0.156250 0.156901 0.157552 0.158203 0.158854 0.159505 0.160156 0.160807 0.161458 0.162109 0.162760 0.163411 0.164062 0.164714 0.165365 0.166016 0.166667 0.167318 0.167969 0.168620 0.169271 0.169922 0.170573 0.171224 0.171875 0.172526 0.173177 0.173828 0.174479 0.175130 0.175781 0.176432 0.177083 0.177734 0.178385 0.179036 0.179688 0.180339 0.180990 0.181641 0.182292 0.182943 0.183594 0.184245 0.184896 0.185547 0.186198 0.186849 0.187500 0.188151 0.188802 0.189453 0.190104 0.190755 0.191406 0.192057 0.192708 0.193359 0.194010 0.194661 0.195312 0.195964 0.196615 0.197266 0.197917 0.198568 0.199219 0.199870 0.200521 0.201172 0.201823 0.202474 0.203125 0.203776 0.204427 0.205078 0.205729 0.206380 0.207031 0.207682 0.208333 0.208984 0.209635 0.210286 0.210938 0.211589 0.212240 0.212891 0.213542 0.214193 0.214844 0.215495 0.216146 0.216797 0.217448 0.218099 0.218750 0.219401 0.220052 0.220703 0.221354 0.222005 0.222656 0.223307 0.223958 0.224609 0.225260 0.225911 0.226562 0.227214 0.227865 0.228516 0.229167 0.229818 0.230469 0.231120 0.231771 0.232422 0.233073 0.233724 0.234375 0.235026 0.235677
       0.33680        0.33680        0.33680        0.33680        0.33680        0.33680        0.33680        0.33680        0.33680        0.33680        0.33680        0.33680        0.33680        0.33680        0.33680        0.33680        0.33680        0.33680        0.33680        0.33680        0.33680        0.33680        0.33680        0.33680        0.33680        0.33680        0.33680        0.33680        0.33680        0.33680        0.33680        0.33680        0.33680        0.33680        0.33680        0.33680        0.33680        0.33680        0.33680        0.33680        0.33680        0.33680        0.33680        0.33680        0.33680        0.33680        0.33680        0.33680        0.33680        0.33680        0.33680        0.50458        0.72047        0.43219        0.19246       -0.07896       -0.26222       -0.06746       -0.13027       -0.05115        0.00075       -0.14247       -0.08827       -0.04554        0.00195       -0.14760       -0.21540       -0.34275       -0.45982       -0.55606       -0.51454       -0.44632       -0.36941       -0.54327       -0.44359       -0.61725       -0.49730       -0.47180       -0.38693       -0.38018       -0.33949       -0.24692       -0.15578       -0.13279        0.03648       -0.00773        0.12349        0.17332        0.30668        0.41053        0.46683        0.49666        0.54270        0.55257        0.69890        0.64948        0.68229        0.59295        0.55852        0.65820        0.53169        0.43145        0.38755        0.32589        0.23234        0.26993        0.25635        0.11011        0.08845        0.00283       -0.00290        0.03968        0.00051        0.08014        0.10078        0.23521        0.28483        0.31111        0.38447        0.56091        0.54001        0.58291        0.67439        0.70073        0.63351        0.63912        0.63543        0.55506        0.57808        0.39730        0.34916        0.27041        0.18852        0.07552        0.14824        0.12349        0.09306        0.10850        0.21208        0.21632        0.31975        0.36165        0.41689        0.50007        0.58985        0.54577        0.55905        0.61196        0.54829        0.46886        0.47962        0.32759        0.25636        0.25988        0.24643        0.14897        0.15149        0.15726        0.22428        0.25381        0.33163        0.36524        0.39226        0.47120        0.45203        0.48257        0.45767        0.47116        0.44770        0.41121        0.38427        0.35557        0.31274        0.28836        0.20674        0.20205        0.22492        0.27270        0.27278        0.35390        0.37957        0.36308        0.41547        0.46334        0.45495        0.42606        0.43977        0.37156        0.34136        0.28838        0.26751        0.29328        0.27441        0.29959        0.30383        0.35365        0.34538        0.40584        0.41182        0.43091        0.41380        0.43069        0.40632        0.36867        0.28812        0.29725        0.31477        0.27994        0.25975        0.33651        0.37596        0.34496        0.35659        0.36329        0.35853        0.40925        0.40354        0.36097        0.34319        0.31568        0.31329        0.31818        0.31823        0.30162        0.29014        0.33955        0.36128        0.38258        0.33682        0.32923        0.33854        0.34726        0.30845        0.28441        0.30985        0.31928        0.33910        0.32654        0.33691        0.36133        0.33454        0.31827        0.33357        0.30804        0.26921        0.25682        0.26859        0.30795        0.32551        0.35112        0.30286        0.31915        0.34344        0.29896        0.32161        0.29215        0.28909        0.29799        0.30434        0.31134        0.34834        0.32512        0.33123        0.33906        0.31654        0.33904        0.32001        0.32254        0.31237        0.28636        0.29892        0.32191        0.29772        0.33389        0.34390        0.33636        0.31806        0.34029        0.32000        0.27541        0.25742        0.27644        0.33592        0.36398        0.35178        0.31951        0.29747        0.29729        0.31800        0.25104        0.29956        0.30291        0.32953        0.30251        0.32569        0.28939        0.33943        0.34657        0.34967        0.33276        0.29757        0.32041        0.39882        0.33115        0.32193        0.31759        0.29473        0.28885        0.30213        0.26678        0.31176        0.24299        0.28324        0.29927        0.31679        0.29836        0.28359        0.30469        0.24406        0.23604        0.26404        0.30982        0.30657        0.29345        0.29002        0.33915        0.25746        0.21443        0.31971        0.27947        0.25928        0.28114        0.39710        0.30475        0.28940        0.25419        0.25158        0.26398        0.23572        0.23420        0.16063        0.25506        0.23510        0.24961        0.32161        0.28372        0.34557        0.28629        0.27273        0.25032        0.22719        0.24043        0.29481        0.23022        0.11540        0.14264        0.24835        0.24115        0.33438        0.30451        0.03658       -0.42904       -0.92845
2.731768 2.702773 2.673935 2.645253 2.616728 2.588359 2.560147 2.532092 2.504193 2.476451 2.448865 2.421436 2.394164 2.367048 2.340088 2.313286 2.286639 2.260150 2.233817 2.207640 2.181620 2.155757 2.130050 2.104500 2.079106 2.053869 2.028789 2.003865 1.979098 1.954487 1.930033 1.905735 1.881594 1.857610 1.833782 1.810110 1.786596 1.763238 1.740036 1.716991 1.694103 1.671371 1.648796 1.626377 1.604115 1.582009 1.560060 1.538268 1.516632 1.495153 1.473830 1.542788 1.841813 1.528836 1.207072 0.950575 0.549035 0.921012 0.642060 0.884051 0.936985 0.600770 0.719465 0.793826 0.830296 0.638756 0.549026 0.352293 0.109276 0.083440 0.048652 0.084724 0.305280 -0.030155 0.089284 -0.132182 -0.007021 -0.016102 0.085581 0.068684 0.098496 0.179762 0.287957 0.256397 0.486865 0.402500 0.553558 0.531173 0.772361 0.791338 0.883983 0.919715 0.944607 0.947552 1.120612 0.944046 1.149387 0.950907 0.852978 1.020664 0.851681 0.764561 0.618081 0.599017 0.456701 0.422914 0.513984 0.265053 0.201932 0.157123 0.009887 0.208746 -0.005184 0.122548 0.181262 0.256325 0.329529 0.352461 0.428483 0.534487 0.664677 0.540489 0.744186 0.857376 0.639885 0.699899 0.666018 0.590812 0.541145 0.458520 0.298024 0.215747 0.115769 -0.046031 -0.018342 0.056381 -0.100955 -0.060477 0.044138 0.051910 0.115370 0.216085 0.238290 0.311580 0.449252 0.442931 0.437299 0.481709 0.455121 0.339723 0.329394 0.240171 0.057594 0.060749 0.015675 -0.041465 -0.094855 -0.096488 -0.012071 -0.049464 0.073291 0.121254 0.114333 0.263518 0.232249 0.232171 0.286117 0.246118 0.230055 0.212716 0.163549 0.106413 0.097690 0.020307 -0.000355 -0.120698 -0.054411 -0.000917 -0.002640 0.026115 0.093505 0.085036 0.131676 0.201055 0.267576 0.185000 0.177541 0.109549 0.140343 0.032006 -0.031163 0.028564 -0.023075 0.016175 -0.004489 0.041043 0.090453 0.056709 0.167587 0.108019 0.184181 0.071603 0.156245 0.102192 0.005872 -0.051649 0.002224 -0.020485 -0.055624 -0.056889 0.073252 0.075227 0.000532 0.090797 0.070817 0.084570 0.155063 0.078055 0.071345 0.067756 -0.010752 0.033763 0.011161 0.023919 0.010138 0.008135 0.054138 0.076632 0.085701 0.041253 0.053667 0.038428 0.069754 0.000817 -0.007298 0.034484 0.026478 0.070413 0.048400 0.068303 0.074057 0.051693 0.030932 0.041056 0.009254 -0.037264 -0.024859 -0.017701 0.029767 0.044171 0.102009 -0.001534 0.074139 0.046288 -0.010975 0.061869 0.008283 0.007246 0.034448 0.048013 0.028618 0.089789 0.038571 0.062971 0.073451 0.070837 0.069291 0.063796 0.085426 0.033678 -0.008164 0.052479 0.050650 0.045357 0.077175 0.090366 0.010384 0.053696 0.076630 0.004895 -0.004638 -0.058620 -0.018748 0.110468 0.084208 0.051164 0.038571 -0.024596 0.053188 0.021343 -0.070509 0.052356 0.022198 0.061526 0.037714 0.017063 0.000378 0.074573 0.034456 0.027514 0.036448 -0.045324 0.070945 0.111956 -0.001693 0.001340 -0.001755 -0.009790 -0.031153 -0.021166 -0.056753 -0.014264 -0.090338 -0.018578 -0.038303 0.015716 -0.028717 -0.043360 0.029228 -0.071471 -0.048070 -0.080608 0.050178 0.013499 0.018155 -0.010495 0.073451 -0.033418 -0.077445 0.063592 -0.005112 0.002423 -0.002281 0.198994 -0.018236 0.031875 -0.016221 -0.020450 -0.014928 -0.050455 -0.021900 -0.194606 0.012508 -0.042276 -0.024343 0.040008 0.010367 0.102378 -0.015280 0.010377 -0.024386 -0.014979 -0.073111 0.035702 0.277016 0.140055 0.186902 0.257221 0.324338 0.363433 0.367323 0.045342 -1.092999
0.072396 0.072910 0.074452 0.077022 0.080619 0.085242 0.090890 0.097561 0.105253 0.113963 0.123687 0.134421 0.146159 0.158895 0.172619 0.187323 0.202995 0.219620 0.237184 0.255667 0.275049 0.295304 0.316406 0.338322 0.361018 0.384454 0.408586 0.433365 0.458737 0.484642 0.511016 0.537786 0.564875 0.592200 0.619669 0.647186 0.674646 0.701936 0.728940 0.755529 0.781572 0.806929 0.831452 0.854989 0.877380 0.898460 0.918059 0.936001 0.952109 0.966200 0.978092 0.987599 0.994539 0.998729 0.999989 0.998146 0.993032 0.984488 0.972365 0.956525 0.936848 0.913228 0.885578 0.853833 0.817953 0.777921 0.733751 0.685486 0.633203 0.577014 0.517067 0.453547 0.386683 0.316741 0.244031 0.168904 0.091756 0.013020 0.066825 0.147263 0.227741 0.307671 0.386435 0.463386 0.537857 0.609163 0.676608 0.739495 0.797128 0.848825 0.893924 0.931793 0.961840 0.983522 0.996356 0.999928 0.993904 0.978040 0.952191 0.916317 0.870496 0.814928 0.749937 0.675985 0.593662 0.503696 0.406949 0.304412 0.197198 0.086537 0.026236 0.139695 0.252341 0.362618 0.468934 0.569684 0.663278 0.748164 0.822858 0.885971 0.936242 0.972562 0.994006 0.999860 0.989641 0.963126 0.920364 0.861695 0.787757 0.699494 0.598147 0.485254 0.362631 0.232352 0.096718 0.041775 0.180479 0.316647 0.447477 0.570177 0.682029 0.780443 0.863035 0.927680 0.972582 0.996326 0.997937 0.976917 0.933287 0.867608 0.780991 0.675099 0.552131 0.414783 0.266212 0.109964 0.050098 0.209882 0.365177 0.511750 0.645478 0.762462 0.859147 0.932445 0.979843 0.999503 0.990344 0.952113 0.885420 0.791764 0.673514 0.533881 0.376842 0.207045 0.029688 0.149637 0.325106 0.490862 0.641203 0.770790 0.874851 0.949364 0.991237 0.998452 0.970179 0.906857 0.810224 0.683298 0.530318 0.356623 0.168487 0.027089 0.222629 0.410462 0.583020 0.733155 0.854451 0.941503 0.990198 0.997920 0.963725 0.888438 0.774676 0.626804 0.450795 0.254022 0.044970 0.167108 0.372599 0.561958 0.726164 0.857161 0.948278 0.994601 0.993264 0.943663 0.847561 0.709073 0.534537 0.332269 0.112187 0.114637 0.336534 0.541827 0.719455 0.859584 0.954185 0.997525 0.986556 0.921171 0.804294 0.641815 0.442342 0.216788 0.022190 0.260885 0.485310 0.682024 0.838958 0.946185 0.996586 0.986374 0.915424 0.787392 0.609588 0.392626 0.149832 0.103533 0.351214 0.576995 0.765783 0.904625 0.983660 0.996859 0.942550 0.823652 0.647594 0.425936 0.173654 0.091819 0.351777 0.587541 0.781833 0.920051 0.991439 0.989973 0.914941 0.771136 0.568646 0.322207 0.050211 0.226640 0.486884 0.709959 0.877868 0.976672 0.997717 0.938466 0.802865 0.601179 0.349316 0.067620 0.220696 0.491453 0.721535 0.890894 0.984347 0.993024 0.915287 0.757062 0.531489 0.257932 0.039616 0.334586 0.600188 0.811864 0.949603 0.999913 0.957229 0.824627 0.613740 0.343839 0.040173 0.268335 0.551820 0.782364 0.936809 0.999142 0.962269 0.828929 0.611635 0.331630 0.016905 0.300535 0.587885 0.814960 0.957414 0.999442 0.935647 0.771850 0.524709 0.220149 0.109247 0.427686 0.700024 0.895680 0.992163 0.977757 0.853083 0.631287 0.336812 0.002815 0.332477 0.630115 0.854978 0.979977 0.989446 0.881240 0.667280 0.372397 0.031590 0.314021 0.622145 0.854488 0.981602 0.986741 0.868214 0.639911 0.329850 0.023122 0.374099 0.677794 0.894414 0.994976 0.965316 0.808263 0.543592 0.205716 0.160651 0.506332 0.784283 0.956039 0.997184
1.000000 1.000000 1.000000 1.000000 1.000000 1.000000 1.000000 1.000000 1.000000 1.000000 1.000000 1.000000 1.000000 1.000000 1.000000 1.000000 1.000000 1.000000 1.000000 1.000000 1.000000 1.000000 1.000000 1.000000 1.000000 1.000000 1.000000 1.000000 1.000000 1.000000 1.000000 1.000000 1.000000 1.000000 1.000000 1.000000 1.000000 1.000000 1.000000 1.000000 1.000000 1.000000 1.000000 1.000000 1.000000 1.000000 1.000000 1.000000 1.000000 1.000000 1.000000 1.000000 0.918357 0.918357 0.905518 0.905518 0.905518 0.905518 0.905518 0.905518 0.905518 0.905518 0.905518 0.905518 0.905518 0.905518 0.905518 0.905518 0.905518 0.905518 0.905518 0.905518 0.905518 0.905518 0.905518 0.905518 0.905518 0.905518 0.905518 0.905518 0.905518 0.905518 0.905518 0.905518 0.905518 0.905518 0.905518 0.905518 0.905518 0.905518 0.905518 0.905518 0.905518 0.905518 0.905518 0.901080 0.906018 0.907910 0.906400 0.909948 0.910014 0.909371 0.909711 0.909373 0.909708 0.911100 0.921591 0.932595 0.943608 0.944142 0.949315 0.953623 0.957020 0.957942 0.959546 0.969612 0.968290 0.967822 0.968479 0.969855 0.971935 0.970686 0.970214 0.973446 0.974068 0.972502 0.970240 0.969656 0.968265 0.967662 0.967297 0.967181 0.967050 0.967562 0.967764 0.967911 0.968056 0.968111 0.969126 0.970281 0.972694 0.973702 0.973568 0.972496 0.970615 0.974627 0.975511 0.975264 0.975221 0.974768 0.975026 0.960874 0.956889 0.956800 0.953737 0.952153 0.948764 0.947446 0.946395 0.946721 0.945185 0.944878 0.942353 0.928298 0.914588 0.903708 0.923981 0.908718 0.897643 0.871995 0.872700 0.866831 0.867327 0.857760 0.852669 0.848519 0.845713 0.847356 0.843686 0.847127 0.844230 0.829080 0.832542 0.829113 0.797129 0.781981 0.765012 0.766255 0.763331 0.764490 0.766432 0.759599 0.768252 0.761913 0.760060 0.751184 0.729160 0.696943 0.684231 0.694970 0.705078 0.703288 0.699579 0.684140 0.653671 0.666589 0.687560 0.684351 0.686302 0.679622 0.673380 0.679931 0.681369 0.677927 0.672226 0.671403 0.671137 0.679875 0.685462 0.680299 0.673084 0.659051 0.647219 0.631569 0.646826 0.649460 0.618943 0.612836 0.604313 0.597980 0.585127 0.553650 0.554806 0.532297 0.518507 0.521321 0.524300 0.524456 0.535448 0.536326 0.513949 0.537266 0.544343 0.571111 0.542919 0.536711 0.537982 0.548854 0.532807 0.507997 0.497990 0.498969 0.513475 0.549278 0.588869 0.579496 0.568712 0.556422 0.572201 0.546403 0.555169 0.571593 0.550125 0.476664 0.441091 0.438098 0.403565 0.393318 0.384869 0.377681 0.389148 0.379761 0.374130 0.361121 0.348696 0.285056 0.249858 0.234825 0.213719 0.217731 0.236886 0.223141 0.226379 0.262117 0.308885 0.307580 0.299140 0.289196 0.290693 0.263215 0.273687 0.298353 0.256392 0.253932 0.250261 0.224767 0.212683 0.173141 0.202584 0.118459 0.103354 0.107524 0.122813 0.132543 0.132412 0.141195 0.118318 0.137396 0.127646 0.091452 0.076474 0.092378 0.083755 0.051689 0.061640 0.076877 0.062903 0.048136 0.074160 0.063061 0.070297 0.061740 0.059632 0.103305 0.135134 0.121394 0.121991 0.107518 0.106744 0.082169 0.071957 0.061512 0.055414 -0.000040 -0.027129 -0.027129 -0.025588 -0.025588 -0.025588 -0.025588 -0.025588 -0.025588 -0.025588 -0.025588 -0.025588 -0.026752 -0.026752 -0.026752 -0.026752 -0.026752 -0.026752 -0.026752 -0.026752 -0.026752 -0.002233 -0.002233 -0.002233 -0.002233 -0.002233 -0.002233 -0.002233 -0.002233 -0.002233
0.000000 0.000000 0.000000 0.000000 0.000000 0.000000 0.000000 0.000000 0.000000 0.000000 0.000000 0.000000 0.000000 0.000000 0.000000 0.000000 0.000000 0.000000 0.000000 0.000000 0.000000 0.000000 0.000000 0.000000 0.000000 0.000000 0.000000 0.000000 0.000000 0.000000 0.000000 0.000000 0.000000 0.000000 0.000000 0.000000 0.000000 0.000000 0.000000 0.000000 0.000000 0.000000 0.000000 0.000000 0.000000 0.000000 0.000000 0.000000 0.000000 0.000000 0.000000 0.000000 0.181818 0.181818 0.199007 0.199007 0.199007 0.199007 0.199007 0.199007 0.199007 0.199007 0.199007 0.199007 0.199007 0.199007 0.199007 0.199007 0.199007 0.199007 0.199007 0.199007 0.199007 0.199007 0.199007 0.199007 0.199007 0.199007 0.199007 0.199007 0.199007 0.199007 0.199007 0.199007 0.199007 0.199007 0.199007 0.199007 0.199007 0.199007 0.199007 0.199007 0.199007 0.199007 0.199007 0.230940 0.230940 0.230940 0.230940 0.230940 0.230940 0.230940 0.230940 0.230940 0.230940 0.230940 0.230940 0.230940 0.230940 0.230940 0.230940 0.230940 0.230940 0.230940 0.230940 0.230940 0.230940 0.230940 0.230940 0.230940 0.230940 0.230940 0.230940 0.244339 0.244339 0.244339 0.244339 0.244339 0.244339 0.244339 0.244339 0.244339 0.244339 0.244339 0.244339 0.244339 0.244339 0.244339 0.244339 0.244339 0.244339 0.244339 0.244339 0.244339 0.244339 0.244339 0.251976 0.251976 0.251976 0.251976 0.251976 0.251976 0.251976 0.251976 0.251976 0.251976 0.251976 0.251976 0.251976 0.251976 0.251976 0.251976 0.251976 0.251976 0.251976 0.251976 0.264906 0.264906 0.264906 0.264906 0.264906 0.264906 0.264906 0.264906 0.264906 0.264906 0.264906 0.264906 0.264906 0.264906 0.264906 0.264906 0.264906 0.264906 0.264906 0.264906 0.264906 0.264906 0.264906 0.264906 0.264906 0.264906 0.264906 0.264906 0.264906 0.264906 0.264906 0.264906 0.264906 0.264906 0.264906 0.264906 0.264906 0.264906 0.264906 0.264906 0.264906 0.264906 0.264906 0.264906 0.264906 0.264906 0.264906 0.264906 0.264906 0.264906 0.264906 0.264906 0.264906 0.264906 0.264906 0.264906 0.264906 0.264906 0.264906 0.264906 0.264906 0.264906 0.264906 0.264906 0.264906 0.264906 0.264906 0.264906 0.264906 0.264906 0.264906 0.264906 0.264906 0.264906 0.264906 0.269680 0.269680 0.269680 0.269680 0.269680 0.269680 0.269680 0.269680 0.269680 0.269680 0.269680 0.269680 0.264906 0.264906 0.264906 0.264906 0.264906 0.264906 0.264906 0.264906 0.264906 0.264906 0.264906 0.264906 0.269680 0.269680 0.269680 0.269680 0.269680 0.269680 0.269680 0.269680 0.269680 0.269680 0.269680 0.264906 0.264906 0.264906 0.264906 0.264906 0.264906 0.264906 0.264906 0.264906 0.264906 0.264906 0.256074 0.256074 0.256074 0.256074 0.256074 0.256074 0.256074 0.256074 0.256074 0.256074 0.256074 0.264906 0.264906 0.264906 0.264906 0.264906 0.264906 0.264906 0.264906 0.264906 0.264906 0.269680 0.269680 0.269680 0.269680 0.269680 0.269680 0.269680 0.269680 0.269680 0.256074 0.256074 0.256074 0.256074 0.256074 0.256074 0.256074 0.256074 0.256074 0.256074 0.260378 0.260378 0.260378 0.260378 0.260378 0.260378 0.260378 0.260378 0.260378 0.256074 0.256074 0.256074 0.256074 0.256074 0.256074 0.256074 0.256074 0.256074 0.251976 0.251976 0.251976 0.251976 0.251976 0.251976 0.251976 0.251976 0.251976 0.264906 0.264906 0.264906 0.264906 0.264906 0.264906 0.264906 0.264906 0.264906
