# Output from CTFFind version 4.1.9, run on 2019-11-02 17:48:22
# Input file: stack6_bm3d_averaged_1_0.5_0_2000_half.mrc ; Number of micrographs: 1
# Pixel size: 3.000 Angstroms ; acceleration voltage: 300.0 keV ; spherical aberration: 0.00 mm ; amplitude contrast: 0.07
# Box size: 512 pixels ; min. res.: 30.0 Angstroms ; max. res.: 5.0 Angstroms ; min. def.: 5000.0 um; max. def. 50000.0 um; num. frames averaged: 1
# 6 lines per micrograph: #1 - spatial frequency (1/Angstroms); #2 - 1D rotational average of spectrum (assuming no astigmatism); #3 - 1D rotational average of spectrum; #4 - CTF fit; #5 - cross-correlation between spectrum and CTF fit; #6 - 2sigma of expected cross correlation of noise
0.000000 0.000651 0.001302 0.001953 0.002604 0.003255 0.003906 0.004557 0.005208 0.005859 0.006510 0.007161 0.007812 0.008464 0.009115 0.009766 0.010417 0.011068 0.011719 0.012370 0.013021 0.013672 0.014323 0.014974 0.015625 0.016276 0.016927 0.017578 0.018229 0.018880 0.019531 0.020182 0.020833 0.021484 0.022135 0.022786 0.023438 0.024089 0.024740 0.025391 0.026042 0.026693 0.027344 0.027995 0.028646 0.029297 0.029948 0.030599 0.031250 0.031901 0.032552 0.033203 0.033854 0.034505 0.035156 0.035807 0.036458 0.037109 0.037760 0.038411 0.039062 0.039714 0.040365 0.041016 0.041667 0.042318 0.042969 0.043620 0.044271 0.044922 0.045573 0.046224 0.046875 0.047526 0.048177 0.048828 0.049479 0.050130 0.050781 0.051432 0.052083 0.052734 0.053385 0.054036 0.054688 0.055339 0.055990 0.056641 0.057292 0.057943 0.058594 0.059245 0.059896 0.060547 0.061198 0.061849 0.062500 0.063151 0.063802 0.064453 0.065104 0.065755 0.066406 0.067057 0.067708 0.068359 0.069010 0.069661 0.070312 0.070964 0.071615 0.072266 0.072917 0.073568 0.074219 0.074870 0.075521 0.076172 0.076823 0.077474 0.078125 0.078776 0.079427 0.080078 0.080729 0.081380 0.082031 0.082682 0.083333 0.083984 0.084635 0.085286 0.085938 0.086589 0.087240 0.087891 0.088542 0.089193 0.089844 0.090495 0.091146 0.091797 0.092448 0.093099 0.093750 0.094401 0.095052 0.095703 0.096354 0.097005 0.097656 0.098307 0.098958 0.099609 0.100260 0.100911 0.101562 0.102214 0.102865 0.103516 0.104167 0.104818 0.105469 0.106120 0.106771 0.107422 0.108073 0.108724 0.109375 0.110026 0.110677 0.111328 0.111979 0.112630 0.113281 0.113932 0.114583 0.115234 0.115885 0.116536 0.117188 0.117839 0.118490 0.119141 0.119792 0.120443 0.121094 0.121745 0.122396 0.123047 0.123698 0.124349 0.125000 0.125651 0.126302 0.126953 0.127604 0.128255 0.128906 0.129557 0.130208 0.130859 0.131510 0.132161 0.132812 0.133464 0.134115 0.134766 0.135417 0.136068 0.136719 0.137370 0.138021 0.138672 0.139323 0.139974 0.140625 0.141276 0.141927 0.142578 0.143229 0.143880 0.144531 0.145182 0.145833 0.146484 0.147135 0.147786 0.148438 0.149089 0.149740 0.150391 0.151042 0.151693 0.152344 0.152995 0.153646 0.154297 0.154948 0.155599 0.156250 0.156901 0.157552 0.158203 0.158854 0.159505 0.160156 0.160807 0.161458 0.162109 0.162760 0.163411 0.164062 0.164714 0.165365 0.166016 0.166667 0.167318 0.167969 0.168620 0.169271 0.169922 0.170573 0.171224 0.171875 0.172526 0.173177 0.173828 0.174479 0.175130 0.175781 0.176432 0.177083 0.177734 0.178385 0.179036 0.179688 0.180339 0.180990 0.181641 0.182292 0.182943 0.183594 0.184245 0.184896 0.185547 0.186198 0.186849 0.187500 0.188151 0.188802 0.189453 0.190104 0.190755 0.191406 0.192057 0.192708 0.193359 0.194010 0.194661 0.195312 0.195964 0.196615 0.197266 0.197917 0.198568 0.199219 0.199870 0.200521 0.201172 0.201823 0.202474 0.203125 0.203776 0.204427 0.205078 0.205729 0.206380 0.207031 0.207682 0.208333 0.208984 0.209635 0.210286 0.210938 0.211589 0.212240 0.212891 0.213542 0.214193 0.214844 0.215495 0.216146 0.216797 0.217448 0.218099 0.218750 0.219401 0.220052 0.220703 0.221354 0.222005 0.222656 0.223307 0.223958 0.224609 0.225260 0.225911 0.226562 0.227214 0.227865 0.228516 0.229167 0.229818 0.230469 0.231120 0.231771 0.232422 0.233073 0.233724 0.234375 0.235026 0.235677
       0.31331        0.31331        0.31331        0.31331        0.31331        0.31331        0.31331        0.31331        0.31331        0.31331        0.31331        0.31331        0.31331        0.31331        0.31331        0.31331        0.31331        0.31331        0.31331        0.31331        0.31331        0.31331        0.31331        0.31331        0.31331        0.31331        0.31331        0.31331        0.31331        0.31331        0.31331        0.31331        0.31331        0.31331        0.31331        0.31331        0.31331        0.31331        0.31331        0.31331        0.31331        0.31331        0.31331        0.31331        0.31331        0.31331        0.31331        0.31331        0.31331        0.31331        0.31331        0.63721        0.82249        0.41829        0.31359        0.19174       -0.10377        0.11332       -0.00162        0.03563        0.11949        0.33809        0.42693        0.40958        0.22666       -0.00932        0.04938        0.07313       -0.16389       -0.17662       -0.08695       -0.10580       -0.29071       -0.18580       -0.30116       -0.25505       -0.28301       -0.39873       -0.47510       -0.47729       -0.42039       -0.33638       -0.43829       -0.36693       -0.40628       -0.34694       -0.27223       -0.19683       -0.19145       -0.13343       -0.09387        0.03729        0.08632        0.25027        0.28204        0.37259        0.40328        0.51925        0.58951        0.60717        0.74317        0.70150        0.74198        0.64998        0.66755        0.69983        0.63548        0.61608        0.61015        0.43811        0.40150        0.36139        0.32572        0.22363        0.13593        0.06147        0.06061       -0.00047       -0.07782       -0.03108       -0.03019       -0.06768        0.06256        0.16630        0.25626        0.32321        0.33882        0.43449        0.54881        0.59289        0.54546        0.66988        0.56663        0.54557        0.59955        0.64405        0.53336        0.46062        0.40990        0.37617        0.25272        0.21766        0.13216        0.11714        0.05713        0.06235        0.11240        0.17084        0.14724        0.18062        0.21920        0.24209        0.33593        0.46001        0.49691        0.49946        0.52351        0.57867        0.57083        0.52504        0.42686        0.38642        0.36848        0.27171        0.24951        0.21841        0.20794        0.20737        0.18522        0.15991        0.12605        0.19216        0.25162        0.35091        0.38468        0.40679        0.46376        0.53806        0.47879        0.48381        0.42219        0.40258        0.38481        0.36490        0.29087        0.26100        0.20271        0.23472        0.21941        0.19363        0.21850        0.22550        0.24427        0.29951        0.40320        0.40413        0.37210        0.39212        0.45687        0.48561        0.42767        0.35580        0.32845        0.28331        0.26279        0.24642        0.21314        0.28621        0.29372        0.29569        0.31818        0.31266        0.35142        0.37260        0.37511        0.37662        0.35845        0.32083        0.33754        0.31962        0.30046        0.28188        0.27251        0.21951        0.27372        0.27475        0.30507        0.32391        0.34642        0.37789        0.34245        0.32245        0.36042        0.37215        0.27049        0.29760        0.30601        0.24447        0.21327        0.25974        0.27166        0.27796        0.30083        0.30705        0.33639        0.33653        0.36491        0.32968        0.32474        0.31135        0.29461        0.27625        0.25144        0.25562        0.25933        0.27507        0.29957        0.29545        0.30203        0.31552        0.32911        0.26537        0.30685        0.27057        0.26495        0.27989        0.26558        0.26245        0.26772        0.31311        0.28766        0.31949        0.28796        0.27670        0.30694        0.31050        0.33142        0.31696        0.29500        0.25707        0.27149        0.27640        0.26798        0.31248        0.31697        0.34102        0.32396        0.30680        0.26263        0.28245        0.21244        0.20801        0.24099        0.26124        0.25499        0.29131        0.31076        0.29530        0.34878        0.31276        0.26757        0.23774        0.23694        0.28738        0.31019        0.30624        0.26737        0.27893        0.25748        0.32447        0.28691        0.25271        0.26815        0.25471        0.29118        0.25254        0.29213        0.32986        0.28746        0.21819        0.23178        0.28429        0.32453        0.27905        0.26860        0.24645        0.27655        0.29078        0.37430        0.29754        0.28359        0.25582        0.26588        0.22580        0.17834        0.25426        0.23279        0.20928        0.19266        0.19626        0.23685        0.23072        0.24085        0.19232        0.25176        0.22827        0.20569        0.17767        0.17088        0.19935        0.23649        0.15081        0.06810        0.19103        0.20300        0.15677        0.25271        0.14659        0.21845        0.22053       -0.06713       -0.46507       -0.91828
2.862629 2.834470 2.806455 2.778585 2.750861 2.723281 2.695846 2.668555 2.641410 2.614409 2.587553 2.560842 2.534276 2.507855 2.481578 2.455446 2.429459 2.403617 2.377920 2.352368 2.326960 2.301697 2.276579 2.251606 2.226778 2.202094 2.177556 2.153162 2.128913 2.104809 2.080849 2.057035 2.033365 2.009840 1.986460 1.963225 1.940135 1.917189 1.894389 1.871733 1.849222 1.826855 1.804634 1.782557 1.760626 1.738839 1.717197 1.695699 1.674347 1.653139 1.632077 1.929998 2.290245 1.707215 1.749272 1.388318 0.948282 1.204613 1.024770 1.077684 1.035925 1.498779 1.526844 1.554063 1.285405 0.947639 0.827918 1.013963 0.722125 0.495041 0.586820 0.681574 0.422488 0.491570 0.324666 0.370397 0.246894 0.163731 -0.039039 -0.001113 0.024001 0.079506 0.037775 0.070627 -0.039276 0.026359 0.113218 0.226765 0.288568 0.209053 0.318726 0.550105 0.454791 0.729626 0.792602 0.884748 0.913568 1.123446 1.145982 1.178118 1.335909 1.242432 1.381317 1.187170 1.120596 1.305626 1.151074 1.058395 1.130796 0.893997 0.747771 0.684698 0.677191 0.460063 0.399839 0.258588 0.232507 0.088996 -0.009567 0.086209 0.025477 -0.064309 0.113215 0.253098 0.306831 0.469111 0.489282 0.562174 0.727194 0.824899 0.666481 0.961980 0.800892 0.671617 0.771057 0.808705 0.715540 0.642009 0.452434 0.502429 0.282264 0.197473 0.140450 0.004950 -0.020933 -0.103100 -0.014303 0.026367 0.094563 -0.053280 0.251289 0.097810 0.210986 0.380925 0.444137 0.532861 0.441265 0.579790 0.627326 0.520711 0.392778 0.335907 0.324530 0.154811 0.129331 0.019111 0.089030 0.035153 -0.001019 -0.024128 -0.125071 -0.012360 0.020933 0.112282 0.297324 0.200909 0.355714 0.373424 0.427157 0.434212 0.372921 0.326790 0.229592 0.304879 0.165951 0.154561 0.011607 0.044544 0.064231 -0.026182 -0.011557 0.014865 0.058107 0.073925 0.210695 0.310162 0.241654 0.208009 0.379299 0.408604 0.351319 0.242297 0.177172 0.152789 0.081473 0.075615 0.018330 0.020352 0.136121 0.049651 0.188967 0.088744 0.143886 0.232494 0.210300 0.224188 0.210968 0.197050 0.124269 0.163778 0.122449 0.096552 0.107843 -0.000992 0.031206 0.087978 0.049273 0.149840 0.123455 0.210044 0.207041 0.137004 0.129917 0.232354 0.120793 0.075740 0.087092 0.054805 -0.001078 -0.028045 0.040890 0.070301 0.028094 0.115032 0.109236 0.125784 0.124876 0.180716 0.115619 0.079372 0.098629 0.080236 0.018464 0.013406 0.028682 -0.004693 0.065069 0.099580 0.057898 0.066230 0.140937 0.083345 0.016511 0.112823 0.023115 0.031183 0.061367 0.019303 0.013225 0.059195 0.085954 0.032555 0.110207 0.051230 0.027309 0.121915 0.071063 0.094196 0.092613 0.027483 -0.003653 0.009374 0.050577 0.021152 0.059624 0.102081 0.103249 0.057533 0.132492 -0.001234 0.030044 -0.088710 -0.015151 -0.045571 0.014217 0.018591 0.041349 0.068834 0.080584 0.116928 0.021337 -0.007431 -0.057118 -0.077310 0.070572 0.047484 0.057465 -0.017523 0.001246 -0.034694 0.066741 0.026335 -0.058490 -0.014844 -0.071475 0.030422 -0.039951 0.033730 0.067583 -0.012241 -0.071591 -0.052980 0.109693 0.048330 0.017172 0.005644 -0.045023 0.073344 0.073044 0.173223 0.056157 0.024666 0.032359 0.069854 -0.050662 -0.045981 0.060483 0.027836 -0.019139 -0.032177 -0.038525 0.094200 -0.044474 0.079745 0.001590 0.120938 -0.005787 0.057019 -0.088196 -0.012361 -0.033670 0.110549 -0.032116 -0.135302 0.261653 0.299342 0.222950 0.428769 0.171664 0.286787 0.383221 -0.092938 -1.291768
0.072396 0.072834 0.074148 0.076338 0.079402 0.083341 0.088154 0.093840 0.100396 0.107821 0.116112 0.125267 0.135281 0.146150 0.157870 0.170432 0.183830 0.198056 0.213097 0.228944 0.245581 0.262994 0.281165 0.300073 0.319697 0.340010 0.360986 0.382591 0.404793 0.427553 0.450829 0.474576 0.498744 0.523278 0.548121 0.573210 0.598476 0.623847 0.649245 0.674588 0.699787 0.724749 0.749376 0.773565 0.797206 0.820187 0.842388 0.863688 0.883958 0.903067 0.920880 0.937260 0.952066 0.965154 0.976380 0.985600 0.992669 0.997442 0.999779 0.999540 0.996590 0.990802 0.982051 0.970223 0.955213 0.936925 0.915278 0.890203 0.861647 0.829573 0.793964 0.754821 0.712169 0.666054 0.616548 0.563749 0.507780 0.448795 0.386974 0.322531 0.255705 0.186770 0.116030 0.043819 0.029501 0.103536 0.177865 0.252041 0.325594 0.398031 0.468840 0.537495 0.603455 0.666176 0.725108 0.779702 0.829419 0.873732 0.912133 0.944138 0.969298 0.987201 0.997479 0.999819 0.993966 0.979729 0.956990 0.925708 0.885926 0.837773 0.781470 0.717332 0.645773 0.567303 0.482529 0.392157 0.296983 0.197895 0.095862 0.008069 0.112785 0.217118 0.319853 0.419746 0.515538 0.605969 0.689798 0.765820 0.832884 0.889915 0.935933 0.970070 0.991590 0.999910 0.994613 0.975464 0.942425 0.895665 0.835563 0.762723 0.677965 0.582327 0.477063 0.363621 0.243639 0.118920 0.008591 0.136831 0.263656 0.386873 0.504276 0.613691 0.713016 0.800261 0.873599 0.931402 0.972287 0.995151 0.999208 0.984018 0.949515 0.896018 0.824248 0.735328 0.630772 0.512478 0.382694 0.243985 0.099195 0.048616 0.196226 0.340320 0.477568 0.604702 0.718593 0.816336 0.895334 0.953367 0.988667 0.999982 0.986626 0.948520 0.886219 0.800920 0.694454 0.569268 0.428373 0.275287 0.113958 0.051330 0.216073 0.375657 0.525497 0.661167 0.778532 0.873893 0.944102 0.986688 0.999949 0.983036 0.936011 0.859873 0.756565 0.628940 0.480702 0.316315 0.140881 0.040006 0.220438 0.394377 0.555856 0.699198 0.819212 0.911400 0.972139 0.998838 0.990067 0.945648 0.866702 0.755649 0.616159 0.453058 0.272171 0.080141 0.115811 0.308151 0.489317 0.652016 0.789537 0.896030 0.966779 0.998430 0.989172 0.938858 0.849067 0.723083 0.565811 0.383607 0.184047 0.024368 0.232575 0.431321 0.611587 0.765007 0.884265 0.963468 0.998460 0.987069 0.929269 0.827237 0.685314 0.509861 0.308990 0.092228 0.129921 0.346479 0.546536 0.719794 0.857127 0.951078 0.996290 0.989846 0.931493 0.823721 0.671706 0.483108 0.267707 0.036936 0.196708 0.420344 0.621398 0.788339 0.911354 0.982955 0.998470 0.956391 0.858540 0.710046 0.519132 0.296694 0.055716 0.189463 0.424000 0.633429 0.804583 0.926443 0.990876 0.993228 0.932705 0.812516 0.639761 0.425072 0.181998 0.073820 0.325618 0.556631 0.751189 0.895823 0.980220 0.998020 0.947332 0.830980 0.656420 0.435305 0.182780 0.083530 0.344728 0.581970 0.777842 0.917671 0.990660 0.990776 0.917313 0.775059 0.574066 0.328993 0.058101 0.218081 0.478289 0.702173 0.871896 0.973612 0.998641 0.944284 0.814161 0.618062 0.371279 0.093487 0.192804 0.464031 0.697528 0.873438 0.976457 0.997218 0.933220 0.789184 0.576803 0.313866 0.022835 0.271032 0.541860 0.765430 0.921392 0.995170 0.979393 0.874720 0.689938 0.441325 0.151281 0.153613 0.445012 0.695439 0.880897 0.983222 0.991942 0.905435 0.731260 0.485603 0.191865 0.121506 0.423725 0.684692 0.878009
1.000000 1.000000 1.000000 1.000000 1.000000 1.000000 1.000000 1.000000 1.000000 1.000000 1.000000 1.000000 1.000000 1.000000 1.000000 1.000000 1.000000 1.000000 1.000000 1.000000 1.000000 1.000000 1.000000 1.000000 1.000000 1.000000 1.000000 1.000000 1.000000 1.000000 1.000000 1.000000 1.000000 1.000000 1.000000 1.000000 1.000000 1.000000 1.000000 1.000000 1.000000 1.000000 1.000000 1.000000 1.000000 1.000000 1.000000 1.000000 1.000000 1.000000 1.000000 1.000000 0.834303 0.834303 0.834303 0.834303 0.834303 0.834303 0.834303 0.811624 0.811624 0.811624 0.811624 0.811624 0.811624 0.811624 0.811624 0.811624 0.811624 0.811624 0.811624 0.811624 0.811624 0.811624 0.811624 0.811624 0.811624 0.811624 0.811624 0.811624 0.811624 0.811624 0.811624 0.811624 0.811624 0.811624 0.811624 0.811624 0.811624 0.811624 0.811624 0.811624 0.811624 0.811624 0.811624 0.811624 0.811624 0.811624 0.811624 0.811624 0.811624 0.811624 0.811624 0.951018 0.951699 0.944005 0.942877 0.941094 0.937927 0.933413 0.932948 0.934306 0.934516 0.935162 0.937372 0.938459 0.940219 0.941506 0.942419 0.943284 0.951344 0.954954 0.955361 0.954875 0.950206 0.956789 0.955953 0.955788 0.956599 0.956912 0.957633 0.957504 0.957329 0.956767 0.955590 0.956330 0.956182 0.955444 0.954393 0.952480 0.952479 0.952023 0.952019 0.952987 0.953873 0.954516 0.955031 0.954985 0.955177 0.955156 0.955054 0.949960 0.949994 0.943601 0.944318 0.945515 0.945212 0.944136 0.942732 0.942779 0.942634 0.942535 0.942320 0.942551 0.923777 0.923226 0.923259 0.923390 0.915845 0.905293 0.898522 0.892097 0.892998 0.896917 0.901736 0.901934 0.898818 0.897997 0.881927 0.885703 0.873204 0.870222 0.858629 0.869015 0.871196 0.872630 0.868043 0.867451 0.866219 0.864247 0.855593 0.859618 0.860131 0.855980 0.852611 0.850323 0.849183 0.850556 0.855370 0.851628 0.847006 0.844329 0.832780 0.823444 0.822222 0.824952 0.832730 0.844762 0.845349 0.844652 0.837193 0.833331 0.826286 0.820086 0.816726 0.818624 0.815796 0.819814 0.817979 0.824573 0.814608 0.810028 0.815128 0.824181 0.829814 0.832666 0.835084 0.833025 0.830894 0.813531 0.814188 0.806383 0.757480 0.760821 0.747957 0.747627 0.738131 0.736805 0.733867 0.734570 0.728839 0.715755 0.727627 0.719102 0.690699 0.698534 0.691703 0.680399 0.658954 0.662722 0.677281 0.685722 0.684583 0.690691 0.678036 0.677441 0.690289 0.690622 0.698230 0.693484 0.691770 0.684541 0.686204 0.675562 0.675952 0.669611 0.668506 0.668953 0.665236 0.653676 0.661210 0.658333 0.653746 0.645145 0.604673 0.568546 0.547519 0.541311 0.523294 0.498246 0.515024 0.525548 0.507950 0.498813 0.480824 0.440553 0.431051 0.429406 0.402526 0.386788 0.365152 0.334734 0.335950 0.341731 0.346754 0.334588 0.332583 0.317142 0.273749 0.267452 0.228955 0.245646 0.268191 0.254838 0.232727 0.235303 0.247500 0.242457 0.254664 0.253163 0.266666 0.222180 0.168886 0.185595 0.182665 0.195794 0.180967 0.152758 0.179034 0.165610 0.175038 0.177873 0.136851 0.105413 0.085609 0.058479 0.064392 0.089064 0.105061 0.099209 0.079434 -0.007896 0.023917 0.048909 0.048909 0.048909 0.048909 0.048909 0.048909 0.048909 0.048909 0.048909 0.048909 0.048909 -0.012571 -0.012571 -0.012571 -0.012571 -0.012571 -0.012571 -0.012571 -0.012571 -0.012571 -0.012571 -0.012571 -0.012571 -0.012571 -0.012571 -0.012571 -0.012571 -0.012571 -0.012571 -0.012571
0.000000 0.000000 0.000000 0.000000 0.000000 0.000000 0.000000 0.000000 0.000000 0.000000 0.000000 0.000000 0.000000 0.000000 0.000000 0.000000 0.000000 0.000000 0.000000 0.000000 0.000000 0.000000 0.000000 0.000000 0.000000 0.000000 0.000000 0.000000 0.000000 0.000000 0.000000 0.000000 0.000000 0.000000 0.000000 0.000000 0.000000 0.000000 0.000000 0.000000 0.000000 0.000000 0.000000 0.000000 0.000000 0.000000 0.000000 0.000000 0.000000 0.000000 0.000000 0.000000 0.173422 0.173422 0.173422 0.173422 0.173422 0.173422 0.173422 0.191565 0.191565 0.191565 0.191565 0.191565 0.191565 0.191565 0.191565 0.191565 0.191565 0.191565 0.191565 0.191565 0.191565 0.191565 0.191565 0.191565 0.191565 0.191565 0.191565 0.191565 0.191565 0.191565 0.191565 0.191565 0.191565 0.191565 0.191565 0.191565 0.191565 0.191565 0.191565 0.191565 0.191565 0.191565 0.191565 0.191565 0.191565 0.191565 0.191565 0.191565 0.191565 0.191565 0.191565 0.219529 0.219529 0.219529 0.219529 0.219529 0.219529 0.219529 0.219529 0.219529 0.219529 0.219529 0.219529 0.219529 0.219529 0.219529 0.219529 0.219529 0.219529 0.219529 0.219529 0.219529 0.219529 0.219529 0.219529 0.219529 0.219529 0.219529 0.219529 0.219529 0.219529 0.219529 0.237356 0.237356 0.237356 0.237356 0.237356 0.237356 0.237356 0.237356 0.237356 0.237356 0.237356 0.237356 0.237356 0.237356 0.237356 0.237356 0.237356 0.237356 0.237356 0.237356 0.237356 0.237356 0.237356 0.237356 0.244339 0.244339 0.244339 0.244339 0.244339 0.244339 0.244339 0.244339 0.244339 0.244339 0.244339 0.244339 0.244339 0.244339 0.244339 0.244339 0.244339 0.244339 0.244339 0.244339 0.244339 0.248069 0.248069 0.248069 0.248069 0.248069 0.248069 0.248069 0.248069 0.248069 0.248069 0.248069 0.248069 0.248069 0.248069 0.248069 0.248069 0.248069 0.248069 0.248069 0.248069 0.248069 0.248069 0.248069 0.248069 0.248069 0.248069 0.248069 0.248069 0.248069 0.248069 0.248069 0.248069 0.248069 0.248069 0.248069 0.248069 0.248069 0.256074 0.256074 0.256074 0.256074 0.256074 0.256074 0.256074 0.256074 0.256074 0.256074 0.256074 0.256074 0.256074 0.256074 0.256074 0.256074 0.256074 0.256074 0.256074 0.256074 0.256074 0.256074 0.256074 0.256074 0.256074 0.256074 0.256074 0.256074 0.256074 0.256074 0.256074 0.256074 0.256074 0.256074 0.256074 0.256074 0.256074 0.256074 0.256074 0.256074 0.256074 0.256074 0.256074 0.256074 0.256074 0.260378 0.260378 0.260378 0.260378 0.260378 0.260378 0.260378 0.260378 0.260378 0.260378 0.260378 0.260378 0.260378 0.256074 0.256074 0.256074 0.256074 0.256074 0.256074 0.256074 0.256074 0.256074 0.256074 0.256074 0.256074 0.256074 0.260378 0.260378 0.260378 0.260378 0.260378 0.260378 0.260378 0.260378 0.260378 0.260378 0.260378 0.260378 0.251976 0.251976 0.251976 0.251976 0.251976 0.251976 0.251976 0.251976 0.251976 0.251976 0.251976 0.251976 0.256074 0.256074 0.256074 0.256074 0.256074 0.256074 0.256074 0.256074 0.256074 0.256074 0.256074 0.251976 0.251976 0.251976 0.251976 0.251976 0.251976 0.251976 0.251976 0.251976 0.251976 0.251976 0.248069 0.248069 0.248069 0.248069 0.248069 0.248069 0.248069 0.248069 0.248069 0.248069 0.248069 0.256074 0.256074 0.256074 0.256074 0.256074 0.256074 0.256074 0.256074 0.256074 0.256074 0.256074 0.256074 0.256074 0.256074 0.256074 0.256074 0.256074 0.256074 0.256074
