# Output from CTFFind version 4.1.9, run on 2019-11-02 17:44:19
# Input file: stack11_bm3d_averaged_1_1.5_0_250_half.mrc ; Number of micrographs: 1
# Pixel size: 3.000 Angstroms ; acceleration voltage: 300.0 keV ; spherical aberration: 0.00 mm ; amplitude contrast: 0.07
# Box size: 512 pixels ; min. res.: 30.0 Angstroms ; max. res.: 5.0 Angstroms ; min. def.: 5000.0 um; max. def. 50000.0 um; num. frames averaged: 1
# 6 lines per micrograph: #1 - spatial frequency (1/Angstroms); #2 - 1D rotational average of spectrum (assuming no astigmatism); #3 - 1D rotational average of spectrum; #4 - CTF fit; #5 - cross-correlation between spectrum and CTF fit; #6 - 2sigma of expected cross correlation of noise
0.000000 0.000651 0.001302 0.001953 0.002604 0.003255 0.003906 0.004557 0.005208 0.005859 0.006510 0.007161 0.007812 0.008464 0.009115 0.009766 0.010417 0.011068 0.011719 0.012370 0.013021 0.013672 0.014323 0.014974 0.015625 0.016276 0.016927 0.017578 0.018229 0.018880 0.019531 0.020182 0.020833 0.021484 0.022135 0.022786 0.023438 0.024089 0.024740 0.025391 0.026042 0.026693 0.027344 0.027995 0.028646 0.029297 0.029948 0.030599 0.031250 0.031901 0.032552 0.033203 0.033854 0.034505 0.035156 0.035807 0.036458 0.037109 0.037760 0.038411 0.039062 0.039714 0.040365 0.041016 0.041667 0.042318 0.042969 0.043620 0.044271 0.044922 0.045573 0.046224 0.046875 0.047526 0.048177 0.048828 0.049479 0.050130 0.050781 0.051432 0.052083 0.052734 0.053385 0.054036 0.054688 0.055339 0.055990 0.056641 0.057292 0.057943 0.058594 0.059245 0.059896 0.060547 0.061198 0.061849 0.062500 0.063151 0.063802 0.064453 0.065104 0.065755 0.066406 0.067057 0.067708 0.068359 0.069010 0.069661 0.070312 0.070964 0.071615 0.072266 0.072917 0.073568 0.074219 0.074870 0.075521 0.076172 0.076823 0.077474 0.078125 0.078776 0.079427 0.080078 0.080729 0.081380 0.082031 0.082682 0.083333 0.083984 0.084635 0.085286 0.085938 0.086589 0.087240 0.087891 0.088542 0.089193 0.089844 0.090495 0.091146 0.091797 0.092448 0.093099 0.093750 0.094401 0.095052 0.095703 0.096354 0.097005 0.097656 0.098307 0.098958 0.099609 0.100260 0.100911 0.101562 0.102214 0.102865 0.103516 0.104167 0.104818 0.105469 0.106120 0.106771 0.107422 0.108073 0.108724 0.109375 0.110026 0.110677 0.111328 0.111979 0.112630 0.113281 0.113932 0.114583 0.115234 0.115885 0.116536 0.117188 0.117839 0.118490 0.119141 0.119792 0.120443 0.121094 0.121745 0.122396 0.123047 0.123698 0.124349 0.125000 0.125651 0.126302 0.126953 0.127604 0.128255 0.128906 0.129557 0.130208 0.130859 0.131510 0.132161 0.132812 0.133464 0.134115 0.134766 0.135417 0.136068 0.136719 0.137370 0.138021 0.138672 0.139323 0.139974 0.140625 0.141276 0.141927 0.142578 0.143229 0.143880 0.144531 0.145182 0.145833 0.146484 0.147135 0.147786 0.148438 0.149089 0.149740 0.150391 0.151042 0.151693 0.152344 0.152995 0.153646 0.154297 0.154948 0.155599 0.156250 0.156901 0.157552 0.158203 0.158854 0.159505 0.160156 0.160807 0.161458 0.162109 0.162760 0.163411 0.164062 0.164714 0.165365 0.166016 0.166667 0.167318 0.167969 0.168620 0.169271 0.169922 0.170573 0.171224 0.171875 0.172526 0.173177 0.173828 0.174479 0.175130 0.175781 0.176432 0.177083 0.177734 0.178385 0.179036 0.179688 0.180339 0.180990 0.181641 0.182292 0.182943 0.183594 0.184245 0.184896 0.185547 0.186198 0.186849 0.187500 0.188151 0.188802 0.189453 0.190104 0.190755 0.191406 0.192057 0.192708 0.193359 0.194010 0.194661 0.195312 0.195964 0.196615 0.197266 0.197917 0.198568 0.199219 0.199870 0.200521 0.201172 0.201823 0.202474 0.203125 0.203776 0.204427 0.205078 0.205729 0.206380 0.207031 0.207682 0.208333 0.208984 0.209635 0.210286 0.210938 0.211589 0.212240 0.212891 0.213542 0.214193 0.214844 0.215495 0.216146 0.216797 0.217448 0.218099 0.218750 0.219401 0.220052 0.220703 0.221354 0.222005 0.222656 0.223307 0.223958 0.224609 0.225260 0.225911 0.226562 0.227214 0.227865 0.228516 0.229167 0.229818 0.230469 0.231120 0.231771 0.232422 0.233073 0.233724 0.234375 0.235026 0.235677
       0.31863        0.31863        0.31863        0.31863        0.31863        0.31863        0.31863        0.31863        0.31863        0.31863        0.31863        0.31863        0.31863        0.31863        0.31863        0.31863        0.31863        0.31863        0.31863        0.31863        0.31863        0.31863        0.31863        0.31863        0.31863        0.31863        0.31863        0.31863        0.31863        0.31863        0.31863        0.31863        0.31863        0.31863        0.31863        0.31863        0.31863        0.31863        0.31863        0.31863        0.31863        0.31863        0.31863        0.31863        0.31863        0.31863        0.31863        0.31863        0.31863        0.31863        0.31863        0.68362        0.86718        0.52388        0.09057       -0.05893       -0.42001       -0.20249       -0.29449       -0.11539       -0.07210       -0.11747       -0.06510       -0.20284       -0.23041       -0.25327       -0.32694       -0.33658       -0.48231       -0.37903       -0.46127       -0.44529       -0.41768       -0.46331       -0.53150       -0.55527       -0.58301       -0.61707       -0.57313       -0.41017       -0.37594       -0.32647       -0.30859       -0.21128       -0.19992        0.02018        0.08224        0.11470        0.22930        0.37134        0.44393        0.51233        0.55991        0.55703        0.56721        0.69616        0.81036        0.73339        0.73223        0.66109        0.57648        0.48148        0.40987        0.49555        0.37971        0.21290        0.07914        0.05356        0.02164       -0.05887       -0.03160       -0.01424       -0.06453       -0.00814       -0.01472        0.21547        0.25159        0.28759        0.42789        0.45552        0.40508        0.54429        0.62466        0.69387        0.75643        0.68643        0.65129        0.69521        0.58321        0.49819        0.41959        0.28987        0.19431        0.15554        0.10653        0.04173        0.01481        0.00448        0.07657        0.13162        0.20874        0.28171        0.39620        0.42436        0.50651        0.60250        0.62987        0.62535        0.62870        0.55795        0.44919        0.45258        0.35476        0.23017        0.17816        0.14733        0.11847        0.12323        0.07819        0.10884        0.24036        0.26600        0.34996        0.36303        0.44751        0.51365        0.53903        0.55006        0.47328        0.43585        0.39057        0.35939        0.30338        0.25345        0.20378        0.19213        0.16786        0.19523        0.18275        0.27581        0.33624        0.37265        0.43018        0.45805        0.47892        0.43795        0.39339        0.41554        0.37030        0.28589        0.26669        0.22193        0.21701        0.19481        0.22197        0.23347        0.32935        0.37265        0.37138        0.46365        0.43551        0.43565        0.42874        0.39693        0.34477        0.32293        0.27542        0.25142        0.24006        0.27598        0.27554        0.30316        0.30897        0.33666        0.32627        0.40720        0.42138        0.37824        0.34793        0.37055        0.28517        0.28424        0.26072        0.28423        0.26382        0.27915        0.29060        0.30992        0.34882        0.36518        0.36425        0.34290        0.35606        0.28853        0.32021        0.26877        0.24167        0.29208        0.28803        0.31334        0.31098        0.32619        0.33298        0.31653        0.31715        0.28667        0.29397        0.26795        0.28360        0.26026        0.30345        0.28613        0.27343        0.30737        0.31580        0.32351        0.28100        0.30456        0.28170        0.25730        0.24974        0.21999        0.28268        0.27816        0.32927        0.31196        0.31801        0.32037        0.31351        0.27639        0.29419        0.32679        0.26841        0.25888        0.29708        0.28981        0.33605        0.33070        0.34375        0.33034        0.30447        0.28168        0.27436        0.25318        0.22651        0.28180        0.31069        0.29756        0.28319        0.29549        0.27358        0.32873        0.32225        0.24977        0.22025        0.28257        0.32450        0.27522        0.30898        0.32639        0.32867        0.31046        0.31668        0.34029        0.30758        0.28943        0.25801        0.29307        0.35877        0.36298        0.27034        0.26384        0.26021        0.29896        0.22275        0.29048        0.23098        0.24760        0.33551        0.32458        0.34447        0.29660        0.24991        0.23867        0.24063        0.22712        0.20259        0.23609        0.27563        0.31127        0.25430        0.31423        0.31662        0.27189        0.26499        0.20720        0.16505        0.20390        0.22548        0.20979        0.21281        0.22800        0.19266        0.25232        0.34971        0.31545        0.32818        0.23457        0.21336        0.21246        0.28802        0.29018        0.13302        0.21783        0.23151        0.11373        0.19275        0.11367        0.13317        0.19213        0.09790       -0.11799       -0.58322
2.598239 2.571063 2.544034 2.517154 2.490421 2.463835 2.437397 2.411107 2.384964 2.358969 2.333121 2.307421 2.281868 2.256463 2.231206 2.206096 2.181134 2.156320 2.131653 2.107133 2.082761 2.058537 2.034460 2.010531 1.986750 1.963116 1.939630 1.916291 1.893100 1.870056 1.847160 1.824412 1.801811 1.779358 1.757052 1.734894 1.712883 1.691020 1.669305 1.647737 1.626317 1.605045 1.583919 1.562942 1.542112 1.521430 1.500895 1.480508 1.460269 1.440177 1.420232 1.639139 2.047967 1.621321 1.134338 0.992840 0.425448 0.815221 0.562000 0.835040 0.778037 0.790648 0.751631 0.713409 0.567308 0.518766 0.486856 0.439789 0.212872 0.380522 0.202470 0.309985 0.237613 0.183315 0.137712 0.012411 0.040172 -0.011079 -0.056981 0.107184 0.208840 0.192516 0.159480 0.328970 0.194607 0.492450 0.585331 0.560366 0.598810 0.873338 0.811829 0.940168 0.887216 0.975995 0.944919 1.068714 1.149048 1.070015 1.121532 0.940918 0.939003 0.780004 0.651524 0.772537 0.707803 0.467675 0.310516 0.249814 0.225527 0.146925 0.093292 0.131012 0.077350 0.142706 0.057889 0.261991 0.377582 0.351827 0.479216 0.570075 0.457679 0.557188 0.698366 0.736584 0.767595 0.730206 0.723760 0.707261 0.626277 0.563033 0.422185 0.287531 0.207502 0.078170 0.126864 -0.047822 -0.032087 -0.075659 -0.043129 -0.001615 0.148118 0.087368 0.289062 0.283210 0.360714 0.454477 0.521348 0.511084 0.514618 0.510189 0.332966 0.310005 0.280510 0.099961 0.045662 -0.019854 -0.024005 -0.043018 -0.087561 -0.103716 0.003614 0.062525 0.129376 0.155903 0.227686 0.322831 0.316558 0.427148 0.390768 0.281010 0.234408 0.236722 0.190463 0.107406 0.079124 0.013634 0.004306 0.011973 -0.016794 0.064910 0.149021 0.144812 0.240174 0.252157 0.312609 0.241744 0.218516 0.179517 0.213887 0.135112 0.046060 0.028493 -0.009208 -0.010392 -0.034495 0.023139 0.018807 0.165358 0.134515 0.178985 0.239479 0.192739 0.185979 0.197145 0.144119 0.095419 0.054705 0.051733 -0.024020 0.006315 0.028400 0.056314 0.056921 0.080218 0.089561 0.118515 0.145167 0.193163 0.083025 0.100770 0.077141 0.011188 0.007946 0.008434 0.003044 0.020012 0.005719 0.028286 0.066412 0.087774 0.122723 0.055827 0.113625 0.058967 0.016622 0.061210 -0.034700 -0.012141 0.036916 0.006081 0.064368 0.050520 0.050811 0.082230 0.052441 0.041648 0.027491 0.009021 0.021434 0.010782 -0.011415 0.069465 -0.008367 0.020522 0.060460 0.054717 0.048874 0.044476 0.045266 0.021358 -0.003887 -0.030411 -0.011866 0.028605 0.038577 0.082594 0.064394 0.070758 0.084973 0.070419 0.036442 0.078278 0.089415 0.017039 0.022675 0.070192 0.053812 0.104614 0.103419 0.097086 0.124853 0.073010 0.040945 0.046641 -0.003329 0.010148 0.066911 0.086538 0.052498 0.048206 0.024016 0.023811 0.103589 0.055360 -0.041817 -0.043246 0.037595 0.089531 -0.001908 0.036783 0.083026 0.080566 0.048093 0.049630 0.081506 0.045633 0.037348 -0.036962 0.039231 0.125115 0.077435 -0.025218 -0.023031 -0.035856 0.054029 -0.103462 0.037019 -0.082916 -0.033328 0.060658 0.045678 0.032149 -0.030947 -0.052162 -0.068651 -0.084307 -0.064638 -0.090095 -0.082087 -0.015123 0.061234 -0.039723 0.062287 0.008702 -0.040940 0.042587 -0.100659 -0.099278 -0.068531 -0.007107 -0.027282 -0.044200 0.017948 -0.018689 0.030332 0.213074 0.004956 0.180492 0.045269 0.217605 0.237281 0.325930 0.279441 0.096392 0.220470 0.275487 0.052262 0.210738 0.115255 0.123136 0.269120 0.100137 -0.606119
0.072396 0.072899 0.074406 0.076919 0.080435 0.084955 0.090477 0.096999 0.104520 0.113036 0.122544 0.133039 0.144518 0.156972 0.170394 0.184776 0.200105 0.216370 0.233556 0.251644 0.270615 0.290446 0.311111 0.332580 0.354822 0.377797 0.401465 0.425781 0.450692 0.476144 0.502075 0.528418 0.555100 0.582043 0.609161 0.636363 0.663549 0.690615 0.717450 0.743933 0.769940 0.795338 0.819989 0.843747 0.866460 0.887972 0.908121 0.926740 0.943658 0.958700 0.971691 0.982452 0.990806 0.996574 0.999583 0.999661 0.996641 0.990365 0.980681 0.967450 0.950545 0.929852 0.905275 0.876737 0.844181 0.807575 0.766911 0.722210 0.673520 0.620925 0.564541 0.504517 0.441043 0.374345 0.304690 0.232383 0.157772 0.081243 0.003224 0.075821 0.155386 0.234934 0.313894 0.391665 0.467620 0.541113 0.611482 0.678054 0.740155 0.797111 0.848264 0.892974 0.930630 0.960657 0.982528 0.995775 0.999991 0.994848 0.980104 0.955606 0.921306 0.877266 0.823662 0.760792 0.689081 0.609079 0.521467 0.427054 0.326773 0.221677 0.112932 0.001806 0.110346 0.222088 0.331928 0.438337 0.539762 0.634662 0.721519 0.798877 0.865358 0.919698 0.960770 0.987612 0.999452 0.995736 0.976144 0.940614 0.889354 0.822857 0.741902 0.647559 0.541184 0.424403 0.299103 0.167404 0.031625 0.105744 0.242094 0.374735 0.500960 0.618091 0.723545 0.814893 0.889921 0.946692 0.983602 0.999432 0.993399 0.965189 0.914992 0.843521 0.752016 0.642239 0.516458 0.377407 0.228243 0.072479 0.086089 0.243469 0.395576 0.538332 0.667782 0.780211 0.872252 0.941002 0.984126 0.999944 0.987511 0.946677 0.878125 0.783383 0.664812 0.525571 0.369548 0.201266 0.025768 0.151531 0.325000 0.488975 0.637943 0.766738 0.870723 0.945980 0.989470 0.999172 0.974198 0.914865 0.822730 0.700585 0.552388 0.383174 0.198889 0.006212 0.187691 0.375409 0.549591 0.703222 0.829924 0.924237 0.981873 0.999935 0.977091 0.913677 0.811750 0.675051 0.508911 0.320064 0.116401 0.093337 0.299931 0.494078 0.666822 0.809973 0.916518 0.980985 0.999761 0.971321 0.896372 0.777889 0.621044 0.433020 0.222717 0.000352 0.223014 0.436019 0.627581 0.787488 0.906960 0.979165 0.999641 0.966614 0.881180 0.747322 0.571792 0.363801 0.134585 0.103181 0.336061 0.550619 0.734200 0.875698 0.966256 0.999870 0.973826 0.888962 0.749724 0.563988 0.342675 0.099145 0.151566 0.393670 0.611613 0.791087 0.919997 0.989328 0.993814 0.932399 0.808423 0.629521 0.407209 0.156208 0.106501 0.362797 0.594658 0.785447 0.921142 0.991406 0.990437 0.917513 0.777175 0.579027 0.337164 0.069204 0.204928 0.464480 0.689437 0.862094 0.968483 0.999581 0.952134 0.829066 0.639405 0.397695 0.122962 0.162734 0.436053 0.674256 0.857154 0.968835 0.999141 0.944658 0.809182 0.603560 0.344918 0.055309 0.240115 0.515264 0.745413 0.909467 0.991954 0.984566 0.887092 0.707623 0.461995 0.172484 0.134146 0.429066 0.684105 0.874450 0.981132 0.993001 0.907993 0.733540 0.486039 0.189426 0.127056 0.431712 0.693536 0.885416 0.987004 0.986967 0.884373 0.689004 0.420565 0.106814 0.219242 0.522777 0.770853 0.936060 0.999623 0.953651 0.802240 0.561274 0.256891 0.077247 0.403613 0.685003 0.888819 0.990918 0.978592 0.852279 0.625789 0.324942 0.015248 0.354571 0.652343 0.872305 0.987120 0.981897 0.856256 0.624683 0.315005 0.034801 0.381192 0.680448 0.894211 0.994511 0.967541 0.815735 0.557749 0.226357 0.135587
1.000000 1.000000 1.000000 1.000000 1.000000 1.000000 1.000000 1.000000 1.000000 1.000000 1.000000 1.000000 1.000000 1.000000 1.000000 1.000000 1.000000 1.000000 1.000000 1.000000 1.000000 1.000000 1.000000 1.000000 1.000000 1.000000 1.000000 1.000000 1.000000 1.000000 1.000000 1.000000 1.000000 1.000000 1.000000 1.000000 1.000000 1.000000 1.000000 1.000000 1.000000 1.000000 1.000000 1.000000 1.000000 1.000000 1.000000 1.000000 1.000000 1.000000 1.000000 1.000000 0.926793 0.926793 0.926793 0.918202 0.918202 0.918202 0.918202 0.918202 0.918202 0.918202 0.918202 0.918202 0.918202 0.918202 0.918202 0.918202 0.918202 0.918202 0.918202 0.918202 0.918202 0.918202 0.918202 0.918202 0.918202 0.918202 0.918202 0.918202 0.918202 0.918202 0.918202 0.918202 0.918202 0.918202 0.918202 0.918202 0.918202 0.918202 0.918202 0.918202 0.918202 0.918202 0.918202 0.918202 0.947010 0.948312 0.956286 0.956139 0.955630 0.953560 0.952570 0.952158 0.952058 0.952349 0.952982 0.953848 0.962557 0.963640 0.966369 0.967206 0.967930 0.968582 0.969266 0.969999 0.966630 0.965710 0.965222 0.961340 0.964017 0.963388 0.963512 0.964532 0.964425 0.966194 0.966338 0.965746 0.964851 0.964089 0.963339 0.962900 0.962624 0.963132 0.963447 0.964769 0.967944 0.967430 0.967107 0.967265 0.967370 0.967571 0.968053 0.969793 0.966158 0.966685 0.964998 0.962882 0.966855 0.964176 0.964641 0.965171 0.966660 0.966897 0.963841 0.959312 0.952262 0.951162 0.947321 0.938872 0.936653 0.937854 0.940181 0.940647 0.939720 0.932688 0.933235 0.927178 0.927206 0.930437 0.925822 0.923637 0.925009 0.923414 0.921446 0.920701 0.917886 0.913728 0.911091 0.910929 0.914498 0.916490 0.917830 0.917386 0.912553 0.905826 0.889811 0.885944 0.881247 0.884609 0.873557 0.873201 0.873284 0.870117 0.874131 0.876298 0.877258 0.872742 0.853338 0.831126 0.820993 0.826380 0.832359 0.830907 0.828364 0.821729 0.834637 0.815437 0.828450 0.839484 0.832304 0.832938 0.831586 0.828441 0.821812 0.821623 0.822671 0.822263 0.820892 0.820519 0.815944 0.806490 0.810055 0.766688 0.752040 0.746544 0.751345 0.756733 0.758288 0.757171 0.764309 0.769499 0.766098 0.751058 0.743484 0.734172 0.739327 0.743978 0.748509 0.738857 0.722181 0.710947 0.674453 0.691018 0.715955 0.672095 0.695206 0.704437 0.697978 0.696803 0.688895 0.681546 0.674009 0.677313 0.691117 0.711153 0.728122 0.752849 0.744242 0.734520 0.733607 0.719326 0.704637 0.695019 0.703538 0.684641 0.679985 0.702027 0.701699 0.689285 0.673499 0.653308 0.648539 0.653398 0.658905 0.655396 0.652413 0.634434 0.603610 0.599220 0.623372 0.641213 0.661595 0.644797 0.629933 0.621019 0.592647 0.607827 0.558642 0.557660 0.578599 0.585350 0.561344 0.541329 0.550131 0.570734 0.580784 0.570585 0.542054 0.530994 0.544357 0.570988 0.562324 0.537300 0.543854 0.541209 0.537259 0.480328 0.479190 0.447867 0.420500 0.365404 0.340579 0.338604 0.326292 0.320004 0.290247 0.285252 0.294388 0.303117 0.312123 0.309268 0.290863 0.301210 0.295539 0.282546 0.222862 0.211120 0.201782 0.193697 0.193237 0.172101 0.190656 0.246748 0.247953 0.247953 0.247953 0.247953 0.247953 0.247953 0.257817 0.257817 0.257817 0.257817 0.257817 0.257817 0.257817 0.257817 0.257817 0.270786 0.270786 0.270786 0.270786 0.270786 0.270786 0.270786 0.270786 0.270786 0.270786 0.270786 0.270786 0.270786 0.270786
0.000000 0.000000 0.000000 0.000000 0.000000 0.000000 0.000000 0.000000 0.000000 0.000000 0.000000 0.000000 0.000000 0.000000 0.000000 0.000000 0.000000 0.000000 0.000000 0.000000 0.000000 0.000000 0.000000 0.000000 0.000000 0.000000 0.000000 0.000000 0.000000 0.000000 0.000000 0.000000 0.000000 0.000000 0.000000 0.000000 0.000000 0.000000 0.000000 0.000000 0.000000 0.000000 0.000000 0.000000 0.000000 0.000000 0.000000 0.000000 0.000000 0.000000 0.000000 0.000000 0.180334 0.180334 0.180334 0.199007 0.199007 0.199007 0.199007 0.199007 0.199007 0.199007 0.199007 0.199007 0.199007 0.199007 0.199007 0.199007 0.199007 0.199007 0.199007 0.199007 0.199007 0.199007 0.199007 0.199007 0.199007 0.199007 0.199007 0.199007 0.199007 0.199007 0.199007 0.199007 0.199007 0.199007 0.199007 0.199007 0.199007 0.199007 0.199007 0.199007 0.199007 0.199007 0.199007 0.199007 0.225018 0.225018 0.225018 0.225018 0.225018 0.225018 0.225018 0.225018 0.225018 0.225018 0.225018 0.225018 0.225018 0.225018 0.225018 0.225018 0.225018 0.225018 0.225018 0.225018 0.225018 0.225018 0.225018 0.225018 0.225018 0.225018 0.225018 0.225018 0.225018 0.244339 0.244339 0.244339 0.244339 0.244339 0.244339 0.244339 0.244339 0.244339 0.244339 0.244339 0.244339 0.244339 0.244339 0.244339 0.244339 0.244339 0.244339 0.244339 0.244339 0.244339 0.244339 0.244339 0.251976 0.251976 0.251976 0.251976 0.251976 0.251976 0.251976 0.251976 0.251976 0.251976 0.251976 0.251976 0.251976 0.251976 0.251976 0.251976 0.251976 0.251976 0.251976 0.251976 0.264906 0.264906 0.264906 0.264906 0.264906 0.264906 0.264906 0.264906 0.264906 0.264906 0.264906 0.264906 0.264906 0.264906 0.264906 0.264906 0.264906 0.264906 0.264906 0.264906 0.264906 0.264906 0.264906 0.264906 0.264906 0.264906 0.264906 0.264906 0.264906 0.264906 0.264906 0.264906 0.264906 0.264906 0.264906 0.264906 0.264906 0.264906 0.264906 0.264906 0.264906 0.264906 0.264906 0.264906 0.264906 0.264906 0.264906 0.264906 0.264906 0.264906 0.264906 0.264906 0.264906 0.264906 0.264906 0.264906 0.264906 0.264906 0.264906 0.264906 0.264906 0.264906 0.256074 0.256074 0.256074 0.256074 0.256074 0.256074 0.256074 0.256074 0.256074 0.256074 0.256074 0.256074 0.256074 0.256074 0.269680 0.269680 0.269680 0.269680 0.269680 0.269680 0.269680 0.269680 0.269680 0.269680 0.269680 0.269680 0.264906 0.264906 0.264906 0.264906 0.264906 0.264906 0.264906 0.264906 0.264906 0.264906 0.264906 0.264906 0.269680 0.269680 0.269680 0.269680 0.269680 0.269680 0.269680 0.269680 0.269680 0.269680 0.269680 0.264906 0.264906 0.264906 0.264906 0.264906 0.264906 0.264906 0.264906 0.264906 0.264906 0.264906 0.256074 0.256074 0.256074 0.256074 0.256074 0.256074 0.256074 0.256074 0.256074 0.256074 0.256074 0.264906 0.264906 0.264906 0.264906 0.264906 0.264906 0.264906 0.264906 0.264906 0.264906 0.260378 0.260378 0.260378 0.260378 0.260378 0.260378 0.260378 0.260378 0.260378 0.260378 0.256074 0.256074 0.256074 0.256074 0.256074 0.256074 0.256074 0.256074 0.256074 0.256074 0.260378 0.260378 0.260378 0.260378 0.260378 0.260378 0.260378 0.260378 0.260378 0.256074 0.256074 0.256074 0.256074 0.256074 0.256074 0.256074 0.256074 0.256074 0.251976 0.251976 0.251976 0.251976 0.251976 0.251976 0.251976 0.251976 0.251976 0.251976 0.251976 0.251976 0.251976 0.251976
