# Output from CTFFind version 4.1.9, run on 2019-11-03 20:05:12
# Input file: stack6_bm3d_averaged_1_6.5_0_750_half.mrc ; Number of micrographs: 1
# Pixel size: 3.000 Angstroms ; acceleration voltage: 300.0 keV ; spherical aberration: 0.00 mm ; amplitude contrast: 0.07
# Box size: 512 pixels ; min. res.: 30.0 Angstroms ; max. res.: 5.0 Angstroms ; min. def.: 5000.0 um; max. def. 50000.0 um; num. frames averaged: 1
# 6 lines per micrograph: #1 - spatial frequency (1/Angstroms); #2 - 1D rotational average of spectrum (assuming no astigmatism); #3 - 1D rotational average of spectrum; #4 - CTF fit; #5 - cross-correlation between spectrum and CTF fit; #6 - 2sigma of expected cross correlation of noise
0.000000 0.000651 0.001302 0.001953 0.002604 0.003255 0.003906 0.004557 0.005208 0.005859 0.006510 0.007161 0.007812 0.008464 0.009115 0.009766 0.010417 0.011068 0.011719 0.012370 0.013021 0.013672 0.014323 0.014974 0.015625 0.016276 0.016927 0.017578 0.018229 0.018880 0.019531 0.020182 0.020833 0.021484 0.022135 0.022786 0.023438 0.024089 0.024740 0.025391 0.026042 0.026693 0.027344 0.027995 0.028646 0.029297 0.029948 0.030599 0.031250 0.031901 0.032552 0.033203 0.033854 0.034505 0.035156 0.035807 0.036458 0.037109 0.037760 0.038411 0.039062 0.039714 0.040365 0.041016 0.041667 0.042318 0.042969 0.043620 0.044271 0.044922 0.045573 0.046224 0.046875 0.047526 0.048177 0.048828 0.049479 0.050130 0.050781 0.051432 0.052083 0.052734 0.053385 0.054036 0.054688 0.055339 0.055990 0.056641 0.057292 0.057943 0.058594 0.059245 0.059896 0.060547 0.061198 0.061849 0.062500 0.063151 0.063802 0.064453 0.065104 0.065755 0.066406 0.067057 0.067708 0.068359 0.069010 0.069661 0.070312 0.070964 0.071615 0.072266 0.072917 0.073568 0.074219 0.074870 0.075521 0.076172 0.076823 0.077474 0.078125 0.078776 0.079427 0.080078 0.080729 0.081380 0.082031 0.082682 0.083333 0.083984 0.084635 0.085286 0.085938 0.086589 0.087240 0.087891 0.088542 0.089193 0.089844 0.090495 0.091146 0.091797 0.092448 0.093099 0.093750 0.094401 0.095052 0.095703 0.096354 0.097005 0.097656 0.098307 0.098958 0.099609 0.100260 0.100911 0.101562 0.102214 0.102865 0.103516 0.104167 0.104818 0.105469 0.106120 0.106771 0.107422 0.108073 0.108724 0.109375 0.110026 0.110677 0.111328 0.111979 0.112630 0.113281 0.113932 0.114583 0.115234 0.115885 0.116536 0.117188 0.117839 0.118490 0.119141 0.119792 0.120443 0.121094 0.121745 0.122396 0.123047 0.123698 0.124349 0.125000 0.125651 0.126302 0.126953 0.127604 0.128255 0.128906 0.129557 0.130208 0.130859 0.131510 0.132161 0.132812 0.133464 0.134115 0.134766 0.135417 0.136068 0.136719 0.137370 0.138021 0.138672 0.139323 0.139974 0.140625 0.141276 0.141927 0.142578 0.143229 0.143880 0.144531 0.145182 0.145833 0.146484 0.147135 0.147786 0.148438 0.149089 0.149740 0.150391 0.151042 0.151693 0.152344 0.152995 0.153646 0.154297 0.154948 0.155599 0.156250 0.156901 0.157552 0.158203 0.158854 0.159505 0.160156 0.160807 0.161458 0.162109 0.162760 0.163411 0.164062 0.164714 0.165365 0.166016 0.166667 0.167318 0.167969 0.168620 0.169271 0.169922 0.170573 0.171224 0.171875 0.172526 0.173177 0.173828 0.174479 0.175130 0.175781 0.176432 0.177083 0.177734 0.178385 0.179036 0.179688 0.180339 0.180990 0.181641 0.182292 0.182943 0.183594 0.184245 0.184896 0.185547 0.186198 0.186849 0.187500 0.188151 0.188802 0.189453 0.190104 0.190755 0.191406 0.192057 0.192708 0.193359 0.194010 0.194661 0.195312 0.195964 0.196615 0.197266 0.197917 0.198568 0.199219 0.199870 0.200521 0.201172 0.201823 0.202474 0.203125 0.203776 0.204427 0.205078 0.205729 0.206380 0.207031 0.207682 0.208333 0.208984 0.209635 0.210286 0.210938 0.211589 0.212240 0.212891 0.213542 0.214193 0.214844 0.215495 0.216146 0.216797 0.217448 0.218099 0.218750 0.219401 0.220052 0.220703 0.221354 0.222005 0.222656 0.223307 0.223958 0.224609 0.225260 0.225911 0.226562 0.227214 0.227865 0.228516 0.229167 0.229818 0.230469 0.231120 0.231771 0.232422 0.233073 0.233724 0.234375 0.235026 0.235677
       0.32541        0.32541        0.32541        0.32541        0.32541        0.32541        0.32541        0.32541        0.32541        0.32541        0.32541        0.32541        0.32541        0.32541        0.32541        0.32541        0.32541        0.32541        0.32541        0.32541        0.32541        0.32541        0.32541        0.32541        0.32541        0.32541        0.32541        0.32541        0.32541        0.32541        0.32541        0.32541        0.32541        0.32541        0.32541        0.32541        0.32541        0.32541        0.32541        0.32541        0.32541        0.32541        0.32541        0.32541        0.32541        0.32541        0.32541        0.32541        0.32541        0.32541        0.32541        0.59746        0.71368        0.36213        0.17608        0.13544       -0.13548        0.11149        0.03735        0.04000        0.09280        0.30859        0.31291        0.23993        0.14329       -0.03819       -0.01136        0.04833       -0.10246       -0.10925       -0.07375       -0.08410       -0.18967       -0.12242       -0.23376       -0.25240       -0.24865       -0.30941       -0.38331       -0.31523       -0.22276       -0.19046       -0.29514       -0.21637       -0.26197       -0.20346       -0.13706       -0.08046       -0.04944        0.01091        0.05452        0.14281        0.18468        0.22587        0.34354        0.40972        0.35898        0.47538        0.54558        0.55417        0.63342        0.56059        0.59057        0.60141        0.60615        0.60285        0.55739        0.58880        0.54433        0.39398        0.34481        0.37374        0.34438        0.20570        0.18938        0.16120        0.10595        0.10726        0.03116        0.09238        0.07322        0.03524        0.12068        0.17861        0.26951        0.35222        0.35843        0.38619        0.44848        0.48446        0.41957        0.64326        0.54603        0.48200        0.57142        0.50085        0.55042        0.51234        0.38207        0.31964        0.30149        0.25346        0.24335        0.20869        0.18929        0.16223        0.24796        0.22661        0.25527        0.22402        0.27279        0.33129        0.33819        0.44855        0.44255        0.42402        0.41885        0.47626        0.43520        0.42169        0.40141        0.40042        0.33732        0.28507        0.26598        0.26281        0.26183        0.20792        0.18899        0.24246        0.25576        0.28346        0.35020        0.37758        0.42395        0.40757        0.42988        0.47863        0.46628        0.42936        0.38686        0.41679        0.37563        0.32788        0.33617        0.32392        0.26592        0.28083        0.27791        0.24904        0.31632        0.29198        0.31026        0.33132        0.39121        0.41708        0.41032        0.43841        0.38452        0.42582        0.39747        0.32105        0.29480        0.26155        0.27641        0.24348        0.21568        0.30669        0.36627        0.33083        0.30357        0.35846        0.28094        0.33961        0.39439        0.38266        0.36416        0.38204        0.33991        0.35841        0.33613        0.29916        0.28540        0.25716        0.31064        0.32345        0.33863        0.35618        0.38537        0.37236        0.37268        0.32548        0.35290        0.35548        0.33789        0.32734        0.29376        0.28839        0.26368        0.33568        0.33501        0.33827        0.30833        0.34322        0.35632        0.33611        0.35400        0.34059        0.30679        0.30182        0.30418        0.27504        0.26254        0.25318        0.25012        0.26975        0.26036        0.30073        0.28135        0.32005        0.34691        0.26304        0.29710        0.28102        0.23328        0.28685        0.26915        0.26915        0.29698        0.32072        0.32031        0.31121        0.31014        0.30662        0.33810        0.35021        0.29643        0.32439        0.31831        0.36792        0.28340        0.27515        0.28290        0.30853        0.32737        0.35088        0.35616        0.30151        0.23284        0.29617        0.25942        0.25374        0.25587        0.26226        0.29749        0.22949        0.30135        0.32458        0.36156        0.31528        0.30371        0.26904        0.29007        0.29006        0.25171        0.27451        0.27358        0.29759        0.34684        0.33710        0.28941        0.30744        0.32957        0.26319        0.23241        0.18635        0.31942        0.33443        0.35022        0.33087        0.29815        0.23251        0.21553        0.26096        0.26111        0.26404        0.28229        0.28972        0.24268        0.26617        0.25945        0.30489        0.27172        0.26660        0.26743        0.25251        0.20447        0.26285        0.24520        0.22044        0.27794        0.25055        0.26007        0.21939        0.20383        0.27099        0.26858        0.25755        0.17987        0.14966        0.31295        0.22403        0.23105        0.27698        0.17125        0.16343        0.18156        0.25290        0.24687        0.12650       -0.07464       -0.59239       -0.94445
2.377697 2.357499 2.337391 2.317372 2.297444 2.277605 2.257856 2.238198 2.218629 2.199150 2.179761 2.160462 2.141253 2.122134 2.103105 2.084165 2.065316 2.046557 2.027887 2.009308 1.990818 1.972418 1.954108 1.935889 1.917759 1.899719 1.881769 1.863908 1.846138 1.828458 1.810868 1.793367 1.775957 1.758636 1.741405 1.724265 1.707214 1.690253 1.673382 1.656601 1.639910 1.623309 1.606798 1.590376 1.574045 1.557803 1.541652 1.525590 1.509619 1.493737 1.477945 1.837819 2.174215 1.506545 1.329313 1.094303 0.521842 0.924550 0.813265 0.839679 0.702710 1.402319 1.197989 1.213231 0.980843 0.611914 0.477480 0.748082 0.589845 0.269516 0.283786 0.484986 0.238801 0.259675 0.110496 -0.001104 -0.014991 -0.008427 -0.311814 -0.155874 0.007203 -0.011600 -0.088256 -0.016037 -0.115632 -0.098309 0.066340 0.183642 0.249705 0.278754 0.373897 0.618215 0.556132 0.648918 0.825123 1.044361 0.800447 1.239248 1.178575 1.251626 1.354515 1.250288 1.168510 1.349477 1.223177 1.346260 1.188283 1.167465 1.207771 0.957713 0.689632 0.740162 0.787860 0.483670 0.427107 0.366168 0.223639 0.196287 0.039029 0.210996 0.165631 0.042357 0.124195 0.230288 0.350585 0.607595 0.605158 0.599406 0.696463 0.878477 0.586760 1.024030 1.037646 0.767321 0.922826 0.762939 0.863189 0.900764 0.632830 0.397648 0.419713 0.364195 0.218708 0.216587 0.167564 -0.012298 0.230647 0.200556 0.252407 0.140724 0.256563 0.330484 0.283046 0.498537 0.599491 0.536970 0.362475 0.660276 0.554895 0.443727 0.526071 0.440074 0.286719 0.325638 0.129207 0.205982 0.031979 0.211793 -0.061470 0.057368 0.056332 0.254084 0.066298 0.393938 0.341040 0.395454 0.388879 0.409496 0.577412 0.406594 0.364749 0.417211 0.209832 0.345650 0.127583 0.268873 0.071295 0.104270 0.090379 0.073956 0.049318 0.161301 0.066389 0.156902 0.242264 0.283216 0.336517 0.269462 0.346939 0.263246 0.295380 0.179243 0.102490 0.025748 -0.010349 0.020825 -0.076681 -0.063878 0.120877 0.213607 0.065736 0.111826 0.117320 0.014264 0.181615 0.249162 0.189816 0.202686 0.136393 0.157098 0.114561 0.106109 0.051660 -0.081901 -0.014325 0.141101 0.033619 0.145432 0.123660 0.225731 0.198380 0.175068 0.115549 0.190690 0.105377 0.134532 0.107956 0.035940 -0.009079 0.002410 0.134333 0.131654 0.121083 0.059058 0.152951 0.137633 0.057099 0.140615 0.047823 -0.008070 0.025408 0.004720 -0.054743 -0.066562 -0.109975 -0.042752 -0.056617 -0.087476 0.018751 -0.015567 0.065191 0.090656 -0.088125 0.044164 -0.046294 -0.107503 0.039242 -0.046364 -0.068183 0.038582 0.089533 0.030620 0.062167 -0.037536 0.039633 0.164780 0.001057 -0.026753 0.089353 0.043190 0.124327 -0.079360 -0.041738 -0.021358 0.070285 0.049024 0.084286 0.143743 -0.019649 -0.098949 0.010225 -0.061032 -0.064988 -0.049754 -0.057895 0.031766 -0.170841 0.112977 0.094677 0.181737 0.039832 0.016467 0.005323 0.024732 0.075056 -0.055436 0.028764 0.007023 0.081117 0.123725 0.169075 0.055420 0.126309 0.177095 -0.039020 -0.001381 -0.155671 0.203792 0.152506 0.195336 0.150927 0.051270 -0.051049 -0.084244 -0.012579 0.002486 -0.004438 0.036433 0.067973 -0.060496 -0.000238 0.065322 0.084451 0.051994 0.031661 0.060298 -0.048691 -0.041704 0.038126 0.005463 -0.064334 0.096463 0.012873 -0.012003 0.000176 -0.053259 0.091431 0.129110 0.026572 -0.082011 -0.271340 0.306642 0.502957 0.399451 0.558774 0.268259 0.312098 0.328387 0.534840 0.467774 0.175607 0.125089 -0.873737
0.072396 0.072838 0.074163 0.076371 0.079462 0.083435 0.088289 0.094022 0.100634 0.108122 0.116484 0.125716 0.135815 0.146776 0.158594 0.171262 0.184772 0.199116 0.214282 0.230259 0.247032 0.264586 0.282903 0.301961 0.321739 0.342209 0.363344 0.385111 0.407474 0.430396 0.453833 0.477738 0.502061 0.526747 0.551735 0.576960 0.602354 0.627843 0.653346 0.678779 0.704051 0.729069 0.753731 0.777931 0.801559 0.824499 0.846629 0.867825 0.887956 0.906890 0.924488 0.940610 0.955112 0.967851 0.978680 0.987451 0.994019 0.998237 0.999964 0.999060 0.995388 0.988821 0.979236 0.966518 0.950564 0.931282 0.908590 0.882425 0.852736 0.819493 0.782682 0.742313 0.698416 0.651047 0.600285 0.546238 0.489041 0.428857 0.365881 0.300336 0.232478 0.162594 0.091002 0.018050 0.055883 0.130388 0.205031 0.279348 0.352856 0.425047 0.495396 0.563366 0.628407 0.689964 0.747479 0.800402 0.848190 0.890315 0.926273 0.955588 0.977820 0.992569 0.999485 0.998277 0.988713 0.970632 0.943948 0.908657 0.864842 0.812675 0.752424 0.684454 0.609231 0.527317 0.439375 0.346165 0.248540 0.147440 0.043885 0.061028 0.166143 0.270251 0.372106 0.470437 0.563965 0.651424 0.731572 0.803218 0.865233 0.916578 0.956321 0.983654 0.997916 0.998607 0.985407 0.958192 0.917039 0.862242 0.794319 0.714007 0.622269 0.520285 0.409446 0.291336 0.167716 0.040506 0.088250 0.216406 0.341757 0.462066 0.575119 0.678750 0.770902 0.849658 0.913296 0.960323 0.989521 0.999980 0.991137 0.962795 0.915150 0.848800 0.764752 0.664419 0.549605 0.422480 0.285552 0.141622 0.006269 0.154897 0.300927 0.440980 0.571721 0.689935 0.792613 0.877034 0.940842 0.982127 0.999484 0.992074 0.959665 0.902665 0.822136 0.719788 0.597962 0.459586 0.308120 0.147478 0.018066 0.183983 0.345614 0.498297 0.637510 0.759000 0.858929 0.934004 0.981593 0.999836 0.987727 0.945176 0.873050 0.773168 0.648289 0.502048 0.338864 0.163824 0.017463 0.199040 0.374797 0.538674 0.684877 0.808085 0.903659 0.967832 0.997874 0.992225 0.950588 0.873990 0.764777 0.626575 0.464192 0.283467 0.091080 0.105682 0.299199 0.481803 0.646095 0.785242 0.893285 0.965408 0.998170 0.989698 0.939809 0.850073 0.723801 0.565943 0.382939 0.182460 0.026882 0.235900 0.435226 0.615737 0.768976 0.887568 0.965597 0.998919 0.985421 0.925170 0.820481 0.675864 0.497862 0.294798 0.076395 0.146661 0.363236 0.562304 0.733521 0.867767 0.957665 0.998014 0.986118 0.922006 0.808499 0.651135 0.457938 0.239048 0.006209 0.227834 0.450029 0.647754 0.809529 0.925727 0.989163 0.995583 0.943987 0.836772 0.679681 0.481538 0.253798 0.009912 0.235431 0.467203 0.670938 0.833664 0.944749 0.996643 0.985427 0.911160 0.777971 0.593885 0.370404 0.121820 0.135662 0.384967 0.609279 0.793179 0.923751 0.991510 0.991152 0.922021 0.788260 0.598637 0.366026 0.106581 0.161341 0.418481 0.646035 0.827068 0.947796 0.998685 0.975268 0.878586 0.715243 0.497021 0.240102 0.036101 0.310362 0.561273 0.768927 0.916516 0.991754 0.987952 0.904681 0.747947 0.529842 0.267673 0.017345 0.301778 0.561874 0.775578 0.924413 0.995148 0.981031 0.882517 0.707374 0.470168 0.191118 0.105567 0.393759 0.647693 0.844311 0.965377 0.999256 0.942097 0.798357 0.580554 0.308267 0.006448 0.296823 0.572914 0.795383 0.942524 0.999570 0.960250 0.827572 0.613716 0.339009 0.030078 0.282680 0.568056 0.797160 0.946401 0.999962
1.000000 1.000000 1.000000 1.000000 1.000000 1.000000 1.000000 1.000000 1.000000 1.000000 1.000000 1.000000 1.000000 1.000000 1.000000 1.000000 1.000000 1.000000 1.000000 1.000000 1.000000 1.000000 1.000000 1.000000 1.000000 1.000000 1.000000 1.000000 1.000000 1.000000 1.000000 1.000000 1.000000 1.000000 1.000000 1.000000 1.000000 1.000000 1.000000 1.000000 1.000000 1.000000 1.000000 1.000000 1.000000 1.000000 1.000000 1.000000 1.000000 1.000000 1.000000 1.000000 0.777644 0.777644 0.777644 0.777644 0.777644 0.777644 0.777644 0.760406 0.760406 0.760406 0.760406 0.760406 0.760406 0.760406 0.760406 0.760406 0.760406 0.760406 0.760406 0.760406 0.760406 0.760406 0.760406 0.760406 0.760406 0.760406 0.760406 0.760406 0.760406 0.760406 0.760406 0.760406 0.760406 0.760406 0.760406 0.760406 0.760406 0.760406 0.760406 0.760406 0.760406 0.760406 0.760406 0.760406 0.760406 0.760406 0.760406 0.760406 0.760406 0.760406 0.760406 0.902420 0.903856 0.906847 0.902244 0.904157 0.902019 0.895580 0.898515 0.898330 0.898153 0.899205 0.900832 0.902808 0.910136 0.919037 0.920908 0.927917 0.931377 0.932512 0.932392 0.931044 0.938544 0.936099 0.934340 0.922443 0.925797 0.927668 0.928600 0.927413 0.927529 0.928792 0.929422 0.927321 0.925513 0.923341 0.921578 0.923169 0.922378 0.922563 0.922725 0.922901 0.922803 0.923383 0.919528 0.921784 0.920662 0.917086 0.913686 0.913211 0.914289 0.912637 0.909433 0.903747 0.910014 0.910429 0.910565 0.909456 0.909664 0.910016 0.910740 0.911347 0.908533 0.908577 0.906128 0.907964 0.904340 0.899898 0.894813 0.895132 0.896872 0.903457 0.905505 0.904335 0.901983 0.895268 0.885677 0.884668 0.871841 0.839431 0.841432 0.844911 0.847355 0.848290 0.847802 0.844826 0.839886 0.830053 0.820287 0.824684 0.825542 0.817247 0.811495 0.812348 0.812167 0.819472 0.823721 0.816023 0.813413 0.812863 0.808729 0.808262 0.809183 0.805862 0.800688 0.804028 0.812238 0.812704 0.798362 0.792494 0.789826 0.775074 0.779717 0.786236 0.789759 0.791251 0.787936 0.775748 0.773551 0.767082 0.777502 0.786006 0.784640 0.780042 0.761425 0.718958 0.707503 0.686596 0.688749 0.690195 0.663331 0.661543 0.662997 0.667920 0.615219 0.597842 0.585270 0.585276 0.592636 0.597555 0.591275 0.561118 0.579482 0.577003 0.562136 0.558065 0.533033 0.517791 0.489871 0.492493 0.490893 0.478527 0.453247 0.448403 0.465809 0.475194 0.471763 0.469003 0.440364 0.420074 0.422322 0.417449 0.418937 0.421720 0.430474 0.379397 0.355323 0.338932 0.366315 0.367618 0.366498 0.379244 0.375997 0.370884 0.348370 0.328464 0.309838 0.322425 0.342519 0.348797 0.352445 0.317578 0.305004 0.284889 0.290177 0.334236 0.321237 0.333132 0.332838 0.337592 0.364373 0.341393 0.318177 0.295062 0.337462 0.331909 0.312665 0.293062 0.304556 0.323856 0.325516 0.321004 0.313295 0.360209 0.382847 0.367389 0.369807 0.336634 0.363680 0.401171 0.392200 0.393822 0.406626 0.407074 0.387488 0.339347 0.319764 0.321251 0.296591 0.294013 0.277499 0.262471 0.253866 0.264098 0.286292 0.292120 0.325549 0.298615 0.262449 0.169041 0.238425 0.157197 0.164004 0.164004 0.164004 0.164004 0.164004 0.164004 0.164004 0.164004 0.189516 0.189516 0.189516 0.189516 0.189516 0.189516 0.189516 0.189516 0.189516 0.189516 0.189516 0.189516 0.189516 0.189516 0.189516 0.189516 0.189516 0.189516 0.189516 0.189516 0.189516
0.000000 0.000000 0.000000 0.000000 0.000000 0.000000 0.000000 0.000000 0.000000 0.000000 0.000000 0.000000 0.000000 0.000000 0.000000 0.000000 0.000000 0.000000 0.000000 0.000000 0.000000 0.000000 0.000000 0.000000 0.000000 0.000000 0.000000 0.000000 0.000000 0.000000 0.000000 0.000000 0.000000 0.000000 0.000000 0.000000 0.000000 0.000000 0.000000 0.000000 0.000000 0.000000 0.000000 0.000000 0.000000 0.000000 0.000000 0.000000 0.000000 0.000000 0.000000 0.000000 0.173422 0.173422 0.173422 0.173422 0.173422 0.173422 0.173422 0.191565 0.191565 0.191565 0.191565 0.191565 0.191565 0.191565 0.191565 0.191565 0.191565 0.191565 0.191565 0.191565 0.191565 0.191565 0.191565 0.191565 0.191565 0.191565 0.191565 0.191565 0.191565 0.191565 0.191565 0.191565 0.191565 0.191565 0.191565 0.191565 0.191565 0.191565 0.191565 0.191565 0.191565 0.191565 0.191565 0.191565 0.191565 0.191565 0.191565 0.191565 0.191565 0.191565 0.191565 0.222222 0.222222 0.222222 0.222222 0.222222 0.222222 0.222222 0.222222 0.222222 0.222222 0.222222 0.222222 0.222222 0.222222 0.222222 0.222222 0.222222 0.222222 0.222222 0.222222 0.222222 0.222222 0.222222 0.222222 0.222222 0.222222 0.222222 0.222222 0.222222 0.222222 0.234082 0.234082 0.234082 0.234082 0.234082 0.234082 0.234082 0.234082 0.234082 0.234082 0.234082 0.234082 0.234082 0.234082 0.234082 0.234082 0.234082 0.234082 0.234082 0.234082 0.234082 0.234082 0.234082 0.234082 0.234082 0.244339 0.244339 0.244339 0.244339 0.244339 0.244339 0.244339 0.244339 0.244339 0.244339 0.244339 0.244339 0.244339 0.244339 0.244339 0.244339 0.244339 0.244339 0.244339 0.244339 0.244339 0.248069 0.248069 0.248069 0.248069 0.248069 0.248069 0.248069 0.248069 0.248069 0.248069 0.248069 0.248069 0.248069 0.248069 0.248069 0.248069 0.248069 0.248069 0.248069 0.256074 0.256074 0.256074 0.256074 0.256074 0.256074 0.256074 0.256074 0.256074 0.256074 0.256074 0.256074 0.256074 0.256074 0.256074 0.256074 0.256074 0.256074 0.256074 0.256074 0.256074 0.256074 0.256074 0.256074 0.256074 0.256074 0.256074 0.256074 0.256074 0.256074 0.256074 0.256074 0.256074 0.256074 0.256074 0.256074 0.256074 0.256074 0.256074 0.256074 0.256074 0.256074 0.256074 0.256074 0.256074 0.256074 0.256074 0.256074 0.256074 0.256074 0.256074 0.256074 0.256074 0.256074 0.256074 0.256074 0.256074 0.256074 0.256074 0.256074 0.256074 0.256074 0.260378 0.260378 0.260378 0.260378 0.260378 0.260378 0.260378 0.260378 0.260378 0.260378 0.260378 0.260378 0.260378 0.256074 0.256074 0.256074 0.256074 0.256074 0.256074 0.256074 0.256074 0.256074 0.256074 0.256074 0.256074 0.256074 0.260378 0.260378 0.260378 0.260378 0.260378 0.260378 0.260378 0.260378 0.260378 0.260378 0.260378 0.260378 0.251976 0.251976 0.251976 0.251976 0.251976 0.251976 0.251976 0.251976 0.251976 0.251976 0.251976 0.251976 0.256074 0.256074 0.256074 0.256074 0.256074 0.256074 0.256074 0.256074 0.256074 0.256074 0.256074 0.251976 0.251976 0.251976 0.251976 0.251976 0.251976 0.251976 0.251976 0.251976 0.251976 0.251976 0.260378 0.260378 0.260378 0.260378 0.260378 0.260378 0.260378 0.260378 0.260378 0.260378 0.244339 0.244339 0.244339 0.244339 0.244339 0.244339 0.244339 0.244339 0.244339 0.244339 0.244339 0.244339 0.244339 0.244339 0.244339 0.244339 0.244339 0.244339 0.244339 0.244339 0.244339
