# Output from CTFFind version 4.1.9, run on 2019-11-03 20:03:53
# Input file: stack6_bm3d_averaged_1_10_0_250_half.mrc ; Number of micrographs: 1
# Pixel size: 3.000 Angstroms ; acceleration voltage: 300.0 keV ; spherical aberration: 0.00 mm ; amplitude contrast: 0.07
# Box size: 512 pixels ; min. res.: 30.0 Angstroms ; max. res.: 5.0 Angstroms ; min. def.: 5000.0 um; max. def. 50000.0 um; num. frames averaged: 1
# 6 lines per micrograph: #1 - spatial frequency (1/Angstroms); #2 - 1D rotational average of spectrum (assuming no astigmatism); #3 - 1D rotational average of spectrum; #4 - CTF fit; #5 - cross-correlation between spectrum and CTF fit; #6 - 2sigma of expected cross correlation of noise
0.000000 0.000651 0.001302 0.001953 0.002604 0.003255 0.003906 0.004557 0.005208 0.005859 0.006510 0.007161 0.007812 0.008464 0.009115 0.009766 0.010417 0.011068 0.011719 0.012370 0.013021 0.013672 0.014323 0.014974 0.015625 0.016276 0.016927 0.017578 0.018229 0.018880 0.019531 0.020182 0.020833 0.021484 0.022135 0.022786 0.023438 0.024089 0.024740 0.025391 0.026042 0.026693 0.027344 0.027995 0.028646 0.029297 0.029948 0.030599 0.031250 0.031901 0.032552 0.033203 0.033854 0.034505 0.035156 0.035807 0.036458 0.037109 0.037760 0.038411 0.039062 0.039714 0.040365 0.041016 0.041667 0.042318 0.042969 0.043620 0.044271 0.044922 0.045573 0.046224 0.046875 0.047526 0.048177 0.048828 0.049479 0.050130 0.050781 0.051432 0.052083 0.052734 0.053385 0.054036 0.054688 0.055339 0.055990 0.056641 0.057292 0.057943 0.058594 0.059245 0.059896 0.060547 0.061198 0.061849 0.062500 0.063151 0.063802 0.064453 0.065104 0.065755 0.066406 0.067057 0.067708 0.068359 0.069010 0.069661 0.070312 0.070964 0.071615 0.072266 0.072917 0.073568 0.074219 0.074870 0.075521 0.076172 0.076823 0.077474 0.078125 0.078776 0.079427 0.080078 0.080729 0.081380 0.082031 0.082682 0.083333 0.083984 0.084635 0.085286 0.085938 0.086589 0.087240 0.087891 0.088542 0.089193 0.089844 0.090495 0.091146 0.091797 0.092448 0.093099 0.093750 0.094401 0.095052 0.095703 0.096354 0.097005 0.097656 0.098307 0.098958 0.099609 0.100260 0.100911 0.101562 0.102214 0.102865 0.103516 0.104167 0.104818 0.105469 0.106120 0.106771 0.107422 0.108073 0.108724 0.109375 0.110026 0.110677 0.111328 0.111979 0.112630 0.113281 0.113932 0.114583 0.115234 0.115885 0.116536 0.117188 0.117839 0.118490 0.119141 0.119792 0.120443 0.121094 0.121745 0.122396 0.123047 0.123698 0.124349 0.125000 0.125651 0.126302 0.126953 0.127604 0.128255 0.128906 0.129557 0.130208 0.130859 0.131510 0.132161 0.132812 0.133464 0.134115 0.134766 0.135417 0.136068 0.136719 0.137370 0.138021 0.138672 0.139323 0.139974 0.140625 0.141276 0.141927 0.142578 0.143229 0.143880 0.144531 0.145182 0.145833 0.146484 0.147135 0.147786 0.148438 0.149089 0.149740 0.150391 0.151042 0.151693 0.152344 0.152995 0.153646 0.154297 0.154948 0.155599 0.156250 0.156901 0.157552 0.158203 0.158854 0.159505 0.160156 0.160807 0.161458 0.162109 0.162760 0.163411 0.164062 0.164714 0.165365 0.166016 0.166667 0.167318 0.167969 0.168620 0.169271 0.169922 0.170573 0.171224 0.171875 0.172526 0.173177 0.173828 0.174479 0.175130 0.175781 0.176432 0.177083 0.177734 0.178385 0.179036 0.179688 0.180339 0.180990 0.181641 0.182292 0.182943 0.183594 0.184245 0.184896 0.185547 0.186198 0.186849 0.187500 0.188151 0.188802 0.189453 0.190104 0.190755 0.191406 0.192057 0.192708 0.193359 0.194010 0.194661 0.195312 0.195964 0.196615 0.197266 0.197917 0.198568 0.199219 0.199870 0.200521 0.201172 0.201823 0.202474 0.203125 0.203776 0.204427 0.205078 0.205729 0.206380 0.207031 0.207682 0.208333 0.208984 0.209635 0.210286 0.210938 0.211589 0.212240 0.212891 0.213542 0.214193 0.214844 0.215495 0.216146 0.216797 0.217448 0.218099 0.218750 0.219401 0.220052 0.220703 0.221354 0.222005 0.222656 0.223307 0.223958 0.224609 0.225260 0.225911 0.226562 0.227214 0.227865 0.228516 0.229167 0.229818 0.230469 0.231120 0.231771 0.232422 0.233073 0.233724 0.234375 0.235026 0.235677
       0.34237        0.34237        0.34237        0.34237        0.34237        0.34237        0.34237        0.34237        0.34237        0.34237        0.34237        0.34237        0.34237        0.34237        0.34237        0.34237        0.34237        0.34237        0.34237        0.34237        0.34237        0.34237        0.34237        0.34237        0.34237        0.34237        0.34237        0.34237        0.34237        0.34237        0.34237        0.34237        0.34237        0.34237        0.34237        0.34237        0.34237        0.34237        0.34237        0.34237        0.34237        0.34237        0.34237        0.34237        0.34237        0.34237        0.34237        0.34237        0.34237        0.34237        0.34237        0.58859        0.69393        0.36668        0.16022        0.14326       -0.12112        0.10988        0.04277        0.04432        0.08945        0.30745        0.29177        0.22781        0.13479       -0.04132       -0.00899        0.05497       -0.06865       -0.07711       -0.06510       -0.06318       -0.14685       -0.08697       -0.19745       -0.21589       -0.21972       -0.27427       -0.33808       -0.26258       -0.17568       -0.13253       -0.24534       -0.17825       -0.20533       -0.14396       -0.10086       -0.03784       -0.01669        0.03112        0.09064        0.16398        0.20449        0.24772        0.34987        0.41318        0.36722        0.49944        0.54687        0.55088        0.62257        0.54303        0.57634        0.60997        0.59612        0.56886        0.55892        0.60600        0.53385        0.40546        0.37033        0.38142        0.34042        0.22387        0.23133        0.19206        0.13730        0.12751        0.06422        0.14368        0.11380        0.09449        0.16578        0.21699        0.29452        0.33942        0.38052        0.42058        0.44945        0.47824        0.42569        0.61760        0.55153        0.47651        0.56215        0.50579        0.56728        0.51592        0.40232        0.34310        0.33241        0.29328        0.27928        0.22337        0.21035        0.19926        0.29253        0.27609        0.27821        0.25215        0.27585        0.34709        0.33540        0.45285        0.44646        0.44798        0.42516        0.48874        0.44292        0.41084        0.41633        0.38465        0.33583        0.28262        0.31824        0.28753        0.28285        0.23103        0.23824        0.26824        0.28750        0.29892        0.34603        0.39548        0.42519        0.42615        0.42815        0.51024        0.49253        0.42904        0.37695        0.42048        0.39769        0.33601        0.34742        0.33975        0.29177        0.29284        0.28389        0.27056        0.32745        0.31614        0.33452        0.35684        0.40483        0.43087        0.41457        0.44645        0.40675        0.44617        0.42524        0.36229        0.31154        0.30878        0.30946        0.28578        0.24739        0.31725        0.38970        0.34690        0.31932        0.38005        0.32079        0.36971        0.41702        0.40139        0.37093        0.36867        0.35683        0.36547        0.33276        0.32155        0.29626        0.29367        0.33525        0.34838        0.37504        0.38565        0.40022        0.37814        0.35427        0.33317        0.37085        0.37769        0.35714        0.33584        0.28625        0.29403        0.28599        0.33944        0.33803        0.36318        0.33451        0.35674        0.39823        0.34260        0.35937        0.35979        0.32411        0.32754        0.31066        0.30033        0.29301        0.28030        0.26465        0.28873        0.27971        0.29630        0.26821        0.31378        0.38077        0.27647        0.29984        0.28600        0.28444        0.33324        0.31827        0.31768        0.34057        0.33351        0.34370        0.32646        0.32273        0.32740        0.40500        0.36945        0.30286        0.32704        0.31647        0.36684        0.28620        0.29037        0.32104        0.31446        0.34243        0.38375        0.35041        0.29682        0.23713        0.30213        0.28389        0.27119        0.26866        0.30032        0.33040        0.26714        0.32282        0.34280        0.37926        0.29509        0.33650        0.30955        0.29652        0.29099        0.30015        0.31668        0.27286        0.26945        0.34873        0.35742        0.29313        0.35212        0.31903        0.26257        0.23886        0.21241        0.33836        0.31651        0.36388        0.36403        0.28580        0.23813        0.22768        0.31301        0.28204        0.27570        0.32833        0.30026        0.26064        0.29825        0.30823        0.30123        0.29942        0.29359        0.27780        0.23466        0.28135        0.32417        0.26220        0.21804        0.24053        0.27247        0.26350        0.21576        0.21221        0.27812        0.34553        0.30976        0.23846        0.17651        0.25441        0.18948        0.27415        0.26716        0.17655        0.17147        0.24561        0.22310        0.31776        0.03601       -0.19099       -0.68249       -0.96125
3.500927 3.463265 3.425809 3.388562 3.351521 3.314687 3.278061 3.241641 3.205429 3.169424 3.133626 3.098036 3.062652 3.027476 2.992506 2.957744 2.923189 2.888841 2.854701 2.820767 2.787041 2.753522 2.720209 2.687105 2.654207 2.621516 2.589033 2.556756 2.524687 2.492825 2.461170 2.429722 2.398482 2.367448 2.336622 2.306003 2.275590 2.245386 2.215388 2.185597 2.156014 2.126638 2.097468 2.068506 2.039752 2.011204 1.982863 1.954730 1.926804 1.899085 1.871573 2.227938 2.585127 1.855590 1.577133 1.355967 0.701448 1.159130 0.941979 1.064112 0.855022 1.662829 1.356864 1.376537 1.143172 0.672305 0.557000 0.852632 0.726341 0.378642 0.301020 0.553916 0.308188 0.328045 0.130671 0.008780 -0.021258 -0.021558 -0.367916 -0.141883 -0.009466 0.021168 -0.112821 -0.061890 -0.142339 -0.107476 0.010781 0.165844 0.211357 0.212387 0.350341 0.602141 0.513298 0.641447 0.772859 1.040545 0.759457 1.274070 1.174695 1.249781 1.352513 1.204032 1.129850 1.386972 1.141502 1.245011 1.127239 1.185262 1.152376 0.847288 0.639012 0.624165 0.677070 0.314597 0.338607 0.210179 0.096682 0.017428 -0.162309 0.102786 -0.001770 -0.094549 -0.012053 0.079516 0.209816 0.419945 0.438784 0.516284 0.521386 0.711899 0.424442 0.859679 0.845215 0.620887 0.763597 0.596076 0.759777 0.773455 0.470740 0.235503 0.258941 0.205456 0.020732 0.079985 -0.075310 -0.233437 0.060763 0.081936 0.060469 -0.023082 0.015644 0.134915 0.054037 0.313529 0.420964 0.404053 0.205654 0.491457 0.426524 0.224366 0.417307 0.262037 0.109738 0.106974 0.014428 0.080944 -0.129010 0.078405 -0.185773 -0.075905 -0.069396 0.124712 -0.116358 0.272791 0.247009 0.295417 0.258131 0.323798 0.616172 0.347781 0.282203 0.377526 0.193358 0.378626 0.055765 0.256510 0.050006 0.068756 0.050989 0.045026 0.031359 0.165241 0.049883 0.183310 0.260278 0.304163 0.304258 0.466736 0.333782 0.346360 0.378598 0.294492 0.175534 0.087936 0.094677 0.086751 0.024660 -0.022325 0.210658 0.295007 0.095779 0.169547 0.239528 0.134781 0.285405 0.316190 0.248513 0.185906 0.139432 0.243664 0.118191 0.127926 0.091912 -0.061041 0.071736 0.150836 0.139994 0.229085 0.206646 0.294218 0.112252 0.168287 0.184530 0.251771 0.139327 0.218885 0.117988 0.004804 0.036765 0.007240 0.149321 0.140401 0.204765 0.096228 0.200634 0.223573 0.033400 0.195251 0.095679 0.009258 0.054467 0.020796 -0.021900 -0.031556 -0.114146 -0.030243 -0.016026 -0.124456 -0.017760 -0.072790 0.068873 0.123512 -0.137591 -0.023094 -0.075246 -0.064933 0.066395 0.004989 -0.057443 0.030788 0.088726 0.008670 -0.039612 0.041938 -0.014869 0.282427 -0.003034 -0.119689 0.035704 0.004119 0.073084 -0.160383 -0.065788 0.013390 0.006343 0.075098 0.098423 0.079626 -0.105991 -0.143378 -0.029405 -0.078115 -0.071866 -0.080518 -0.039376 0.055078 -0.177670 0.135071 0.020812 0.174515 -0.033413 0.067996 0.025461 -0.057135 0.059312 0.009061 -0.032796 -0.052065 -0.055639 0.115315 0.176796 -0.138780 0.155138 0.052901 -0.128512 -0.099463 -0.209367 0.175905 -0.001457 0.179298 0.176055 0.045352 -0.182280 -0.170625 0.019716 -0.046992 -0.122080 0.054456 -0.036107 -0.151375 -0.009840 -0.019406 0.095412 -0.015141 -0.072238 -0.000573 -0.251509 0.042695 0.065360 -0.112961 -0.167100 -0.162369 -0.031595 -0.047780 -0.150612 -0.198586 0.064603 0.140379 0.014769 -0.088350 -0.336320 0.077161 -0.202340 0.642252 0.574598 0.302636 0.369789 0.678036 0.540222 0.654941 -0.191446 -0.405359 -2.099257
0.072396 0.072836 0.074156 0.076356 0.079435 0.083392 0.088227 0.093939 0.100525 0.107985 0.116314 0.125511 0.135572 0.146491 0.158264 0.170884 0.184343 0.198632 0.213742 0.229659 0.246371 0.263861 0.282111 0.301101 0.320808 0.341207 0.362269 0.383963 0.406253 0.429101 0.452465 0.476298 0.500550 0.525167 0.550089 0.575252 0.600589 0.626024 0.651479 0.676871 0.702111 0.727104 0.751750 0.775946 0.799580 0.822539 0.844703 0.865947 0.886142 0.905156 0.922854 0.939094 0.953736 0.966635 0.977646 0.986623 0.993420 0.997893 0.999899 0.999299 0.995959 0.989748 0.980544 0.968233 0.952711 0.933883 0.911668 0.886001 0.856829 0.824119 0.787856 0.748046 0.704717 0.657919 0.607729 0.554249 0.497610 0.437971 0.375518 0.310472 0.243081 0.173626 0.102417 0.029797 0.043863 0.118161 0.192668 0.266930 0.340467 0.412779 0.483348 0.551641 0.617112 0.679211 0.737383 0.791080 0.839759 0.882893 0.919976 0.950529 0.974105 0.990301 0.998759 0.999175 0.991308 0.974984 0.950100 0.916637 0.874658 0.824315 0.765857 0.699623 0.626057 0.545695 0.459178 0.367238 0.270704 0.170490 0.067597 0.036904 0.141876 0.246126 0.348425 0.447512 0.542117 0.630975 0.712845 0.786528 0.850886 0.904861 0.947499 0.977963 0.995558 0.999744 0.990158 0.966622 0.929161 0.878013 0.813629 0.736688 0.648086 0.548939 0.440576 0.324517 0.202471 0.076304 0.051984 0.180283 0.306416 0.428161 0.543307 0.649684 0.745209 0.827932 0.896078 0.948092 0.982677 0.998833 0.995893 0.973549 0.931874 0.871338 0.792818 0.697594 0.587338 0.464098 0.330264 0.188533 0.041858 0.106606 0.253572 0.395687 0.529611 0.652100 0.760085 0.850753 0.921635 0.970673 0.996290 0.997456 0.973729 0.925291 0.852971 0.758246 0.643225 0.510620 0.363689 0.206174 0.042205 0.123792 0.287216 0.443420 0.587840 0.716130 0.824310 0.908885 0.966981 0.996449 0.995956 0.965062 0.904261 0.815002 0.699668 0.561545 0.404737 0.234053 0.054891 0.126949 0.305425 0.474468 0.628184 0.761067 0.868208 0.945486 0.989746 0.998945 0.972259 0.910160 0.814435 0.688164 0.535649 0.362280 0.174371 0.021059 0.216542 0.404438 0.577235 0.727860 0.849974 0.938257 0.988661 0.998614 0.967177 0.895130 0.784995 0.640978 0.468837 0.275676 0.069672 0.140253 0.344819 0.534787 0.701392 0.836752 0.934261 0.988939 0.997706 0.959590 0.875831 0.749884 0.587313 0.395581 0.183734 0.038006 0.258719 0.467322 0.653127 0.806397 0.918885 0.984296 0.998673 0.960674 0.871709 0.735942 0.560137 0.353364 0.126554 0.108047 0.337531 0.549036 0.730470 0.871224 0.962820 0.999452 0.978397 0.900253 0.768987 0.591794 0.378728 0.142199 0.103755 0.344257 0.564505 0.750689 0.890870 0.975787 0.999507 0.959882 0.858789 0.702095 0.499388 0.263414 0.009350 0.246188 0.486187 0.694395 0.856433 0.960819 0.999832 0.970127 0.873080 0.714796 0.505788 0.260342 0.004423 0.269721 0.516423 0.726432 0.884045 0.977160 0.998263 0.945088 0.820912 0.634425 0.399194 0.132741 0.144745 0.411888 0.647790 0.833666 0.954397 0.999793 0.965531 0.853628 0.672414 0.435986 0.163188 0.123853 0.401497 0.646515 0.838079 0.959543 0.999975 0.955197 0.828291 0.629492 0.375433 0.087829 0.208319 0.486901 0.722981 0.895054 0.987081 0.990034 0.902871 0.732797 0.494765 0.210243 0.094660 0.391543 0.652361 0.852092 0.971178 0.997526 0.927816 0.768000 0.532906 0.244945 0.067933 0.374925 0.645385 0.851911 0.973163
1.000000 1.000000 1.000000 1.000000 1.000000 1.000000 1.000000 1.000000 1.000000 1.000000 1.000000 1.000000 1.000000 1.000000 1.000000 1.000000 1.000000 1.000000 1.000000 1.000000 1.000000 1.000000 1.000000 1.000000 1.000000 1.000000 1.000000 1.000000 1.000000 1.000000 1.000000 1.000000 1.000000 1.000000 1.000000 1.000000 1.000000 1.000000 1.000000 1.000000 1.000000 1.000000 1.000000 1.000000 1.000000 1.000000 1.000000 1.000000 1.000000 1.000000 1.000000 1.000000 0.748711 0.748711 0.748711 0.748711 0.748711 0.748711 0.748711 0.748294 0.748294 0.748294 0.748294 0.748294 0.748294 0.748294 0.748294 0.748294 0.748294 0.748294 0.748294 0.748294 0.748294 0.748294 0.748294 0.748294 0.748294 0.748294 0.748294 0.748294 0.748294 0.748294 0.748294 0.748294 0.748294 0.748294 0.748294 0.748294 0.748294 0.748294 0.748294 0.748294 0.748294 0.748294 0.748294 0.748294 0.748294 0.748294 0.748294 0.748294 0.748294 0.748294 0.748294 0.899444 0.900496 0.903197 0.895374 0.888639 0.887484 0.882751 0.879871 0.881740 0.881235 0.882310 0.883892 0.887733 0.895146 0.904681 0.907788 0.915195 0.919144 0.919090 0.923786 0.923755 0.928711 0.925591 0.922557 0.912796 0.916285 0.915157 0.913389 0.911432 0.904616 0.915976 0.913904 0.910811 0.901389 0.896006 0.894395 0.895088 0.892897 0.893964 0.894121 0.893337 0.891231 0.891928 0.886940 0.885878 0.871379 0.869477 0.865604 0.862685 0.860062 0.857279 0.855217 0.846136 0.844661 0.841090 0.834107 0.833945 0.833902 0.834593 0.835484 0.836409 0.839154 0.832338 0.827297 0.826200 0.821745 0.814682 0.805914 0.805503 0.809014 0.817291 0.824516 0.822560 0.820531 0.810708 0.797944 0.795690 0.800169 0.776463 0.778389 0.784396 0.787247 0.784540 0.780104 0.776388 0.773599 0.769417 0.761958 0.770582 0.768078 0.760112 0.756814 0.756629 0.758537 0.767891 0.768539 0.758707 0.744781 0.741099 0.744958 0.751076 0.755636 0.747964 0.748455 0.752868 0.758118 0.763024 0.748555 0.743446 0.735286 0.728613 0.737234 0.758088 0.747643 0.753953 0.757638 0.750638 0.750093 0.743151 0.753223 0.755196 0.762689 0.762890 0.756006 0.709719 0.684879 0.643749 0.645019 0.648104 0.605550 0.605836 0.606436 0.606124 0.553034 0.514958 0.495208 0.493209 0.498346 0.502165 0.494700 0.483424 0.481033 0.479284 0.458140 0.444022 0.441574 0.445344 0.434325 0.444802 0.446214 0.443507 0.401551 0.412488 0.432998 0.443885 0.429912 0.416634 0.421472 0.409730 0.415066 0.410312 0.402567 0.358077 0.376253 0.368064 0.386949 0.348553 0.328269 0.301599 0.337142 0.326310 0.284266 0.311227 0.270083 0.268021 0.271837 0.258138 0.232908 0.250913 0.272026 0.232311 0.237373 0.234934 0.273882 0.265327 0.280164 0.299776 0.286492 0.275840 0.293119 0.277017 0.268225 0.240652 0.236229 0.231097 0.231460 0.281003 0.270010 0.271377 0.283234 0.304061 0.310995 0.321708 0.322726 0.321308 0.333140 0.303044 0.252468 0.257475 0.250109 0.256532 0.227401 0.184458 0.164084 0.170435 0.149799 0.140936 0.108073 0.105315 0.101611 0.109883 0.088566 0.094166 0.058705 0.060581 0.039612 0.067039 0.086325 0.090848 0.019969 0.019969 0.019969 0.019969 0.019969 0.019969 0.019969 0.019969 0.019969 0.019969 0.019969 -0.012747 -0.012747 -0.012747 -0.012747 -0.012747 -0.012747 -0.012747 -0.012747 -0.012747 -0.012747 -0.012747 -0.012747 -0.012747 -0.012747 -0.012747 -0.012747 -0.012747 -0.012747 -0.012747 -0.012747
0.000000 0.000000 0.000000 0.000000 0.000000 0.000000 0.000000 0.000000 0.000000 0.000000 0.000000 0.000000 0.000000 0.000000 0.000000 0.000000 0.000000 0.000000 2.000000 0.000000 0.000000 0.000000 0.000000 0.000000 0.000000 0.000000 0.000000 0.000000 0.000000 0.000000 0.000000 0.000000 0.000000 0.000000 0.000000 0.000000 0.000000 0.000000 0.000000 0.000000 0.000000 0.000000 0.000000 0.000000 0.000000 0.000000 0.000000 0.000000 0.000000 0.000000 0.000000 0.000000 0.173422 0.173422 0.173422 0.173422 0.173422 0.173422 0.173422 0.191565 0.191565 0.191565 0.191565 0.191565 0.191565 0.191565 0.191565 0.191565 0.191565 0.191565 0.191565 0.191565 0.191565 0.191565 0.191565 0.191565 0.191565 0.191565 0.191565 0.191565 0.191565 0.191565 0.191565 0.191565 0.191565 0.191565 0.191565 0.191565 0.191565 0.191565 0.191565 0.191565 0.191565 0.191565 0.191565 0.191565 0.191565 0.191565 0.191565 0.191565 0.191565 0.191565 0.191565 0.222222 0.222222 0.222222 0.222222 0.222222 0.222222 0.222222 0.222222 0.222222 0.222222 0.222222 0.222222 0.222222 0.222222 0.222222 0.222222 0.222222 0.222222 0.222222 0.222222 0.222222 0.222222 0.222222 0.222222 0.222222 0.222222 0.222222 0.222222 0.222222 0.222222 0.234082 0.234082 0.234082 0.234082 0.234082 0.234082 0.234082 0.234082 0.234082 0.234082 0.234082 0.234082 0.234082 0.234082 0.234082 0.234082 0.234082 0.234082 0.234082 0.234082 0.234082 0.234082 0.234082 0.234082 0.234082 0.244339 0.244339 0.244339 0.244339 0.244339 0.244339 0.244339 0.244339 0.244339 0.244339 0.244339 0.244339 0.244339 0.244339 0.244339 0.244339 0.244339 0.244339 0.244339 0.244339 0.244339 0.248069 0.248069 0.248069 0.248069 0.248069 0.248069 0.248069 0.248069 0.248069 0.248069 0.248069 0.248069 0.248069 0.248069 0.248069 0.248069 0.248069 0.248069 0.248069 0.256074 0.256074 0.256074 0.256074 0.256074 0.256074 0.256074 0.256074 0.256074 0.256074 0.256074 0.256074 0.256074 0.256074 0.256074 0.256074 0.256074 0.256074 0.256074 0.256074 0.256074 0.256074 0.256074 0.256074 0.256074 0.256074 0.256074 0.256074 0.256074 0.256074 0.256074 0.256074 0.256074 0.256074 0.256074 0.256074 0.256074 0.256074 0.256074 0.256074 0.256074 0.256074 0.256074 0.256074 0.256074 0.256074 0.256074 0.256074 0.256074 0.256074 0.256074 0.256074 0.256074 0.256074 0.256074 0.256074 0.256074 0.256074 0.256074 0.256074 0.256074 0.256074 0.251976 0.251976 0.251976 0.251976 0.251976 0.251976 0.251976 0.251976 0.251976 0.251976 0.251976 0.251976 0.251976 0.251976 0.264906 0.264906 0.264906 0.264906 0.264906 0.264906 0.264906 0.264906 0.264906 0.264906 0.264906 0.264906 0.248069 0.248069 0.248069 0.248069 0.248069 0.248069 0.248069 0.248069 0.248069 0.248069 0.248069 0.248069 0.248069 0.264906 0.264906 0.264906 0.264906 0.264906 0.264906 0.264906 0.264906 0.264906 0.264906 0.264906 0.248069 0.248069 0.248069 0.248069 0.248069 0.248069 0.248069 0.248069 0.248069 0.248069 0.248069 0.248069 0.264906 0.264906 0.264906 0.264906 0.264906 0.264906 0.264906 0.264906 0.264906 0.264906 0.248069 0.248069 0.248069 0.248069 0.248069 0.248069 0.248069 0.248069 0.248069 0.248069 0.248069 0.256074 0.256074 0.256074 0.256074 0.256074 0.256074 0.256074 0.256074 0.256074 0.256074 0.256074 0.256074 0.256074 0.256074 0.256074 0.256074 0.256074 0.256074 0.256074 0.256074
