# Output from CTFFind version 4.1.9, run on 2019-11-03 20:10:13
# Input file: stack1_bm3d_averaged_1_7.0_0_3000_half.mrc ; Number of micrographs: 1
# Pixel size: 3.000 Angstroms ; acceleration voltage: 300.0 keV ; spherical aberration: 0.00 mm ; amplitude contrast: 0.07
# Box size: 512 pixels ; min. res.: 30.0 Angstroms ; max. res.: 5.0 Angstroms ; min. def.: 5000.0 um; max. def. 50000.0 um; num. frames averaged: 1
# 6 lines per micrograph: #1 - spatial frequency (1/Angstroms); #2 - 1D rotational average of spectrum (assuming no astigmatism); #3 - 1D rotational average of spectrum; #4 - CTF fit; #5 - cross-correlation between spectrum and CTF fit; #6 - 2sigma of expected cross correlation of noise
0.000000 0.000651 0.001302 0.001953 0.002604 0.003255 0.003906 0.004557 0.005208 0.005859 0.006510 0.007161 0.007812 0.008464 0.009115 0.009766 0.010417 0.011068 0.011719 0.012370 0.013021 0.013672 0.014323 0.014974 0.015625 0.016276 0.016927 0.017578 0.018229 0.018880 0.019531 0.020182 0.020833 0.021484 0.022135 0.022786 0.023438 0.024089 0.024740 0.025391 0.026042 0.026693 0.027344 0.027995 0.028646 0.029297 0.029948 0.030599 0.031250 0.031901 0.032552 0.033203 0.033854 0.034505 0.035156 0.035807 0.036458 0.037109 0.037760 0.038411 0.039062 0.039714 0.040365 0.041016 0.041667 0.042318 0.042969 0.043620 0.044271 0.044922 0.045573 0.046224 0.046875 0.047526 0.048177 0.048828 0.049479 0.050130 0.050781 0.051432 0.052083 0.052734 0.053385 0.054036 0.054688 0.055339 0.055990 0.056641 0.057292 0.057943 0.058594 0.059245 0.059896 0.060547 0.061198 0.061849 0.062500 0.063151 0.063802 0.064453 0.065104 0.065755 0.066406 0.067057 0.067708 0.068359 0.069010 0.069661 0.070312 0.070964 0.071615 0.072266 0.072917 0.073568 0.074219 0.074870 0.075521 0.076172 0.076823 0.077474 0.078125 0.078776 0.079427 0.080078 0.080729 0.081380 0.082031 0.082682 0.083333 0.083984 0.084635 0.085286 0.085938 0.086589 0.087240 0.087891 0.088542 0.089193 0.089844 0.090495 0.091146 0.091797 0.092448 0.093099 0.093750 0.094401 0.095052 0.095703 0.096354 0.097005 0.097656 0.098307 0.098958 0.099609 0.100260 0.100911 0.101562 0.102214 0.102865 0.103516 0.104167 0.104818 0.105469 0.106120 0.106771 0.107422 0.108073 0.108724 0.109375 0.110026 0.110677 0.111328 0.111979 0.112630 0.113281 0.113932 0.114583 0.115234 0.115885 0.116536 0.117188 0.117839 0.118490 0.119141 0.119792 0.120443 0.121094 0.121745 0.122396 0.123047 0.123698 0.124349 0.125000 0.125651 0.126302 0.126953 0.127604 0.128255 0.128906 0.129557 0.130208 0.130859 0.131510 0.132161 0.132812 0.133464 0.134115 0.134766 0.135417 0.136068 0.136719 0.137370 0.138021 0.138672 0.139323 0.139974 0.140625 0.141276 0.141927 0.142578 0.143229 0.143880 0.144531 0.145182 0.145833 0.146484 0.147135 0.147786 0.148438 0.149089 0.149740 0.150391 0.151042 0.151693 0.152344 0.152995 0.153646 0.154297 0.154948 0.155599 0.156250 0.156901 0.157552 0.158203 0.158854 0.159505 0.160156 0.160807 0.161458 0.162109 0.162760 0.163411 0.164062 0.164714 0.165365 0.166016 0.166667 0.167318 0.167969 0.168620 0.169271 0.169922 0.170573 0.171224 0.171875 0.172526 0.173177 0.173828 0.174479 0.175130 0.175781 0.176432 0.177083 0.177734 0.178385 0.179036 0.179688 0.180339 0.180990 0.181641 0.182292 0.182943 0.183594 0.184245 0.184896 0.185547 0.186198 0.186849 0.187500 0.188151 0.188802 0.189453 0.190104 0.190755 0.191406 0.192057 0.192708 0.193359 0.194010 0.194661 0.195312 0.195964 0.196615 0.197266 0.197917 0.198568 0.199219 0.199870 0.200521 0.201172 0.201823 0.202474 0.203125 0.203776 0.204427 0.205078 0.205729 0.206380 0.207031 0.207682 0.208333 0.208984 0.209635 0.210286 0.210938 0.211589 0.212240 0.212891 0.213542 0.214193 0.214844 0.215495 0.216146 0.216797 0.217448 0.218099 0.218750 0.219401 0.220052 0.220703 0.221354 0.222005 0.222656 0.223307 0.223958 0.224609 0.225260 0.225911 0.226562 0.227214 0.227865 0.228516 0.229167 0.229818 0.230469 0.231120 0.231771 0.232422 0.233073 0.233724 0.234375 0.235026 0.235677
       0.34530        0.34530        0.34530        0.34530        0.34530        0.34530        0.34530        0.34530        0.34530        0.34530        0.34530        0.34530        0.34530        0.34530        0.34530        0.34530        0.34530        0.34530        0.34530        0.34530        0.34530        0.34530        0.34530        0.34530        0.34530        0.34530        0.34530        0.34530        0.34530        0.34530        0.34530        0.34530        0.34530        0.34530        0.34530        0.34530        0.34530        0.34530        0.34530        0.34530        0.34530        0.34530        0.34530        0.34530        0.34530        0.34530        0.34530        0.34530        0.34530        0.34530        0.34530        0.34639        0.49243        0.22817        0.08031        0.00078       -0.27128       -0.11463       -0.15970       -0.22201        0.00939       -0.14468       -0.07364       -0.06242       -0.04571       -0.12523       -0.16125       -0.25561       -0.31063       -0.42427       -0.35828       -0.25857       -0.22732       -0.32481       -0.24185       -0.30458       -0.27321       -0.29677       -0.13537       -0.14677       -0.20916       -0.03973        0.02546       -0.02714        0.07359        0.03366        0.22972        0.24500        0.33615        0.35086        0.38630        0.42428        0.49949        0.55933        0.57167        0.51144        0.48809        0.51198        0.46500        0.52345        0.44678        0.41263        0.41591        0.35275        0.29720        0.30751        0.33499        0.22790        0.19722        0.12728        0.15211        0.16331        0.18261        0.16133        0.23178        0.28575        0.31320        0.29361        0.38691        0.46836        0.39748        0.48702        0.59878        0.55555        0.52294        0.56173        0.59798        0.41816        0.48276        0.39506        0.32442        0.30276        0.28336        0.25425        0.19205        0.18420        0.14915        0.20417        0.25820        0.28936        0.34419        0.30601        0.41030        0.42686        0.45942        0.48595        0.48346        0.51492        0.45791        0.43638        0.40898        0.33995        0.32046        0.31164        0.31845        0.25230        0.24459        0.25652        0.24395        0.27177        0.32632        0.42923        0.46001        0.42079        0.42130        0.47260        0.46049        0.46789        0.46215        0.38125        0.36492        0.40178        0.36349        0.30626        0.29924        0.32039        0.28384        0.29969        0.30007        0.31745        0.36120        0.37873        0.43177        0.44302        0.36347        0.45311        0.42223        0.35604        0.30566        0.35018        0.33019        0.30616        0.32185        0.28092        0.28349        0.32312        0.33802        0.44143        0.41017        0.37330        0.38928        0.43009        0.36439        0.35428        0.34002        0.34613        0.28194        0.27969        0.30078        0.37621        0.38148        0.33987        0.34838        0.39679        0.39196        0.45326        0.39700        0.36318        0.33290        0.33016        0.32298        0.31738        0.34248        0.38879        0.36814        0.37240        0.32913        0.43948        0.36007        0.34948        0.33430        0.37819        0.37237        0.30846        0.31448        0.27934        0.31177        0.32861        0.31437        0.33814        0.33475        0.35651        0.34578        0.33685        0.30775        0.29859        0.28460        0.33222        0.33857        0.34081        0.30109        0.34530        0.34026        0.33684        0.33827        0.30476        0.28462        0.31398        0.32710        0.32250        0.31635        0.29945        0.31604        0.34067        0.33230        0.33310        0.38416        0.33859        0.27406        0.31690        0.32483        0.32325        0.34057        0.29241        0.32599        0.28498        0.31689        0.31643        0.36857        0.31957        0.31156        0.29602        0.28554        0.37213        0.36032        0.32449        0.32515        0.30318        0.30479        0.33548        0.33174        0.28297        0.32220        0.27223        0.26448        0.27906        0.30576        0.31676        0.32701        0.23499        0.28316        0.34039        0.33860        0.34228        0.32993        0.31107        0.31178        0.32651        0.31493        0.25574        0.27906        0.28649        0.33339        0.32684        0.34594        0.35022        0.33854        0.33697        0.33165        0.32391        0.30941        0.31800        0.31715        0.26418        0.28285        0.32607        0.33667        0.24159        0.19788        0.21212        0.30062        0.30964        0.29792        0.27552        0.27411        0.28020        0.23866        0.26827        0.27065        0.26353        0.25854        0.25657        0.25104        0.20427        0.24947        0.32270        0.37345        0.26738        0.23991        0.20041        0.18823        0.28154        0.29017        0.38811        0.26165        0.23736        0.29683        0.36411        0.19190        0.00745       -0.10021       -0.54268       -0.75614
3.361953 3.324517 3.287293 3.250280 3.213479 3.176890 3.140512 3.104347 3.068393 3.032650 2.997120 2.961801 2.926694 2.891798 2.857115 2.822643 2.788382 2.754334 2.720497 2.686872 2.653459 2.620257 2.587267 2.554489 2.521923 2.489568 2.457425 2.425494 2.393774 2.362267 2.330971 2.299886 2.269014 2.238353 2.207904 2.177666 2.147640 2.117826 2.088224 2.058834 2.029655 2.000688 1.971932 1.943389 1.915057 1.886937 1.859028 1.831332 1.803847 1.776573 1.749512 1.651671 1.967136 1.698805 1.080926 1.148468 0.365944 0.901571 0.528535 0.641691 0.923029 0.670718 0.654484 0.758158 0.692245 0.641908 0.466726 0.343105 0.182646 -0.007943 -0.004460 0.105123 0.404145 -0.033041 0.163148 0.042316 0.144524 -0.060076 0.259371 0.183551 0.096562 0.298521 0.495061 0.288884 0.459070 0.365817 0.769282 0.639179 0.856888 0.865043 0.815315 1.035715 0.935347 1.238425 1.073022 1.112771 0.986978 1.008203 0.951172 0.894867 0.933880 0.760092 0.726796 0.653927 0.615531 0.461500 0.558640 0.446850 0.281064 0.199730 0.137442 0.181867 0.219993 0.157638 0.181241 0.359471 0.346099 0.360415 0.462814 0.528692 0.532840 0.416062 0.800401 0.782972 0.653504 0.654955 0.756254 0.530177 0.421018 0.491956 0.196723 0.245716 0.101770 0.164246 -0.016935 -0.034902 -0.108596 -0.104374 0.106418 0.003042 0.131720 0.186679 0.164998 0.310797 0.313084 0.356518 0.416476 0.398814 0.344963 0.267480 0.245650 0.146327 0.093082 0.055142 0.024954 0.003984 -0.066138 -0.089650 -0.091538 -0.064659 -0.058432 0.139052 0.311709 0.197960 0.210345 0.259392 0.348629 0.244107 0.342925 0.283388 0.150384 0.132602 0.278609 0.004272 0.043694 0.030015 0.059806 -0.011052 0.086693 -0.009745 0.139238 -0.011731 0.233888 0.280885 0.191665 0.249775 0.208820 0.155547 0.042469 0.076723 0.084537 0.023216 -0.003136 0.042651 -0.074331 -0.017589 0.025698 0.116303 0.283032 0.147143 0.119627 0.202747 0.143764 0.130127 0.048522 0.058674 0.059140 -0.088920 -0.013112 0.033520 0.139386 0.113226 0.034212 0.081130 0.174247 0.159571 0.281495 0.109073 0.091605 0.043610 0.015372 0.058351 0.028673 0.090696 0.163479 0.112941 0.082182 0.135720 0.183847 0.024722 0.070924 0.054417 0.130769 0.071343 -0.008593 0.009322 -0.053666 0.008743 0.047200 0.025321 0.022240 -0.005921 0.049598 0.021089 0.010372 -0.045628 -0.051609 -0.037515 -0.023628 0.057169 -0.017070 -0.008773 0.035929 0.050872 0.022903 0.053939 -0.033922 -0.031528 0.008816 0.024681 0.024949 0.022979 -0.023578 -0.002535 0.075506 0.036440 0.019643 0.166317 -0.037280 -0.060923 0.025643 0.014755 0.015782 0.035165 -0.042201 0.034121 -0.077383 0.016817 0.030055 0.102822 -0.022023 -0.025310 -0.045395 -0.031031 0.093601 0.066914 -0.030506 0.030578 -0.046939 -0.030486 0.023148 -0.004739 -0.069130 0.030528 -0.117026 -0.090822 -0.045740 -0.073755 0.053113 -0.073135 -0.220719 -0.020852 0.055098 -0.017851 -0.018806 0.028312 -0.053725 -0.029690 -0.045861 -0.056379 -0.134710 -0.116774 -0.136616 0.016997 -0.007522 -0.018301 0.019674 0.019417 -0.106426 0.028079 -0.014981 -0.089052 -0.017853 -0.005624 -0.127786 -0.056599 -0.005147 0.064938 -0.094212 -0.262961 -0.109531 0.108223 0.012087 -0.036315 0.029589 0.022075 0.016953 -0.049154 -0.058297 0.029122 -0.005286 0.022965 -0.004365 0.043325 -0.139443 0.051687 0.235767 0.188303 0.046259 0.068137 -0.120178 0.017056 0.076278 0.098633 0.400503 0.333085 0.408282 0.522403 0.746105 0.352771 -0.090543 -0.162006 -1.285540
0.072396 0.072907 0.074440 0.076995 0.080571 0.085167 0.090782 0.097414 0.105061 0.113720 0.123388 0.134059 0.145729 0.158391 0.172037 0.186656 0.202238 0.218770 0.236234 0.254614 0.273888 0.294033 0.315021 0.336820 0.359398 0.382713 0.406725 0.431383 0.456635 0.482422 0.508680 0.535340 0.562324 0.589550 0.616929 0.644365 0.671755 0.698990 0.725951 0.752516 0.778553 0.803924 0.828484 0.852083 0.874563 0.895761 0.915510 0.933635 0.949961 0.964308 0.976494 0.986337 0.993655 0.998266 0.999992 0.998660 0.994102 0.986160 0.974683 0.959535 0.940591 0.917743 0.890904 0.860004 0.824998 0.785865 0.742614 0.695281 0.643936 0.588683 0.529660 0.467046 0.401055 0.331945 0.260014 0.185602 0.109089 0.030899 0.048504 0.128619 0.208903 0.288783 0.367651 0.444875 0.519795 0.591737 0.660015 0.723935 0.782808 0.835953 0.882708 0.922437 0.954542 0.978471 0.993729 0.999884 0.996584 0.983561 0.960640 0.927753 0.884943 0.832371 0.770323 0.699215 0.619594 0.532140 0.437667 0.337117 0.231559 0.122175 0.010258 0.102808 0.215558 0.326465 0.433961 0.536456 0.632367 0.720139 0.798274 0.865362 0.920103 0.961343 0.988099 0.999583 0.995233 0.974732 0.938028 0.885351 0.817224 0.734467 0.638202 0.529843 0.411086 0.283891 0.150456 0.013183 0.125355 0.262470 0.395398 0.521361 0.637628 0.741571 0.830736 0.902902 0.956144 0.988896 1.000000 0.988756 0.954961 0.898936 0.821545 0.724199 0.608846 0.477943 0.334424 0.181637 0.023282 0.136679 0.294111 0.444815 0.584638 0.709597 0.815992 0.900528 0.960432 0.993548 0.998435 0.974435 0.921734 0.841383 0.735308 0.606286 0.457886 0.294398 0.120716 0.057796 0.235462 0.406467 0.565054 0.705720 0.823414 0.913738 0.973118 0.998972 0.989834 0.945458 0.866867 0.756369 0.617516 0.455018 0.274605 0.082848 0.113079 0.305638 0.487235 0.650512 0.788657 0.895702 0.966806 0.998491 0.988842 0.937644 0.846447 0.718568 0.558999 0.374255 0.172120 0.038644 0.248676 0.448422 0.628567 0.780488 0.896677 0.971146 0.999758 0.980493 0.913619 0.801747 0.649786 0.464765 0.255544 0.032420 0.193357 0.410147 0.606519 0.771858 0.896969 0.974616 0.999973 0.970970 0.888490 0.756413 0.581486 0.373028 0.142477 0.097215 0.332286 0.548951 0.734218 0.876693 0.967311 0.999951 0.971907 0.884150 0.741374 0.551811 0.326812 0.080212 0.172489 0.415086 0.631700 0.807837 0.931396 0.993533 0.989358 0.918373 0.784629 0.596568 0.366565 0.110159 0.154943 0.410087 0.636965 0.818952 0.942367 0.997545 0.979663 0.889226 0.732165 0.519545 0.266842 0.007114 0.281509 0.535115 0.747934 0.902815 0.986879 0.992664 0.918863 0.770588 0.559111 0.301093 0.017336 0.268843 0.533507 0.754123 0.911500 0.991529 0.986517 0.896020 0.727055 0.493664 0.215838 0.082132 0.373728 0.632555 0.834762 0.961269 0.999670 0.945523 0.802961 0.584509 0.310080 0.005253 0.301050 0.579301 0.802197 0.947425 0.999944 0.953662 0.812242 0.588953 0.305549 0.009755 0.325038 0.607870 0.828666 0.963851 0.998450 0.927878 0.758647 0.507918 0.201870 0.126910 0.442873 0.711316 0.902252 0.993823 0.974920 0.846669 0.622550 0.327143 0.006466 0.340301 0.635789 0.858249 0.981028 0.988806 0.879655 0.665540 0.371175 0.031301 0.313322 0.620755 0.853022 0.980858 0.987526 0.871162 0.645304 0.337495 0.013937 0.364556 0.669397 0.888775 0.993527 0.969043 0.817457 0.557698 0.223324 0.141714 0.488735 0.770803 0.949171
1.000000 1.000000 1.000000 1.000000 1.000000 1.000000 1.000000 1.000000 1.000000 1.000000 1.000000 1.000000 1.000000 1.000000 1.000000 1.000000 1.000000 1.000000 1.000000 1.000000 1.000000 1.000000 1.000000 1.000000 1.000000 1.000000 1.000000 1.000000 1.000000 1.000000 1.000000 1.000000 1.000000 1.000000 1.000000 1.000000 1.000000 1.000000 1.000000 1.000000 1.000000 1.000000 1.000000 1.000000 1.000000 1.000000 1.000000 1.000000 1.000000 1.000000 1.000000 1.000000 0.831456 0.831456 0.831456 0.811384 0.811384 0.811384 0.811384 0.811384 0.811384 0.811384 0.811384 0.811384 0.811384 0.811384 0.811384 0.811384 0.811384 0.811384 0.811384 0.811384 0.811384 0.811384 0.811384 0.811384 0.811384 0.811384 0.811384 0.811384 0.811384 0.811384 0.811384 0.811384 0.811384 0.811384 0.811384 0.811384 0.811384 0.811384 0.811384 0.811384 0.811384 0.811384 0.811384 0.811384 0.855707 0.862247 0.867381 0.870551 0.871037 0.868967 0.867469 0.867181 0.867043 0.867619 0.873659 0.898697 0.915843 0.918975 0.930399 0.932151 0.937579 0.940807 0.961132 0.963212 0.965075 0.964416 0.965363 0.967082 0.971031 0.971141 0.972101 0.972414 0.974010 0.974023 0.973509 0.972748 0.971988 0.969538 0.969351 0.969172 0.969321 0.969978 0.964855 0.964917 0.965020 0.963467 0.961911 0.951168 0.946716 0.945190 0.945327 0.927816 0.921070 0.912569 0.907745 0.921380 0.915866 0.907242 0.906633 0.894992 0.897388 0.896692 0.887965 0.887045 0.884382 0.880921 0.872249 0.873228 0.872623 0.875462 0.879832 0.881855 0.865993 0.845149 0.817435 0.801843 0.801998 0.804358 0.800513 0.803602 0.805620 0.804697 0.803030 0.798203 0.784699 0.792569 0.791376 0.787504 0.780808 0.779783 0.766016 0.760398 0.754604 0.731035 0.711268 0.695478 0.699196 0.688561 0.684416 0.686578 0.694633 0.698612 0.702191 0.695613 0.692852 0.678997 0.652490 0.658563 0.669739 0.672536 0.661222 0.657904 0.636092 0.661304 0.665935 0.683270 0.692334 0.692454 0.692181 0.672523 0.644568 0.624725 0.626361 0.609843 0.621297 0.630282 0.628589 0.616008 0.626532 0.638258 0.648194 0.608082 0.607422 0.590825 0.588502 0.591372 0.586400 0.554569 0.526231 0.513510 0.491922 0.475611 0.489805 0.483761 0.479589 0.503449 0.466949 0.463908 0.462805 0.464788 0.464243 0.458061 0.436013 0.439209 0.440447 0.422185 0.402467 0.343692 0.323167 0.324920 0.327870 0.331318 0.351970 0.368774 0.331693 0.308876 0.309720 0.332577 0.330083 0.341896 0.348848 0.322016 0.317854 0.223948 0.222137 0.245674 0.254436 0.263341 0.239700 0.260501 0.260749 0.238695 0.214408 0.146067 0.094336 0.073454 0.098536 0.107626 0.116371 0.103679 0.071411 0.072880 0.083694 0.039331 0.021456 0.016166 0.020918 0.036931 0.058254 0.049124 0.047970 0.059307 0.076602 0.044805 0.038212 0.045543 0.065993 0.048559 0.032465 0.006509 -0.003349 -0.024444 -0.031831 -0.010061 0.000932 0.006402 0.040650 0.014999 -0.029420 -0.055878 -0.046865 -0.058617 -0.068455 -0.097858 -0.087414 -0.109003 -0.083321 -0.068641 -0.002515 0.002135 0.004151 -0.018011 0.010600 -0.038263 -0.049557 -0.042025 -0.063339 -0.050398 -0.000327 0.013879 0.019660 -0.026429 -0.044088 -0.044088 -0.044088 -0.065229 -0.065229 -0.065229 -0.065229 -0.065229 -0.065229 -0.065229 -0.065229 -0.065229 -0.076710 -0.076710 -0.076710 -0.076710 -0.076710 -0.076710 -0.076710 -0.076710 -0.076710 -0.076710 -0.076710 -0.076710 -0.076710 -0.076710 -0.076710 -0.076710 -0.076710
0.000000 0.000000 0.000000 0.000000 0.000000 0.000000 0.000000 0.000000 0.000000 0.000000 0.000000 0.000000 0.000000 0.000000 0.000000 0.000000 0.000000 0.000000 0.000000 0.000000 0.000000 0.000000 0.000000 0.000000 0.000000 0.000000 0.000000 0.000000 0.000000 0.000000 0.000000 0.000000 0.000000 0.000000 0.000000 0.000000 0.000000 0.000000 0.000000 0.000000 0.000000 0.000000 0.000000 0.000000 0.000000 0.000000 0.000000 0.000000 0.000000 0.000000 0.000000 0.000000 0.180334 0.180334 0.180334 0.199007 0.199007 0.199007 0.199007 0.199007 0.199007 0.199007 0.199007 0.199007 0.199007 0.199007 0.199007 0.199007 0.199007 0.199007 0.199007 0.199007 0.199007 0.199007 0.199007 0.199007 0.199007 0.199007 0.199007 0.199007 0.199007 0.199007 0.199007 0.199007 0.199007 0.199007 0.199007 0.199007 0.199007 0.199007 0.199007 0.199007 0.199007 0.199007 0.199007 0.199007 0.230940 0.230940 0.230940 0.230940 0.230940 0.230940 0.230940 0.230940 0.230940 0.230940 0.230940 0.230940 0.230940 0.230940 0.230940 0.230940 0.230940 0.230940 0.230940 0.230940 0.230940 0.230940 0.230940 0.230940 0.230940 0.230940 0.230940 0.230940 0.244339 0.244339 0.244339 0.244339 0.244339 0.244339 0.244339 0.244339 0.244339 0.244339 0.244339 0.244339 0.244339 0.244339 0.244339 0.244339 0.244339 0.244339 0.244339 0.244339 0.244339 0.244339 0.244339 0.256074 0.256074 0.256074 0.256074 0.256074 0.256074 0.256074 0.256074 0.256074 0.256074 0.256074 0.256074 0.256074 0.256074 0.256074 0.256074 0.256074 0.256074 0.256074 0.256074 0.256074 0.256074 0.256074 0.256074 0.256074 0.256074 0.256074 0.256074 0.256074 0.256074 0.256074 0.256074 0.256074 0.256074 0.256074 0.256074 0.256074 0.264906 0.264906 0.264906 0.264906 0.264906 0.264906 0.264906 0.264906 0.264906 0.264906 0.264906 0.264906 0.264906 0.264906 0.264906 0.264906 0.264906 0.264906 0.264906 0.264906 0.264906 0.264906 0.264906 0.264906 0.264906 0.264906 0.264906 0.264906 0.264906 0.264906 0.264906 0.274721 0.274721 0.274721 0.274721 0.274721 0.274721 0.274721 0.274721 0.274721 0.274721 0.274721 0.274721 0.274721 0.256074 0.256074 0.256074 0.256074 0.256074 0.256074 0.256074 0.256074 0.256074 0.256074 0.256074 0.256074 0.256074 0.256074 0.269680 0.269680 0.269680 0.269680 0.269680 0.269680 0.269680 0.269680 0.269680 0.269680 0.269680 0.269680 0.264906 0.264906 0.264906 0.264906 0.264906 0.264906 0.264906 0.264906 0.264906 0.264906 0.264906 0.264906 0.269680 0.269680 0.269680 0.269680 0.269680 0.269680 0.269680 0.269680 0.269680 0.269680 0.269680 0.264906 0.264906 0.264906 0.264906 0.264906 0.264906 0.264906 0.264906 0.264906 0.264906 0.264906 0.269680 0.269680 0.269680 0.269680 0.269680 0.269680 0.269680 0.269680 0.269680 0.269680 0.251976 0.251976 0.251976 0.251976 0.251976 0.251976 0.251976 0.251976 0.251976 0.251976 0.251976 0.269680 0.269680 0.269680 0.269680 0.269680 0.269680 0.269680 0.269680 0.269680 0.256074 0.256074 0.256074 0.256074 0.256074 0.256074 0.256074 0.256074 0.256074 0.256074 0.260378 0.260378 0.260378 0.260378 0.260378 0.260378 0.260378 0.260378 0.260378 0.256074 0.256074 0.256074 0.256074 0.256074 0.256074 0.256074 0.256074 0.256074 0.251976 0.251976 0.251976 0.251976 0.251976 0.251976 0.251976 0.251976 0.251976 0.251976 0.251976 0.251976 0.251976 0.251976 0.251976 0.251976 0.251976
