# Output from CTFFind version 4.1.9, run on 2019-11-03 20:02:16
# Input file: stack1_bm3d_averaged_1_7.0_0_50_half.mrc ; Number of micrographs: 1
# Pixel size: 3.000 Angstroms ; acceleration voltage: 300.0 keV ; spherical aberration: 0.00 mm ; amplitude contrast: 0.07
# Box size: 512 pixels ; min. res.: 30.0 Angstroms ; max. res.: 5.0 Angstroms ; min. def.: 5000.0 um; max. def. 50000.0 um; num. frames averaged: 1
# 6 lines per micrograph: #1 - spatial frequency (1/Angstroms); #2 - 1D rotational average of spectrum (assuming no astigmatism); #3 - 1D rotational average of spectrum; #4 - CTF fit; #5 - cross-correlation between spectrum and CTF fit; #6 - 2sigma of expected cross correlation of noise
0.000000 0.000651 0.001302 0.001953 0.002604 0.003255 0.003906 0.004557 0.005208 0.005859 0.006510 0.007161 0.007812 0.008464 0.009115 0.009766 0.010417 0.011068 0.011719 0.012370 0.013021 0.013672 0.014323 0.014974 0.015625 0.016276 0.016927 0.017578 0.018229 0.018880 0.019531 0.020182 0.020833 0.021484 0.022135 0.022786 0.023438 0.024089 0.024740 0.025391 0.026042 0.026693 0.027344 0.027995 0.028646 0.029297 0.029948 0.030599 0.031250 0.031901 0.032552 0.033203 0.033854 0.034505 0.035156 0.035807 0.036458 0.037109 0.037760 0.038411 0.039062 0.039714 0.040365 0.041016 0.041667 0.042318 0.042969 0.043620 0.044271 0.044922 0.045573 0.046224 0.046875 0.047526 0.048177 0.048828 0.049479 0.050130 0.050781 0.051432 0.052083 0.052734 0.053385 0.054036 0.054688 0.055339 0.055990 0.056641 0.057292 0.057943 0.058594 0.059245 0.059896 0.060547 0.061198 0.061849 0.062500 0.063151 0.063802 0.064453 0.065104 0.065755 0.066406 0.067057 0.067708 0.068359 0.069010 0.069661 0.070312 0.070964 0.071615 0.072266 0.072917 0.073568 0.074219 0.074870 0.075521 0.076172 0.076823 0.077474 0.078125 0.078776 0.079427 0.080078 0.080729 0.081380 0.082031 0.082682 0.083333 0.083984 0.084635 0.085286 0.085938 0.086589 0.087240 0.087891 0.088542 0.089193 0.089844 0.090495 0.091146 0.091797 0.092448 0.093099 0.093750 0.094401 0.095052 0.095703 0.096354 0.097005 0.097656 0.098307 0.098958 0.099609 0.100260 0.100911 0.101562 0.102214 0.102865 0.103516 0.104167 0.104818 0.105469 0.106120 0.106771 0.107422 0.108073 0.108724 0.109375 0.110026 0.110677 0.111328 0.111979 0.112630 0.113281 0.113932 0.114583 0.115234 0.115885 0.116536 0.117188 0.117839 0.118490 0.119141 0.119792 0.120443 0.121094 0.121745 0.122396 0.123047 0.123698 0.124349 0.125000 0.125651 0.126302 0.126953 0.127604 0.128255 0.128906 0.129557 0.130208 0.130859 0.131510 0.132161 0.132812 0.133464 0.134115 0.134766 0.135417 0.136068 0.136719 0.137370 0.138021 0.138672 0.139323 0.139974 0.140625 0.141276 0.141927 0.142578 0.143229 0.143880 0.144531 0.145182 0.145833 0.146484 0.147135 0.147786 0.148438 0.149089 0.149740 0.150391 0.151042 0.151693 0.152344 0.152995 0.153646 0.154297 0.154948 0.155599 0.156250 0.156901 0.157552 0.158203 0.158854 0.159505 0.160156 0.160807 0.161458 0.162109 0.162760 0.163411 0.164062 0.164714 0.165365 0.166016 0.166667 0.167318 0.167969 0.168620 0.169271 0.169922 0.170573 0.171224 0.171875 0.172526 0.173177 0.173828 0.174479 0.175130 0.175781 0.176432 0.177083 0.177734 0.178385 0.179036 0.179688 0.180339 0.180990 0.181641 0.182292 0.182943 0.183594 0.184245 0.184896 0.185547 0.186198 0.186849 0.187500 0.188151 0.188802 0.189453 0.190104 0.190755 0.191406 0.192057 0.192708 0.193359 0.194010 0.194661 0.195312 0.195964 0.196615 0.197266 0.197917 0.198568 0.199219 0.199870 0.200521 0.201172 0.201823 0.202474 0.203125 0.203776 0.204427 0.205078 0.205729 0.206380 0.207031 0.207682 0.208333 0.208984 0.209635 0.210286 0.210938 0.211589 0.212240 0.212891 0.213542 0.214193 0.214844 0.215495 0.216146 0.216797 0.217448 0.218099 0.218750 0.219401 0.220052 0.220703 0.221354 0.222005 0.222656 0.223307 0.223958 0.224609 0.225260 0.225911 0.226562 0.227214 0.227865 0.228516 0.229167 0.229818 0.230469 0.231120 0.231771 0.232422 0.233073 0.233724 0.234375 0.235026 0.235677
       0.34253        0.34253        0.34253        0.34253        0.34253        0.34253        0.34253        0.34253        0.34253        0.34253        0.34253        0.34253        0.34253        0.34253        0.34253        0.34253        0.34253        0.34253        0.34253        0.34253        0.34253        0.34253        0.34253        0.34253        0.34253        0.34253        0.34253        0.34253        0.34253        0.34253        0.34253        0.34253        0.34253        0.34253        0.34253        0.34253        0.34253        0.34253        0.34253        0.34253        0.34253        0.34253        0.34253        0.34253        0.34253        0.34253        0.34253        0.34253        0.34253        0.34253        0.34253        0.33791        0.47732        0.22385        0.07585        0.00188       -0.26893       -0.11518       -0.15614       -0.22169        0.00565       -0.14692       -0.06748       -0.06442       -0.04873       -0.12387       -0.16322       -0.25163       -0.30089       -0.41286       -0.34621       -0.24834       -0.22222       -0.31900       -0.23736       -0.29458       -0.26513       -0.28782       -0.13015       -0.14382       -0.20264       -0.03565        0.03123       -0.02476        0.06944        0.03459        0.23349        0.24353        0.33431        0.34963        0.37821        0.41619        0.49277        0.54886        0.55545        0.50340        0.48429        0.51015        0.46418        0.51486        0.43970        0.40927        0.41278        0.35392        0.29669        0.30686        0.33144        0.22351        0.19550        0.13027        0.15538        0.16305        0.18015        0.16350        0.23573        0.29037        0.31327        0.28919        0.39134        0.46844        0.39319        0.48374        0.58998        0.54292        0.51624        0.56117        0.59366        0.41641        0.47828        0.39782        0.32827        0.30378        0.28147        0.25124        0.19376        0.18432        0.15207        0.20277        0.25532        0.28336        0.33843        0.30444        0.40668        0.41852        0.45460        0.48963        0.47832        0.50537        0.44797        0.43209        0.40532        0.33765        0.31473        0.31328        0.31796        0.25195        0.24560        0.25241        0.24250        0.27055        0.32416        0.42652        0.46451        0.41659        0.42480        0.46671        0.45080        0.46508        0.45887        0.38347        0.36248        0.39579        0.36037        0.30652        0.29956        0.31475        0.27789        0.29717        0.30113        0.31562        0.36563        0.37586        0.41909        0.42760        0.35748        0.44702        0.41379        0.34969        0.30640        0.34347        0.32649        0.30021        0.31512        0.28525        0.29132        0.32363        0.33582        0.43647        0.40634        0.37441        0.39363        0.43212        0.36537        0.35031        0.34013        0.34986        0.27811        0.27464        0.30352        0.37814        0.38196        0.33951        0.34684        0.39485        0.38830        0.45071        0.38909        0.36433        0.33108        0.31962        0.31755        0.31527        0.34057        0.38213        0.36785        0.37253        0.32708        0.43531        0.35245        0.34942        0.33560        0.37791        0.36834        0.29771        0.30972        0.27256        0.31275        0.32573        0.31449        0.33957        0.32840        0.35234        0.34138        0.33744        0.31122        0.29850        0.28038        0.32440        0.33991        0.32966        0.29652        0.33953        0.33038        0.33307        0.33523        0.30332        0.28740        0.30649        0.32522        0.31800        0.31292        0.29152        0.30962        0.34535        0.32889        0.32219        0.38468        0.33142        0.27107        0.31293        0.32745        0.31564        0.34358        0.29792        0.32588        0.27701        0.31680        0.32562        0.36253        0.31234        0.31447        0.30556        0.28354        0.36394        0.35971        0.31783        0.31330        0.29795        0.29511        0.33930        0.33588        0.28018        0.32119        0.27938        0.26423        0.27023        0.30402        0.32696        0.32500        0.23521        0.27769        0.33973        0.32056        0.33115        0.33660        0.30652        0.31617        0.32667        0.31235        0.26547        0.27099        0.28434        0.33398        0.32298        0.32508        0.33997        0.34743        0.34018        0.31539        0.31763        0.30260        0.30640        0.30159        0.24792        0.27359        0.32098        0.34007        0.24512        0.20261        0.20004        0.30021        0.30657        0.29042        0.28785        0.27243        0.27796        0.24035        0.27677        0.26744        0.29066        0.25011        0.25319        0.25620        0.20818        0.25209        0.32086        0.34633        0.26341        0.22909        0.21553        0.17753        0.26627        0.27465        0.38042        0.27925        0.24135        0.30472        0.36384        0.15883       -0.04756       -0.12665       -0.55984       -0.76667
3.405039 3.366980 3.329136 3.291509 3.254097 3.216902 3.179922 3.143159 3.106611 3.070279 3.034164 2.998264 2.962581 2.927113 2.891861 2.856826 2.822006 2.787402 2.753015 2.718843 2.684887 2.651147 2.617624 2.584316 2.551224 2.518348 2.485689 2.453245 2.421017 2.389005 2.357209 2.325630 2.294266 2.263118 2.232186 2.201470 2.170970 2.140686 2.110618 2.080766 2.051130 2.021710 1.992506 1.963518 1.934746 1.906190 1.877850 1.849726 1.821818 1.794126 1.766650 1.661283 1.967439 1.708821 1.084208 1.153719 0.363792 0.901448 0.530651 0.642288 0.921829 0.663720 0.667749 0.752575 0.688468 0.644227 0.455224 0.342726 0.188082 -0.003610 0.000615 0.119711 0.402184 -0.034632 0.160807 0.043019 0.155342 -0.060271 0.260248 0.177370 0.099259 0.299574 0.504583 0.291726 0.450760 0.359339 0.785440 0.643095 0.857064 0.882211 0.805664 1.033398 0.934641 1.244318 1.060229 1.104625 0.994552 1.015999 0.961998 0.892731 0.935336 0.761544 0.731916 0.658048 0.626371 0.460110 0.558866 0.446719 0.268595 0.204956 0.140227 0.177930 0.215570 0.153083 0.188120 0.371551 0.346082 0.362674 0.465216 0.544742 0.533162 0.414188 0.804757 0.807501 0.619237 0.678670 0.759856 0.540652 0.412657 0.503719 0.201782 0.254384 0.101141 0.153320 -0.016225 -0.040637 -0.109651 -0.103767 0.099754 -0.011590 0.120633 0.194048 0.155070 0.306725 0.305702 0.393646 0.355395 0.452217 0.311518 0.261323 0.240082 0.145948 0.079625 0.053134 0.024044 0.002037 -0.056387 -0.107274 -0.107405 -0.062494 -0.066379 0.140117 0.317055 0.206517 0.200959 0.283912 0.323675 0.238345 0.346928 0.282890 0.155261 0.134174 0.267184 0.005822 0.044637 0.023181 0.054447 -0.019186 0.086095 -0.004012 0.140740 0.002001 0.221292 0.257626 0.180618 0.258897 0.192738 0.144207 0.049257 0.077004 0.071204 0.027641 -0.013822 0.036646 -0.057370 -0.003126 0.028557 0.124040 0.269691 0.148487 0.137659 0.237951 0.142149 0.153858 0.045529 0.081608 0.071087 -0.092867 -0.001763 0.040301 0.162968 0.123373 0.046759 0.087987 0.183588 0.172519 0.278688 0.119400 0.108249 0.042832 0.008554 0.061478 0.038839 0.097424 0.166765 0.125505 0.090855 0.149187 0.182539 0.018512 0.088400 0.062078 0.147162 0.065230 -0.008378 0.003761 -0.053980 0.027225 0.049919 0.036721 0.017965 0.064369 0.042969 0.016635 0.018849 -0.030525 -0.060642 -0.035911 -0.035448 0.069128 -0.038629 -0.009836 0.030268 0.015187 0.034515 0.051257 -0.035778 -0.028919 -0.007984 0.028876 0.012605 0.018060 -0.040827 -0.015172 0.090329 0.000172 0.007737 0.162173 -0.056477 -0.075969 0.019515 0.009292 -0.004309 0.031964 -0.041126 0.012851 -0.092509 0.024652 0.040040 0.084332 -0.038179 -0.005676 -0.039559 -0.039150 0.081556 0.072604 -0.047231 -0.012855 -0.038992 -0.043585 0.030332 -0.002429 -0.076722 0.035168 -0.091894 -0.109563 -0.063998 -0.055905 0.003633 -0.041931 -0.218392 -0.028369 0.059698 -0.038960 -0.028985 0.049503 -0.055563 -0.016576 -0.057128 -0.043787 -0.119805 -0.130178 -0.117537 0.042045 -0.012083 -0.044429 0.007533 0.076248 -0.103388 0.031459 0.000930 -0.084766 -0.006486 -0.016570 -0.132529 -0.056706 0.015362 0.099889 -0.077685 -0.259869 -0.110842 0.118432 0.009156 -0.031595 0.075262 0.032901 -0.009443 -0.036812 0.015470 0.046841 0.059063 0.003614 0.024576 0.064160 -0.122173 0.096234 0.220944 0.165310 0.077090 0.074713 -0.068740 0.051798 0.045488 0.092391 0.354221 0.544199 0.422335 0.562703 0.787836 0.304632 -0.213726 -0.211937 -1.333687
0.072396 0.072907 0.074441 0.076997 0.080575 0.085173 0.090790 0.097425 0.105075 0.113738 0.123410 0.134086 0.145761 0.158428 0.172079 0.186705 0.202294 0.218832 0.236304 0.254691 0.273973 0.294126 0.315122 0.336931 0.359517 0.382841 0.406861 0.431528 0.456789 0.482585 0.508852 0.535519 0.562511 0.589745 0.617130 0.644572 0.671968 0.699206 0.726171 0.752737 0.778775 0.804145 0.828703 0.852297 0.874771 0.895961 0.915698 0.933810 0.950120 0.964448 0.976613 0.986432 0.993722 0.998302 0.999994 0.998625 0.994027 0.986040 0.974517 0.959318 0.940320 0.917416 0.890517 0.859555 0.824485 0.785286 0.741968 0.694567 0.643153 0.587831 0.528740 0.466059 0.400004 0.330833 0.258844 0.184378 0.107818 0.029587 0.049849 0.129988 0.210288 0.290173 0.369035 0.446239 0.521128 0.593026 0.661244 0.725090 0.783874 0.836914 0.883549 0.923143 0.955099 0.978865 0.993946 0.999913 0.996414 0.983182 0.960047 0.926942 0.883911 0.831118 0.768853 0.697535 0.617713 0.530073 0.435430 0.334731 0.229047 0.119565 0.007580 0.105520 0.218268 0.329135 0.436550 0.538924 0.634671 0.722237 0.800126 0.866928 0.921347 0.962231 0.988600 0.999674 0.994895 0.973953 0.936804 0.883686 0.815129 0.731963 0.635318 0.526618 0.407567 0.280135 0.146526 0.009150 0.129415 0.266475 0.399265 0.525005 0.640963 0.744515 0.833212 0.904837 0.957478 0.989577 0.999989 0.988030 0.953511 0.896772 0.818696 0.720710 0.604781 0.473386 0.329473 0.176406 0.017897 0.142081 0.299387 0.449818 0.589225 0.713627 0.819335 0.903070 0.962073 0.994214 0.998075 0.973030 0.919294 0.837950 0.730959 0.601127 0.452056 0.288062 0.114062 0.064561 0.242119 0.412792 0.570825 0.710725 0.827462 0.916660 0.974781 0.999280 0.988740 0.942963 0.863024 0.751284 0.611345 0.447964 0.266916 0.074799 0.121181 0.313476 0.494492 0.656880 0.793855 0.899488 0.968987 0.998934 0.987485 0.934498 0.841604 0.712195 0.551340 0.365615 0.162861 0.048118 0.257939 0.457041 0.636128 0.786609 0.901036 0.973492 0.999930 0.978432 0.909372 0.795475 0.641756 0.455341 0.245174 0.021616 0.204046 0.420160 0.615310 0.778933 0.901910 0.977106 0.999822 0.968128 0.883057 0.748636 0.571754 0.361854 0.130473 0.109371 0.343885 0.559298 0.742671 0.882705 0.970465 0.999996 0.968775 0.877970 0.732468 0.540685 0.314127 0.066746 0.185882 0.427530 0.642362 0.815976 0.936419 0.995042 0.987180 0.912584 0.775555 0.584773 0.352819 0.095391 0.169706 0.423789 0.648601 0.827640 0.947415 0.998513 0.976402 0.881898 0.721246 0.505795 0.251261 0.023363 0.297181 0.548973 0.758860 0.909886 0.989461 0.990468 0.911980 0.759495 0.544641 0.284383 0.000265 0.285870 0.548518 0.765805 0.918797 0.993732 0.983347 0.887661 0.714152 0.477283 0.197374 0.101053 0.391403 0.647354 0.845281 0.966467 0.998973 0.938896 0.790932 0.568124 0.290829 0.015064 0.320491 0.595955 0.814398 0.953893 0.999946 0.947092 0.799654 0.571522 0.284968 0.031433 0.345595 0.625160 0.840834 0.969536 0.996954 0.919246 0.743691 0.488143 0.179346 0.149778 0.463580 0.727551 0.912144 0.996170 0.969345 0.833679 0.603510 0.304137 0.030856 0.363271 0.654649 0.870731 0.985565 0.984744 0.867350 0.646345 0.347299 0.005572 0.337797 0.640957 0.866395 0.985646 0.983009 0.857770 0.624600 0.312002 0.041037 0.389805 0.689514 0.901074 0.996295 0.961780 0.800979 0.534067 0.195588 0.169891 0.513551 0.788857 0.957898
1.000000 1.000000 1.000000 1.000000 1.000000 1.000000 1.000000 1.000000 1.000000 1.000000 1.000000 1.000000 1.000000 1.000000 1.000000 1.000000 1.000000 1.000000 1.000000 1.000000 1.000000 1.000000 1.000000 1.000000 1.000000 1.000000 1.000000 1.000000 1.000000 1.000000 1.000000 1.000000 1.000000 1.000000 1.000000 1.000000 1.000000 1.000000 1.000000 1.000000 1.000000 1.000000 1.000000 1.000000 1.000000 1.000000 1.000000 1.000000 1.000000 1.000000 1.000000 1.000000 0.827991 0.827991 0.827991 0.805739 0.805739 0.805739 0.805739 0.805739 0.805739 0.805739 0.805739 0.805739 0.805739 0.805739 0.805739 0.805739 0.805739 0.805739 0.805739 0.805739 0.805739 0.805739 0.805739 0.805739 0.805739 0.805739 0.805739 0.805739 0.805739 0.805739 0.805739 0.805739 0.805739 0.805739 0.805739 0.805739 0.805739 0.805739 0.805739 0.805739 0.805739 0.805739 0.805739 0.805739 0.853309 0.859955 0.865222 0.868907 0.869166 0.866138 0.864950 0.864511 0.863964 0.865189 0.873845 0.899288 0.916638 0.918356 0.931664 0.933151 0.938066 0.940772 0.960637 0.962315 0.963845 0.963074 0.964075 0.965866 0.972220 0.972349 0.969924 0.969975 0.973217 0.973719 0.973478 0.970048 0.968767 0.968585 0.966198 0.966027 0.965597 0.966451 0.966771 0.961483 0.961689 0.961891 0.963838 0.962400 0.952610 0.947061 0.943207 0.941447 0.922296 0.919396 0.917867 0.913774 0.905358 0.905451 0.894984 0.896132 0.895690 0.889150 0.888434 0.885101 0.881285 0.872285 0.871036 0.870385 0.872479 0.877191 0.880026 0.865783 0.850333 0.832366 0.816177 0.802366 0.803430 0.804735 0.800489 0.804234 0.806442 0.805037 0.803411 0.796962 0.783013 0.790663 0.788748 0.785116 0.779142 0.777967 0.764590 0.756925 0.752368 0.726583 0.711216 0.700964 0.710502 0.702096 0.701101 0.704266 0.712293 0.713811 0.715388 0.708805 0.705796 0.695597 0.674091 0.681782 0.692045 0.686553 0.678617 0.676557 0.649346 0.675066 0.679936 0.698716 0.706719 0.707387 0.707662 0.691415 0.665454 0.671789 0.671240 0.660668 0.667512 0.669579 0.666788 0.653633 0.660716 0.671062 0.687990 0.652438 0.645560 0.629282 0.628090 0.608385 0.589348 0.577648 0.573671 0.545208 0.539941 0.538116 0.530207 0.531750 0.519731 0.498549 0.487356 0.501677 0.488173 0.485349 0.478613 0.477566 0.469007 0.451633 0.432626 0.391534 0.401568 0.406863 0.386901 0.376624 0.351170 0.353920 0.356135 0.369034 0.329682 0.307476 0.307612 0.311064 0.310114 0.320810 0.325647 0.297342 0.298181 0.206020 0.204917 0.220773 0.223088 0.189757 0.176532 0.193074 0.199963 0.180282 0.153798 0.088043 0.042898 0.026127 0.050623 0.057201 0.057227 0.047784 0.040189 0.040245 0.052923 0.007067 -0.003890 -0.015123 -0.019393 -0.010946 0.019409 0.012654 0.000394 0.015693 0.032863 0.003102 0.010440 0.014483 0.013804 0.038980 0.020410 -0.010995 -0.010721 -0.032158 -0.038865 -0.005098 -0.009557 -0.013222 0.013096 0.016262 0.012777 -0.014914 -0.062239 -0.090709 -0.084463 -0.114294 -0.095238 -0.071681 -0.062599 -0.050286 0.013166 0.015293 0.016009 -0.014398 0.015356 -0.016680 -0.025709 -0.012648 -0.027799 -0.024381 0.023077 0.035001 0.041924 -0.013891 -0.025932 -0.025932 -0.025932 -0.050800 -0.050800 -0.050800 -0.050800 -0.050800 -0.050800 -0.050800 -0.050800 -0.050800 -0.055600 -0.055600 -0.055600 -0.055600 -0.055600 -0.055600 -0.055600 -0.055600 -0.055600 -0.055600 -0.055600 -0.055600 -0.055600 -0.055600 -0.055600 -0.055600 -0.055600
0.000000 0.000000 0.000000 0.000000 0.000000 0.000000 0.000000 0.000000 0.000000 0.000000 0.000000 0.000000 0.000000 0.000000 0.000000 0.000000 0.000000 0.000000 2.000000 0.000000 0.000000 0.000000 0.000000 0.000000 0.000000 0.000000 0.000000 0.000000 0.000000 0.000000 0.000000 0.000000 0.000000 0.000000 0.000000 0.000000 0.000000 0.000000 0.000000 0.000000 0.000000 0.000000 0.000000 0.000000 0.000000 0.000000 0.000000 0.000000 0.000000 0.000000 0.000000 0.000000 0.180334 0.180334 0.180334 0.199007 0.199007 0.199007 0.199007 0.199007 0.199007 0.199007 0.199007 0.199007 0.199007 0.199007 0.199007 0.199007 0.199007 0.199007 0.199007 0.199007 0.199007 0.199007 0.199007 0.199007 0.199007 0.199007 0.199007 0.199007 0.199007 0.199007 0.199007 0.199007 0.199007 0.199007 0.199007 0.199007 0.199007 0.199007 0.199007 0.199007 0.199007 0.199007 0.199007 0.199007 0.230940 0.230940 0.230940 0.230940 0.230940 0.230940 0.230940 0.230940 0.230940 0.230940 0.230940 0.230940 0.230940 0.230940 0.230940 0.230940 0.230940 0.230940 0.230940 0.230940 0.230940 0.230940 0.230940 0.230940 0.230940 0.230940 0.230940 0.230940 0.248069 0.248069 0.248069 0.248069 0.248069 0.248069 0.248069 0.248069 0.248069 0.248069 0.248069 0.248069 0.248069 0.248069 0.248069 0.248069 0.248069 0.248069 0.248069 0.248069 0.248069 0.248069 0.251976 0.251976 0.251976 0.251976 0.251976 0.251976 0.251976 0.251976 0.251976 0.251976 0.251976 0.251976 0.251976 0.251976 0.251976 0.251976 0.251976 0.251976 0.251976 0.251976 0.256074 0.256074 0.256074 0.256074 0.256074 0.256074 0.256074 0.256074 0.256074 0.256074 0.256074 0.256074 0.256074 0.256074 0.256074 0.256074 0.256074 0.256074 0.264906 0.264906 0.264906 0.264906 0.264906 0.264906 0.264906 0.264906 0.264906 0.264906 0.264906 0.264906 0.264906 0.264906 0.264906 0.264906 0.264906 0.264906 0.264906 0.264906 0.264906 0.264906 0.264906 0.264906 0.264906 0.264906 0.264906 0.264906 0.264906 0.264906 0.264906 0.274721 0.274721 0.274721 0.274721 0.274721 0.274721 0.274721 0.274721 0.274721 0.274721 0.274721 0.274721 0.274721 0.264906 0.264906 0.264906 0.264906 0.264906 0.264906 0.264906 0.264906 0.264906 0.264906 0.264906 0.264906 0.264906 0.260378 0.260378 0.260378 0.260378 0.260378 0.260378 0.260378 0.260378 0.260378 0.260378 0.260378 0.260378 0.260378 0.264906 0.264906 0.264906 0.264906 0.264906 0.264906 0.264906 0.264906 0.264906 0.264906 0.264906 0.264906 0.269680 0.269680 0.269680 0.269680 0.269680 0.269680 0.269680 0.269680 0.269680 0.269680 0.269680 0.264906 0.264906 0.264906 0.264906 0.264906 0.264906 0.264906 0.264906 0.264906 0.264906 0.264906 0.269680 0.269680 0.269680 0.269680 0.269680 0.269680 0.269680 0.269680 0.269680 0.269680 0.264906 0.264906 0.264906 0.264906 0.264906 0.264906 0.264906 0.264906 0.264906 0.264906 0.260378 0.260378 0.260378 0.260378 0.260378 0.260378 0.260378 0.260378 0.260378 0.260378 0.256074 0.256074 0.256074 0.256074 0.256074 0.256074 0.256074 0.256074 0.256074 0.256074 0.260378 0.260378 0.260378 0.260378 0.260378 0.260378 0.260378 0.260378 0.260378 0.256074 0.256074 0.256074 0.256074 0.256074 0.256074 0.256074 0.256074 0.256074 0.251976 0.251976 0.251976 0.251976 0.251976 0.251976 0.251976 0.251976 0.251976 0.251976 0.251976 0.251976 0.251976 0.251976 0.251976 0.251976 0.251976
