# Output from CTFFind version 4.1.9, run on 2019-11-02 17:43:27
# Input file: stack11_bm3d_averaged_1_0.5_0_50_half.mrc ; Number of micrographs: 1
# Pixel size: 3.000 Angstroms ; acceleration voltage: 300.0 keV ; spherical aberration: 0.00 mm ; amplitude contrast: 0.07
# Box size: 512 pixels ; min. res.: 30.0 Angstroms ; max. res.: 5.0 Angstroms ; min. def.: 5000.0 um; max. def. 50000.0 um; num. frames averaged: 1
# 6 lines per micrograph: #1 - spatial frequency (1/Angstroms); #2 - 1D rotational average of spectrum (assuming no astigmatism); #3 - 1D rotational average of spectrum; #4 - CTF fit; #5 - cross-correlation between spectrum and CTF fit; #6 - 2sigma of expected cross correlation of noise
0.000000 0.000651 0.001302 0.001953 0.002604 0.003255 0.003906 0.004557 0.005208 0.005859 0.006510 0.007161 0.007812 0.008464 0.009115 0.009766 0.010417 0.011068 0.011719 0.012370 0.013021 0.013672 0.014323 0.014974 0.015625 0.016276 0.016927 0.017578 0.018229 0.018880 0.019531 0.020182 0.020833 0.021484 0.022135 0.022786 0.023438 0.024089 0.024740 0.025391 0.026042 0.026693 0.027344 0.027995 0.028646 0.029297 0.029948 0.030599 0.031250 0.031901 0.032552 0.033203 0.033854 0.034505 0.035156 0.035807 0.036458 0.037109 0.037760 0.038411 0.039062 0.039714 0.040365 0.041016 0.041667 0.042318 0.042969 0.043620 0.044271 0.044922 0.045573 0.046224 0.046875 0.047526 0.048177 0.048828 0.049479 0.050130 0.050781 0.051432 0.052083 0.052734 0.053385 0.054036 0.054688 0.055339 0.055990 0.056641 0.057292 0.057943 0.058594 0.059245 0.059896 0.060547 0.061198 0.061849 0.062500 0.063151 0.063802 0.064453 0.065104 0.065755 0.066406 0.067057 0.067708 0.068359 0.069010 0.069661 0.070312 0.070964 0.071615 0.072266 0.072917 0.073568 0.074219 0.074870 0.075521 0.076172 0.076823 0.077474 0.078125 0.078776 0.079427 0.080078 0.080729 0.081380 0.082031 0.082682 0.083333 0.083984 0.084635 0.085286 0.085938 0.086589 0.087240 0.087891 0.088542 0.089193 0.089844 0.090495 0.091146 0.091797 0.092448 0.093099 0.093750 0.094401 0.095052 0.095703 0.096354 0.097005 0.097656 0.098307 0.098958 0.099609 0.100260 0.100911 0.101562 0.102214 0.102865 0.103516 0.104167 0.104818 0.105469 0.106120 0.106771 0.107422 0.108073 0.108724 0.109375 0.110026 0.110677 0.111328 0.111979 0.112630 0.113281 0.113932 0.114583 0.115234 0.115885 0.116536 0.117188 0.117839 0.118490 0.119141 0.119792 0.120443 0.121094 0.121745 0.122396 0.123047 0.123698 0.124349 0.125000 0.125651 0.126302 0.126953 0.127604 0.128255 0.128906 0.129557 0.130208 0.130859 0.131510 0.132161 0.132812 0.133464 0.134115 0.134766 0.135417 0.136068 0.136719 0.137370 0.138021 0.138672 0.139323 0.139974 0.140625 0.141276 0.141927 0.142578 0.143229 0.143880 0.144531 0.145182 0.145833 0.146484 0.147135 0.147786 0.148438 0.149089 0.149740 0.150391 0.151042 0.151693 0.152344 0.152995 0.153646 0.154297 0.154948 0.155599 0.156250 0.156901 0.157552 0.158203 0.158854 0.159505 0.160156 0.160807 0.161458 0.162109 0.162760 0.163411 0.164062 0.164714 0.165365 0.166016 0.166667 0.167318 0.167969 0.168620 0.169271 0.169922 0.170573 0.171224 0.171875 0.172526 0.173177 0.173828 0.174479 0.175130 0.175781 0.176432 0.177083 0.177734 0.178385 0.179036 0.179688 0.180339 0.180990 0.181641 0.182292 0.182943 0.183594 0.184245 0.184896 0.185547 0.186198 0.186849 0.187500 0.188151 0.188802 0.189453 0.190104 0.190755 0.191406 0.192057 0.192708 0.193359 0.194010 0.194661 0.195312 0.195964 0.196615 0.197266 0.197917 0.198568 0.199219 0.199870 0.200521 0.201172 0.201823 0.202474 0.203125 0.203776 0.204427 0.205078 0.205729 0.206380 0.207031 0.207682 0.208333 0.208984 0.209635 0.210286 0.210938 0.211589 0.212240 0.212891 0.213542 0.214193 0.214844 0.215495 0.216146 0.216797 0.217448 0.218099 0.218750 0.219401 0.220052 0.220703 0.221354 0.222005 0.222656 0.223307 0.223958 0.224609 0.225260 0.225911 0.226562 0.227214 0.227865 0.228516 0.229167 0.229818 0.230469 0.231120 0.231771 0.232422 0.233073 0.233724 0.234375 0.235026 0.235677
       0.31862        0.31862        0.31862        0.31862        0.31862        0.31862        0.31862        0.31862        0.31862        0.31862        0.31862        0.31862        0.31862        0.31862        0.31862        0.31862        0.31862        0.31862        0.31862        0.31862        0.31862        0.31862        0.31862        0.31862        0.31862        0.31862        0.31862        0.31862        0.31862        0.31862        0.31862        0.31862        0.31862        0.31862        0.31862        0.31862        0.31862        0.31862        0.31862        0.31862        0.31862        0.31862        0.31862        0.31862        0.31862        0.31862        0.31862        0.31862        0.31862        0.31862        0.31862        0.68574        0.87043        0.52412        0.09127       -0.05993       -0.42125       -0.20574       -0.29425       -0.11454       -0.07342       -0.11637       -0.06492       -0.20567       -0.23076       -0.25562       -0.32499       -0.33552       -0.48427       -0.37928       -0.46508       -0.44785       -0.41891       -0.46682       -0.54028       -0.55801       -0.58497       -0.62259       -0.57497       -0.41493       -0.37760       -0.32480       -0.31052       -0.21385       -0.20012        0.01892        0.07702        0.11056        0.22850        0.37329        0.44207        0.51350        0.55985        0.55674        0.56721        0.69930        0.81338        0.73760        0.73352        0.66759        0.58234        0.48477        0.41098        0.49524        0.37944        0.21110        0.07772        0.05455        0.01680       -0.05983       -0.03469       -0.01989       -0.07011       -0.00931       -0.01405        0.21359        0.25029        0.28791        0.42981        0.46188        0.40778        0.54268        0.63145        0.70236        0.76179        0.68974        0.65034        0.69841        0.58687        0.50467        0.42116        0.28713        0.18580        0.15637        0.10419        0.04377        0.01521        0.00105        0.07705        0.13126        0.20797        0.28499        0.39927        0.42189        0.51494        0.60842        0.63347        0.62294        0.63141        0.55797        0.44907        0.45023        0.35374        0.23242        0.17664        0.14960        0.11656        0.12061        0.07029        0.10105        0.23250        0.26437        0.34595        0.35618        0.45223        0.51422        0.53984        0.55193        0.47151        0.43610        0.39528        0.36753        0.30631        0.25222        0.20110        0.18930        0.16256        0.18887        0.18070        0.27298        0.33338        0.37082        0.43085        0.46225        0.48034        0.44279        0.39384        0.42129        0.37178        0.28973        0.26939        0.22396        0.21598        0.19581        0.21817        0.23149        0.32975        0.37571        0.36776        0.46012        0.44122        0.43721        0.43319        0.39725        0.34607        0.32695        0.27550        0.24418        0.23934        0.27376        0.27262        0.30350        0.30757        0.34088        0.32900        0.40928        0.42226        0.37637        0.34620        0.37187        0.28268        0.28269        0.26090        0.28346        0.26320        0.27689        0.28750        0.31027        0.35274        0.36550        0.36290        0.33871        0.35442        0.28358        0.31697        0.26770        0.24825        0.29095        0.28103        0.30977        0.31122        0.33255        0.33432        0.31603        0.31464        0.28626        0.29487        0.26754        0.27899        0.25807        0.30862        0.28528        0.27060        0.30724        0.31540        0.32588        0.28735        0.30461        0.29021        0.25261        0.24486        0.22423        0.28273        0.27498        0.32140        0.31617        0.31876        0.31857        0.31149        0.27825        0.29031        0.33023        0.27166        0.26317        0.29900        0.29352        0.33539        0.33211        0.35521        0.33159        0.31131        0.28066        0.26856        0.25897        0.22940        0.27717        0.30331        0.29452        0.28282        0.29621        0.27829        0.32614        0.31573        0.24917        0.21796        0.28014        0.33000        0.27570        0.31194        0.32520        0.32646        0.31124        0.32314        0.34198        0.30628        0.29900        0.26327        0.28673        0.35982        0.35389        0.26175        0.26640        0.25586        0.29222        0.22338        0.29142        0.22419        0.25116        0.32988        0.32433        0.34387        0.29656        0.24806        0.24522        0.24677        0.23909        0.19828        0.23259        0.26175        0.30862        0.26698        0.30823        0.31288        0.28054        0.26983        0.21230        0.16877        0.19290        0.23500        0.21018        0.21080        0.23044        0.19978        0.23676        0.33810        0.30650        0.31847        0.23886        0.23478        0.22636        0.29247        0.30453        0.13467        0.20179        0.22537        0.11743        0.20502        0.11520        0.14707        0.17321        0.07759       -0.10983       -0.53916
2.603807 2.576529 2.549399 2.522418 2.495585 2.468900 2.442363 2.415975 2.389735 2.363643 2.337700 2.311905 2.286258 2.260759 2.235409 2.210207 2.185153 2.160248 2.135490 2.110882 2.086421 2.062109 2.037945 2.013929 1.990061 1.966342 1.942771 1.919349 1.896074 1.872948 1.849970 1.827141 1.804460 1.781927 1.759542 1.737306 1.715218 1.693278 1.671487 1.649843 1.628348 1.607002 1.585803 1.564753 1.543852 1.523098 1.502493 1.482036 1.461727 1.441567 1.421555 1.642186 2.049959 1.622548 1.137260 0.992773 0.428283 0.813191 0.567074 0.837085 0.778791 0.791838 0.755912 0.710734 0.568743 0.518230 0.490065 0.445332 0.210201 0.384585 0.202395 0.305100 0.240889 0.181775 0.131657 0.009277 0.042685 -0.015350 -0.056064 0.104029 0.206885 0.197102 0.158612 0.326294 0.195406 0.492581 0.581037 0.553104 0.596339 0.875442 0.808772 0.940980 0.887124 0.973292 0.941543 1.076573 1.140287 1.073508 1.118522 0.945250 0.944286 0.779820 0.652673 0.769701 0.706298 0.467613 0.306406 0.251727 0.219360 0.146631 0.087660 0.127360 0.069116 0.141199 0.056235 0.260217 0.375989 0.349090 0.476749 0.574766 0.463006 0.553178 0.697333 0.745224 0.777444 0.727661 0.717682 0.709040 0.625758 0.567966 0.423693 0.284312 0.198158 0.073865 0.123135 -0.048837 -0.028114 -0.083560 -0.042856 -0.001647 0.141621 0.090382 0.293081 0.278271 0.362831 0.460805 0.518700 0.512352 0.513939 0.508692 0.331030 0.306956 0.275728 0.101808 0.041118 -0.016832 -0.026671 -0.044859 -0.095079 -0.109810 -0.010613 0.059735 0.127684 0.143199 0.226611 0.327782 0.308855 0.420229 0.393117 0.279249 0.235354 0.243668 0.194909 0.105389 0.070504 0.011840 0.003978 -0.000629 -0.022572 0.063276 0.143971 0.143618 0.232556 0.253797 0.305129 0.255172 0.219727 0.191742 0.210949 0.143203 0.044454 0.034767 -0.009075 -0.009904 -0.031575 0.020971 0.014867 0.171686 0.129340 0.176583 0.240451 0.196071 0.185572 0.200661 0.139146 0.098196 0.059574 0.045080 -0.032180 0.005747 0.026053 0.052275 0.052417 0.082945 0.094059 0.117155 0.144467 0.193654 0.081224 0.101148 0.076847 0.006061 0.008160 0.007923 0.000849 0.020812 -0.000383 0.024077 0.069917 0.086148 0.127080 0.053125 0.109444 0.055304 0.008993 0.059099 -0.034065 -0.008281 0.031043 -0.003058 0.060067 0.049726 0.056207 0.069607 0.052774 0.042366 0.023045 0.010698 0.014148 0.005023 -0.016857 0.073424 -0.012247 0.014546 0.055715 0.052548 0.047056 0.044483 0.041255 0.017507 -0.012785 -0.041364 -0.010013 0.021438 0.025158 0.073475 0.058269 0.062315 0.079941 0.067262 0.030793 0.068244 0.086503 0.018678 0.019804 0.066936 0.048851 0.096910 0.107656 0.095801 0.115100 0.065000 0.033898 0.030660 -0.000532 -0.000290 0.051651 0.073326 0.038484 0.034492 0.032370 0.024871 0.089158 0.043983 -0.049047 -0.050679 0.032135 0.086784 0.004601 0.025218 0.067085 0.077134 0.038247 0.049926 0.080781 0.038124 0.043966 -0.040019 0.023380 0.116500 0.068584 -0.056218 -0.027737 -0.049559 0.038296 -0.111210 0.030057 -0.100945 -0.033395 0.048161 0.042325 0.021260 -0.038077 -0.053105 -0.070776 -0.077223 -0.060198 -0.096455 -0.092573 -0.030854 0.044933 -0.029159 0.052288 0.009078 -0.034061 0.047022 -0.095216 -0.095898 -0.078780 0.003794 -0.029043 -0.047389 0.020850 0.003204 0.012084 0.200914 0.005263 0.173584 0.051293 0.239048 0.250104 0.331939 0.289569 0.100489 0.204291 0.268287 0.055308 0.223873 0.122375 0.115032 0.245846 0.078699 -0.558841
0.072396 0.072899 0.074406 0.076918 0.080433 0.084952 0.090472 0.096993 0.104512 0.113025 0.122531 0.133024 0.144499 0.156950 0.170369 0.184747 0.200073 0.216334 0.233515 0.251598 0.270565 0.290391 0.311051 0.332516 0.354752 0.377722 0.401385 0.425695 0.450601 0.476048 0.501974 0.528312 0.554990 0.581928 0.609042 0.636240 0.663423 0.690487 0.717319 0.743801 0.769808 0.795206 0.819858 0.843618 0.866335 0.887852 0.908006 0.926632 0.943559 0.958611 0.971614 0.982389 0.990758 0.996544 0.999572 0.999671 0.996674 0.990423 0.980766 0.967564 0.950690 0.930029 0.905487 0.876984 0.844466 0.807899 0.767274 0.722612 0.673964 0.621410 0.565065 0.505081 0.441646 0.374986 0.305366 0.233093 0.158512 0.082010 0.004013 0.075013 0.154566 0.234107 0.313066 0.390842 0.466811 0.540325 0.610723 0.677332 0.739479 0.796490 0.847707 0.892490 0.930227 0.960344 0.982314 0.995666 0.999995 0.994972 0.980350 0.955980 0.921810 0.877901 0.824427 0.761685 0.690097 0.610212 0.522710 0.428396 0.328203 0.223180 0.114492 0.003403 0.108728 0.220472 0.330338 0.436794 0.538292 0.633289 0.720268 0.797771 0.864421 0.918951 0.960233 0.987302 0.999384 0.995921 0.976589 0.941322 0.890324 0.824082 0.743371 0.649254 0.543083 0.426479 0.301325 0.169734 0.034023 0.103322 0.239695 0.372411 0.498758 0.616062 0.721737 0.813353 0.888691 0.945810 0.983100 0.999334 0.993721 0.965938 0.916166 0.845106 0.753987 0.644564 0.519090 0.380292 0.231315 0.075668 0.082862 0.240287 0.392524 0.535495 0.665244 0.778050 0.870540 0.939802 0.983486 0.999899 0.988081 0.947865 0.879913 0.785734 0.667673 0.528869 0.373194 0.205155 0.029785 0.147513 0.321110 0.485346 0.634702 0.764003 0.868602 0.944563 0.988825 0.999343 0.975201 0.916686 0.825328 0.703883 0.556285 0.387541 0.203573 0.011043 0.182892 0.370833 0.545421 0.699634 0.827077 0.922263 0.980876 0.999981 0.978204 0.915837 0.814890 0.679063 0.513641 0.325324 0.121972 0.087695 0.294469 0.489049 0.662467 0.806508 0.914125 0.979803 0.999875 0.972756 0.899088 0.781784 0.625953 0.438723 0.228944 0.006803 0.216664 0.430100 0.622409 0.783351 0.904099 0.977761 0.999801 0.968365 0.884459 0.751984 0.577605 0.370464 0.141741 0.095931 0.329132 0.544420 0.729107 0.872035 0.964272 0.999717 0.975552 0.892501 0.754895 0.570505 0.350157 0.107146 0.143547 0.386146 0.605076 0.785980 0.916686 0.988064 0.994722 0.935461 0.813477 0.636258 0.415204 0.164928 0.097644 0.354422 0.587365 0.779777 0.917531 0.990154 0.991680 0.921205 0.783091 0.586770 0.346184 0.078844 0.195387 0.455769 0.682247 0.857008 0.965937 0.999822 0.955192 0.834749 0.647302 0.407204 0.133340 0.152330 0.426478 0.666327 0.851561 0.966095 0.999533 0.948204 0.815630 0.612400 0.355419 0.066576 0.229068 0.505423 0.737685 0.904585 0.990408 0.986555 0.892490 0.715988 0.472595 0.184356 0.122101 0.417991 0.675078 0.868374 0.978646 0.994405 0.913212 0.742116 0.497174 0.202047 0.114200 0.419918 0.684025 0.879204 0.984782 0.989030 0.890570 0.698747 0.432881 0.120428 0.205775 0.510903 0.761889 0.931029 0.999136 0.957830 0.810693 0.573121 0.270847 0.062726 0.390172 0.674196 0.881930 0.988803 0.981568 0.860072 0.637552 0.339338 0.000102 0.340094 0.640495 0.864560 0.984486 0.984767 0.864357 0.637081 0.330217 0.018644 0.366115 0.668377 0.886732 0.992645 0.971608 0.825289 0.571620 0.242792 0.118727
1.000000 1.000000 1.000000 1.000000 1.000000 1.000000 1.000000 1.000000 1.000000 1.000000 1.000000 1.000000 1.000000 1.000000 1.000000 1.000000 1.000000 1.000000 1.000000 1.000000 1.000000 1.000000 1.000000 1.000000 1.000000 1.000000 1.000000 1.000000 1.000000 1.000000 1.000000 1.000000 1.000000 1.000000 1.000000 1.000000 1.000000 1.000000 1.000000 1.000000 1.000000 1.000000 1.000000 1.000000 1.000000 1.000000 1.000000 1.000000 1.000000 1.000000 1.000000 1.000000 0.931775 0.931775 0.931775 0.922175 0.922175 0.922175 0.922175 0.922175 0.922175 0.922175 0.922175 0.922175 0.922175 0.922175 0.922175 0.922175 0.922175 0.922175 0.922175 0.922175 0.922175 0.922175 0.922175 0.922175 0.922175 0.922175 0.922175 0.922175 0.922175 0.922175 0.922175 0.922175 0.922175 0.922175 0.922175 0.922175 0.922175 0.922175 0.922175 0.922175 0.922175 0.922175 0.922175 0.922175 0.947432 0.948703 0.956616 0.956448 0.955924 0.953799 0.952842 0.951710 0.951245 0.951535 0.952175 0.953052 0.964815 0.965850 0.967401 0.968229 0.968949 0.969603 0.969442 0.970171 0.969394 0.968846 0.968343 0.964403 0.965009 0.965576 0.965709 0.966742 0.966626 0.968639 0.968789 0.968198 0.967323 0.966587 0.965876 0.965456 0.965180 0.965682 0.965974 0.967272 0.970440 0.969879 0.969571 0.969729 0.969832 0.970015 0.970452 0.972138 0.968449 0.969079 0.967451 0.967905 0.969475 0.969359 0.969139 0.970495 0.970851 0.971223 0.969703 0.965694 0.960645 0.959575 0.956629 0.947474 0.945424 0.946148 0.948241 0.948553 0.947407 0.939822 0.940441 0.934312 0.935680 0.938955 0.933907 0.933210 0.934315 0.933133 0.931254 0.930698 0.927830 0.924464 0.922580 0.922483 0.925500 0.926374 0.927528 0.927161 0.921407 0.913315 0.899512 0.895429 0.890411 0.893633 0.881500 0.880946 0.880837 0.876358 0.880048 0.881885 0.882891 0.878904 0.858172 0.835176 0.826239 0.830474 0.836254 0.832642 0.831431 0.824661 0.836901 0.820578 0.833452 0.837598 0.835619 0.835463 0.834491 0.831004 0.825287 0.825232 0.827024 0.828361 0.827602 0.828563 0.824457 0.814560 0.817748 0.754350 0.741254 0.736942 0.742707 0.748790 0.751459 0.750601 0.757774 0.762511 0.752257 0.736143 0.729232 0.721210 0.726452 0.730083 0.733920 0.723365 0.702445 0.695007 0.657903 0.675032 0.698188 0.653071 0.677624 0.688870 0.682312 0.680789 0.673464 0.666916 0.659877 0.663095 0.675607 0.693941 0.713880 0.739512 0.735710 0.726870 0.723479 0.708373 0.703859 0.700182 0.707188 0.689905 0.686618 0.704878 0.705590 0.691155 0.670405 0.656140 0.647568 0.645422 0.650453 0.643449 0.640650 0.622833 0.594036 0.584451 0.620851 0.635966 0.654677 0.626401 0.612869 0.600939 0.573560 0.587878 0.534396 0.534466 0.558258 0.565504 0.542221 0.531127 0.540558 0.554192 0.559918 0.551064 0.524007 0.509987 0.523545 0.552078 0.543682 0.521341 0.528891 0.525710 0.518603 0.449739 0.448259 0.418236 0.388585 0.341600 0.317502 0.311219 0.294101 0.287763 0.255060 0.251173 0.264021 0.272253 0.276532 0.276553 0.256641 0.268619 0.266163 0.252963 0.192686 0.183163 0.176191 0.165203 0.165032 0.146397 0.167672 0.225382 0.227009 0.227009 0.227009 0.227009 0.227009 0.227009 0.236274 0.236274 0.236274 0.236274 0.236274 0.236274 0.236274 0.236274 0.236274 0.246058 0.246058 0.246058 0.246058 0.246058 0.246058 0.246058 0.246058 0.246058 0.246058 0.246058 0.246058 0.246058 0.246058
0.000000 0.000000 0.000000 0.000000 0.000000 0.000000 0.000000 0.000000 0.000000 0.000000 0.000000 0.000000 0.000000 0.000000 0.000000 0.000000 0.000000 0.000000 0.000000 0.000000 0.000000 0.000000 0.000000 0.000000 0.000000 0.000000 0.000000 0.000000 0.000000 0.000000 0.000000 0.000000 0.000000 0.000000 0.000000 0.000000 0.000000 0.000000 0.000000 0.000000 0.000000 0.000000 0.000000 0.000000 0.000000 0.000000 0.000000 0.000000 0.000000 0.000000 0.000000 0.000000 0.180334 0.180334 0.180334 0.199007 0.199007 0.199007 0.199007 0.199007 0.199007 0.199007 0.199007 0.199007 0.199007 0.199007 0.199007 0.199007 0.199007 0.199007 0.199007 0.199007 0.199007 0.199007 0.199007 0.199007 0.199007 0.199007 0.199007 0.199007 0.199007 0.199007 0.199007 0.199007 0.199007 0.199007 0.199007 0.199007 0.199007 0.199007 0.199007 0.199007 0.199007 0.199007 0.199007 0.199007 0.225018 0.225018 0.225018 0.225018 0.225018 0.225018 0.225018 0.225018 0.225018 0.225018 0.225018 0.225018 0.225018 0.225018 0.225018 0.225018 0.225018 0.225018 0.225018 0.225018 0.225018 0.225018 0.225018 0.225018 0.225018 0.225018 0.225018 0.225018 0.225018 0.244339 0.244339 0.244339 0.244339 0.244339 0.244339 0.244339 0.244339 0.244339 0.244339 0.244339 0.244339 0.244339 0.244339 0.244339 0.244339 0.244339 0.244339 0.244339 0.244339 0.244339 0.244339 0.244339 0.251976 0.251976 0.251976 0.251976 0.251976 0.251976 0.251976 0.251976 0.251976 0.251976 0.251976 0.251976 0.251976 0.251976 0.251976 0.251976 0.251976 0.251976 0.251976 0.251976 0.264906 0.264906 0.264906 0.264906 0.264906 0.264906 0.264906 0.264906 0.264906 0.264906 0.264906 0.264906 0.264906 0.264906 0.264906 0.264906 0.264906 0.264906 0.264906 0.264906 0.264906 0.264906 0.264906 0.264906 0.264906 0.264906 0.264906 0.264906 0.264906 0.264906 0.264906 0.264906 0.264906 0.264906 0.264906 0.264906 0.264906 0.264906 0.264906 0.264906 0.264906 0.264906 0.264906 0.264906 0.264906 0.264906 0.264906 0.264906 0.264906 0.264906 0.264906 0.264906 0.264906 0.264906 0.264906 0.264906 0.264906 0.264906 0.264906 0.264906 0.264906 0.264906 0.256074 0.256074 0.256074 0.256074 0.256074 0.256074 0.256074 0.256074 0.256074 0.256074 0.256074 0.256074 0.256074 0.256074 0.269680 0.269680 0.269680 0.269680 0.269680 0.269680 0.269680 0.269680 0.269680 0.269680 0.269680 0.269680 0.264906 0.264906 0.264906 0.264906 0.264906 0.264906 0.264906 0.264906 0.264906 0.264906 0.264906 0.264906 0.269680 0.269680 0.269680 0.269680 0.269680 0.269680 0.269680 0.269680 0.269680 0.269680 0.269680 0.264906 0.264906 0.264906 0.264906 0.264906 0.264906 0.264906 0.264906 0.264906 0.264906 0.264906 0.256074 0.256074 0.256074 0.256074 0.256074 0.256074 0.256074 0.256074 0.256074 0.256074 0.256074 0.264906 0.264906 0.264906 0.264906 0.264906 0.264906 0.264906 0.264906 0.264906 0.264906 0.260378 0.260378 0.260378 0.260378 0.260378 0.260378 0.260378 0.260378 0.260378 0.260378 0.256074 0.256074 0.256074 0.256074 0.256074 0.256074 0.256074 0.256074 0.256074 0.256074 0.260378 0.260378 0.260378 0.260378 0.260378 0.260378 0.260378 0.260378 0.260378 0.256074 0.256074 0.256074 0.256074 0.256074 0.256074 0.256074 0.256074 0.256074 0.251976 0.251976 0.251976 0.251976 0.251976 0.251976 0.251976 0.251976 0.251976 0.251976 0.251976 0.251976 0.251976 0.251976
