# Output from CTFFind version 4.1.9, run on 2019-11-03 19:00:51
# Input file: stack6_bm3d_averaged_1_2.75_0_3000_half.mrc ; Number of micrographs: 1
# Pixel size: 3.000 Angstroms ; acceleration voltage: 300.0 keV ; spherical aberration: 0.00 mm ; amplitude contrast: 0.07
# Box size: 512 pixels ; min. res.: 30.0 Angstroms ; max. res.: 5.0 Angstroms ; min. def.: 5000.0 um; max. def. 50000.0 um; num. frames averaged: 1
# 6 lines per micrograph: #1 - spatial frequency (1/Angstroms); #2 - 1D rotational average of spectrum (assuming no astigmatism); #3 - 1D rotational average of spectrum; #4 - CTF fit; #5 - cross-correlation between spectrum and CTF fit; #6 - 2sigma of expected cross correlation of noise
0.000000 0.000651 0.001302 0.001953 0.002604 0.003255 0.003906 0.004557 0.005208 0.005859 0.006510 0.007161 0.007812 0.008464 0.009115 0.009766 0.010417 0.011068 0.011719 0.012370 0.013021 0.013672 0.014323 0.014974 0.015625 0.016276 0.016927 0.017578 0.018229 0.018880 0.019531 0.020182 0.020833 0.021484 0.022135 0.022786 0.023438 0.024089 0.024740 0.025391 0.026042 0.026693 0.027344 0.027995 0.028646 0.029297 0.029948 0.030599 0.031250 0.031901 0.032552 0.033203 0.033854 0.034505 0.035156 0.035807 0.036458 0.037109 0.037760 0.038411 0.039062 0.039714 0.040365 0.041016 0.041667 0.042318 0.042969 0.043620 0.044271 0.044922 0.045573 0.046224 0.046875 0.047526 0.048177 0.048828 0.049479 0.050130 0.050781 0.051432 0.052083 0.052734 0.053385 0.054036 0.054688 0.055339 0.055990 0.056641 0.057292 0.057943 0.058594 0.059245 0.059896 0.060547 0.061198 0.061849 0.062500 0.063151 0.063802 0.064453 0.065104 0.065755 0.066406 0.067057 0.067708 0.068359 0.069010 0.069661 0.070312 0.070964 0.071615 0.072266 0.072917 0.073568 0.074219 0.074870 0.075521 0.076172 0.076823 0.077474 0.078125 0.078776 0.079427 0.080078 0.080729 0.081380 0.082031 0.082682 0.083333 0.083984 0.084635 0.085286 0.085938 0.086589 0.087240 0.087891 0.088542 0.089193 0.089844 0.090495 0.091146 0.091797 0.092448 0.093099 0.093750 0.094401 0.095052 0.095703 0.096354 0.097005 0.097656 0.098307 0.098958 0.099609 0.100260 0.100911 0.101562 0.102214 0.102865 0.103516 0.104167 0.104818 0.105469 0.106120 0.106771 0.107422 0.108073 0.108724 0.109375 0.110026 0.110677 0.111328 0.111979 0.112630 0.113281 0.113932 0.114583 0.115234 0.115885 0.116536 0.117188 0.117839 0.118490 0.119141 0.119792 0.120443 0.121094 0.121745 0.122396 0.123047 0.123698 0.124349 0.125000 0.125651 0.126302 0.126953 0.127604 0.128255 0.128906 0.129557 0.130208 0.130859 0.131510 0.132161 0.132812 0.133464 0.134115 0.134766 0.135417 0.136068 0.136719 0.137370 0.138021 0.138672 0.139323 0.139974 0.140625 0.141276 0.141927 0.142578 0.143229 0.143880 0.144531 0.145182 0.145833 0.146484 0.147135 0.147786 0.148438 0.149089 0.149740 0.150391 0.151042 0.151693 0.152344 0.152995 0.153646 0.154297 0.154948 0.155599 0.156250 0.156901 0.157552 0.158203 0.158854 0.159505 0.160156 0.160807 0.161458 0.162109 0.162760 0.163411 0.164062 0.164714 0.165365 0.166016 0.166667 0.167318 0.167969 0.168620 0.169271 0.169922 0.170573 0.171224 0.171875 0.172526 0.173177 0.173828 0.174479 0.175130 0.175781 0.176432 0.177083 0.177734 0.178385 0.179036 0.179688 0.180339 0.180990 0.181641 0.182292 0.182943 0.183594 0.184245 0.184896 0.185547 0.186198 0.186849 0.187500 0.188151 0.188802 0.189453 0.190104 0.190755 0.191406 0.192057 0.192708 0.193359 0.194010 0.194661 0.195312 0.195964 0.196615 0.197266 0.197917 0.198568 0.199219 0.199870 0.200521 0.201172 0.201823 0.202474 0.203125 0.203776 0.204427 0.205078 0.205729 0.206380 0.207031 0.207682 0.208333 0.208984 0.209635 0.210286 0.210938 0.211589 0.212240 0.212891 0.213542 0.214193 0.214844 0.215495 0.216146 0.216797 0.217448 0.218099 0.218750 0.219401 0.220052 0.220703 0.221354 0.222005 0.222656 0.223307 0.223958 0.224609 0.225260 0.225911 0.226562 0.227214 0.227865 0.228516 0.229167 0.229818 0.230469 0.231120 0.231771 0.232422 0.233073 0.233724 0.234375 0.235026 0.235677
       0.30564        0.30564        0.30564        0.30564        0.30564        0.30564        0.30564        0.30564        0.30564        0.30564        0.30564        0.30564        0.30564        0.30564        0.30564        0.30564        0.30564        0.30564        0.30564        0.30564        0.30564        0.30564        0.30564        0.30564        0.30564        0.30564        0.30564        0.30564        0.30564        0.30564        0.30564        0.30564        0.30564        0.30564        0.30564        0.30564        0.30564        0.30564        0.30564        0.30564        0.30564        0.30564        0.30564        0.30564        0.30564        0.30564        0.30564        0.30564        0.30564        0.30564        0.30564        0.62486        0.78548        0.38664        0.27238        0.16614       -0.11741        0.12238        0.02370        0.03818        0.11079        0.34928        0.40903        0.36474        0.21112       -0.01699        0.03467        0.06943       -0.16956       -0.17550       -0.08534       -0.11059       -0.29136       -0.18298       -0.31299       -0.27118       -0.28633       -0.39405       -0.45865       -0.45100       -0.39128       -0.33715       -0.41407       -0.32415       -0.39542       -0.33359       -0.26376       -0.19783       -0.17849       -0.09392       -0.05420        0.05205        0.08857        0.23401        0.31829        0.38249        0.39371        0.50542        0.57088        0.60344        0.69678        0.66832        0.73323        0.62698        0.65735        0.67128        0.61193        0.60999        0.61828        0.40824        0.37304        0.36104        0.33536        0.20399        0.13411        0.06160        0.07381        0.02094       -0.06792       -0.00283       -0.03297       -0.07365        0.06123        0.17008        0.26726        0.31762        0.32251        0.39951        0.50961        0.54154        0.50247        0.65567        0.53955        0.51831        0.58080        0.59072        0.53274        0.48629        0.41847        0.37502        0.23767        0.19019        0.12713        0.13786        0.10896        0.06405        0.08552        0.14709        0.14148        0.15619        0.21361        0.24675        0.34166        0.44378        0.46063        0.46436        0.51783        0.57419        0.53512        0.51258        0.39787        0.40940        0.35760        0.28113        0.23755        0.21863        0.16617        0.18578        0.17864        0.17636        0.13897        0.20550        0.24443        0.34875        0.38706        0.40384        0.46638        0.49913        0.44110        0.45719        0.41420        0.40768        0.40732        0.35374        0.27770        0.26752        0.19832        0.21911        0.22302        0.19860        0.21825        0.21849        0.25524        0.32584        0.38845        0.38004        0.37470        0.37900        0.44387        0.43417        0.41184        0.33762        0.32026        0.28509        0.29597        0.24469        0.20869        0.27086        0.30229        0.28193        0.29178        0.33354        0.32597        0.37951        0.34590        0.34727        0.36187        0.33655        0.32814        0.30143        0.27902        0.28423        0.26110        0.22347        0.26745        0.26372        0.30944        0.30921        0.34426        0.36357        0.32547        0.30942        0.35185        0.34867        0.26301        0.29080        0.28879        0.25500        0.23770        0.28430        0.27870        0.27602        0.30864        0.30677        0.32002        0.32647        0.34728        0.28625        0.29660        0.31659        0.27879        0.25861        0.24996        0.24284        0.25583        0.27523        0.28604        0.27751        0.27805        0.31818        0.34382        0.27629        0.30083        0.26093        0.25233        0.24665        0.25051        0.24220        0.24129        0.28065        0.26108        0.29793        0.28388        0.28370        0.31927        0.26835        0.30421        0.29086        0.30057        0.25833        0.25325        0.24336        0.24945        0.30985        0.30584        0.33216        0.32097        0.31792        0.28627        0.32682        0.26108        0.18880        0.27837        0.27912        0.26634        0.28069        0.30060        0.29696        0.35954        0.28882        0.22548        0.22370        0.24064        0.28393        0.30432        0.29068        0.25945        0.26861        0.25376        0.28387        0.27577        0.25937        0.26147        0.24373        0.29995        0.24530        0.26061        0.31702        0.28544        0.24112        0.27714        0.28109        0.29415        0.20654        0.25102        0.26170        0.30122        0.28724        0.31764        0.26993        0.26158        0.27450        0.23682        0.21053        0.19280        0.23271        0.21606        0.22232        0.22306        0.22092        0.26773        0.24267        0.27553        0.22680        0.17151        0.18363        0.18356        0.17233        0.20653        0.18233        0.19539        0.18944        0.06933        0.21730        0.15503        0.05212        0.17861        0.11364        0.09526        0.12874       -0.21882       -0.50759       -0.78585
2.888096 2.859763 2.831575 2.803532 2.775633 2.747880 2.720272 2.692809 2.665491 2.638319 2.611291 2.584408 2.557670 2.531078 2.504630 2.478328 2.452171 2.426158 2.400291 2.374569 2.348992 2.323560 2.298273 2.273131 2.248134 2.223282 2.198576 2.174014 2.149597 2.125326 2.101199 2.077218 2.053382 2.029691 2.006144 1.982743 1.959487 1.936376 1.913410 1.890589 1.867914 1.845383 1.822997 1.800757 1.778661 1.756711 1.734905 1.713245 1.691730 1.670359 1.649134 1.968679 2.298864 1.696847 1.712430 1.376454 0.908530 1.216387 1.074589 1.111405 1.009339 1.558534 1.526951 1.536421 1.268739 0.949269 0.803382 1.026601 0.732987 0.457754 0.597713 0.677284 0.406705 0.476098 0.299721 0.312691 0.224648 0.176551 -0.063342 -0.003483 0.041858 0.047925 0.041072 0.134131 -0.051966 0.017923 0.111201 0.220596 0.258310 0.284523 0.345416 0.601484 0.463096 0.695869 0.887692 0.917853 0.919198 1.155927 1.148884 1.226644 1.330911 1.207795 1.424586 1.176376 1.164182 1.333386 1.140717 1.083513 1.197059 0.888613 0.721438 0.689484 0.711799 0.464596 0.408959 0.258442 0.223909 0.138405 -0.007734 0.125830 0.008404 -0.065681 0.106512 0.243695 0.359544 0.472136 0.492565 0.538608 0.714765 0.771075 0.620953 0.970433 0.826297 0.656740 0.765931 0.770089 0.728335 0.715572 0.476897 0.543904 0.257613 0.196100 0.117417 -0.009371 0.052589 -0.058809 -0.047193 -0.017014 0.076665 -0.068106 0.219086 0.136049 0.210189 0.396853 0.445898 0.485934 0.408074 0.627841 0.620201 0.488463 0.378320 0.351565 0.324546 0.164847 0.102746 0.045570 0.037033 -0.024208 -0.018178 -0.026630 -0.100789 -0.013700 0.018581 0.125452 0.282436 0.229684 0.375563 0.363095 0.395409 0.370003 0.428520 0.363050 0.249102 0.354099 0.138775 0.188946 0.021921 0.053899 0.041066 0.018084 -0.016709 0.018411 0.069598 0.123143 0.243423 0.301918 0.216465 0.237625 0.356995 0.350712 0.344210 0.207298 0.149757 0.158086 0.099921 0.107753 -0.010519 -0.008766 0.145061 0.061681 0.104343 0.102592 0.149409 0.220019 0.211844 0.175639 0.192816 0.206605 0.151305 0.150389 0.076503 0.079770 0.118282 -0.030667 0.040078 0.080927 0.030946 0.166126 0.107791 0.206892 0.202134 0.132019 0.117699 0.212446 0.129821 0.042440 0.101599 0.052518 0.021392 0.026985 0.086982 0.062092 0.035519 0.153206 0.090272 0.122786 0.136708 0.136993 0.102168 0.057644 0.118686 0.054096 0.013054 0.004983 0.001904 0.013124 0.041091 0.072751 0.062376 0.017727 0.105770 0.133501 -0.019443 0.082358 0.001662 -0.017189 -0.015781 -0.023198 -0.038716 0.010523 0.026263 -0.040747 0.071788 0.034718 0.021628 0.069779 -0.005015 0.026530 0.052112 0.003534 -0.006386 -0.046640 -0.037336 -0.027838 0.055874 0.066063 0.063308 0.041849 0.124054 0.004819 0.107095 -0.066704 -0.116584 0.033735 -0.004152 0.006068 -0.006248 0.058409 0.033575 0.093028 -0.030729 -0.114575 -0.080187 -0.089255 0.057748 0.005284 0.012116 -0.045428 -0.044280 -0.049357 0.008522 -0.040566 -0.039359 -0.036397 -0.112834 0.039218 -0.082683 -0.006876 0.052493 -0.020558 -0.059899 0.037846 0.013125 0.020525 -0.123441 -0.006590 -0.034226 0.101479 0.074811 0.074807 0.019672 -0.001190 0.045541 0.016052 -0.083862 0.000779 -0.027465 -0.001120 -0.001274 0.006856 0.005912 0.105704 0.043435 0.155869 0.013850 -0.005463 -0.025470 0.029170 -0.048797 0.053321 -0.027280 0.089527 0.047804 -0.025723 0.324505 0.242488 0.082349 0.319542 0.221270 0.111046 0.296447 -0.321038 -1.159637
0.072396 0.072835 0.074150 0.076342 0.079409 0.083353 0.088170 0.093861 0.100424 0.107856 0.116156 0.125320 0.135344 0.146225 0.157956 0.170531 0.183942 0.198181 0.213238 0.229100 0.245754 0.263183 0.281371 0.300298 0.319940 0.340272 0.361266 0.382891 0.405112 0.427891 0.451186 0.474952 0.499138 0.523691 0.548551 0.573656 0.598937 0.624322 0.649733 0.675087 0.700294 0.725263 0.749895 0.774085 0.797725 0.820701 0.842895 0.864182 0.884436 0.903525 0.921313 0.937663 0.952433 0.965480 0.976659 0.985827 0.992836 0.997544 0.999809 0.999492 0.996457 0.990577 0.981727 0.969794 0.954672 0.936267 0.914497 0.889292 0.860602 0.828389 0.792637 0.753349 0.710549 0.664285 0.614630 0.561682 0.505566 0.446438 0.384479 0.319903 0.252953 0.183904 0.113061 0.040759 0.032636 0.106730 0.181099 0.255296 0.328847 0.401259 0.472018 0.540595 0.606452 0.669039 0.727807 0.782208 0.831701 0.875760 0.913875 0.945565 0.970382 0.987914 0.997797 0.999719 0.993427 0.978735 0.955529 0.923771 0.883509 0.834877 0.778102 0.713505 0.641505 0.562619 0.477461 0.386741 0.291265 0.191925 0.089699 0.014364 0.119144 0.223467 0.326115 0.425841 0.521384 0.611480 0.694891 0.770411 0.836893 0.893265 0.938553 0.971894 0.992563 0.999985 0.993754 0.973649 0.939644 0.891922 0.830882 0.757139 0.671534 0.575119 0.469165 0.355137 0.234688 0.109634 0.018066 0.146340 0.273037 0.395955 0.512889 0.621663 0.720179 0.806458 0.878681 0.935237 0.974759 0.996169 0.998704 0.981955 0.945883 0.890842 0.817586 0.727272 0.621449 0.502047 0.371347 0.231943 0.086702 0.061295 0.208807 0.352514 0.489082 0.615245 0.727888 0.824125 0.901383 0.957478 0.990683 0.999793 0.984175 0.943807 0.879301 0.791916 0.683546 0.556693 0.414424 0.260308 0.098335 0.067182 0.231714 0.390637 0.539371 0.673499 0.788924 0.881985 0.949594 0.989347 0.999621 0.979655 0.929604 0.850565 0.744578 0.614591 0.464396 0.298537 0.122180 0.059032 0.239157 0.412146 0.572047 0.713210 0.830507 0.919514 0.976710 0.999618 0.986938 0.938634 0.855970 0.741513 0.599071 0.433596 0.251025 0.058087 0.137938 0.329483 0.508992 0.669214 0.803508 0.906137 0.972523 0.999478 0.985377 0.930275 0.835956 0.705908 0.545223 0.360427 0.159238 0.049747 0.257402 0.454470 0.631976 0.781648 0.896314 0.970271 0.999591 0.982359 0.918822 0.811437 0.664819 0.485568 0.282019 0.063858 0.158303 0.373450 0.570699 0.739864 0.871993 0.959868 0.998426 0.985088 0.919959 0.805897 0.648434 0.455540 0.237269 0.005251 0.227912 0.449310 0.646460 0.808003 0.924399 0.988506 0.996069 0.946032 0.840685 0.685618 0.489468 0.263478 0.020889 0.223810 0.455748 0.660574 0.825356 0.939429 0.995121 0.988309 0.918777 0.790315 0.610585 0.390702 0.144602 0.111819 0.361703 0.588347 0.776324 0.912557 0.987268 0.994732 0.933763 0.807905 0.625301 0.398206 0.142241 0.124661 0.383496 0.615523 0.803648 0.933707 0.995580 0.984035 0.899228 0.746812 0.537634 0.287029 0.013741 0.261447 0.517277 0.733656 0.893278 0.983041 0.995180 0.928008 0.786186 0.580478 0.327013 0.046069 0.239497 0.506105 0.731388 0.896111 0.985851 0.992333 0.914260 0.757573 0.535094 0.265550 0.027948 0.319839 0.584322 0.797660 0.940347 0.998941 0.967417 0.847863 0.650453 0.392679 0.097867 0.206868 0.493098 0.733734 0.905619 0.991813 0.983348 0.880243 0.691688 0.435320 0.135666 0.178148 0.475185 0.725746 0.904390
1.000000 1.000000 1.000000 1.000000 1.000000 1.000000 1.000000 1.000000 1.000000 1.000000 1.000000 1.000000 1.000000 1.000000 1.000000 1.000000 1.000000 1.000000 1.000000 1.000000 1.000000 1.000000 1.000000 1.000000 1.000000 1.000000 1.000000 1.000000 1.000000 1.000000 1.000000 1.000000 1.000000 1.000000 1.000000 1.000000 1.000000 1.000000 1.000000 1.000000 1.000000 1.000000 1.000000 1.000000 1.000000 1.000000 1.000000 1.000000 1.000000 1.000000 1.000000 1.000000 0.832132 0.832132 0.832132 0.832132 0.832132 0.832132 0.832132 0.810111 0.810111 0.810111 0.810111 0.810111 0.810111 0.810111 0.810111 0.810111 0.810111 0.810111 0.810111 0.810111 0.810111 0.810111 0.810111 0.810111 0.810111 0.810111 0.810111 0.810111 0.810111 0.810111 0.810111 0.810111 0.810111 0.810111 0.810111 0.810111 0.810111 0.810111 0.810111 0.810111 0.810111 0.810111 0.810111 0.810111 0.810111 0.810111 0.810111 0.810111 0.810111 0.810111 0.810111 0.949141 0.949925 0.950233 0.949227 0.947631 0.944142 0.942414 0.941631 0.944318 0.944534 0.944774 0.945682 0.946253 0.947862 0.948814 0.949984 0.950773 0.958882 0.962592 0.962327 0.961485 0.962328 0.973021 0.970059 0.967635 0.967662 0.967822 0.967798 0.967686 0.967580 0.967130 0.966551 0.967033 0.966910 0.966364 0.965592 0.964579 0.964150 0.963531 0.963454 0.964291 0.964965 0.965572 0.966685 0.966625 0.967279 0.965908 0.965154 0.954408 0.952274 0.950065 0.949837 0.950917 0.950654 0.949890 0.948606 0.948670 0.948590 0.947501 0.947372 0.946262 0.937584 0.937743 0.937752 0.938646 0.932461 0.924107 0.921530 0.919812 0.920843 0.923880 0.927417 0.924327 0.922875 0.919664 0.911692 0.905223 0.897091 0.895830 0.891242 0.893470 0.894757 0.896413 0.896170 0.896206 0.894444 0.893112 0.878261 0.882383 0.879725 0.875795 0.871517 0.867790 0.865540 0.866980 0.869909 0.858404 0.841273 0.841424 0.831315 0.803293 0.801326 0.804906 0.815005 0.826579 0.825476 0.824527 0.808268 0.804478 0.787884 0.778225 0.779844 0.782851 0.780391 0.788378 0.792917 0.786234 0.771859 0.767191 0.773530 0.786563 0.797110 0.801925 0.801174 0.797958 0.796428 0.759509 0.758951 0.761258 0.723883 0.727175 0.722362 0.722089 0.728597 0.724768 0.722150 0.732476 0.729763 0.703248 0.709130 0.710684 0.706297 0.709049 0.696499 0.688727 0.662104 0.651959 0.640835 0.650664 0.653466 0.666707 0.656282 0.666290 0.678563 0.678831 0.688599 0.687463 0.669257 0.663723 0.672424 0.677349 0.641982 0.648286 0.647608 0.642967 0.635828 0.623009 0.635356 0.623810 0.604577 0.600770 0.556973 0.541436 0.532433 0.517537 0.496389 0.475974 0.489105 0.491641 0.490349 0.478798 0.455535 0.385806 0.392213 0.390039 0.373530 0.377415 0.364004 0.327273 0.371980 0.374089 0.383920 0.356025 0.338398 0.310636 0.212338 0.203856 0.169116 0.183151 0.189515 0.178370 0.171237 0.172149 0.175023 0.160762 0.172107 0.171333 0.191381 0.175893 0.142858 0.155023 0.145674 0.125472 0.103482 0.096544 0.134702 0.117957 0.125723 0.128292 0.080455 0.053118 -0.001074 0.011829 0.022598 0.050841 0.078809 0.071387 0.047957 -0.040007 -0.005797 0.018810 0.018810 0.018810 0.018810 0.018810 0.018810 0.018810 0.018810 0.018810 0.018810 0.018810 -0.039738 -0.039738 -0.039738 -0.039738 -0.039738 -0.039738 -0.039738 -0.039738 -0.039738 -0.039738 -0.039738 -0.039738 -0.039738 -0.039738 -0.039738 -0.039738 -0.039738 -0.039738 -0.039738
0.000000 0.000000 0.000000 0.000000 0.000000 0.000000 0.000000 0.000000 0.000000 0.000000 0.000000 0.000000 0.000000 0.000000 0.000000 0.000000 0.000000 0.000000 0.000000 0.000000 0.000000 0.000000 0.000000 0.000000 0.000000 0.000000 0.000000 0.000000 0.000000 0.000000 0.000000 0.000000 0.000000 0.000000 0.000000 0.000000 0.000000 0.000000 0.000000 0.000000 0.000000 0.000000 0.000000 0.000000 0.000000 0.000000 0.000000 0.000000 0.000000 0.000000 0.000000 0.000000 0.173422 0.173422 0.173422 0.173422 0.173422 0.173422 0.173422 0.191565 0.191565 0.191565 0.191565 0.191565 0.191565 0.191565 0.191565 0.191565 0.191565 0.191565 0.191565 0.191565 0.191565 0.191565 0.191565 0.191565 0.191565 0.191565 0.191565 0.191565 0.191565 0.191565 0.191565 0.191565 0.191565 0.191565 0.191565 0.191565 0.191565 0.191565 0.191565 0.191565 0.191565 0.191565 0.191565 0.191565 0.191565 0.191565 0.191565 0.191565 0.191565 0.191565 0.191565 0.219529 0.219529 0.219529 0.219529 0.219529 0.219529 0.219529 0.219529 0.219529 0.219529 0.219529 0.219529 0.219529 0.219529 0.219529 0.219529 0.219529 0.219529 0.219529 0.219529 0.219529 0.219529 0.219529 0.219529 0.219529 0.219529 0.219529 0.219529 0.219529 0.219529 0.219529 0.237356 0.237356 0.237356 0.237356 0.237356 0.237356 0.237356 0.237356 0.237356 0.237356 0.237356 0.237356 0.237356 0.237356 0.237356 0.237356 0.237356 0.237356 0.237356 0.237356 0.237356 0.237356 0.237356 0.237356 0.244339 0.244339 0.244339 0.244339 0.244339 0.244339 0.244339 0.244339 0.244339 0.244339 0.244339 0.244339 0.244339 0.244339 0.244339 0.244339 0.244339 0.244339 0.244339 0.244339 0.244339 0.248069 0.248069 0.248069 0.248069 0.248069 0.248069 0.248069 0.248069 0.248069 0.248069 0.248069 0.248069 0.248069 0.248069 0.248069 0.248069 0.248069 0.248069 0.248069 0.248069 0.248069 0.248069 0.248069 0.248069 0.248069 0.248069 0.248069 0.248069 0.248069 0.248069 0.248069 0.248069 0.248069 0.248069 0.248069 0.248069 0.248069 0.256074 0.256074 0.256074 0.256074 0.256074 0.256074 0.256074 0.256074 0.256074 0.256074 0.256074 0.256074 0.256074 0.256074 0.256074 0.256074 0.256074 0.256074 0.256074 0.256074 0.256074 0.256074 0.256074 0.256074 0.256074 0.256074 0.256074 0.256074 0.256074 0.256074 0.256074 0.256074 0.256074 0.256074 0.256074 0.256074 0.256074 0.256074 0.256074 0.256074 0.256074 0.256074 0.256074 0.256074 0.256074 0.260378 0.260378 0.260378 0.260378 0.260378 0.260378 0.260378 0.260378 0.260378 0.260378 0.260378 0.260378 0.260378 0.256074 0.256074 0.256074 0.256074 0.256074 0.256074 0.256074 0.256074 0.256074 0.256074 0.256074 0.256074 0.256074 0.260378 0.260378 0.260378 0.260378 0.260378 0.260378 0.260378 0.260378 0.260378 0.260378 0.260378 0.260378 0.251976 0.251976 0.251976 0.251976 0.251976 0.251976 0.251976 0.251976 0.251976 0.251976 0.251976 0.251976 0.256074 0.256074 0.256074 0.256074 0.256074 0.256074 0.256074 0.256074 0.256074 0.256074 0.256074 0.251976 0.251976 0.251976 0.251976 0.251976 0.251976 0.251976 0.251976 0.251976 0.251976 0.251976 0.248069 0.248069 0.248069 0.248069 0.248069 0.248069 0.248069 0.248069 0.248069 0.248069 0.248069 0.256074 0.256074 0.256074 0.256074 0.256074 0.256074 0.256074 0.256074 0.256074 0.256074 0.256074 0.256074 0.256074 0.256074 0.256074 0.256074 0.256074 0.256074 0.256074
