# Output from CTFFind version 4.1.9, run on 2019-11-02 17:44:45
# Input file: stack1_bm3d_averaged_1_0.75_0_750_half.mrc ; Number of micrographs: 1
# Pixel size: 3.000 Angstroms ; acceleration voltage: 300.0 keV ; spherical aberration: 0.00 mm ; amplitude contrast: 0.07
# Box size: 512 pixels ; min. res.: 30.0 Angstroms ; max. res.: 5.0 Angstroms ; min. def.: 5000.0 um; max. def. 50000.0 um; num. frames averaged: 1
# 6 lines per micrograph: #1 - spatial frequency (1/Angstroms); #2 - 1D rotational average of spectrum (assuming no astigmatism); #3 - 1D rotational average of spectrum; #4 - CTF fit; #5 - cross-correlation between spectrum and CTF fit; #6 - 2sigma of expected cross correlation of noise
0.000000 0.000651 0.001302 0.001953 0.002604 0.003255 0.003906 0.004557 0.005208 0.005859 0.006510 0.007161 0.007812 0.008464 0.009115 0.009766 0.010417 0.011068 0.011719 0.012370 0.013021 0.013672 0.014323 0.014974 0.015625 0.016276 0.016927 0.017578 0.018229 0.018880 0.019531 0.020182 0.020833 0.021484 0.022135 0.022786 0.023438 0.024089 0.024740 0.025391 0.026042 0.026693 0.027344 0.027995 0.028646 0.029297 0.029948 0.030599 0.031250 0.031901 0.032552 0.033203 0.033854 0.034505 0.035156 0.035807 0.036458 0.037109 0.037760 0.038411 0.039062 0.039714 0.040365 0.041016 0.041667 0.042318 0.042969 0.043620 0.044271 0.044922 0.045573 0.046224 0.046875 0.047526 0.048177 0.048828 0.049479 0.050130 0.050781 0.051432 0.052083 0.052734 0.053385 0.054036 0.054688 0.055339 0.055990 0.056641 0.057292 0.057943 0.058594 0.059245 0.059896 0.060547 0.061198 0.061849 0.062500 0.063151 0.063802 0.064453 0.065104 0.065755 0.066406 0.067057 0.067708 0.068359 0.069010 0.069661 0.070312 0.070964 0.071615 0.072266 0.072917 0.073568 0.074219 0.074870 0.075521 0.076172 0.076823 0.077474 0.078125 0.078776 0.079427 0.080078 0.080729 0.081380 0.082031 0.082682 0.083333 0.083984 0.084635 0.085286 0.085938 0.086589 0.087240 0.087891 0.088542 0.089193 0.089844 0.090495 0.091146 0.091797 0.092448 0.093099 0.093750 0.094401 0.095052 0.095703 0.096354 0.097005 0.097656 0.098307 0.098958 0.099609 0.100260 0.100911 0.101562 0.102214 0.102865 0.103516 0.104167 0.104818 0.105469 0.106120 0.106771 0.107422 0.108073 0.108724 0.109375 0.110026 0.110677 0.111328 0.111979 0.112630 0.113281 0.113932 0.114583 0.115234 0.115885 0.116536 0.117188 0.117839 0.118490 0.119141 0.119792 0.120443 0.121094 0.121745 0.122396 0.123047 0.123698 0.124349 0.125000 0.125651 0.126302 0.126953 0.127604 0.128255 0.128906 0.129557 0.130208 0.130859 0.131510 0.132161 0.132812 0.133464 0.134115 0.134766 0.135417 0.136068 0.136719 0.137370 0.138021 0.138672 0.139323 0.139974 0.140625 0.141276 0.141927 0.142578 0.143229 0.143880 0.144531 0.145182 0.145833 0.146484 0.147135 0.147786 0.148438 0.149089 0.149740 0.150391 0.151042 0.151693 0.152344 0.152995 0.153646 0.154297 0.154948 0.155599 0.156250 0.156901 0.157552 0.158203 0.158854 0.159505 0.160156 0.160807 0.161458 0.162109 0.162760 0.163411 0.164062 0.164714 0.165365 0.166016 0.166667 0.167318 0.167969 0.168620 0.169271 0.169922 0.170573 0.171224 0.171875 0.172526 0.173177 0.173828 0.174479 0.175130 0.175781 0.176432 0.177083 0.177734 0.178385 0.179036 0.179688 0.180339 0.180990 0.181641 0.182292 0.182943 0.183594 0.184245 0.184896 0.185547 0.186198 0.186849 0.187500 0.188151 0.188802 0.189453 0.190104 0.190755 0.191406 0.192057 0.192708 0.193359 0.194010 0.194661 0.195312 0.195964 0.196615 0.197266 0.197917 0.198568 0.199219 0.199870 0.200521 0.201172 0.201823 0.202474 0.203125 0.203776 0.204427 0.205078 0.205729 0.206380 0.207031 0.207682 0.208333 0.208984 0.209635 0.210286 0.210938 0.211589 0.212240 0.212891 0.213542 0.214193 0.214844 0.215495 0.216146 0.216797 0.217448 0.218099 0.218750 0.219401 0.220052 0.220703 0.221354 0.222005 0.222656 0.223307 0.223958 0.224609 0.225260 0.225911 0.226562 0.227214 0.227865 0.228516 0.229167 0.229818 0.230469 0.231120 0.231771 0.232422 0.233073 0.233724 0.234375 0.235026 0.235677
       0.33340        0.33340        0.33340        0.33340        0.33340        0.33340        0.33340        0.33340        0.33340        0.33340        0.33340        0.33340        0.33340        0.33340        0.33340        0.33340        0.33340        0.33340        0.33340        0.33340        0.33340        0.33340        0.33340        0.33340        0.33340        0.33340        0.33340        0.33340        0.33340        0.33340        0.33340        0.33340        0.33340        0.33340        0.33340        0.33340        0.33340        0.33340        0.33340        0.33340        0.33340        0.33340        0.33340        0.33340        0.33340        0.33340        0.33340        0.33340        0.33340        0.33340        0.33340        0.50326        0.72004        0.42973        0.19051       -0.08078       -0.26101       -0.06787       -0.13326       -0.05209       -0.00250       -0.14682       -0.09161       -0.05298       -0.00393       -0.15213       -0.22134       -0.34656       -0.46140       -0.55636       -0.51553       -0.44678       -0.37020       -0.54551       -0.45013       -0.62089       -0.50284       -0.47404       -0.38910       -0.38559       -0.34007       -0.25153       -0.15980       -0.13628        0.03322       -0.01182        0.12098        0.16772        0.30564        0.41092        0.46347        0.49974        0.54199        0.55127        0.69220        0.64545        0.67762        0.59154        0.55622        0.65440        0.52894        0.42764        0.38288        0.32116        0.23036        0.26276        0.25168        0.10722        0.08279        0.00038       -0.00470        0.03945       -0.00504        0.07470        0.10206        0.23276        0.28538        0.30227        0.38109        0.56271        0.53547        0.57952        0.67021        0.70235        0.63029        0.63735        0.63359        0.55662        0.57448        0.40009        0.34588        0.26627        0.18357        0.07326        0.14401        0.11949        0.09271        0.10572        0.20858        0.21372        0.31720        0.36072        0.41256        0.49357        0.58331        0.54285        0.55684        0.60764        0.53830        0.46200        0.48132        0.32573        0.24965        0.25988        0.24217        0.14224        0.14480        0.15280        0.21944        0.24486        0.33139        0.36623        0.39207        0.46796        0.44737        0.48039        0.45266        0.46815        0.44722        0.40777        0.38439        0.35268        0.31205        0.28942        0.20569        0.19579        0.22003        0.27089        0.26874        0.35117        0.37573        0.35927        0.41292        0.45312        0.44606        0.42404        0.44144        0.37681        0.33511        0.28208        0.26173        0.29186        0.26965        0.29482        0.30059        0.34760        0.34345        0.39659        0.40483        0.42732        0.41008        0.43219        0.40385        0.36342        0.28324        0.29203        0.30852        0.27235        0.25403        0.32669        0.37071        0.34204        0.35291        0.36074        0.35645        0.40956        0.40344        0.36299        0.33897        0.30837        0.31100        0.31838        0.31857        0.30104        0.28474        0.33661        0.36194        0.37969        0.33413        0.33027        0.33632        0.34633        0.30717        0.28290        0.30577        0.31358        0.33813        0.31979        0.32964        0.35910        0.32927        0.31316        0.32781        0.30275        0.26521        0.25411        0.26672        0.30775        0.32195        0.35200        0.30144        0.31225        0.33381        0.29504        0.31549        0.28648        0.28400        0.29374        0.29678        0.30884        0.34558        0.32943        0.33142        0.33995        0.31485        0.33586        0.31965        0.31899        0.30989        0.28259        0.29163        0.31096        0.29289        0.32646        0.33619        0.33592        0.32439        0.34397        0.32029        0.27825        0.25195        0.27015        0.33147        0.35739        0.34260        0.31465        0.29262        0.29689        0.31273        0.25080        0.29959        0.30644        0.33480        0.30086        0.31428        0.28685        0.33777        0.34075        0.34296        0.31735        0.29067        0.31730        0.40004        0.32844        0.31583        0.31418        0.28820        0.28472        0.30237        0.26928        0.31822        0.23633        0.27165        0.29640        0.31229        0.29597        0.26934        0.29704        0.24015        0.22538        0.26267        0.29966        0.30623        0.27740        0.28480        0.33413        0.25742        0.21783        0.30795        0.27333        0.25889        0.28392        0.39079        0.29491        0.28847        0.24909        0.24931        0.27275        0.25198        0.23719        0.17524        0.26176        0.23073        0.24580        0.31799        0.26394        0.35597        0.29691        0.24034        0.22414        0.21357        0.24024        0.31125        0.22892        0.12836        0.16958        0.24333        0.24730        0.29792        0.25646        0.02763       -0.43918       -0.93548
2.687177 2.658804 2.630583 2.602514 2.574598 2.546833 2.519221 2.491761 2.464453 2.437297 2.410293 2.383442 2.356742 2.330195 2.303800 2.277557 2.251466 2.225528 2.199741 2.174107 2.148625 2.123295 2.098117 2.073091 2.048218 2.023496 1.998927 1.974510 1.950245 1.926132 1.902171 1.878363 1.854706 1.831202 1.807850 1.784650 1.761603 1.738707 1.715963 1.693372 1.670933 1.648646 1.626511 1.604528 1.582698 1.561019 1.539493 1.518119 1.496897 1.475827 1.454910 1.525104 1.826849 1.511199 1.191909 0.937035 0.543318 0.910138 0.630814 0.873432 0.923892 0.588698 0.708818 0.775852 0.815555 0.627599 0.534339 0.345685 0.103009 0.079555 0.045377 0.083259 0.301676 -0.035758 0.080817 -0.135547 -0.014464 -0.017979 0.083633 0.057736 0.100256 0.173762 0.281430 0.249726 0.481738 0.395828 0.549418 0.524785 0.765499 0.788608 0.877414 0.920865 0.939799 0.942950 1.110283 0.940823 1.138650 0.944019 0.850262 1.013177 0.847302 0.757445 0.614822 0.592096 0.457935 0.415171 0.507887 0.265222 0.196027 0.155223 0.013430 0.211325 -0.005672 0.118145 0.182577 0.258680 0.332866 0.345867 0.424394 0.540465 0.659444 0.540028 0.737507 0.864262 0.637606 0.696275 0.667049 0.594544 0.534935 0.465968 0.298559 0.213991 0.114481 -0.042991 -0.020093 0.056577 -0.098333 -0.057857 0.047559 0.052226 0.110885 0.221822 0.236869 0.309250 0.433278 0.441582 0.439278 0.478013 0.444136 0.325415 0.333262 0.242147 0.048191 0.062056 0.019684 -0.051478 -0.096690 -0.101139 -0.015406 -0.055897 0.070449 0.124422 0.120495 0.259445 0.228965 0.247711 0.286521 0.244171 0.240902 0.210715 0.174662 0.108345 0.102168 0.027516 0.009473 -0.120216 -0.055110 -0.000548 0.004381 0.019508 0.097949 0.084665 0.136983 0.181225 0.253348 0.171263 0.184158 0.110280 0.141704 0.016342 -0.034018 0.019437 -0.021497 -0.000976 -0.006370 0.033220 0.077638 0.054707 0.151430 0.101914 0.161397 0.063805 0.145423 0.091393 -0.011087 -0.060950 -0.015501 -0.035126 -0.076122 -0.068565 0.051491 0.058988 -0.010347 0.046761 0.064492 0.070785 0.143970 0.068859 0.061960 0.044031 -0.027941 0.024619 0.002733 0.011462 0.001873 -0.010648 0.040656 0.064338 0.069542 0.028488 0.043922 0.020958 0.059260 -0.013793 -0.018917 0.018460 0.008238 0.061011 0.032837 0.040855 0.054616 0.043497 0.013980 0.032923 -0.003149 -0.045575 -0.031600 -0.026854 0.022769 0.039907 0.094475 -0.004531 0.049093 0.066738 -0.007486 0.063914 0.013341 0.013474 0.041143 0.050296 0.040378 0.098390 0.058122 0.073857 0.092358 0.068847 0.069797 0.065863 0.083934 0.034851 -0.004229 0.045373 0.041543 0.051667 0.068679 0.087471 0.013445 0.066267 0.077020 0.007876 0.008285 -0.068194 -0.022194 0.107997 0.076061 0.043758 0.040206 -0.027558 0.046761 0.020399 -0.062511 0.047532 0.036918 0.069453 0.036210 0.007315 0.005372 0.057882 0.042210 0.019349 0.034079 -0.037963 0.066701 0.119570 0.008521 -0.002876 0.005468 -0.005698 -0.032954 -0.017302 -0.052575 0.006636 -0.097273 -0.023659 -0.031551 0.018297 -0.031906 -0.064735 0.028605 -0.073145 -0.056607 -0.075925 0.046220 0.011938 0.007994 -0.008440 0.081834 -0.033095 -0.067980 0.053769 -0.005835 0.017778 0.010487 0.195379 -0.015744 0.025166 0.005070 -0.009030 0.003318 -0.014197 -0.014809 -0.151290 0.025846 -0.039380 0.003359 0.027299 -0.011563 0.142772 0.020151 -0.019590 -0.047379 -0.028294 -0.061916 0.070419 0.274081 0.154130 0.216662 0.236860 0.332902 0.329331 0.305590 0.034626 -1.095352
0.072396 0.072910 0.074452 0.077021 0.080617 0.085238 0.090885 0.097554 0.105243 0.113951 0.123672 0.134403 0.146137 0.158869 0.172590 0.187289 0.202956 0.219577 0.237136 0.255614 0.274990 0.295240 0.316336 0.338247 0.360937 0.384367 0.408493 0.433266 0.458631 0.484531 0.510898 0.537663 0.564747 0.592067 0.619532 0.647044 0.674501 0.701788 0.728789 0.755378 0.781421 0.806778 0.831303 0.854843 0.877239 0.898325 0.917931 0.935883 0.952002 0.966106 0.978013 0.987537 0.994496 0.998707 0.999991 0.998174 0.993088 0.984574 0.972484 0.956680 0.937040 0.913458 0.885849 0.854147 0.818311 0.778324 0.734200 0.685982 0.633747 0.577605 0.517704 0.454230 0.387409 0.317509 0.244837 0.169747 0.092629 0.013921 0.065902 0.146325 0.226794 0.306723 0.385493 0.462459 0.536953 0.608292 0.675781 0.738721 0.796417 0.848188 0.893372 0.931336 0.961487 0.983284 0.996240 0.999943 0.994058 0.978337 0.952636 0.916912 0.871243 0.815825 0.750982 0.677171 0.594983 0.505142 0.408508 0.306068 0.198934 0.088335 0.024398 0.137841 0.250497 0.360810 0.467189 0.568032 0.661747 0.746783 0.821654 0.884972 0.935471 0.972042 0.993757 0.999896 0.989974 0.963762 0.921304 0.862935 0.789288 0.701297 0.600202 0.487531 0.365096 0.234965 0.099432 0.039009 0.177715 0.313942 0.444888 0.567764 0.679848 0.778552 0.861484 0.926516 0.971844 0.996048 0.998139 0.977613 0.934477 0.869280 0.783121 0.677650 0.555053 0.418016 0.269683 0.113590 0.046406 0.206220 0.361643 0.508447 0.642504 0.759908 0.857100 0.930979 0.979019 0.999364 0.990916 0.953400 0.887405 0.794406 0.676753 0.537631 0.381000 0.211491 0.034284 0.145036 0.320653 0.486711 0.637501 0.767681 0.872456 0.947789 0.990560 0.998722 0.971412 0.909036 0.813293 0.687167 0.534862 0.361687 0.173889 0.021550 0.217166 0.405295 0.578364 0.729216 0.851404 0.939500 0.989349 0.998290 0.965329 0.891237 0.778581 0.631670 0.456428 0.260191 0.051410 0.160688 0.366492 0.556457 0.721543 0.853657 0.946089 0.993862 0.994046 0.945964 0.851301 0.714098 0.540625 0.339132 0.119491 0.107263 0.329475 0.535464 0.714141 0.855629 0.951835 0.996944 0.987816 0.924241 0.809043 0.648009 0.449660 0.224832 0.013876 0.252778 0.477895 0.675758 0.834244 0.943341 0.995825 0.987786 0.918969 0.792889 0.616733 0.400996 0.158916 0.094311 0.342451 0.569280 0.759643 0.900504 0.981877 0.997582 0.945779 0.829212 0.655149 0.434995 0.183604 0.081668 0.342146 0.579138 0.775288 0.915883 0.990001 0.991423 0.919225 0.777985 0.577586 0.332592 0.061268 0.215762 0.477037 0.701940 0.872349 0.974141 0.998431 0.942427 0.809807 0.610587 0.360450 0.079584 0.208897 0.480822 0.713000 0.885223 0.982082 0.994421 0.920290 0.765290 0.542267 0.270338 0.026672 0.322268 0.589635 0.804076 0.945347 0.999647 0.961044 0.832233 0.624474 0.356730 0.054013 0.254874 0.540056 0.773486 0.931738 0.998447 0.966090 0.836954 0.623119 0.345452 0.031686 0.286309 0.575705 0.806134 0.952925 0.999836 0.940958 0.781585 0.537888 0.235393 0.093581 0.413309 0.688546 0.888430 0.990016 0.981035 0.861496 0.643953 0.352343 0.019457 0.316641 0.616949 0.846067 0.976440 0.991785 0.889263 0.680104 0.388540 0.049139 0.297204 0.608136 0.845068 0.978012 0.989513 0.877093 0.653860 0.347158 0.004622 0.356779 0.663915 0.885838 0.992903 0.970113 0.819390 0.559653 0.224625 0.141405 0.489354 0.771920 0.950046 0.998480
1.000000 1.000000 1.000000 1.000000 1.000000 1.000000 1.000000 1.000000 1.000000 1.000000 1.000000 1.000000 1.000000 1.000000 1.000000 1.000000 1.000000 1.000000 1.000000 1.000000 1.000000 1.000000 1.000000 1.000000 1.000000 1.000000 1.000000 1.000000 1.000000 1.000000 1.000000 1.000000 1.000000 1.000000 1.000000 1.000000 1.000000 1.000000 1.000000 1.000000 1.000000 1.000000 1.000000 1.000000 1.000000 1.000000 1.000000 1.000000 1.000000 1.000000 1.000000 1.000000 0.918581 0.918581 0.905083 0.905083 0.905083 0.905083 0.905083 0.905083 0.905083 0.905083 0.905083 0.905083 0.905083 0.905083 0.905083 0.905083 0.905083 0.905083 0.905083 0.905083 0.905083 0.905083 0.905083 0.905083 0.905083 0.905083 0.905083 0.905083 0.905083 0.905083 0.905083 0.905083 0.905083 0.905083 0.905083 0.905083 0.905083 0.905083 0.905083 0.905083 0.905083 0.905083 0.905083 0.900958 0.905783 0.907677 0.906104 0.909669 0.909740 0.909027 0.909348 0.908994 0.909313 0.910705 0.921226 0.932269 0.943539 0.944069 0.949203 0.953625 0.956010 0.956903 0.958433 0.968324 0.967020 0.966513 0.967202 0.968680 0.970830 0.969516 0.969147 0.972306 0.972979 0.971338 0.969150 0.968543 0.967941 0.968039 0.967660 0.967548 0.967426 0.967931 0.968147 0.967842 0.967986 0.968034 0.969053 0.970210 0.972564 0.973557 0.973395 0.972279 0.970335 0.974360 0.975218 0.974938 0.974874 0.974392 0.974667 0.963109 0.957825 0.957747 0.954325 0.953445 0.950925 0.949093 0.947001 0.947166 0.945916 0.946127 0.942486 0.929508 0.915950 0.904741 0.925588 0.910524 0.898958 0.875634 0.876443 0.873370 0.873900 0.866880 0.860693 0.856016 0.853278 0.854679 0.851254 0.854706 0.851597 0.838655 0.841681 0.838735 0.809956 0.791894 0.777317 0.777743 0.775041 0.776204 0.775739 0.772598 0.780994 0.772637 0.770991 0.762804 0.743271 0.709280 0.695737 0.706012 0.715523 0.713379 0.709571 0.694284 0.661011 0.674299 0.694924 0.693745 0.696308 0.687730 0.680696 0.681379 0.682729 0.679233 0.670776 0.670181 0.669364 0.678815 0.683322 0.678987 0.670160 0.655572 0.643361 0.629015 0.640966 0.650619 0.617560 0.611416 0.599907 0.593087 0.578976 0.553531 0.553297 0.529729 0.519597 0.523508 0.527461 0.522986 0.530913 0.532210 0.516844 0.538953 0.545414 0.571627 0.555705 0.554144 0.555863 0.562776 0.548279 0.532965 0.528987 0.529810 0.541751 0.570137 0.610003 0.596171 0.583138 0.570733 0.583930 0.548807 0.556683 0.578245 0.554800 0.487691 0.438255 0.436347 0.395784 0.392354 0.381092 0.370818 0.376334 0.367262 0.357412 0.344219 0.331502 0.272085 0.231326 0.215387 0.196421 0.204738 0.222659 0.218346 0.208916 0.229389 0.277779 0.277231 0.268728 0.244453 0.249522 0.221738 0.228830 0.256361 0.211757 0.204223 0.197230 0.170388 0.166951 0.129810 0.153915 0.070011 0.044318 0.042825 0.059134 0.070755 0.068743 0.071715 0.043131 0.062819 0.059016 0.030425 0.019785 0.036908 0.021767 -0.008165 0.005928 0.023949 0.012856 -0.023185 0.000738 0.021429 0.037955 0.029389 0.024545 0.076912 0.105797 0.093224 0.094999 0.089069 0.096326 0.075406 0.069288 0.053558 0.043854 -0.005330 -0.033777 -0.033777 -0.029453 -0.029453 -0.029453 -0.029453 -0.029453 -0.029453 -0.029453 -0.029453 -0.029453 -0.032537 -0.032537 -0.032537 -0.032537 -0.032537 -0.032537 -0.032537 -0.032537 -0.032537 -0.007174 -0.007174 -0.007174 -0.007174 -0.007174 -0.007174 -0.007174 -0.007174 -0.007174
0.000000 0.000000 0.000000 0.000000 0.000000 0.000000 0.000000 0.000000 0.000000 0.000000 0.000000 0.000000 0.000000 0.000000 0.000000 0.000000 0.000000 0.000000 0.000000 0.000000 0.000000 0.000000 0.000000 0.000000 0.000000 0.000000 0.000000 0.000000 0.000000 0.000000 0.000000 0.000000 0.000000 0.000000 0.000000 0.000000 0.000000 0.000000 0.000000 0.000000 0.000000 0.000000 0.000000 0.000000 0.000000 0.000000 0.000000 0.000000 0.000000 0.000000 0.000000 0.000000 0.181818 0.181818 0.199007 0.199007 0.199007 0.199007 0.199007 0.199007 0.199007 0.199007 0.199007 0.199007 0.199007 0.199007 0.199007 0.199007 0.199007 0.199007 0.199007 0.199007 0.199007 0.199007 0.199007 0.199007 0.199007 0.199007 0.199007 0.199007 0.199007 0.199007 0.199007 0.199007 0.199007 0.199007 0.199007 0.199007 0.199007 0.199007 0.199007 0.199007 0.199007 0.199007 0.199007 0.230940 0.230940 0.230940 0.230940 0.230940 0.230940 0.230940 0.230940 0.230940 0.230940 0.230940 0.230940 0.230940 0.230940 0.230940 0.230940 0.230940 0.230940 0.230940 0.230940 0.230940 0.230940 0.230940 0.230940 0.230940 0.230940 0.230940 0.230940 0.244339 0.244339 0.244339 0.244339 0.244339 0.244339 0.244339 0.244339 0.244339 0.244339 0.244339 0.244339 0.244339 0.244339 0.244339 0.244339 0.244339 0.244339 0.244339 0.244339 0.244339 0.244339 0.244339 0.251976 0.251976 0.251976 0.251976 0.251976 0.251976 0.251976 0.251976 0.251976 0.251976 0.251976 0.251976 0.251976 0.251976 0.251976 0.251976 0.251976 0.251976 0.251976 0.251976 0.264906 0.264906 0.264906 0.264906 0.264906 0.264906 0.264906 0.264906 0.264906 0.264906 0.264906 0.264906 0.264906 0.264906 0.264906 0.264906 0.264906 0.264906 0.264906 0.264906 0.264906 0.264906 0.264906 0.264906 0.264906 0.264906 0.264906 0.264906 0.264906 0.264906 0.264906 0.264906 0.264906 0.264906 0.264906 0.264906 0.264906 0.264906 0.264906 0.264906 0.264906 0.264906 0.264906 0.264906 0.264906 0.264906 0.264906 0.264906 0.264906 0.264906 0.264906 0.264906 0.264906 0.264906 0.264906 0.264906 0.264906 0.264906 0.264906 0.264906 0.264906 0.264906 0.264906 0.264906 0.264906 0.264906 0.264906 0.264906 0.264906 0.264906 0.264906 0.264906 0.264906 0.264906 0.264906 0.269680 0.269680 0.269680 0.269680 0.269680 0.269680 0.269680 0.269680 0.269680 0.269680 0.269680 0.269680 0.264906 0.264906 0.264906 0.264906 0.264906 0.264906 0.264906 0.264906 0.264906 0.264906 0.264906 0.264906 0.269680 0.269680 0.269680 0.269680 0.269680 0.269680 0.269680 0.269680 0.269680 0.269680 0.269680 0.264906 0.264906 0.264906 0.264906 0.264906 0.264906 0.264906 0.264906 0.264906 0.264906 0.264906 0.256074 0.256074 0.256074 0.256074 0.256074 0.256074 0.256074 0.256074 0.256074 0.256074 0.256074 0.264906 0.264906 0.264906 0.264906 0.264906 0.264906 0.264906 0.264906 0.264906 0.264906 0.269680 0.269680 0.269680 0.269680 0.269680 0.269680 0.269680 0.269680 0.269680 0.256074 0.256074 0.256074 0.256074 0.256074 0.256074 0.256074 0.256074 0.256074 0.256074 0.260378 0.260378 0.260378 0.260378 0.260378 0.260378 0.260378 0.260378 0.260378 0.256074 0.256074 0.256074 0.256074 0.256074 0.256074 0.256074 0.256074 0.256074 0.251976 0.251976 0.251976 0.251976 0.251976 0.251976 0.251976 0.251976 0.251976 0.264906 0.264906 0.264906 0.264906 0.264906 0.264906 0.264906 0.264906 0.264906
