# Output from CTFFind version 4.1.9, run on 2019-11-03 20:06:19
# Input file: stack11_bm3d_averaged_1_6.5_0_1000_half.mrc ; Number of micrographs: 1
# Pixel size: 3.000 Angstroms ; acceleration voltage: 300.0 keV ; spherical aberration: 0.00 mm ; amplitude contrast: 0.07
# Box size: 512 pixels ; min. res.: 30.0 Angstroms ; max. res.: 5.0 Angstroms ; min. def.: 5000.0 um; max. def. 50000.0 um; num. frames averaged: 1
# 6 lines per micrograph: #1 - spatial frequency (1/Angstroms); #2 - 1D rotational average of spectrum (assuming no astigmatism); #3 - 1D rotational average of spectrum; #4 - CTF fit; #5 - cross-correlation between spectrum and CTF fit; #6 - 2sigma of expected cross correlation of noise
0.000000 0.000651 0.001302 0.001953 0.002604 0.003255 0.003906 0.004557 0.005208 0.005859 0.006510 0.007161 0.007812 0.008464 0.009115 0.009766 0.010417 0.011068 0.011719 0.012370 0.013021 0.013672 0.014323 0.014974 0.015625 0.016276 0.016927 0.017578 0.018229 0.018880 0.019531 0.020182 0.020833 0.021484 0.022135 0.022786 0.023438 0.024089 0.024740 0.025391 0.026042 0.026693 0.027344 0.027995 0.028646 0.029297 0.029948 0.030599 0.031250 0.031901 0.032552 0.033203 0.033854 0.034505 0.035156 0.035807 0.036458 0.037109 0.037760 0.038411 0.039062 0.039714 0.040365 0.041016 0.041667 0.042318 0.042969 0.043620 0.044271 0.044922 0.045573 0.046224 0.046875 0.047526 0.048177 0.048828 0.049479 0.050130 0.050781 0.051432 0.052083 0.052734 0.053385 0.054036 0.054688 0.055339 0.055990 0.056641 0.057292 0.057943 0.058594 0.059245 0.059896 0.060547 0.061198 0.061849 0.062500 0.063151 0.063802 0.064453 0.065104 0.065755 0.066406 0.067057 0.067708 0.068359 0.069010 0.069661 0.070312 0.070964 0.071615 0.072266 0.072917 0.073568 0.074219 0.074870 0.075521 0.076172 0.076823 0.077474 0.078125 0.078776 0.079427 0.080078 0.080729 0.081380 0.082031 0.082682 0.083333 0.083984 0.084635 0.085286 0.085938 0.086589 0.087240 0.087891 0.088542 0.089193 0.089844 0.090495 0.091146 0.091797 0.092448 0.093099 0.093750 0.094401 0.095052 0.095703 0.096354 0.097005 0.097656 0.098307 0.098958 0.099609 0.100260 0.100911 0.101562 0.102214 0.102865 0.103516 0.104167 0.104818 0.105469 0.106120 0.106771 0.107422 0.108073 0.108724 0.109375 0.110026 0.110677 0.111328 0.111979 0.112630 0.113281 0.113932 0.114583 0.115234 0.115885 0.116536 0.117188 0.117839 0.118490 0.119141 0.119792 0.120443 0.121094 0.121745 0.122396 0.123047 0.123698 0.124349 0.125000 0.125651 0.126302 0.126953 0.127604 0.128255 0.128906 0.129557 0.130208 0.130859 0.131510 0.132161 0.132812 0.133464 0.134115 0.134766 0.135417 0.136068 0.136719 0.137370 0.138021 0.138672 0.139323 0.139974 0.140625 0.141276 0.141927 0.142578 0.143229 0.143880 0.144531 0.145182 0.145833 0.146484 0.147135 0.147786 0.148438 0.149089 0.149740 0.150391 0.151042 0.151693 0.152344 0.152995 0.153646 0.154297 0.154948 0.155599 0.156250 0.156901 0.157552 0.158203 0.158854 0.159505 0.160156 0.160807 0.161458 0.162109 0.162760 0.163411 0.164062 0.164714 0.165365 0.166016 0.166667 0.167318 0.167969 0.168620 0.169271 0.169922 0.170573 0.171224 0.171875 0.172526 0.173177 0.173828 0.174479 0.175130 0.175781 0.176432 0.177083 0.177734 0.178385 0.179036 0.179688 0.180339 0.180990 0.181641 0.182292 0.182943 0.183594 0.184245 0.184896 0.185547 0.186198 0.186849 0.187500 0.188151 0.188802 0.189453 0.190104 0.190755 0.191406 0.192057 0.192708 0.193359 0.194010 0.194661 0.195312 0.195964 0.196615 0.197266 0.197917 0.198568 0.199219 0.199870 0.200521 0.201172 0.201823 0.202474 0.203125 0.203776 0.204427 0.205078 0.205729 0.206380 0.207031 0.207682 0.208333 0.208984 0.209635 0.210286 0.210938 0.211589 0.212240 0.212891 0.213542 0.214193 0.214844 0.215495 0.216146 0.216797 0.217448 0.218099 0.218750 0.219401 0.220052 0.220703 0.221354 0.222005 0.222656 0.223307 0.223958 0.224609 0.225260 0.225911 0.226562 0.227214 0.227865 0.228516 0.229167 0.229818 0.230469 0.231120 0.231771 0.232422 0.233073 0.233724 0.234375 0.235026 0.235677
       0.34489        0.34489        0.34489        0.34489        0.34489        0.34489        0.34489        0.34489        0.34489        0.34489        0.34489        0.34489        0.34489        0.34489        0.34489        0.34489        0.34489        0.34489        0.34489        0.34489        0.34489        0.34489        0.34489        0.34489        0.34489        0.34489        0.34489        0.34489        0.34489        0.34489        0.34489        0.34489        0.34489        0.34489        0.34489        0.34489        0.34489        0.34489        0.34489        0.34489        0.34489        0.34489        0.34489        0.34489        0.34489        0.34489        0.34489        0.34489        0.34489        0.34489        0.34489        0.69891        0.85760        0.53813        0.10539       -0.02909       -0.38610       -0.18010       -0.28840       -0.11589       -0.05510       -0.11251       -0.05320       -0.16673       -0.20561       -0.21374       -0.30694       -0.31829       -0.44393       -0.36197       -0.42580       -0.42086       -0.39372       -0.40706       -0.44688       -0.50758       -0.55852       -0.54972       -0.52399       -0.35637       -0.32597       -0.29120       -0.27118       -0.18549       -0.16975        0.06147        0.14211        0.17523        0.26627        0.38168        0.45790        0.52325        0.60084        0.59821        0.58453        0.70023        0.80321        0.70315        0.74434        0.61965        0.56878        0.48370        0.43275        0.51231        0.39779        0.27169        0.11686        0.11338        0.09386       -0.01330        0.04504        0.05282        0.01181        0.02821        0.03099        0.23714        0.27170        0.29674        0.43539        0.45382        0.41478        0.60019        0.61890        0.63540        0.72430        0.67630        0.64717        0.65633        0.56015        0.46076        0.41905        0.30402        0.27033        0.18489        0.13673        0.05258        0.06595        0.07590        0.10002        0.16000        0.24576        0.29820        0.42244        0.46555        0.48139        0.56473        0.60263        0.63679        0.61519        0.55833        0.46215        0.47374        0.37894        0.27779        0.21254        0.15669        0.17314        0.15378        0.16119        0.19054        0.32352        0.33800        0.40735        0.44658        0.42619        0.48074        0.56362        0.55528        0.50321        0.45774        0.41392        0.37306        0.34238        0.30980        0.26537        0.24761        0.25506        0.25691        0.22648        0.31035        0.36496        0.38483        0.43961        0.45637        0.46789        0.42756        0.41231        0.40235        0.36351        0.33756        0.27500        0.28138        0.26933        0.24679        0.29618        0.29341        0.35255        0.38340        0.43500        0.47685        0.40724        0.42298        0.43289        0.41206        0.35047        0.32892        0.29335        0.32699        0.27619        0.32373        0.31591        0.33367        0.34199        0.36512        0.31436        0.38876        0.41240        0.38114        0.35220        0.36989        0.31925        0.29580        0.30837        0.32055        0.30843        0.32071        0.34526        0.35750        0.34138        0.36460        0.36343        0.42337        0.39077        0.34006        0.34903        0.30018        0.29464        0.32706        0.32062        0.33118        0.34354        0.34301        0.38800        0.33156        0.33059        0.33916        0.34921        0.30523        0.31313        0.28243        0.30355        0.33156        0.30518        0.33229        0.35891        0.37043        0.29922        0.34291        0.30006        0.29404        0.27971        0.24749        0.30778        0.30777        0.34304        0.33989        0.34487        0.32807        0.34999        0.31549        0.34669        0.30713        0.32570        0.29211        0.33737        0.33095        0.37267        0.33102        0.33671        0.33797        0.29378        0.27618        0.31291        0.25064        0.22967        0.34138        0.32365        0.36785        0.34795        0.36382        0.33598        0.33481        0.35144        0.26653        0.26884        0.31952        0.30182        0.31179        0.31552        0.33983        0.32933        0.28949        0.29102        0.34590        0.32268        0.32196        0.29894        0.32252        0.33852        0.39378        0.36301        0.32020        0.28357        0.30421        0.29045        0.30702        0.27854        0.27093        0.31280        0.33017        0.34610        0.35636        0.33217        0.29594        0.30195        0.27136        0.27901        0.25690        0.30727        0.26207        0.24821        0.29128        0.28620        0.26281        0.29493        0.21963        0.21613        0.23980        0.19314        0.27284        0.34907        0.25331        0.24255        0.31843        0.30287        0.31052        0.31450        0.27297        0.25264        0.19314        0.21061        0.20776        0.27993        0.23711        0.28429        0.36502        0.36855        0.25465        0.17634        0.12129       -0.01430       -0.12641       -0.62404
2.803510 2.773760 2.744173 2.714748 2.685484 2.656383 2.627444 2.598667 2.570051 2.541598 2.513307 2.485178 2.457210 2.429405 2.401762 2.374281 2.346962 2.319804 2.292809 2.265976 2.239305 2.212796 2.186449 2.160263 2.134240 2.108379 2.082680 2.057143 2.031768 2.006555 1.981504 1.956615 1.931888 1.907323 1.882920 1.858679 1.834600 1.810683 1.786928 1.763335 1.739904 1.716635 1.693528 1.670583 1.647800 1.625179 1.602720 1.580423 1.558288 1.536315 1.514504 1.732573 2.158692 1.714167 1.192934 1.056195 0.454919 0.852172 0.562691 0.847889 0.817379 0.820963 0.759966 0.757274 0.598635 0.562600 0.502945 0.428914 0.249937 0.365658 0.200009 0.331129 0.219637 0.210806 0.185609 0.041568 0.002534 0.019189 -0.070041 0.133769 0.233676 0.189317 0.179526 0.325694 0.184760 0.523289 0.627258 0.636188 0.653275 0.880344 0.838890 0.947317 0.943115 1.040056 1.009497 1.092536 1.175380 1.048353 1.170994 0.913512 0.933476 0.799532 0.656471 0.811748 0.697828 0.498505 0.334421 0.252587 0.270559 0.149780 0.137787 0.166674 0.109438 0.120588 0.082785 0.249700 0.352075 0.343044 0.478525 0.546825 0.418256 0.596379 0.734385 0.648578 0.722463 0.712772 0.721220 0.647960 0.597792 0.492382 0.368918 0.277357 0.220912 0.091829 0.116715 -0.115984 -0.049447 -0.063392 -0.084109 -0.018692 0.129336 0.070847 0.242739 0.308254 0.336962 0.374715 0.497715 0.467469 0.479926 0.491596 0.305591 0.294547 0.287431 0.086564 0.046105 -0.081618 -0.015391 -0.062794 -0.096886 -0.071807 0.040151 0.095004 0.126226 0.224715 0.224150 0.221286 0.316618 0.358291 0.435428 0.256987 0.232814 0.226712 0.143762 0.145465 0.119879 -0.004284 0.015466 0.076276 -0.010373 0.045338 0.133871 0.135511 0.214146 0.234201 0.259026 0.161806 0.211304 0.128220 0.128083 0.113908 0.027405 -0.026659 -0.000900 -0.020647 -0.052801 0.055105 0.004566 0.106595 0.138759 0.193020 0.164969 0.119090 0.140631 0.160216 0.110356 0.035896 -0.025817 0.029570 0.028126 -0.043338 0.036873 0.020951 0.047949 0.039469 0.050592 0.029765 0.133782 0.119824 0.046503 0.038166 0.042734 0.005704 -0.030892 0.009364 0.005236 -0.004045 0.003807 0.056400 0.053662 0.038897 0.075928 0.061055 0.163410 0.063993 0.040653 0.043118 -0.034603 0.012043 0.047253 0.007904 0.033350 0.055504 0.080550 0.049999 0.042217 0.008440 0.079703 0.026173 0.021080 0.024006 -0.006544 0.032809 0.026439 0.021118 0.069393 0.075016 0.077208 0.041275 0.052125 0.024193 0.015847 -0.023520 -0.024547 0.036913 0.052797 0.080900 0.081358 0.065739 0.071998 0.097741 0.043090 0.091390 0.058407 0.044016 0.018208 0.104443 0.062635 0.124310 0.069830 0.062006 0.099835 0.032660 0.003155 0.086327 -0.039273 -0.027646 0.095299 0.044146 0.160227 0.093144 0.090110 0.066762 0.034939 0.091568 -0.025415 -0.024407 0.049857 0.035806 0.034721 0.021067 0.104917 0.031611 -0.011694 0.050945 0.042887 0.051852 0.060699 -0.008412 0.059418 0.052079 0.118806 0.056323 0.028297 -0.028053 -0.024780 -0.004184 0.007247 -0.055690 -0.022271 0.001418 0.016803 0.035357 0.057423 0.005420 -0.032696 -0.029746 -0.019096 -0.066522 -0.047174 -0.032572 -0.130975 -0.096124 -0.056445 -0.092281 -0.105859 -0.025367 -0.153136 -0.105486 -0.113241 -0.188443 -0.069870 0.061262 -0.072507 -0.138763 0.050915 0.032831 -0.025387 0.074331 -0.024037 -0.001634 -0.087929 -0.037514 0.046929 0.125752 0.054978 0.138834 0.171829 0.432895 0.237583 0.320091 0.153484 -0.019928 -0.697059
0.072396 0.072899 0.074408 0.076923 0.080442 0.084966 0.090492 0.097020 0.104547 0.113070 0.122586 0.133090 0.144578 0.157042 0.170476 0.184869 0.200211 0.216489 0.233688 0.251791 0.270777 0.290624 0.311305 0.332791 0.355049 0.378041 0.401726 0.426059 0.450987 0.476456 0.502403 0.528762 0.555460 0.582417 0.609548 0.636761 0.663958 0.691033 0.717874 0.744362 0.770371 0.795768 0.820415 0.844165 0.866867 0.888365 0.908495 0.927090 0.943979 0.958987 0.971939 0.982656 0.990959 0.996671 0.999618 0.999627 0.996532 0.990174 0.980403 0.967078 0.950072 0.929273 0.904585 0.875931 0.843254 0.806523 0.765731 0.720899 0.672078 0.619351 0.562834 0.502681 0.439080 0.372261 0.302490 0.230076 0.155366 0.078751 0.000658 0.078444 0.158051 0.237623 0.316585 0.394336 0.470248 0.543673 0.613947 0.680397 0.742346 0.799123 0.850068 0.894540 0.931930 0.961663 0.983215 0.996117 0.999967 0.994439 0.979292 0.954380 0.919658 0.875193 0.821167 0.757882 0.685769 0.605385 0.517419 0.422684 0.322121 0.216790 0.107861 0.003390 0.115601 0.227334 0.337093 0.443342 0.544530 0.639112 0.725572 0.802454 0.868385 0.922105 0.962492 0.988593 0.999646 0.995106 0.974668 0.938283 0.886174 0.818850 0.737106 0.642029 0.534991 0.417637 0.291870 0.159823 0.023830 0.113611 0.249877 0.382277 0.508096 0.624659 0.729388 0.819860 0.893875 0.949511 0.985183 0.999698 0.992297 0.962698 0.911123 0.838318 0.745558 0.634642 0.507869 0.368007 0.218241 0.062110 0.096570 0.253794 0.405467 0.547510 0.675979 0.787169 0.877742 0.944825 0.986122 0.999999 0.985566 0.942729 0.872230 0.775660 0.655441 0.514793 0.357655 0.188600 0.012710 0.164575 0.337604 0.500715 0.648405 0.775533 0.877506 0.950464 0.991435 0.998481 0.970802 0.908812 0.814167 0.689758 0.539637 0.368921 0.183633 0.009495 0.203253 0.390221 0.563052 0.714762 0.839032 0.930483 0.984930 0.999596 0.973284 0.906477 0.801378 0.661873 0.493428 0.302895 0.098265 0.111659 0.317617 0.510311 0.680824 0.821044 0.924070 0.984581 0.999137 0.966409 0.887309 0.765022 0.604920 0.414367 0.202410 0.020616 0.243586 0.455128 0.644201 0.800693 0.915975 0.983415 0.998794 0.960605 0.870224 0.731918 0.552699 0.342015 0.111278 0.126707 0.358458 0.570563 0.750472 0.887260 0.972322 0.999961 0.967813 0.877087 0.732595 0.542561 0.318198 0.073099 0.177560 0.417949 0.632575 0.807306 0.930318 0.992951 0.990366 0.921972 0.791588 0.607297 0.381014 0.127775 0.135234 0.389819 0.618025 0.803427 0.932343 0.994890 0.985806 0.904952 0.757467 0.553508 0.307634 0.037825 0.235803 0.492478 0.712343 0.878034 0.976084 0.998092 0.941510 0.809993 0.613266 0.366488 0.089148 0.196424 0.466824 0.699495 0.874639 0.976956 0.997043 0.932344 0.787538 0.574309 0.310487 0.018643 0.275807 0.546776 0.769846 0.924491 0.996043 0.977163 0.868690 0.679747 0.427094 0.133723 0.173157 0.464615 0.712726 0.893267 0.988159 0.987361 0.890035 0.704846 0.449294 0.148190 0.168697 0.469534 0.723615 0.904539 0.993020 0.979047 0.863127 0.656465 0.380009 0.062441 0.262732 0.560670 0.798948 0.951139 0.999829 0.938736 0.773636 0.521977 0.211163 0.124323 0.446694 0.719092 0.909854 0.996268 0.967402 0.825618 0.586577 0.277647 0.065099 0.401034 0.689756 0.895995 0.993999 0.970878 0.828446 0.583293 0.265012 0.087241 0.429489 0.718409 0.916845 0.998695 0.952479 0.783112 0.511579 0.172522 0.190094
1.000000 1.000000 1.000000 1.000000 1.000000 1.000000 1.000000 1.000000 1.000000 1.000000 1.000000 1.000000 1.000000 1.000000 1.000000 1.000000 1.000000 1.000000 1.000000 1.000000 1.000000 1.000000 1.000000 1.000000 1.000000 1.000000 1.000000 1.000000 1.000000 1.000000 1.000000 1.000000 1.000000 1.000000 1.000000 1.000000 1.000000 1.000000 1.000000 1.000000 1.000000 1.000000 1.000000 1.000000 1.000000 1.000000 1.000000 1.000000 1.000000 1.000000 1.000000 1.000000 0.915636 0.915636 0.915636 0.911297 0.911297 0.911297 0.911297 0.911297 0.911297 0.911297 0.911297 0.911297 0.911297 0.911297 0.911297 0.911297 0.911297 0.911297 0.911297 0.911297 0.911297 0.911297 0.911297 0.911297 0.911297 0.911297 0.911297 0.911297 0.911297 0.911297 0.911297 0.911297 0.911297 0.911297 0.911297 0.911297 0.911297 0.911297 0.911297 0.911297 0.911297 0.911297 0.911297 0.911297 0.939795 0.941231 0.949564 0.949106 0.948508 0.946510 0.945256 0.944906 0.944817 0.945169 0.945905 0.946901 0.953128 0.954066 0.958484 0.961199 0.961169 0.962902 0.964861 0.964497 0.956156 0.955915 0.954488 0.953753 0.955861 0.954483 0.953236 0.953703 0.953316 0.955771 0.955324 0.954098 0.952438 0.950825 0.949515 0.948958 0.948722 0.949528 0.949607 0.951186 0.954218 0.954374 0.954105 0.951332 0.950955 0.952160 0.951582 0.953419 0.941212 0.940577 0.939122 0.939117 0.941693 0.941605 0.941502 0.942398 0.942096 0.942016 0.942162 0.935523 0.935230 0.927592 0.924076 0.922560 0.917176 0.913133 0.915757 0.918352 0.919601 0.920056 0.910982 0.908027 0.908981 0.907814 0.909281 0.909269 0.910324 0.910758 0.910672 0.905365 0.895406 0.893741 0.886230 0.888961 0.885867 0.883241 0.880200 0.871222 0.861121 0.874862 0.860205 0.826435 0.830060 0.834842 0.827694 0.824550 0.825616 0.827144 0.831926 0.825071 0.823539 0.817887 0.805301 0.800988 0.794305 0.780194 0.778407 0.769168 0.758903 0.753035 0.776767 0.770583 0.781981 0.786359 0.786075 0.782654 0.773898 0.763192 0.763281 0.758852 0.755133 0.731939 0.723767 0.724009 0.721370 0.709592 0.712735 0.701003 0.700895 0.688514 0.693129 0.698514 0.701550 0.697656 0.691521 0.683293 0.679598 0.692493 0.706477 0.699198 0.694978 0.699523 0.689802 0.683242 0.676624 0.680724 0.673392 0.663899 0.668611 0.696497 0.668433 0.657916 0.664603 0.666652 0.660830 0.661687 0.641295 0.635870 0.613951 0.631194 0.635930 0.651824 0.652919 0.654629 0.665644 0.671358 0.682096 0.686631 0.685503 0.645911 0.649697 0.668927 0.676536 0.664980 0.654813 0.654760 0.648686 0.684834 0.668179 0.625703 0.621860 0.620843 0.580979 0.558474 0.556960 0.559033 0.585613 0.581117 0.562674 0.536452 0.538344 0.540135 0.539564 0.538261 0.522608 0.530693 0.515826 0.492165 0.504178 0.512081 0.510559 0.494831 0.488229 0.500840 0.478521 0.507725 0.483250 0.464207 0.481585 0.479850 0.468475 0.395313 0.405880 0.394610 0.381006 0.336681 0.346270 0.356006 0.338981 0.264314 0.257802 0.258572 0.255319 0.236729 0.216065 0.202557 0.191913 0.169790 0.106962 0.058523 0.059082 0.062842 0.090360 0.050227 0.103222 0.170214 0.168709 0.168709 0.168709 0.168709 0.168709 0.168709 0.168709 0.168709 0.144504 0.144504 0.144504 0.144504 0.144504 0.144504 0.144504 0.144504 0.144504 0.168709 0.168709 0.168709 0.168709 0.168709 0.168709 0.168709 0.168709 0.168709 0.168709 0.168709 0.168709 0.168709 0.168709
0.000000 0.000000 0.000000 0.000000 0.000000 0.000000 0.000000 0.000000 0.000000 0.000000 0.000000 0.000000 0.000000 0.000000 0.000000 0.000000 0.000000 0.000000 0.000000 0.000000 0.000000 0.000000 0.000000 0.000000 0.000000 0.000000 0.000000 0.000000 0.000000 0.000000 0.000000 0.000000 0.000000 0.000000 0.000000 0.000000 0.000000 0.000000 0.000000 0.000000 0.000000 0.000000 0.000000 0.000000 0.000000 0.000000 0.000000 0.000000 0.000000 0.000000 0.000000 0.000000 0.180334 0.180334 0.180334 0.199007 0.199007 0.199007 0.199007 0.199007 0.199007 0.199007 0.199007 0.199007 0.199007 0.199007 0.199007 0.199007 0.199007 0.199007 0.199007 0.199007 0.199007 0.199007 0.199007 0.199007 0.199007 0.199007 0.199007 0.199007 0.199007 0.199007 0.199007 0.199007 0.199007 0.199007 0.199007 0.199007 0.199007 0.199007 0.199007 0.199007 0.199007 0.199007 0.199007 0.199007 0.225018 0.225018 0.225018 0.225018 0.225018 0.225018 0.225018 0.225018 0.225018 0.225018 0.225018 0.225018 0.225018 0.225018 0.225018 0.225018 0.225018 0.225018 0.225018 0.225018 0.225018 0.225018 0.225018 0.225018 0.225018 0.225018 0.225018 0.225018 0.225018 0.244339 0.244339 0.244339 0.244339 0.244339 0.244339 0.244339 0.244339 0.244339 0.244339 0.244339 0.244339 0.244339 0.244339 0.244339 0.244339 0.244339 0.244339 0.244339 0.244339 0.244339 0.244339 0.244339 0.256074 0.256074 0.256074 0.256074 0.256074 0.256074 0.256074 0.256074 0.256074 0.256074 0.256074 0.256074 0.256074 0.256074 0.256074 0.256074 0.256074 0.256074 0.256074 0.256074 0.256074 0.256074 0.256074 0.256074 0.256074 0.256074 0.256074 0.256074 0.256074 0.256074 0.256074 0.256074 0.256074 0.256074 0.256074 0.256074 0.256074 0.264906 0.264906 0.264906 0.264906 0.264906 0.264906 0.264906 0.264906 0.264906 0.264906 0.264906 0.264906 0.264906 0.264906 0.264906 0.264906 0.264906 0.264906 0.264906 0.264906 0.264906 0.264906 0.264906 0.264906 0.264906 0.264906 0.264906 0.264906 0.264906 0.264906 0.264906 0.264906 0.264906 0.264906 0.264906 0.264906 0.264906 0.264906 0.264906 0.264906 0.264906 0.264906 0.264906 0.264906 0.264906 0.264906 0.264906 0.264906 0.264906 0.264906 0.264906 0.264906 0.264906 0.264906 0.264906 0.264906 0.264906 0.264906 0.260378 0.260378 0.260378 0.260378 0.260378 0.260378 0.260378 0.260378 0.260378 0.260378 0.260378 0.260378 0.260378 0.264906 0.264906 0.264906 0.264906 0.264906 0.264906 0.264906 0.264906 0.264906 0.264906 0.264906 0.264906 0.269680 0.269680 0.269680 0.269680 0.269680 0.269680 0.269680 0.269680 0.269680 0.269680 0.269680 0.264906 0.264906 0.264906 0.264906 0.264906 0.264906 0.264906 0.264906 0.264906 0.264906 0.264906 0.256074 0.256074 0.256074 0.256074 0.256074 0.256074 0.256074 0.256074 0.256074 0.256074 0.256074 0.264906 0.264906 0.264906 0.264906 0.264906 0.264906 0.264906 0.264906 0.264906 0.264906 0.260378 0.260378 0.260378 0.260378 0.260378 0.260378 0.260378 0.260378 0.260378 0.260378 0.264906 0.264906 0.264906 0.264906 0.264906 0.264906 0.264906 0.264906 0.264906 0.251976 0.251976 0.251976 0.251976 0.251976 0.251976 0.251976 0.251976 0.251976 0.251976 0.256074 0.256074 0.256074 0.256074 0.256074 0.256074 0.256074 0.256074 0.256074 0.251976 0.251976 0.251976 0.251976 0.251976 0.251976 0.251976 0.251976 0.251976 0.251976 0.251976 0.251976 0.251976 0.251976
