# Output from CTFFind version 4.1.9, run on 2019-11-02 17:44:58
# Input file: stack6_bm3d_averaged_1_0.75_0_750_half.mrc ; Number of micrographs: 1
# Pixel size: 3.000 Angstroms ; acceleration voltage: 300.0 keV ; spherical aberration: 0.00 mm ; amplitude contrast: 0.07
# Box size: 512 pixels ; min. res.: 30.0 Angstroms ; max. res.: 5.0 Angstroms ; min. def.: 5000.0 um; max. def. 50000.0 um; num. frames averaged: 1
# 6 lines per micrograph: #1 - spatial frequency (1/Angstroms); #2 - 1D rotational average of spectrum (assuming no astigmatism); #3 - 1D rotational average of spectrum; #4 - CTF fit; #5 - cross-correlation between spectrum and CTF fit; #6 - 2sigma of expected cross correlation of noise
0.000000 0.000651 0.001302 0.001953 0.002604 0.003255 0.003906 0.004557 0.005208 0.005859 0.006510 0.007161 0.007812 0.008464 0.009115 0.009766 0.010417 0.011068 0.011719 0.012370 0.013021 0.013672 0.014323 0.014974 0.015625 0.016276 0.016927 0.017578 0.018229 0.018880 0.019531 0.020182 0.020833 0.021484 0.022135 0.022786 0.023438 0.024089 0.024740 0.025391 0.026042 0.026693 0.027344 0.027995 0.028646 0.029297 0.029948 0.030599 0.031250 0.031901 0.032552 0.033203 0.033854 0.034505 0.035156 0.035807 0.036458 0.037109 0.037760 0.038411 0.039062 0.039714 0.040365 0.041016 0.041667 0.042318 0.042969 0.043620 0.044271 0.044922 0.045573 0.046224 0.046875 0.047526 0.048177 0.048828 0.049479 0.050130 0.050781 0.051432 0.052083 0.052734 0.053385 0.054036 0.054688 0.055339 0.055990 0.056641 0.057292 0.057943 0.058594 0.059245 0.059896 0.060547 0.061198 0.061849 0.062500 0.063151 0.063802 0.064453 0.065104 0.065755 0.066406 0.067057 0.067708 0.068359 0.069010 0.069661 0.070312 0.070964 0.071615 0.072266 0.072917 0.073568 0.074219 0.074870 0.075521 0.076172 0.076823 0.077474 0.078125 0.078776 0.079427 0.080078 0.080729 0.081380 0.082031 0.082682 0.083333 0.083984 0.084635 0.085286 0.085938 0.086589 0.087240 0.087891 0.088542 0.089193 0.089844 0.090495 0.091146 0.091797 0.092448 0.093099 0.093750 0.094401 0.095052 0.095703 0.096354 0.097005 0.097656 0.098307 0.098958 0.099609 0.100260 0.100911 0.101562 0.102214 0.102865 0.103516 0.104167 0.104818 0.105469 0.106120 0.106771 0.107422 0.108073 0.108724 0.109375 0.110026 0.110677 0.111328 0.111979 0.112630 0.113281 0.113932 0.114583 0.115234 0.115885 0.116536 0.117188 0.117839 0.118490 0.119141 0.119792 0.120443 0.121094 0.121745 0.122396 0.123047 0.123698 0.124349 0.125000 0.125651 0.126302 0.126953 0.127604 0.128255 0.128906 0.129557 0.130208 0.130859 0.131510 0.132161 0.132812 0.133464 0.134115 0.134766 0.135417 0.136068 0.136719 0.137370 0.138021 0.138672 0.139323 0.139974 0.140625 0.141276 0.141927 0.142578 0.143229 0.143880 0.144531 0.145182 0.145833 0.146484 0.147135 0.147786 0.148438 0.149089 0.149740 0.150391 0.151042 0.151693 0.152344 0.152995 0.153646 0.154297 0.154948 0.155599 0.156250 0.156901 0.157552 0.158203 0.158854 0.159505 0.160156 0.160807 0.161458 0.162109 0.162760 0.163411 0.164062 0.164714 0.165365 0.166016 0.166667 0.167318 0.167969 0.168620 0.169271 0.169922 0.170573 0.171224 0.171875 0.172526 0.173177 0.173828 0.174479 0.175130 0.175781 0.176432 0.177083 0.177734 0.178385 0.179036 0.179688 0.180339 0.180990 0.181641 0.182292 0.182943 0.183594 0.184245 0.184896 0.185547 0.186198 0.186849 0.187500 0.188151 0.188802 0.189453 0.190104 0.190755 0.191406 0.192057 0.192708 0.193359 0.194010 0.194661 0.195312 0.195964 0.196615 0.197266 0.197917 0.198568 0.199219 0.199870 0.200521 0.201172 0.201823 0.202474 0.203125 0.203776 0.204427 0.205078 0.205729 0.206380 0.207031 0.207682 0.208333 0.208984 0.209635 0.210286 0.210938 0.211589 0.212240 0.212891 0.213542 0.214193 0.214844 0.215495 0.216146 0.216797 0.217448 0.218099 0.218750 0.219401 0.220052 0.220703 0.221354 0.222005 0.222656 0.223307 0.223958 0.224609 0.225260 0.225911 0.226562 0.227214 0.227865 0.228516 0.229167 0.229818 0.230469 0.231120 0.231771 0.232422 0.233073 0.233724 0.234375 0.235026 0.235677
       0.31197        0.31197        0.31197        0.31197        0.31197        0.31197        0.31197        0.31197        0.31197        0.31197        0.31197        0.31197        0.31197        0.31197        0.31197        0.31197        0.31197        0.31197        0.31197        0.31197        0.31197        0.31197        0.31197        0.31197        0.31197        0.31197        0.31197        0.31197        0.31197        0.31197        0.31197        0.31197        0.31197        0.31197        0.31197        0.31197        0.31197        0.31197        0.31197        0.31197        0.31197        0.31197        0.31197        0.31197        0.31197        0.31197        0.31197        0.31197        0.31197        0.31197        0.31197        0.63398        0.81921        0.41772        0.31289        0.18790       -0.10488        0.11207       -0.00249        0.03350        0.11817        0.33636        0.42372        0.40601        0.22616       -0.01243        0.04834        0.07055       -0.16947       -0.17989       -0.08623       -0.10694       -0.29318       -0.19026       -0.30136       -0.25549       -0.28606       -0.40384       -0.47521       -0.47916       -0.42424       -0.33881       -0.43928       -0.36786       -0.40928       -0.34981       -0.27619       -0.20129       -0.19343       -0.13671       -0.09317        0.03895        0.08213        0.25166        0.27945        0.36828        0.40421        0.52230        0.59273        0.61070        0.74175        0.70227        0.74329        0.65263        0.66546        0.69576        0.63443        0.61592        0.60847        0.43424        0.40013        0.35712        0.32131        0.22314        0.13035        0.06018        0.05796        0.00097       -0.07983       -0.02970       -0.03135       -0.07091        0.06473        0.16394        0.25439        0.32211        0.33603        0.43134        0.54905        0.59747        0.54674        0.67312        0.56865        0.54428        0.59963        0.64520        0.53432        0.45831        0.40767        0.37661        0.24846        0.21358        0.13112        0.11570        0.05427        0.05443        0.10797        0.16875        0.14444        0.18153        0.22052        0.24024        0.33062        0.45930        0.49432        0.49844        0.51841        0.58022        0.57198        0.52388        0.42847        0.38605        0.36740        0.27147        0.24698        0.21140        0.20547        0.19988        0.17874        0.16167        0.12914        0.19320        0.24909        0.34544        0.38411        0.40867        0.46222        0.53734        0.47717        0.48764        0.42434        0.40110        0.38364        0.36382        0.29034        0.25410        0.19593        0.23327        0.21567        0.18979        0.22086        0.22630        0.23867        0.30048        0.40104        0.40156        0.37474        0.39068        0.45649        0.48720        0.42785        0.35293        0.32522        0.27608        0.26346        0.25058        0.21468        0.28333        0.29362        0.29663        0.31704        0.31242        0.35019        0.37510        0.37243        0.37492        0.35563        0.31719        0.33297        0.31878        0.29640        0.28194        0.27324        0.21804        0.27300        0.27406        0.30047        0.31958        0.34442        0.38026        0.34123        0.31826        0.36336        0.36612        0.26384        0.29362        0.30662        0.24470        0.20807        0.25822        0.27339        0.27731        0.29958        0.30826        0.33829        0.33621        0.36330        0.32632        0.32149        0.30881        0.29765        0.27543        0.25123        0.25505        0.25834        0.27882        0.30220        0.30052        0.30220        0.31207        0.32573        0.26372        0.30266        0.26922        0.26088        0.27802        0.26419        0.26336        0.26617        0.31095        0.28760        0.31741        0.28602        0.27238        0.30925        0.31239        0.33220        0.31518        0.29059        0.25114        0.26258        0.26741        0.26203        0.31363        0.31633        0.33542        0.32044        0.31201        0.25164        0.27920        0.20971        0.20822        0.24944        0.25700        0.25875        0.28552        0.31166        0.29958        0.35458        0.30866        0.25988        0.23662        0.23549        0.29083        0.31520        0.30599        0.26936        0.27925        0.26419        0.32357        0.28440        0.25401        0.26345        0.25716        0.28671        0.24941        0.28416        0.32467        0.29192        0.22238        0.23953        0.28790        0.32159        0.26779        0.26325        0.24151        0.27869        0.29290        0.37813        0.28658        0.27092        0.25798        0.25248        0.22126        0.18340        0.24604        0.22557        0.21090        0.18198        0.19335        0.23718        0.21912        0.23384        0.19748        0.25720        0.22908        0.21117        0.17605        0.16710        0.19803        0.24555        0.13333        0.05992        0.20680        0.18670        0.14313        0.24705        0.15975        0.22684        0.20817       -0.03690       -0.49390       -1.00439
2.829444 2.801637 2.773973 2.746452 2.719073 2.691838 2.664746 2.637797 2.610991 2.584328 2.557808 2.531431 2.505197 2.479107 2.453159 2.427354 2.401692 2.376173 2.350798 2.325565 2.300475 2.275529 2.250725 2.226065 2.201547 2.177173 2.152941 2.128853 2.104908 2.081105 2.057446 2.033930 2.010556 1.987326 1.964239 1.941295 1.918494 1.895836 1.873321 1.850949 1.828720 1.806634 1.784691 1.762891 1.741234 1.719720 1.698350 1.677122 1.656037 1.635095 1.614297 1.905698 2.259982 1.689406 1.731850 1.372904 0.935793 1.192428 1.016824 1.067487 1.024531 1.482426 1.509117 1.530366 1.275898 0.936245 0.819863 1.004844 0.708742 0.488099 0.586054 0.675830 0.420223 0.485117 0.325386 0.371493 0.246213 0.156864 -0.033075 0.003649 0.021178 0.083664 0.039411 0.075977 -0.040481 0.031627 0.112555 0.222428 0.283018 0.209144 0.319498 0.552134 0.446878 0.725254 0.787960 0.869840 0.906792 1.116224 1.143884 1.171501 1.319063 1.233024 1.364594 1.193936 1.107735 1.287079 1.140114 1.047326 1.122519 0.880070 0.738185 0.676960 0.667113 0.458208 0.390493 0.260364 0.228013 0.094735 -0.003457 0.089623 0.029653 -0.063220 0.116180 0.254008 0.308913 0.462444 0.485383 0.553830 0.721153 0.825426 0.663158 0.961171 0.800237 0.664997 0.763306 0.804450 0.715636 0.634150 0.446823 0.501105 0.283065 0.187982 0.143408 0.007876 -0.017336 -0.109167 -0.016319 0.034868 0.084081 -0.043924 0.253803 0.093228 0.215713 0.375990 0.439290 0.533274 0.430976 0.554899 0.662031 0.506799 0.394942 0.339568 0.324414 0.149808 0.143776 0.008659 0.094248 0.026892 -0.001283 -0.025026 -0.111613 -0.005443 0.026990 0.107536 0.295218 0.206350 0.356836 0.370229 0.428149 0.417856 0.391613 0.329239 0.229714 0.304919 0.170698 0.155270 0.002629 0.045171 0.068128 -0.027352 -0.004416 0.022208 0.061235 0.071572 0.217489 0.307393 0.245352 0.207846 0.380242 0.408679 0.352121 0.243776 0.175081 0.147111 0.084199 0.075542 0.031280 0.022228 0.133878 0.059748 0.185024 0.095883 0.143200 0.234827 0.214611 0.236821 0.199536 0.198609 0.113270 0.165284 0.125754 0.094308 0.110464 0.001175 0.035763 0.090800 0.048944 0.145221 0.121552 0.209968 0.211227 0.138476 0.129504 0.233359 0.111794 0.071041 0.083323 0.063518 -0.001877 -0.031257 0.047178 0.070615 0.035905 0.117146 0.113328 0.128489 0.138081 0.176592 0.114227 0.084335 0.103182 0.087941 0.027705 0.015340 0.038195 0.000293 0.075299 0.107956 0.071495 0.073730 0.118580 0.101303 0.019340 0.112316 0.028192 0.029056 0.067510 0.019505 0.020937 0.060504 0.088356 0.029710 0.107150 0.061976 0.022778 0.110090 0.076640 0.091832 0.084544 0.018434 -0.011106 -0.005341 0.038324 0.000162 0.074554 0.090557 0.087341 0.058491 0.137053 -0.025593 0.029005 -0.094482 -0.015391 -0.037315 0.006113 0.017777 0.027965 0.085448 0.064702 0.117900 0.009638 -0.025277 -0.062997 -0.078067 0.066447 0.051713 0.046451 -0.015735 -0.003967 -0.026914 0.064335 0.012340 -0.069684 -0.022494 -0.074149 0.018797 -0.050772 0.014616 0.054490 -0.009292 -0.073606 -0.038040 0.084495 0.039312 0.001554 -0.000596 -0.052902 0.079395 0.074731 0.172239 0.037982 0.011709 0.019405 0.054292 -0.045620 -0.041638 0.048913 0.012268 -0.019263 -0.047125 -0.042273 0.085385 -0.058742 0.059380 0.003503 0.125608 -0.010473 0.064254 -0.095460 -0.022166 -0.046424 0.118629 -0.049526 -0.245260 0.286217 0.259900 0.201016 0.421229 0.190801 0.297202 0.332534 -0.049345 -1.393776
0.072396 0.072834 0.074149 0.076339 0.079404 0.083345 0.088159 0.093846 0.100405 0.107832 0.116126 0.125283 0.135301 0.146174 0.157897 0.170463 0.183866 0.198095 0.213142 0.228993 0.245636 0.263054 0.281230 0.300144 0.319773 0.340093 0.361074 0.382686 0.404893 0.427659 0.450942 0.474694 0.498868 0.523408 0.548256 0.573350 0.598621 0.623996 0.649399 0.674745 0.699946 0.724911 0.749539 0.773728 0.797369 0.820349 0.842548 0.863843 0.884108 0.903211 0.921017 0.937387 0.952181 0.965257 0.976468 0.985672 0.992721 0.997474 0.999789 0.999525 0.996549 0.990731 0.981949 0.970088 0.955043 0.936718 0.915033 0.889917 0.861319 0.829201 0.793547 0.754358 0.711659 0.665498 0.615945 0.563099 0.507084 0.448054 0.386189 0.321704 0.254839 0.185869 0.115096 0.042856 0.030487 0.104541 0.178882 0.253065 0.326618 0.399047 0.469841 0.538471 0.604399 0.667078 0.725959 0.780492 0.830139 0.874372 0.912683 0.944589 0.969641 0.987427 0.997581 0.999790 0.993799 0.979419 0.956533 0.925101 0.885168 0.836864 0.780413 0.716130 0.644433 0.565831 0.480936 0.390454 0.295185 0.196017 0.093923 0.010050 0.114786 0.219116 0.321825 0.421666 0.517380 0.607706 0.691404 0.767269 0.834150 0.890975 0.936763 0.970650 0.991903 0.999940 0.994349 0.974900 0.941557 0.894494 0.834097 0.760972 0.675947 0.580064 0.474582 0.360955 0.240825 0.115999 0.011572 0.139824 0.266611 0.389734 0.506991 0.616206 0.715278 0.802220 0.875208 0.932620 0.973077 0.995484 0.999063 0.983383 0.948385 0.894403 0.822164 0.732804 0.627849 0.509204 0.379130 0.240200 0.095265 0.052606 0.200188 0.344163 0.481200 0.608031 0.721531 0.818803 0.897256 0.954680 0.989322 0.999944 0.985877 0.947059 0.884063 0.798105 0.691039 0.565325 0.423994 0.270581 0.109045 0.056320 0.221000 0.380383 0.529878 0.665067 0.781825 0.876466 0.945860 0.987556 0.999878 0.982005 0.934027 0.856974 0.752819 0.624447 0.475588 0.310733 0.135002 0.045995 0.226337 0.399984 0.560974 0.703636 0.822801 0.913993 0.973621 0.999129 0.989128 0.943485 0.863367 0.751237 0.610814 0.446957 0.265532 0.073206 0.122780 0.314881 0.495535 0.657464 0.793978 0.899263 0.968644 0.998821 0.988039 0.936217 0.844995 0.717726 0.559370 0.376338 0.176253 0.032357 0.240403 0.438635 0.618048 0.770300 0.888123 0.965683 0.998893 0.985665 0.926056 0.822332 0.678922 0.502259 0.300528 0.083310 0.138865 0.354999 0.554190 0.726177 0.861887 0.953935 0.997059 0.988447 0.927957 0.818196 0.664451 0.474482 0.258156 0.026969 0.206550 0.429507 0.629355 0.794618 0.915565 0.984819 0.997835 0.953248 0.853026 0.702449 0.509862 0.286280 0.044763 0.200299 0.434048 0.642059 0.811233 0.930661 0.992353 0.991824 0.928458 0.805650 0.630675 0.414321 0.170256 0.085790 0.337027 0.566702 0.759223 0.901237 0.982603 0.997155 0.943224 0.823864 0.646740 0.423706 0.170055 0.096493 0.356995 0.592640 0.786114 0.922896 0.992403 0.988852 0.911806 0.766328 0.562717 0.315853 0.044150 0.231778 0.490666 0.712238 0.878821 0.976800 0.997781 0.939380 0.805546 0.606377 0.357435 0.078585 0.207549 0.477392 0.708362 0.880798 0.979667 0.995942 0.927499 0.779447 0.563831 0.298745 0.006857 0.286473 0.555379 0.775796 0.927627 0.996650 0.975915 0.866530 0.677719 0.426146 0.134514 0.170424 0.460292 0.707720 0.888967 0.986252 0.989569 0.897811 0.719054 0.469944 0.174242 0.139380 0.440077 0.697864 0.886636
1.000000 1.000000 1.000000 1.000000 1.000000 1.000000 1.000000 1.000000 1.000000 1.000000 1.000000 1.000000 1.000000 1.000000 1.000000 1.000000 1.000000 1.000000 1.000000 1.000000 1.000000 1.000000 1.000000 1.000000 1.000000 1.000000 1.000000 1.000000 1.000000 1.000000 1.000000 1.000000 1.000000 1.000000 1.000000 1.000000 1.000000 1.000000 1.000000 1.000000 1.000000 1.000000 1.000000 1.000000 1.000000 1.000000 1.000000 1.000000 1.000000 1.000000 1.000000 1.000000 0.833419 0.833419 0.833419 0.833419 0.833419 0.833419 0.833419 0.815501 0.815501 0.815501 0.815501 0.815501 0.815501 0.815501 0.815501 0.815501 0.815501 0.815501 0.815501 0.815501 0.815501 0.815501 0.815501 0.815501 0.815501 0.815501 0.815501 0.815501 0.815501 0.815501 0.815501 0.815501 0.815501 0.815501 0.815501 0.815501 0.815501 0.815501 0.815501 0.815501 0.815501 0.815501 0.815501 0.815501 0.815501 0.815501 0.815501 0.815501 0.815501 0.815501 0.815501 0.952364 0.953016 0.950080 0.948973 0.947269 0.943982 0.939633 0.939190 0.940546 0.940750 0.941370 0.943477 0.944469 0.946107 0.947287 0.948113 0.948928 0.957044 0.960744 0.961278 0.960933 0.951505 0.958246 0.957412 0.955159 0.955946 0.956243 0.956951 0.956831 0.956665 0.956150 0.954837 0.955564 0.955403 0.954661 0.953611 0.951314 0.951268 0.950814 0.950945 0.951914 0.952621 0.953277 0.953805 0.953783 0.953968 0.953954 0.953855 0.948951 0.948977 0.942337 0.942953 0.944066 0.943707 0.942624 0.941165 0.941225 0.941103 0.941030 0.940855 0.941076 0.921368 0.920826 0.920852 0.920988 0.913431 0.902321 0.894767 0.888513 0.889480 0.893759 0.898761 0.899396 0.896574 0.895610 0.879881 0.876771 0.863275 0.860165 0.848771 0.859289 0.860322 0.861552 0.853964 0.853285 0.851847 0.850011 0.841445 0.845853 0.846283 0.842327 0.838320 0.836690 0.834749 0.837098 0.845769 0.843178 0.839284 0.841416 0.829178 0.819965 0.818916 0.820929 0.828785 0.841126 0.840705 0.839911 0.833638 0.829979 0.823766 0.818376 0.817902 0.819521 0.817693 0.821233 0.819706 0.828305 0.818310 0.812635 0.817636 0.827222 0.831494 0.833909 0.836480 0.834434 0.836910 0.822368 0.823692 0.825022 0.774796 0.773959 0.763924 0.763550 0.744991 0.744474 0.739583 0.735922 0.725410 0.710832 0.721847 0.722882 0.695995 0.704680 0.699520 0.687467 0.666418 0.675018 0.689424 0.698731 0.697828 0.696197 0.685097 0.684146 0.693072 0.692211 0.697723 0.688829 0.685305 0.678431 0.682309 0.671628 0.671900 0.670426 0.669786 0.669990 0.666366 0.649311 0.657316 0.649088 0.639042 0.629937 0.596689 0.563630 0.550135 0.541766 0.522720 0.501231 0.518392 0.526837 0.505964 0.496912 0.478458 0.442713 0.438204 0.436842 0.417231 0.403454 0.385317 0.341458 0.352221 0.350555 0.352278 0.337862 0.344762 0.330123 0.286825 0.275466 0.239858 0.257008 0.278297 0.272379 0.250745 0.245272 0.257246 0.244453 0.252155 0.250464 0.266448 0.220553 0.163098 0.174603 0.173889 0.182068 0.165796 0.138200 0.166170 0.153682 0.166658 0.170663 0.120995 0.090020 0.070082 0.048600 0.053474 0.078076 0.093393 0.084545 0.068267 -0.024545 0.008190 0.032769 0.032769 0.032769 0.032769 0.032769 0.032769 0.032769 0.032769 0.032769 0.032769 0.032769 -0.026716 -0.026716 -0.026716 -0.026716 -0.026716 -0.026716 -0.026716 -0.026716 -0.026716 -0.026716 -0.026716 -0.026716 -0.026716 -0.026716 -0.026716 -0.026716 -0.026716 -0.026716 -0.026716
0.000000 0.000000 0.000000 0.000000 0.000000 0.000000 0.000000 0.000000 0.000000 0.000000 0.000000 0.000000 0.000000 0.000000 0.000000 0.000000 0.000000 0.000000 0.000000 0.000000 0.000000 0.000000 0.000000 0.000000 0.000000 0.000000 0.000000 0.000000 0.000000 0.000000 0.000000 0.000000 0.000000 0.000000 0.000000 0.000000 0.000000 0.000000 0.000000 0.000000 0.000000 0.000000 0.000000 0.000000 0.000000 0.000000 0.000000 0.000000 0.000000 0.000000 0.000000 0.000000 0.173422 0.173422 0.173422 0.173422 0.173422 0.173422 0.173422 0.191565 0.191565 0.191565 0.191565 0.191565 0.191565 0.191565 0.191565 0.191565 0.191565 0.191565 0.191565 0.191565 0.191565 0.191565 0.191565 0.191565 0.191565 0.191565 0.191565 0.191565 0.191565 0.191565 0.191565 0.191565 0.191565 0.191565 0.191565 0.191565 0.191565 0.191565 0.191565 0.191565 0.191565 0.191565 0.191565 0.191565 0.191565 0.191565 0.191565 0.191565 0.191565 0.191565 0.191565 0.219529 0.219529 0.219529 0.219529 0.219529 0.219529 0.219529 0.219529 0.219529 0.219529 0.219529 0.219529 0.219529 0.219529 0.219529 0.219529 0.219529 0.219529 0.219529 0.219529 0.219529 0.219529 0.219529 0.219529 0.219529 0.219529 0.219529 0.219529 0.219529 0.219529 0.219529 0.237356 0.237356 0.237356 0.237356 0.237356 0.237356 0.237356 0.237356 0.237356 0.237356 0.237356 0.237356 0.237356 0.237356 0.237356 0.237356 0.237356 0.237356 0.237356 0.237356 0.237356 0.237356 0.237356 0.237356 0.244339 0.244339 0.244339 0.244339 0.244339 0.244339 0.244339 0.244339 0.244339 0.244339 0.244339 0.244339 0.244339 0.244339 0.244339 0.244339 0.244339 0.244339 0.244339 0.244339 0.244339 0.248069 0.248069 0.248069 0.248069 0.248069 0.248069 0.248069 0.248069 0.248069 0.248069 0.248069 0.248069 0.248069 0.248069 0.248069 0.248069 0.248069 0.248069 0.248069 0.248069 0.248069 0.248069 0.248069 0.248069 0.248069 0.248069 0.248069 0.248069 0.248069 0.248069 0.248069 0.248069 0.248069 0.248069 0.248069 0.248069 0.248069 0.256074 0.256074 0.256074 0.256074 0.256074 0.256074 0.256074 0.256074 0.256074 0.256074 0.256074 0.256074 0.256074 0.256074 0.256074 0.256074 0.256074 0.256074 0.256074 0.256074 0.256074 0.256074 0.256074 0.256074 0.256074 0.256074 0.256074 0.256074 0.256074 0.256074 0.256074 0.256074 0.256074 0.256074 0.256074 0.256074 0.256074 0.256074 0.256074 0.256074 0.256074 0.256074 0.256074 0.256074 0.256074 0.260378 0.260378 0.260378 0.260378 0.260378 0.260378 0.260378 0.260378 0.260378 0.260378 0.260378 0.260378 0.260378 0.256074 0.256074 0.256074 0.256074 0.256074 0.256074 0.256074 0.256074 0.256074 0.256074 0.256074 0.256074 0.256074 0.260378 0.260378 0.260378 0.260378 0.260378 0.260378 0.260378 0.260378 0.260378 0.260378 0.260378 0.260378 0.251976 0.251976 0.251976 0.251976 0.251976 0.251976 0.251976 0.251976 0.251976 0.251976 0.251976 0.251976 0.256074 0.256074 0.256074 0.256074 0.256074 0.256074 0.256074 0.256074 0.256074 0.256074 0.256074 0.251976 0.251976 0.251976 0.251976 0.251976 0.251976 0.251976 0.251976 0.251976 0.251976 0.251976 0.248069 0.248069 0.248069 0.248069 0.248069 0.248069 0.248069 0.248069 0.248069 0.248069 0.248069 0.256074 0.256074 0.256074 0.256074 0.256074 0.256074 0.256074 0.256074 0.256074 0.256074 0.256074 0.256074 0.256074 0.256074 0.256074 0.256074 0.256074 0.256074 0.256074
