# Output from CTFFind version 4.1.9, run on 2019-11-03 20:06:02
# Input file: stack6_bm3d_averaged_1_7.5_0_1000_half.mrc ; Number of micrographs: 1
# Pixel size: 3.000 Angstroms ; acceleration voltage: 300.0 keV ; spherical aberration: 0.00 mm ; amplitude contrast: 0.07
# Box size: 512 pixels ; min. res.: 30.0 Angstroms ; max. res.: 5.0 Angstroms ; min. def.: 5000.0 um; max. def. 50000.0 um; num. frames averaged: 1
# 6 lines per micrograph: #1 - spatial frequency (1/Angstroms); #2 - 1D rotational average of spectrum (assuming no astigmatism); #3 - 1D rotational average of spectrum; #4 - CTF fit; #5 - cross-correlation between spectrum and CTF fit; #6 - 2sigma of expected cross correlation of noise
0.000000 0.000651 0.001302 0.001953 0.002604 0.003255 0.003906 0.004557 0.005208 0.005859 0.006510 0.007161 0.007812 0.008464 0.009115 0.009766 0.010417 0.011068 0.011719 0.012370 0.013021 0.013672 0.014323 0.014974 0.015625 0.016276 0.016927 0.017578 0.018229 0.018880 0.019531 0.020182 0.020833 0.021484 0.022135 0.022786 0.023438 0.024089 0.024740 0.025391 0.026042 0.026693 0.027344 0.027995 0.028646 0.029297 0.029948 0.030599 0.031250 0.031901 0.032552 0.033203 0.033854 0.034505 0.035156 0.035807 0.036458 0.037109 0.037760 0.038411 0.039062 0.039714 0.040365 0.041016 0.041667 0.042318 0.042969 0.043620 0.044271 0.044922 0.045573 0.046224 0.046875 0.047526 0.048177 0.048828 0.049479 0.050130 0.050781 0.051432 0.052083 0.052734 0.053385 0.054036 0.054688 0.055339 0.055990 0.056641 0.057292 0.057943 0.058594 0.059245 0.059896 0.060547 0.061198 0.061849 0.062500 0.063151 0.063802 0.064453 0.065104 0.065755 0.066406 0.067057 0.067708 0.068359 0.069010 0.069661 0.070312 0.070964 0.071615 0.072266 0.072917 0.073568 0.074219 0.074870 0.075521 0.076172 0.076823 0.077474 0.078125 0.078776 0.079427 0.080078 0.080729 0.081380 0.082031 0.082682 0.083333 0.083984 0.084635 0.085286 0.085938 0.086589 0.087240 0.087891 0.088542 0.089193 0.089844 0.090495 0.091146 0.091797 0.092448 0.093099 0.093750 0.094401 0.095052 0.095703 0.096354 0.097005 0.097656 0.098307 0.098958 0.099609 0.100260 0.100911 0.101562 0.102214 0.102865 0.103516 0.104167 0.104818 0.105469 0.106120 0.106771 0.107422 0.108073 0.108724 0.109375 0.110026 0.110677 0.111328 0.111979 0.112630 0.113281 0.113932 0.114583 0.115234 0.115885 0.116536 0.117188 0.117839 0.118490 0.119141 0.119792 0.120443 0.121094 0.121745 0.122396 0.123047 0.123698 0.124349 0.125000 0.125651 0.126302 0.126953 0.127604 0.128255 0.128906 0.129557 0.130208 0.130859 0.131510 0.132161 0.132812 0.133464 0.134115 0.134766 0.135417 0.136068 0.136719 0.137370 0.138021 0.138672 0.139323 0.139974 0.140625 0.141276 0.141927 0.142578 0.143229 0.143880 0.144531 0.145182 0.145833 0.146484 0.147135 0.147786 0.148438 0.149089 0.149740 0.150391 0.151042 0.151693 0.152344 0.152995 0.153646 0.154297 0.154948 0.155599 0.156250 0.156901 0.157552 0.158203 0.158854 0.159505 0.160156 0.160807 0.161458 0.162109 0.162760 0.163411 0.164062 0.164714 0.165365 0.166016 0.166667 0.167318 0.167969 0.168620 0.169271 0.169922 0.170573 0.171224 0.171875 0.172526 0.173177 0.173828 0.174479 0.175130 0.175781 0.176432 0.177083 0.177734 0.178385 0.179036 0.179688 0.180339 0.180990 0.181641 0.182292 0.182943 0.183594 0.184245 0.184896 0.185547 0.186198 0.186849 0.187500 0.188151 0.188802 0.189453 0.190104 0.190755 0.191406 0.192057 0.192708 0.193359 0.194010 0.194661 0.195312 0.195964 0.196615 0.197266 0.197917 0.198568 0.199219 0.199870 0.200521 0.201172 0.201823 0.202474 0.203125 0.203776 0.204427 0.205078 0.205729 0.206380 0.207031 0.207682 0.208333 0.208984 0.209635 0.210286 0.210938 0.211589 0.212240 0.212891 0.213542 0.214193 0.214844 0.215495 0.216146 0.216797 0.217448 0.218099 0.218750 0.219401 0.220052 0.220703 0.221354 0.222005 0.222656 0.223307 0.223958 0.224609 0.225260 0.225911 0.226562 0.227214 0.227865 0.228516 0.229167 0.229818 0.230469 0.231120 0.231771 0.232422 0.233073 0.233724 0.234375 0.235026 0.235677
       0.33348        0.33348        0.33348        0.33348        0.33348        0.33348        0.33348        0.33348        0.33348        0.33348        0.33348        0.33348        0.33348        0.33348        0.33348        0.33348        0.33348        0.33348        0.33348        0.33348        0.33348        0.33348        0.33348        0.33348        0.33348        0.33348        0.33348        0.33348        0.33348        0.33348        0.33348        0.33348        0.33348        0.33348        0.33348        0.33348        0.33348        0.33348        0.33348        0.33348        0.33348        0.33348        0.33348        0.33348        0.33348        0.33348        0.33348        0.33348        0.33348        0.33348        0.33348        0.59590        0.70837        0.36623        0.17238        0.14011       -0.12767        0.11322        0.04193        0.04423        0.09409        0.30995        0.30657        0.23591        0.14194       -0.03704       -0.00928        0.05274       -0.08765       -0.09426       -0.06783       -0.07376       -0.17123       -0.10846       -0.21755       -0.23683       -0.23529       -0.29324       -0.36357       -0.29225       -0.20144       -0.16545       -0.27302       -0.19861       -0.23769       -0.17892       -0.12026       -0.06147       -0.03380        0.02111        0.07032        0.15265        0.19359        0.23602        0.34741        0.41225        0.36233        0.48478        0.54579        0.55418        0.62979        0.55379        0.58396        0.60492        0.60458        0.59351        0.56032        0.59741        0.54154        0.39976        0.35611        0.37853        0.34449        0.21376        0.20601        0.17555        0.11882        0.11625        0.04479        0.11267        0.09007        0.05805        0.13848        0.19287        0.27918        0.34915        0.36751        0.40012        0.44917        0.48175        0.42334        0.63701        0.55094        0.48228        0.56964        0.50422        0.55980        0.51788        0.39208        0.33011        0.31643        0.27103        0.26088        0.21682        0.19914        0.17801        0.26995        0.24804        0.26636        0.23732        0.27604        0.33992        0.33884        0.45098        0.44658        0.43376        0.41870        0.48288        0.43671        0.41672        0.40887        0.39731        0.33690        0.28406        0.28526        0.27316        0.27155        0.21682        0.20694        0.25436        0.27145        0.29147        0.35187        0.38772        0.42810        0.41845        0.42981        0.49249        0.47618        0.43084        0.38317        0.41911        0.38347        0.33193        0.34167        0.33295        0.27517        0.28572        0.28204        0.25886        0.32225        0.30176        0.32089        0.34091        0.40056        0.42396        0.41363        0.44249        0.39224        0.43505        0.40834        0.33725        0.30251        0.27837        0.28851        0.26109        0.22988        0.31585        0.37881        0.34025        0.31267        0.36852        0.29543        0.35386        0.40496        0.38977        0.36672        0.38032        0.34982        0.36432        0.33618        0.30894        0.28989        0.27247        0.32386        0.33532        0.35532        0.36959        0.39126        0.37308        0.36878        0.32825        0.35845        0.36687        0.34726        0.33097        0.29162        0.29022        0.27314        0.34227        0.33818        0.35170        0.32047        0.35151        0.37491        0.34057        0.35831        0.35139        0.31700        0.31416        0.31112        0.28437        0.27512        0.26546        0.25631        0.27705        0.26982        0.30550        0.27633        0.31816        0.36299        0.26545        0.29705        0.28401        0.25189        0.30682        0.28926        0.29036        0.31681        0.33075        0.33162        0.31879        0.31771        0.31482        0.36531        0.36151        0.30439        0.32842        0.32041        0.37071        0.28109        0.28029        0.29800        0.30823        0.33417        0.36892        0.35911        0.29803        0.23401        0.29926        0.27013        0.26085        0.26242        0.27877        0.31173        0.24114        0.30817        0.33453        0.36920        0.31116        0.31897        0.28674        0.29609        0.29223        0.26956        0.29200        0.27136        0.28571        0.35367        0.35049        0.28588        0.32763        0.33067        0.26269        0.23172        0.18994        0.33415        0.32884        0.36215        0.34785        0.29390        0.23256        0.22192        0.27981        0.27337        0.27241        0.29577        0.29415        0.24812        0.28457        0.28592        0.31022        0.28373        0.28164        0.27621        0.24727        0.23546        0.29171        0.25229        0.21659        0.26081        0.25909        0.26418        0.22677        0.20652        0.27350        0.30621        0.28108        0.20491        0.14760        0.28782        0.22679        0.26156        0.27506        0.16717        0.16205        0.20504        0.24219        0.30485        0.09140       -0.11920       -0.61178       -0.97176
2.432676 2.412067 2.391549 2.371123 2.350788 2.330544 2.310391 2.290330 2.270360 2.250481 2.230693 2.210996 2.191390 2.171876 2.152453 2.133120 2.113880 2.094730 2.075672 2.056704 2.037828 2.019043 2.000350 1.981747 1.963236 1.944816 1.926487 1.908249 1.890102 1.872047 1.854083 1.836210 1.818428 1.800737 1.783138 1.765629 1.748212 1.730886 1.713652 1.696508 1.679456 1.662495 1.645625 1.628846 1.612159 1.595562 1.579057 1.562643 1.546320 1.530088 1.513948 1.871604 2.214206 1.537963 1.332057 1.107797 0.519698 0.937602 0.803773 0.848267 0.701526 1.429762 1.195765 1.213220 0.989246 0.595105 0.469941 0.748902 0.606126 0.285727 0.270772 0.488933 0.249832 0.267566 0.110806 -0.001889 -0.016470 -0.008991 -0.321473 -0.141467 0.013886 0.012914 -0.080102 -0.013423 -0.102808 -0.081466 0.069622 0.200308 0.262212 0.282117 0.389807 0.635238 0.565463 0.673174 0.830956 1.067521 0.808176 1.275404 1.199219 1.276393 1.375647 1.266605 1.163596 1.380879 1.243160 1.348872 1.210222 1.212687 1.225879 0.967028 0.720631 0.752156 0.799213 0.483644 0.452174 0.374199 0.243007 0.198637 0.034871 0.238699 0.176440 0.063493 0.144465 0.241118 0.366996 0.608541 0.611998 0.634338 0.698340 0.882254 0.596095 1.030192 1.057539 0.777311 0.928629 0.772919 0.893076 0.922945 0.655006 0.410382 0.441436 0.390390 0.223497 0.248108 0.161898 -0.015011 0.255908 0.237227 0.263460 0.159723 0.248578 0.335287 0.276519 0.502782 0.604684 0.558723 0.368068 0.650085 0.563114 0.416165 0.544021 0.434241 0.266145 0.310783 0.140535 0.217062 0.025151 0.215984 -0.053458 0.057859 0.067562 0.259930 0.046935 0.400160 0.351668 0.406263 0.379798 0.420504 0.592954 0.410682 0.343853 0.398728 0.196587 0.364903 0.105804 0.268457 0.064589 0.089739 0.079890 0.061281 0.045608 0.157974 0.056876 0.159366 0.242311 0.287328 0.329684 0.263909 0.345280 0.264060 0.293817 0.188682 0.104617 0.019341 -0.006409 0.017187 -0.062846 -0.072220 0.127719 0.219593 0.052321 0.108471 0.131714 0.007879 0.192524 0.260817 0.188622 0.178744 0.129356 0.170396 0.104383 0.096022 0.045926 -0.087370 -0.000276 0.132562 0.056511 0.155887 0.137065 0.222046 0.177565 0.151347 0.107159 0.187563 0.100610 0.145512 0.090328 0.006017 -0.012063 -0.013384 0.128588 0.121572 0.133103 0.060240 0.152104 0.165411 0.043413 0.145701 0.054638 -0.009227 0.028213 0.008365 -0.060198 -0.060823 -0.117716 -0.049249 -0.052483 -0.098647 0.009249 -0.051875 0.043604 0.105137 -0.116029 0.020860 -0.052554 -0.095354 0.050998 -0.021945 -0.060189 0.044726 0.100812 0.031134 0.058127 -0.045447 0.026156 0.208379 0.011548 -0.050288 0.079100 0.040650 0.111459 -0.113089 -0.047875 -0.004481 0.042951 0.060955 0.103741 0.130719 -0.052217 -0.111320 0.009079 -0.062300 -0.065503 -0.046886 -0.043352 0.055649 -0.175694 0.129985 0.135556 0.185294 0.038003 0.060989 0.036798 0.031157 0.096690 -0.021655 0.042102 0.011491 0.051695 0.145806 0.193372 0.043783 0.170780 0.168819 -0.040185 -0.010563 -0.160157 0.240309 0.133457 0.216387 0.175742 0.027925 -0.061871 -0.091813 0.021487 0.012183 -0.020049 0.051921 0.048547 -0.081035 0.018846 0.114719 0.067610 0.035627 0.005217 0.056542 -0.112307 -0.012517 0.059756 -0.035771 -0.125893 0.034067 -0.013817 -0.042808 -0.041918 -0.122656 0.081356 0.120540 -0.005706 -0.095448 -0.352026 0.173089 0.510581 0.456907 0.577650 0.261986 0.323518 0.419486 0.511033 0.586222 0.032706 0.011008 -0.940098
0.072396 0.072838 0.074163 0.076371 0.079462 0.083435 0.088289 0.094022 0.100634 0.108122 0.116484 0.125716 0.135815 0.146776 0.158594 0.171262 0.184772 0.199116 0.214282 0.230259 0.247032 0.264586 0.282903 0.301961 0.321739 0.342209 0.363344 0.385111 0.407474 0.430396 0.453833 0.477738 0.502061 0.526747 0.551735 0.576960 0.602354 0.627843 0.653346 0.678779 0.704051 0.729069 0.753731 0.777931 0.801559 0.824499 0.846629 0.867825 0.887956 0.906890 0.924488 0.940610 0.955112 0.967851 0.978680 0.987451 0.994019 0.998237 0.999964 0.999060 0.995388 0.988821 0.979236 0.966518 0.950564 0.931282 0.908590 0.882425 0.852736 0.819493 0.782682 0.742313 0.698416 0.651047 0.600285 0.546238 0.489041 0.428857 0.365881 0.300336 0.232478 0.162594 0.091002 0.018050 0.055883 0.130388 0.205031 0.279348 0.352856 0.425047 0.495396 0.563366 0.628407 0.689964 0.747479 0.800402 0.848190 0.890315 0.926273 0.955588 0.977820 0.992569 0.999485 0.998277 0.988713 0.970632 0.943948 0.908657 0.864842 0.812675 0.752424 0.684454 0.609231 0.527317 0.439375 0.346165 0.248540 0.147440 0.043885 0.061028 0.166143 0.270251 0.372106 0.470437 0.563965 0.651424 0.731572 0.803218 0.865233 0.916578 0.956321 0.983654 0.997916 0.998607 0.985407 0.958192 0.917039 0.862242 0.794319 0.714007 0.622269 0.520285 0.409446 0.291336 0.167716 0.040506 0.088250 0.216406 0.341757 0.462066 0.575119 0.678750 0.770902 0.849658 0.913296 0.960323 0.989521 0.999980 0.991137 0.962795 0.915150 0.848800 0.764752 0.664419 0.549605 0.422480 0.285552 0.141622 0.006269 0.154897 0.300927 0.440980 0.571721 0.689935 0.792613 0.877034 0.940842 0.982127 0.999484 0.992074 0.959665 0.902665 0.822136 0.719788 0.597962 0.459586 0.308120 0.147478 0.018066 0.183983 0.345614 0.498297 0.637510 0.759000 0.858929 0.934004 0.981593 0.999836 0.987727 0.945176 0.873050 0.773168 0.648289 0.502048 0.338864 0.163824 0.017463 0.199040 0.374797 0.538674 0.684877 0.808085 0.903659 0.967832 0.997874 0.992225 0.950588 0.873990 0.764777 0.626575 0.464192 0.283467 0.091080 0.105682 0.299199 0.481803 0.646095 0.785242 0.893285 0.965408 0.998170 0.989698 0.939809 0.850073 0.723801 0.565943 0.382939 0.182460 0.026882 0.235900 0.435226 0.615737 0.768976 0.887568 0.965597 0.998919 0.985421 0.925170 0.820481 0.675864 0.497862 0.294798 0.076395 0.146661 0.363236 0.562304 0.733521 0.867767 0.957665 0.998014 0.986118 0.922006 0.808499 0.651135 0.457938 0.239048 0.006209 0.227834 0.450029 0.647754 0.809529 0.925727 0.989163 0.995583 0.943987 0.836772 0.679681 0.481538 0.253798 0.009912 0.235431 0.467203 0.670938 0.833664 0.944749 0.996643 0.985427 0.911160 0.777971 0.593885 0.370404 0.121820 0.135662 0.384967 0.609279 0.793179 0.923751 0.991510 0.991152 0.922021 0.788260 0.598637 0.366026 0.106581 0.161341 0.418481 0.646035 0.827068 0.947796 0.998685 0.975268 0.878586 0.715243 0.497021 0.240102 0.036101 0.310362 0.561273 0.768927 0.916516 0.991754 0.987952 0.904681 0.747947 0.529842 0.267673 0.017345 0.301778 0.561874 0.775578 0.924413 0.995148 0.981031 0.882517 0.707374 0.470168 0.191118 0.105567 0.393759 0.647693 0.844311 0.965377 0.999256 0.942097 0.798357 0.580554 0.308267 0.006448 0.296823 0.572914 0.795383 0.942524 0.999570 0.960250 0.827572 0.613716 0.339009 0.030078 0.282680 0.568056 0.797160 0.946401 0.999962
1.000000 1.000000 1.000000 1.000000 1.000000 1.000000 1.000000 1.000000 1.000000 1.000000 1.000000 1.000000 1.000000 1.000000 1.000000 1.000000 1.000000 1.000000 1.000000 1.000000 1.000000 1.000000 1.000000 1.000000 1.000000 1.000000 1.000000 1.000000 1.000000 1.000000 1.000000 1.000000 1.000000 1.000000 1.000000 1.000000 1.000000 1.000000 1.000000 1.000000 1.000000 1.000000 1.000000 1.000000 1.000000 1.000000 1.000000 1.000000 1.000000 1.000000 1.000000 1.000000 0.769528 0.769528 0.769528 0.769528 0.769528 0.769528 0.769528 0.757781 0.757781 0.757781 0.757781 0.757781 0.757781 0.757781 0.757781 0.757781 0.757781 0.757781 0.757781 0.757781 0.757781 0.757781 0.757781 0.757781 0.757781 0.757781 0.757781 0.757781 0.757781 0.757781 0.757781 0.757781 0.757781 0.757781 0.757781 0.757781 0.757781 0.757781 0.757781 0.757781 0.757781 0.757781 0.757781 0.757781 0.757781 0.757781 0.757781 0.757781 0.757781 0.757781 0.757781 0.900546 0.902009 0.905057 0.900472 0.902401 0.897181 0.890698 0.892094 0.893822 0.893628 0.894452 0.896154 0.898211 0.905557 0.914479 0.916396 0.923322 0.926710 0.926672 0.928139 0.926663 0.934081 0.931454 0.929656 0.917728 0.921277 0.923252 0.922278 0.921121 0.917970 0.923618 0.922215 0.920107 0.914796 0.910826 0.908850 0.910486 0.908207 0.908798 0.908985 0.909938 0.908113 0.908911 0.905060 0.906018 0.904924 0.901378 0.898464 0.898230 0.899696 0.897995 0.894575 0.888152 0.894036 0.894128 0.893298 0.892212 0.892423 0.893218 0.894000 0.894679 0.892238 0.892292 0.889723 0.891492 0.888071 0.883395 0.877347 0.877759 0.880297 0.887478 0.889596 0.888190 0.885267 0.876732 0.866066 0.863630 0.852246 0.822425 0.824460 0.827655 0.829636 0.829958 0.828912 0.825107 0.821018 0.813126 0.804371 0.809134 0.809610 0.802477 0.798588 0.799514 0.800363 0.807719 0.811437 0.803276 0.799960 0.802159 0.798154 0.799317 0.803322 0.796038 0.793239 0.800211 0.808326 0.808286 0.792783 0.788552 0.785989 0.774040 0.781224 0.787741 0.786743 0.788186 0.785177 0.773331 0.772021 0.765400 0.776290 0.783302 0.782588 0.777592 0.760838 0.717225 0.702353 0.667601 0.665583 0.667197 0.633448 0.633718 0.635175 0.639117 0.582417 0.558564 0.544317 0.545377 0.554626 0.559774 0.553279 0.526788 0.544125 0.540370 0.525816 0.521751 0.503927 0.490668 0.473770 0.476205 0.475403 0.468102 0.436336 0.438131 0.458253 0.467383 0.462414 0.458474 0.430815 0.410503 0.409925 0.402042 0.401737 0.408175 0.416626 0.358619 0.335583 0.322326 0.351039 0.348689 0.346829 0.366115 0.358823 0.352189 0.326971 0.306367 0.275289 0.287977 0.308653 0.311898 0.315334 0.284132 0.275335 0.260481 0.264467 0.309587 0.299234 0.322707 0.328652 0.333669 0.357846 0.331196 0.307793 0.286374 0.329164 0.338287 0.307543 0.302509 0.316990 0.329656 0.328557 0.324393 0.319365 0.365810 0.368071 0.345969 0.346147 0.313512 0.332634 0.362988 0.361283 0.367652 0.377599 0.384104 0.346021 0.268727 0.239115 0.242695 0.219675 0.219661 0.206100 0.191103 0.183134 0.195560 0.217098 0.223141 0.255003 0.223248 0.177376 0.087453 0.153913 0.070312 0.085724 0.085724 0.085724 0.085724 0.085724 0.085724 0.085724 0.085724 0.123264 0.123264 0.123264 0.123264 0.123264 0.123264 0.123264 0.123264 0.123264 0.123264 0.123264 0.123264 0.123264 0.123264 0.123264 0.123264 0.123264 0.123264 0.123264 0.123264 0.123264
0.000000 0.000000 0.000000 0.000000 0.000000 0.000000 0.000000 0.000000 0.000000 0.000000 0.000000 0.000000 0.000000 0.000000 0.000000 0.000000 0.000000 0.000000 0.000000 0.000000 0.000000 0.000000 0.000000 0.000000 0.000000 0.000000 0.000000 0.000000 0.000000 0.000000 0.000000 0.000000 0.000000 0.000000 0.000000 0.000000 0.000000 0.000000 0.000000 0.000000 0.000000 0.000000 0.000000 0.000000 0.000000 0.000000 0.000000 0.000000 0.000000 0.000000 0.000000 0.000000 0.173422 0.173422 0.173422 0.173422 0.173422 0.173422 0.173422 0.191565 0.191565 0.191565 0.191565 0.191565 0.191565 0.191565 0.191565 0.191565 0.191565 0.191565 0.191565 0.191565 0.191565 0.191565 0.191565 0.191565 0.191565 0.191565 0.191565 0.191565 0.191565 0.191565 0.191565 0.191565 0.191565 0.191565 0.191565 0.191565 0.191565 0.191565 0.191565 0.191565 0.191565 0.191565 0.191565 0.191565 0.191565 0.191565 0.191565 0.191565 0.191565 0.191565 0.191565 0.222222 0.222222 0.222222 0.222222 0.222222 0.222222 0.222222 0.222222 0.222222 0.222222 0.222222 0.222222 0.222222 0.222222 0.222222 0.222222 0.222222 0.222222 0.222222 0.222222 0.222222 0.222222 0.222222 0.222222 0.222222 0.222222 0.222222 0.222222 0.222222 0.222222 0.234082 0.234082 0.234082 0.234082 0.234082 0.234082 0.234082 0.234082 0.234082 0.234082 0.234082 0.234082 0.234082 0.234082 0.234082 0.234082 0.234082 0.234082 0.234082 0.234082 0.234082 0.234082 0.234082 0.234082 0.234082 0.244339 0.244339 0.244339 0.244339 0.244339 0.244339 0.244339 0.244339 0.244339 0.244339 0.244339 0.244339 0.244339 0.244339 0.244339 0.244339 0.244339 0.244339 0.244339 0.244339 0.244339 0.248069 0.248069 0.248069 0.248069 0.248069 0.248069 0.248069 0.248069 0.248069 0.248069 0.248069 0.248069 0.248069 0.248069 0.248069 0.248069 0.248069 0.248069 0.248069 0.256074 0.256074 0.256074 0.256074 0.256074 0.256074 0.256074 0.256074 0.256074 0.256074 0.256074 0.256074 0.256074 0.256074 0.256074 0.256074 0.256074 0.256074 0.256074 0.256074 0.256074 0.256074 0.256074 0.256074 0.256074 0.256074 0.256074 0.256074 0.256074 0.256074 0.256074 0.256074 0.256074 0.256074 0.256074 0.256074 0.256074 0.256074 0.256074 0.256074 0.256074 0.256074 0.256074 0.256074 0.256074 0.256074 0.256074 0.256074 0.256074 0.256074 0.256074 0.256074 0.256074 0.256074 0.256074 0.256074 0.256074 0.256074 0.256074 0.256074 0.256074 0.256074 0.260378 0.260378 0.260378 0.260378 0.260378 0.260378 0.260378 0.260378 0.260378 0.260378 0.260378 0.260378 0.260378 0.256074 0.256074 0.256074 0.256074 0.256074 0.256074 0.256074 0.256074 0.256074 0.256074 0.256074 0.256074 0.256074 0.260378 0.260378 0.260378 0.260378 0.260378 0.260378 0.260378 0.260378 0.260378 0.260378 0.260378 0.260378 0.251976 0.251976 0.251976 0.251976 0.251976 0.251976 0.251976 0.251976 0.251976 0.251976 0.251976 0.251976 0.256074 0.256074 0.256074 0.256074 0.256074 0.256074 0.256074 0.256074 0.256074 0.256074 0.256074 0.251976 0.251976 0.251976 0.251976 0.251976 0.251976 0.251976 0.251976 0.251976 0.251976 0.251976 0.260378 0.260378 0.260378 0.260378 0.260378 0.260378 0.260378 0.260378 0.260378 0.260378 0.244339 0.244339 0.244339 0.244339 0.244339 0.244339 0.244339 0.244339 0.244339 0.244339 0.244339 0.244339 0.244339 0.244339 0.244339 0.244339 0.244339 0.244339 0.244339 0.244339 0.244339
