# Output from CTFFind version 4.1.9, run on 2019-11-03 19:38:51
# Input file: stack11_bm3d_averaged_1_4.75_0_250_half.mrc ; Number of micrographs: 1
# Pixel size: 3.000 Angstroms ; acceleration voltage: 300.0 keV ; spherical aberration: 0.00 mm ; amplitude contrast: 0.07
# Box size: 512 pixels ; min. res.: 30.0 Angstroms ; max. res.: 5.0 Angstroms ; min. def.: 5000.0 um; max. def. 50000.0 um; num. frames averaged: 1
# 6 lines per micrograph: #1 - spatial frequency (1/Angstroms); #2 - 1D rotational average of spectrum (assuming no astigmatism); #3 - 1D rotational average of spectrum; #4 - CTF fit; #5 - cross-correlation between spectrum and CTF fit; #6 - 2sigma of expected cross correlation of noise
0.000000 0.000651 0.001302 0.001953 0.002604 0.003255 0.003906 0.004557 0.005208 0.005859 0.006510 0.007161 0.007812 0.008464 0.009115 0.009766 0.010417 0.011068 0.011719 0.012370 0.013021 0.013672 0.014323 0.014974 0.015625 0.016276 0.016927 0.017578 0.018229 0.018880 0.019531 0.020182 0.020833 0.021484 0.022135 0.022786 0.023438 0.024089 0.024740 0.025391 0.026042 0.026693 0.027344 0.027995 0.028646 0.029297 0.029948 0.030599 0.031250 0.031901 0.032552 0.033203 0.033854 0.034505 0.035156 0.035807 0.036458 0.037109 0.037760 0.038411 0.039062 0.039714 0.040365 0.041016 0.041667 0.042318 0.042969 0.043620 0.044271 0.044922 0.045573 0.046224 0.046875 0.047526 0.048177 0.048828 0.049479 0.050130 0.050781 0.051432 0.052083 0.052734 0.053385 0.054036 0.054688 0.055339 0.055990 0.056641 0.057292 0.057943 0.058594 0.059245 0.059896 0.060547 0.061198 0.061849 0.062500 0.063151 0.063802 0.064453 0.065104 0.065755 0.066406 0.067057 0.067708 0.068359 0.069010 0.069661 0.070312 0.070964 0.071615 0.072266 0.072917 0.073568 0.074219 0.074870 0.075521 0.076172 0.076823 0.077474 0.078125 0.078776 0.079427 0.080078 0.080729 0.081380 0.082031 0.082682 0.083333 0.083984 0.084635 0.085286 0.085938 0.086589 0.087240 0.087891 0.088542 0.089193 0.089844 0.090495 0.091146 0.091797 0.092448 0.093099 0.093750 0.094401 0.095052 0.095703 0.096354 0.097005 0.097656 0.098307 0.098958 0.099609 0.100260 0.100911 0.101562 0.102214 0.102865 0.103516 0.104167 0.104818 0.105469 0.106120 0.106771 0.107422 0.108073 0.108724 0.109375 0.110026 0.110677 0.111328 0.111979 0.112630 0.113281 0.113932 0.114583 0.115234 0.115885 0.116536 0.117188 0.117839 0.118490 0.119141 0.119792 0.120443 0.121094 0.121745 0.122396 0.123047 0.123698 0.124349 0.125000 0.125651 0.126302 0.126953 0.127604 0.128255 0.128906 0.129557 0.130208 0.130859 0.131510 0.132161 0.132812 0.133464 0.134115 0.134766 0.135417 0.136068 0.136719 0.137370 0.138021 0.138672 0.139323 0.139974 0.140625 0.141276 0.141927 0.142578 0.143229 0.143880 0.144531 0.145182 0.145833 0.146484 0.147135 0.147786 0.148438 0.149089 0.149740 0.150391 0.151042 0.151693 0.152344 0.152995 0.153646 0.154297 0.154948 0.155599 0.156250 0.156901 0.157552 0.158203 0.158854 0.159505 0.160156 0.160807 0.161458 0.162109 0.162760 0.163411 0.164062 0.164714 0.165365 0.166016 0.166667 0.167318 0.167969 0.168620 0.169271 0.169922 0.170573 0.171224 0.171875 0.172526 0.173177 0.173828 0.174479 0.175130 0.175781 0.176432 0.177083 0.177734 0.178385 0.179036 0.179688 0.180339 0.180990 0.181641 0.182292 0.182943 0.183594 0.184245 0.184896 0.185547 0.186198 0.186849 0.187500 0.188151 0.188802 0.189453 0.190104 0.190755 0.191406 0.192057 0.192708 0.193359 0.194010 0.194661 0.195312 0.195964 0.196615 0.197266 0.197917 0.198568 0.199219 0.199870 0.200521 0.201172 0.201823 0.202474 0.203125 0.203776 0.204427 0.205078 0.205729 0.206380 0.207031 0.207682 0.208333 0.208984 0.209635 0.210286 0.210938 0.211589 0.212240 0.212891 0.213542 0.214193 0.214844 0.215495 0.216146 0.216797 0.217448 0.218099 0.218750 0.219401 0.220052 0.220703 0.221354 0.222005 0.222656 0.223307 0.223958 0.224609 0.225260 0.225911 0.226562 0.227214 0.227865 0.228516 0.229167 0.229818 0.230469 0.231120 0.231771 0.232422 0.233073 0.233724 0.234375 0.235026 0.235677
       0.33827        0.33827        0.33827        0.33827        0.33827        0.33827        0.33827        0.33827        0.33827        0.33827        0.33827        0.33827        0.33827        0.33827        0.33827        0.33827        0.33827        0.33827        0.33827        0.33827        0.33827        0.33827        0.33827        0.33827        0.33827        0.33827        0.33827        0.33827        0.33827        0.33827        0.33827        0.33827        0.33827        0.33827        0.33827        0.33827        0.33827        0.33827        0.33827        0.33827        0.33827        0.33827        0.33827        0.33827        0.33827        0.33827        0.33827        0.33827        0.33827        0.33827        0.33827        0.69434        0.85989        0.53483        0.10431       -0.03343       -0.39618       -0.18336       -0.28949       -0.11208       -0.05631       -0.10978       -0.05396       -0.17428       -0.20960       -0.22284       -0.31167       -0.32274       -0.45149       -0.36537       -0.43208       -0.42604       -0.40149       -0.42329       -0.46600       -0.51874       -0.56303       -0.56652       -0.53855       -0.36751       -0.34072       -0.30159       -0.27995       -0.18905       -0.17939        0.05231        0.13111        0.16098        0.25597        0.37876        0.45600        0.52081        0.59140        0.58884        0.57741        0.69688        0.80463        0.70956        0.74094        0.62773        0.56769        0.48376        0.42776        0.50987        0.39318        0.25556        0.10849        0.09676        0.07635       -0.02584        0.02521        0.03883       -0.00688        0.02049        0.01601        0.23620        0.26762        0.29456        0.43221        0.45296        0.41173        0.58533        0.62493        0.65067        0.73114        0.68045        0.64951        0.66766        0.56357        0.46750        0.41892        0.30199        0.25281        0.17454        0.13075        0.05290        0.05036        0.05566        0.09127        0.14802        0.23509        0.28500        0.41026        0.45920        0.48392        0.57946        0.61135        0.63903        0.61912        0.56156        0.45769        0.46935        0.37677        0.26452        0.20417        0.15810        0.16219        0.14582        0.14299        0.16972        0.30510        0.31664        0.39132        0.43244        0.43017        0.49182        0.55840        0.55369        0.49515        0.45454        0.40770        0.35869        0.33083        0.29628        0.24594        0.23946        0.23371        0.24354        0.21859        0.30370        0.36178        0.38537        0.44081        0.45472        0.47053        0.42414        0.40252        0.40241        0.36152        0.31607        0.27137        0.26325        0.25994        0.22853        0.27975        0.27827        0.34406        0.37622        0.41673        0.47655        0.41537        0.42673        0.43266        0.40794        0.34570        0.32244        0.29313        0.31312        0.26866        0.31085        0.30426        0.32171        0.33129        0.35529        0.31871        0.39739        0.41722        0.37954        0.34563        0.37150        0.31104        0.29058        0.29451        0.31718        0.30090        0.31316        0.33260        0.34488        0.34070        0.36750        0.36768        0.40292        0.37906        0.33092        0.33652        0.29418        0.28283        0.32320        0.31632        0.32483        0.33417        0.33155        0.37437        0.32872        0.33022        0.32891        0.33571        0.29844        0.30799        0.27502        0.29984        0.32210        0.30262        0.32391        0.34693        0.35381        0.28722        0.32438        0.29062        0.30338        0.27997        0.24284        0.29732        0.29702        0.34043        0.33411        0.33175        0.32321        0.34505        0.30835        0.34291        0.31891        0.30728        0.27891        0.32601        0.31337        0.35756        0.32411        0.33151        0.33893        0.29258        0.27580        0.30919        0.24720        0.22436        0.33063        0.31909        0.35026        0.33815        0.35262        0.32197        0.34028        0.34317        0.26477        0.25097        0.31019        0.29781        0.30874        0.32060        0.33911        0.33479        0.30049        0.28979        0.33825        0.31558        0.30086        0.28049        0.32136        0.34692        0.39422        0.34247        0.30760        0.28039        0.30424        0.27942        0.29114        0.26649        0.25103        0.30848        0.32801        0.33999        0.34763        0.31783        0.28463        0.29277        0.26223        0.26775        0.24976        0.31894        0.27849        0.23318        0.31886        0.30936        0.26329        0.28916        0.21029        0.21592        0.25633        0.18647        0.25493        0.32489        0.24039        0.22307        0.31091        0.31571        0.32435        0.31807        0.25617        0.23228        0.17690        0.21026        0.19078        0.21987        0.21700        0.25680        0.31820        0.29537        0.22388        0.13098        0.07146       -0.01695       -0.11326       -0.63724
2.737780 2.708775 2.679929 2.651240 2.622711 2.594339 2.566127 2.538073 2.510177 2.482440 2.454861 2.427441 2.400179 2.373076 2.346131 2.319345 2.292717 2.266248 2.239937 2.213785 2.187791 2.161956 2.136279 2.110760 2.085401 2.060199 2.035156 2.010272 1.985546 1.960979 1.936570 1.912319 1.888227 1.864294 1.840519 1.816902 1.793444 1.770145 1.747004 1.724021 1.701197 1.678532 1.656025 1.633676 1.611486 1.589455 1.567581 1.545867 1.524311 1.502913 1.481674 1.697081 2.116792 1.679287 1.174536 1.038679 0.443729 0.842831 0.560906 0.845685 0.805504 0.815972 0.756572 0.743267 0.591876 0.551695 0.497308 0.430570 0.243183 0.370281 0.203987 0.328219 0.223592 0.201675 0.174649 0.037281 0.016927 0.014857 -0.067810 0.129647 0.226934 0.188302 0.173483 0.331969 0.184384 0.512421 0.617647 0.616982 0.633550 0.872077 0.829403 0.939708 0.921807 1.019531 0.983416 1.076188 1.160767 1.042133 1.151220 0.911972 0.925789 0.790689 0.651741 0.797356 0.698797 0.482053 0.329500 0.249500 0.259569 0.148829 0.124153 0.159036 0.103395 0.128921 0.074019 0.255053 0.359707 0.343448 0.476183 0.548926 0.423009 0.584350 0.723363 0.673465 0.731662 0.710645 0.720930 0.659345 0.600088 0.508375 0.379585 0.279408 0.223368 0.084818 0.119232 -0.090531 -0.045958 -0.062344 -0.072909 -0.022514 0.138928 0.067142 0.244045 0.305901 0.339373 0.398290 0.503772 0.481313 0.480838 0.493466 0.308045 0.292628 0.283957 0.087490 0.044561 -0.066451 -0.010903 -0.060460 -0.090522 -0.083972 0.036085 0.083708 0.120183 0.211744 0.230679 0.243415 0.292391 0.435437 0.394386 0.266847 0.242509 0.220600 0.152688 0.144588 0.115715 0.002969 0.022136 0.067487 -0.003057 0.062362 0.146171 0.145782 0.233482 0.248845 0.281350 0.183350 0.218107 0.143755 0.168070 0.118766 0.050232 -0.007621 0.014369 -0.003317 -0.042957 0.061916 0.022032 0.125198 0.151198 0.192609 0.192654 0.157724 0.159615 0.179586 0.129557 0.058080 -0.000091 0.053969 0.025920 -0.018244 0.036964 0.038503 0.056746 0.051778 0.062979 0.074815 0.131188 0.149871 0.054868 0.055641 0.054953 0.015580 -0.025185 0.014967 0.018254 0.004209 0.015178 0.046436 0.058038 0.055802 0.081826 0.059312 0.140194 0.059140 0.026390 0.035752 -0.036392 0.003846 0.043330 0.000871 0.034611 0.049494 0.021019 0.113299 0.032267 0.005918 0.053437 0.003951 0.008071 0.005506 -0.022676 0.026099 0.007008 0.004785 0.055209 0.054954 0.055262 0.029490 0.035789 0.031995 0.023615 -0.016181 -0.025470 0.032702 0.048805 0.080924 0.084183 0.057186 0.082240 0.106209 0.058447 0.111943 0.088618 0.037246 0.036120 0.101758 0.073480 0.118877 0.094639 0.060090 0.128664 0.054237 0.018967 0.093330 -0.026733 -0.007020 0.106174 0.059325 0.149352 0.095408 0.102707 0.047327 0.089770 0.093222 -0.010609 -0.028839 0.061207 0.054409 0.045948 0.045240 0.106103 0.069913 -0.001067 0.048581 0.066008 0.055099 0.049656 -0.017406 0.075779 0.080032 0.133970 0.042488 0.020765 -0.017523 0.010213 -0.015036 0.000802 -0.042946 -0.036102 0.010073 0.042396 0.016303 0.041122 -0.007016 -0.034645 -0.042425 -0.024325 -0.066695 -0.060569 -0.002601 0.022937 -0.091897 0.019876 -0.028651 -0.069529 0.006692 -0.128953 -0.077381 -0.075702 -0.185528 -0.034886 0.052728 -0.043826 -0.150425 0.044138 0.064516 -0.029375 0.068528 -0.053755 0.253585 0.136911 0.220428 0.248487 0.256457 0.232838 0.288032 0.302069 0.340833 0.205123 0.239622 0.092818 -0.022802 -0.693027
0.072396 0.072899 0.074407 0.076920 0.080437 0.084957 0.090480 0.097003 0.104525 0.113042 0.122552 0.133049 0.144529 0.156986 0.170410 0.184794 0.200126 0.216394 0.233582 0.251673 0.270647 0.290481 0.311149 0.332622 0.354866 0.377845 0.401517 0.425836 0.450750 0.476206 0.502140 0.528486 0.555171 0.582117 0.609238 0.636441 0.663630 0.690698 0.717533 0.744018 0.770025 0.795423 0.820073 0.843829 0.866541 0.888050 0.908195 0.926809 0.943721 0.958757 0.971740 0.982492 0.990836 0.996594 0.999590 0.999654 0.996619 0.990327 0.980626 0.967377 0.950452 0.929738 0.905139 0.876578 0.843998 0.807368 0.766678 0.721951 0.673236 0.620614 0.564203 0.504154 0.440655 0.373933 0.304255 0.231927 0.157297 0.080751 0.002716 0.076339 0.155913 0.235466 0.314426 0.392193 0.468140 0.541620 0.611970 0.678518 0.740588 0.797509 0.848622 0.893285 0.930888 0.960857 0.982665 0.995843 0.999987 0.994769 0.979944 0.955365 0.920982 0.876858 0.823170 0.760218 0.688427 0.608350 0.520668 0.426191 0.325854 0.220712 0.111930 0.000779 0.111385 0.223126 0.332950 0.439327 0.540706 0.635543 0.722323 0.799586 0.865959 0.920177 0.961114 0.987809 0.999494 0.995615 0.975855 0.940156 0.888729 0.822068 0.740957 0.646469 0.539962 0.423067 0.297675 0.165906 0.030085 0.107299 0.243633 0.376227 0.502373 0.619393 0.724704 0.815879 0.890708 0.947255 0.983921 0.999492 0.993188 0.964703 0.914234 0.842499 0.750745 0.640742 0.514765 0.375553 0.226268 0.070430 0.088161 0.245512 0.397534 0.540151 0.669409 0.781594 0.873346 0.941768 0.984531 0.999966 0.987137 0.945908 0.876971 0.781865 0.662967 0.523447 0.367202 0.198766 0.023187 0.154111 0.327495 0.491303 0.640021 0.768488 0.872078 0.946881 0.989874 0.999052 0.973543 0.913684 0.821053 0.698457 0.549878 0.380362 0.195876 0.003107 0.190770 0.378345 0.552264 0.705518 0.831742 0.925492 0.982499 0.999891 0.976361 0.912276 0.809719 0.672463 0.505864 0.316679 0.112820 0.096961 0.303435 0.497300 0.669609 0.812186 0.918038 0.981725 0.999668 0.970381 0.894610 0.775371 0.617877 0.429348 0.218710 0.003792 0.227088 0.439812 0.630890 0.790128 0.908777 0.980043 0.999513 0.965465 0.879050 0.744308 0.568041 0.359510 0.129983 0.107836 0.340503 0.554586 0.737451 0.878024 0.967502 0.999937 0.972686 0.886660 0.746376 0.559782 0.337854 0.094003 0.156713 0.398491 0.615790 0.794338 0.922092 0.990104 0.993192 0.930395 0.805146 0.625169 0.402057 0.150599 0.112189 0.368163 0.599318 0.789056 0.923421 0.992166 0.989593 0.915098 0.773336 0.574027 0.331354 0.063007 0.211048 0.470052 0.694021 0.865316 0.970067 0.999372 0.950116 0.825368 0.634293 0.391561 0.116289 0.169411 0.442177 0.679311 0.860693 0.970536 0.998825 0.942319 0.804986 0.597841 0.338149 0.048067 0.247200 0.521550 0.750326 0.912540 0.992875 0.983216 0.883557 0.702196 0.455151 0.164844 0.141873 0.436148 0.689852 0.878282 0.982649 0.992017 0.904565 0.727964 0.478838 0.181299 0.135308 0.439249 0.699582 0.889326 0.988339 0.985549 0.880305 0.682674 0.412613 0.098057 0.227876 0.530352 0.776535 0.939196 0.999831 0.950863 0.796722 0.553600 0.247895 0.086569 0.412202 0.691868 0.893142 0.992161 0.976563 0.847171 0.618157 0.315655 0.025107 0.363830 0.659871 0.877166 0.988685 0.979923 0.850939 0.616631 0.305188 0.045176 0.390827 0.688106 0.898889 0.995566 0.964786 0.809474 0.548749 0.215762 0.146395
1.000000 1.000000 1.000000 1.000000 1.000000 1.000000 1.000000 1.000000 1.000000 1.000000 1.000000 1.000000 1.000000 1.000000 1.000000 1.000000 1.000000 1.000000 1.000000 1.000000 1.000000 1.000000 1.000000 1.000000 1.000000 1.000000 1.000000 1.000000 1.000000 1.000000 1.000000 1.000000 1.000000 1.000000 1.000000 1.000000 1.000000 1.000000 1.000000 1.000000 1.000000 1.000000 1.000000 1.000000 1.000000 1.000000 1.000000 1.000000 1.000000 1.000000 1.000000 1.000000 0.920174 0.920174 0.920174 0.912243 0.912243 0.912243 0.912243 0.912243 0.912243 0.912243 0.912243 0.912243 0.912243 0.912243 0.912243 0.912243 0.912243 0.912243 0.912243 0.912243 0.912243 0.912243 0.912243 0.912243 0.912243 0.912243 0.912243 0.912243 0.912243 0.912243 0.912243 0.912243 0.912243 0.912243 0.912243 0.912243 0.912243 0.912243 0.912243 0.912243 0.912243 0.912243 0.912243 0.912243 0.941366 0.942812 0.950989 0.950629 0.950029 0.947944 0.946769 0.946410 0.946305 0.946632 0.947338 0.948302 0.954559 0.955788 0.960232 0.961892 0.962641 0.963288 0.963943 0.963530 0.954841 0.954636 0.953267 0.952687 0.955213 0.954245 0.953443 0.954410 0.954290 0.955027 0.954937 0.954232 0.953136 0.952027 0.951075 0.950652 0.950440 0.951172 0.951589 0.953071 0.956381 0.956960 0.957089 0.957244 0.957345 0.958638 0.957569 0.957061 0.953143 0.953335 0.952916 0.953176 0.956717 0.956690 0.957252 0.957814 0.959404 0.959690 0.952661 0.951042 0.942057 0.939791 0.936404 0.930864 0.926227 0.927959 0.929353 0.929985 0.930415 0.925478 0.925397 0.923133 0.920848 0.923485 0.923051 0.924028 0.925355 0.923891 0.922946 0.922075 0.920304 0.912036 0.899432 0.898356 0.898425 0.903001 0.904125 0.902942 0.905103 0.893563 0.877316 0.861113 0.863144 0.866530 0.857295 0.854654 0.855140 0.855982 0.859526 0.852073 0.849778 0.845531 0.835941 0.828794 0.822190 0.815849 0.817262 0.812371 0.802797 0.800653 0.809896 0.803509 0.817963 0.821745 0.819663 0.818286 0.814603 0.808587 0.785673 0.784728 0.773676 0.752379 0.752843 0.751153 0.750808 0.747908 0.753945 0.744027 0.741253 0.724896 0.724612 0.728431 0.731402 0.729051 0.724371 0.728337 0.733035 0.714019 0.704258 0.693136 0.697745 0.698091 0.700796 0.702072 0.679897 0.651977 0.629620 0.648386 0.653916 0.622935 0.646270 0.659725 0.639812 0.636821 0.627028 0.629801 0.617749 0.621180 0.620590 0.621268 0.625113 0.640726 0.629036 0.626106 0.633901 0.637229 0.648810 0.646858 0.648273 0.615990 0.617124 0.640241 0.643944 0.624299 0.641589 0.630518 0.644375 0.679847 0.680177 0.646169 0.639469 0.621761 0.583277 0.572211 0.567215 0.577762 0.609781 0.603833 0.576321 0.550589 0.556482 0.569876 0.577677 0.579321 0.557940 0.563958 0.554796 0.531733 0.540325 0.553156 0.552893 0.540482 0.525723 0.526603 0.532340 0.550351 0.542116 0.501536 0.517119 0.514153 0.508910 0.452217 0.467765 0.452527 0.442704 0.400067 0.410264 0.419637 0.406136 0.325841 0.306151 0.306588 0.307493 0.301666 0.288234 0.263375 0.250860 0.215374 0.216273 0.204575 0.180283 0.179344 0.162297 0.152229 0.154262 0.120865 0.171356 0.233442 0.234420 0.234420 0.234420 0.234420 0.234420 0.234420 0.224500 0.224500 0.224500 0.224500 0.224500 0.224500 0.224500 0.224500 0.224500 0.248136 0.248136 0.248136 0.248136 0.248136 0.248136 0.248136 0.248136 0.248136 0.248136 0.248136 0.248136 0.248136 0.248136
0.000000 0.000000 0.000000 0.000000 0.000000 0.000000 0.000000 0.000000 0.000000 0.000000 0.000000 0.000000 0.000000 0.000000 0.000000 0.000000 0.000000 0.000000 0.000000 0.000000 0.000000 0.000000 0.000000 0.000000 0.000000 0.000000 0.000000 0.000000 0.000000 0.000000 0.000000 0.000000 0.000000 0.000000 0.000000 0.000000 0.000000 0.000000 0.000000 0.000000 0.000000 0.000000 0.000000 0.000000 0.000000 0.000000 0.000000 0.000000 0.000000 0.000000 0.000000 0.000000 0.180334 0.180334 0.180334 0.199007 0.199007 0.199007 0.199007 0.199007 0.199007 0.199007 0.199007 0.199007 0.199007 0.199007 0.199007 0.199007 0.199007 0.199007 0.199007 0.199007 0.199007 0.199007 0.199007 0.199007 0.199007 0.199007 0.199007 0.199007 0.199007 0.199007 0.199007 0.199007 0.199007 0.199007 0.199007 0.199007 0.199007 0.199007 0.199007 0.199007 0.199007 0.199007 0.199007 0.199007 0.225018 0.225018 0.225018 0.225018 0.225018 0.225018 0.225018 0.225018 0.225018 0.225018 0.225018 0.225018 0.225018 0.225018 0.225018 0.225018 0.225018 0.225018 0.225018 0.225018 0.225018 0.225018 0.225018 0.225018 0.225018 0.225018 0.225018 0.225018 0.225018 0.244339 0.244339 0.244339 0.244339 0.244339 0.244339 0.244339 0.244339 0.244339 0.244339 0.244339 0.244339 0.244339 0.244339 0.244339 0.244339 0.244339 0.244339 0.244339 0.244339 0.244339 0.244339 0.244339 0.251976 0.251976 0.251976 0.251976 0.251976 0.251976 0.251976 0.251976 0.251976 0.251976 0.251976 0.251976 0.251976 0.251976 0.251976 0.251976 0.251976 0.251976 0.251976 0.251976 0.264906 0.264906 0.264906 0.264906 0.264906 0.264906 0.264906 0.264906 0.264906 0.264906 0.264906 0.264906 0.264906 0.264906 0.264906 0.264906 0.264906 0.264906 0.264906 0.264906 0.264906 0.264906 0.264906 0.264906 0.264906 0.264906 0.264906 0.264906 0.264906 0.264906 0.264906 0.264906 0.264906 0.264906 0.264906 0.264906 0.264906 0.264906 0.264906 0.264906 0.264906 0.264906 0.264906 0.264906 0.264906 0.264906 0.264906 0.264906 0.264906 0.264906 0.264906 0.264906 0.264906 0.264906 0.264906 0.264906 0.264906 0.264906 0.264906 0.264906 0.264906 0.264906 0.256074 0.256074 0.256074 0.256074 0.256074 0.256074 0.256074 0.256074 0.256074 0.256074 0.256074 0.256074 0.256074 0.256074 0.269680 0.269680 0.269680 0.269680 0.269680 0.269680 0.269680 0.269680 0.269680 0.269680 0.269680 0.269680 0.264906 0.264906 0.264906 0.264906 0.264906 0.264906 0.264906 0.264906 0.264906 0.264906 0.264906 0.264906 0.269680 0.269680 0.269680 0.269680 0.269680 0.269680 0.269680 0.269680 0.269680 0.269680 0.269680 0.264906 0.264906 0.264906 0.264906 0.264906 0.264906 0.264906 0.264906 0.264906 0.264906 0.264906 0.256074 0.256074 0.256074 0.256074 0.256074 0.256074 0.256074 0.256074 0.256074 0.256074 0.256074 0.264906 0.264906 0.264906 0.264906 0.264906 0.264906 0.264906 0.264906 0.264906 0.264906 0.260378 0.260378 0.260378 0.260378 0.260378 0.260378 0.260378 0.260378 0.260378 0.260378 0.256074 0.256074 0.256074 0.256074 0.256074 0.256074 0.256074 0.256074 0.256074 0.256074 0.260378 0.260378 0.260378 0.260378 0.260378 0.260378 0.260378 0.260378 0.260378 0.256074 0.256074 0.256074 0.256074 0.256074 0.256074 0.256074 0.256074 0.256074 0.251976 0.251976 0.251976 0.251976 0.251976 0.251976 0.251976 0.251976 0.251976 0.251976 0.251976 0.251976 0.251976 0.251976
