# Output from CTFFind version 4.1.9, run on 2019-11-03 19:00:06
# Input file: stack1_bm3d_averaged_1_3.25_0_1500_half.mrc ; Number of micrographs: 1
# Pixel size: 3.000 Angstroms ; acceleration voltage: 300.0 keV ; spherical aberration: 0.00 mm ; amplitude contrast: 0.07
# Box size: 512 pixels ; min. res.: 30.0 Angstroms ; max. res.: 5.0 Angstroms ; min. def.: 5000.0 um; max. def. 50000.0 um; num. frames averaged: 1
# 6 lines per micrograph: #1 - spatial frequency (1/Angstroms); #2 - 1D rotational average of spectrum (assuming no astigmatism); #3 - 1D rotational average of spectrum; #4 - CTF fit; #5 - cross-correlation between spectrum and CTF fit; #6 - 2sigma of expected cross correlation of noise
0.000000 0.000651 0.001302 0.001953 0.002604 0.003255 0.003906 0.004557 0.005208 0.005859 0.006510 0.007161 0.007812 0.008464 0.009115 0.009766 0.010417 0.011068 0.011719 0.012370 0.013021 0.013672 0.014323 0.014974 0.015625 0.016276 0.016927 0.017578 0.018229 0.018880 0.019531 0.020182 0.020833 0.021484 0.022135 0.022786 0.023438 0.024089 0.024740 0.025391 0.026042 0.026693 0.027344 0.027995 0.028646 0.029297 0.029948 0.030599 0.031250 0.031901 0.032552 0.033203 0.033854 0.034505 0.035156 0.035807 0.036458 0.037109 0.037760 0.038411 0.039062 0.039714 0.040365 0.041016 0.041667 0.042318 0.042969 0.043620 0.044271 0.044922 0.045573 0.046224 0.046875 0.047526 0.048177 0.048828 0.049479 0.050130 0.050781 0.051432 0.052083 0.052734 0.053385 0.054036 0.054688 0.055339 0.055990 0.056641 0.057292 0.057943 0.058594 0.059245 0.059896 0.060547 0.061198 0.061849 0.062500 0.063151 0.063802 0.064453 0.065104 0.065755 0.066406 0.067057 0.067708 0.068359 0.069010 0.069661 0.070312 0.070964 0.071615 0.072266 0.072917 0.073568 0.074219 0.074870 0.075521 0.076172 0.076823 0.077474 0.078125 0.078776 0.079427 0.080078 0.080729 0.081380 0.082031 0.082682 0.083333 0.083984 0.084635 0.085286 0.085938 0.086589 0.087240 0.087891 0.088542 0.089193 0.089844 0.090495 0.091146 0.091797 0.092448 0.093099 0.093750 0.094401 0.095052 0.095703 0.096354 0.097005 0.097656 0.098307 0.098958 0.099609 0.100260 0.100911 0.101562 0.102214 0.102865 0.103516 0.104167 0.104818 0.105469 0.106120 0.106771 0.107422 0.108073 0.108724 0.109375 0.110026 0.110677 0.111328 0.111979 0.112630 0.113281 0.113932 0.114583 0.115234 0.115885 0.116536 0.117188 0.117839 0.118490 0.119141 0.119792 0.120443 0.121094 0.121745 0.122396 0.123047 0.123698 0.124349 0.125000 0.125651 0.126302 0.126953 0.127604 0.128255 0.128906 0.129557 0.130208 0.130859 0.131510 0.132161 0.132812 0.133464 0.134115 0.134766 0.135417 0.136068 0.136719 0.137370 0.138021 0.138672 0.139323 0.139974 0.140625 0.141276 0.141927 0.142578 0.143229 0.143880 0.144531 0.145182 0.145833 0.146484 0.147135 0.147786 0.148438 0.149089 0.149740 0.150391 0.151042 0.151693 0.152344 0.152995 0.153646 0.154297 0.154948 0.155599 0.156250 0.156901 0.157552 0.158203 0.158854 0.159505 0.160156 0.160807 0.161458 0.162109 0.162760 0.163411 0.164062 0.164714 0.165365 0.166016 0.166667 0.167318 0.167969 0.168620 0.169271 0.169922 0.170573 0.171224 0.171875 0.172526 0.173177 0.173828 0.174479 0.175130 0.175781 0.176432 0.177083 0.177734 0.178385 0.179036 0.179688 0.180339 0.180990 0.181641 0.182292 0.182943 0.183594 0.184245 0.184896 0.185547 0.186198 0.186849 0.187500 0.188151 0.188802 0.189453 0.190104 0.190755 0.191406 0.192057 0.192708 0.193359 0.194010 0.194661 0.195312 0.195964 0.196615 0.197266 0.197917 0.198568 0.199219 0.199870 0.200521 0.201172 0.201823 0.202474 0.203125 0.203776 0.204427 0.205078 0.205729 0.206380 0.207031 0.207682 0.208333 0.208984 0.209635 0.210286 0.210938 0.211589 0.212240 0.212891 0.213542 0.214193 0.214844 0.215495 0.216146 0.216797 0.217448 0.218099 0.218750 0.219401 0.220052 0.220703 0.221354 0.222005 0.222656 0.223307 0.223958 0.224609 0.225260 0.225911 0.226562 0.227214 0.227865 0.228516 0.229167 0.229818 0.230469 0.231120 0.231771 0.232422 0.233073 0.233724 0.234375 0.235026 0.235677
       0.35449        0.35449        0.35449        0.35449        0.35449        0.35449        0.35449        0.35449        0.35449        0.35449        0.35449        0.35449        0.35449        0.35449        0.35450        0.35449        0.35449        0.35449        0.35449        0.35450        0.35449        0.35449        0.35449        0.35450        0.35449        0.35449        0.35449        0.35449        0.35449        0.35450        0.35449        0.35449        0.35449        0.35449        0.35449        0.35449        0.35449        0.35449        0.35450        0.35449        0.35450        0.35449        0.35449        0.35449        0.35449        0.35449        0.35449        0.35449        0.35449        0.35450        0.35449        0.49482        0.70789        0.40310        0.21089       -0.03649       -0.22693       -0.04048       -0.11443       -0.08076        0.02234       -0.10420       -0.10009       -0.03475       -0.01686       -0.12401       -0.15664       -0.29141       -0.46116       -0.55726       -0.50726       -0.43704       -0.33968       -0.53412       -0.39618       -0.52856       -0.43635       -0.45020       -0.34153       -0.31938       -0.28748       -0.19070       -0.10485       -0.10406        0.04264        0.02278        0.17838        0.18339        0.33317        0.42291        0.52138        0.55816        0.56952        0.59384        0.73373        0.65972        0.67078        0.57887        0.54907        0.63352        0.51862        0.48754        0.42498        0.32195        0.29056        0.30827        0.25756        0.12344        0.11351       -0.00329        0.04646        0.05676        0.02646        0.09844        0.13911        0.22639        0.29115        0.29938        0.40003        0.54188        0.55676        0.56735        0.67542        0.64314        0.63143        0.67209        0.64768        0.53644        0.53307        0.42046        0.36558        0.28218        0.20950        0.15365        0.15893        0.13816        0.17793        0.17204        0.24383        0.25360        0.33153        0.37705        0.40298        0.51273        0.55394        0.57493        0.56075        0.60758        0.54705        0.49562        0.50806        0.37886        0.30402        0.28721        0.27808        0.20611        0.20868        0.20738        0.23572        0.26552        0.35172        0.39171        0.41914        0.44621        0.45316        0.47701        0.44530        0.50106        0.44134        0.38860        0.35869        0.38859        0.33876        0.31863        0.25426        0.29143        0.26020        0.27650        0.28982        0.37224        0.39416        0.40641        0.44116        0.46219        0.44481        0.44246        0.46950        0.36712        0.36660        0.32871        0.27798        0.33390        0.29297        0.32821        0.34576        0.34199        0.35337        0.42932        0.39973        0.43911        0.40438        0.42339        0.39364        0.39541        0.31795        0.30226        0.29318        0.27915        0.30620        0.36348        0.37998        0.37204        0.38613        0.39021        0.36959        0.44111        0.41267        0.38462        0.37237        0.32756        0.30633        0.33845        0.31884        0.36299        0.32518        0.34868        0.36135        0.38795        0.39265        0.36531        0.37217        0.37092        0.34743        0.32191        0.35400        0.34233        0.35488        0.33198        0.35832        0.37686        0.33546        0.34172        0.36861        0.32603        0.29749        0.30898        0.31939        0.31928        0.31849        0.36078        0.32541        0.32837        0.33057        0.32716        0.33514        0.32044        0.32667        0.31473        0.31342        0.31521        0.33081        0.32509        0.34524        0.33636        0.39490        0.38488        0.32317        0.36595        0.35095        0.26383        0.28828        0.33349        0.30627        0.30960        0.34656        0.33265        0.32921        0.37114        0.37444        0.31475        0.29104        0.31266        0.34962        0.37275        0.39076        0.33321        0.32234        0.30204        0.29895        0.27766        0.31423        0.30296        0.32821        0.33524        0.31810        0.28315        0.33930        0.34561        0.35922        0.29675        0.31295        0.34463        0.38814        0.38640        0.35281        0.34642        0.32561        0.31076        0.30974        0.32543        0.31665        0.25267        0.25672        0.31478        0.31605        0.32026        0.31034        0.27271        0.25492        0.27373        0.28777        0.34835        0.30634        0.31066        0.35267        0.39183        0.35474        0.26894        0.29867        0.25681        0.29604        0.34032        0.36295        0.30543        0.30302        0.30310        0.28770        0.32271        0.25169        0.22683        0.21550        0.27722        0.27084        0.22892        0.30230        0.26154        0.33814        0.30468        0.27703        0.23410        0.20074        0.30276        0.37620        0.33547        0.11901        0.18362        0.29111        0.18838        0.19350       -0.01282        0.07520       -0.61225       -1.17689
2.783286 2.753841 2.724556 2.695428 2.666459 2.637649 2.608997 2.580504 2.552170 2.523994 2.495976 2.468117 2.440417 2.412875 2.385492 2.358267 2.331202 2.304294 2.277545 2.250955 2.224523 2.198250 2.172135 2.146179 2.120381 2.094742 2.069262 2.043940 2.018777 1.993772 1.968926 1.944238 1.919709 1.895339 1.871127 1.847074 1.823179 1.799443 1.775865 1.752446 1.729186 1.706084 1.683140 1.660355 1.637729 1.615261 1.592952 1.570802 1.548810 1.526976 1.505301 1.541226 1.889019 1.511139 1.242599 0.976923 0.544141 0.945332 0.646212 0.827819 0.913473 0.667989 0.653858 0.801148 0.783321 0.619035 0.597964 0.391460 0.075587 0.029826 0.017694 0.004345 0.323516 -0.061637 0.054012 -0.057671 0.003900 -0.022033 0.088088 0.092459 0.131287 0.195082 0.328636 0.281851 0.458393 0.391295 0.618330 0.545868 0.786114 0.804372 0.940276 1.032900 0.967764 1.011621 1.148799 1.013055 1.160542 0.919606 0.887988 0.989698 0.839986 0.818889 0.687690 0.562779 0.510561 0.494761 0.480633 0.250590 0.234302 0.123777 0.040110 0.176883 0.020877 0.101326 0.199859 0.237770 0.318329 0.340854 0.445106 0.528978 0.672873 0.523428 0.756030 0.756111 0.624808 0.759316 0.708675 0.596480 0.470978 0.464458 0.305172 0.232929 0.097032 0.038425 -0.011819 0.011933 -0.048180 0.012409 0.073220 0.077908 0.106712 0.219846 0.240717 0.329226 0.426683 0.419871 0.471964 0.426878 0.454219 0.331831 0.328586 0.282431 0.069121 0.067692 0.022387 -0.037182 -0.050038 -0.083873 -0.042503 -0.045513 0.050054 0.108169 0.161240 0.216118 0.186364 0.254119 0.247927 0.237154 0.226106 0.207668 0.100521 0.098656 0.104686 0.024209 0.004777 -0.051500 0.000885 -0.015236 -0.008294 0.022629 0.102212 0.098489 0.152704 0.188317 0.250256 0.118041 0.227369 0.116737 0.112260 0.040325 -0.034189 0.025436 -0.015645 0.004113 0.004130 0.065338 0.010241 0.077289 0.132226 0.141664 0.126439 0.093041 0.109527 0.085176 0.064663 -0.044902 -0.035063 -0.048047 -0.073199 0.001493 0.063208 0.076968 0.012684 0.086993 0.077808 0.063999 0.155823 0.060684 0.088781 0.065707 -0.047896 0.002166 0.012065 -0.011009 0.058671 0.004198 0.025988 0.040718 0.065019 0.058069 0.056667 0.000214 0.057767 -0.013961 0.011785 0.020834 0.004509 0.049341 0.004629 0.033637 0.047528 -0.014357 0.033389 0.045665 -0.030319 -0.057462 -0.002524 -0.011339 -0.037535 -0.001845 0.054249 -0.002724 0.014003 0.060128 -0.018531 0.054037 0.036879 0.018023 0.011970 0.049761 0.012009 0.045058 0.016509 0.083277 0.060231 0.172129 0.113986 0.055852 0.114442 0.065656 -0.045573 0.046004 0.066056 0.029420 0.063663 0.071139 0.034698 0.036590 0.112960 0.075427 0.033310 -0.047820 0.046415 0.082335 0.101580 0.110582 0.035522 0.016361 0.019805 -0.003926 -0.027413 0.022630 0.047879 0.022210 0.095702 -0.001403 -0.025671 0.026340 0.062131 0.007933 -0.006720 -0.036208 0.068446 0.091655 0.074439 0.011516 0.016765 -0.022547 -0.028040 -0.005780 -0.051985 -0.002889 -0.130065 -0.085689 -0.020168 0.002253 -0.025012 -0.010238 -0.051363 -0.035882 -0.028674 -0.061303 0.076224 -0.014299 0.010498 0.067008 0.144251 -0.000904 -0.038729 -0.004037 -0.062845 0.022966 0.050221 0.092288 0.010271 0.005227 0.021752 0.024443 0.103427 -0.035960 -0.054556 -0.097566 0.056489 0.035203 -0.012197 0.033527 0.011005 0.180970 0.045390 0.095608 -0.040993 0.023479 0.072953 0.212287 0.419692 0.078208 0.233839 0.440282 0.169838 0.264847 -0.167622 0.280652 -0.501433
0.072396 0.072909 0.074449 0.077015 0.080607 0.085223 0.090862 0.097523 0.105203 0.113900 0.123609 0.134327 0.146047 0.158764 0.172468 0.187150 0.202798 0.219399 0.236937 0.255393 0.274747 0.294973 0.316045 0.337932 0.360597 0.384002 0.408102 0.432850 0.458191 0.484065 0.510409 0.537150 0.564212 0.591511 0.618957 0.646453 0.673895 0.701171 0.728164 0.754747 0.780789 0.806149 0.830682 0.854236 0.876650 0.897761 0.917399 0.935390 0.951554 0.965713 0.977682 0.987277 0.994315 0.998615 0.999997 0.998288 0.993319 0.984932 0.972977 0.957318 0.937832 0.914414 0.886975 0.855450 0.819797 0.779999 0.736068 0.688046 0.636007 0.580061 0.520353 0.457068 0.390430 0.320704 0.248195 0.173252 0.096267 0.017671 0.062062 0.142418 0.222849 0.302770 0.381565 0.458590 0.533182 0.604658 0.672325 0.735485 0.793445 0.845523 0.891058 0.929415 0.960002 0.982273 0.995741 0.999988 0.994675 0.979552 0.954466 0.919369 0.874331 0.819539 0.755312 0.682094 0.600468 0.511149 0.414985 0.312955 0.206160 0.095819 0.016745 0.130117 0.242807 0.353264 0.459905 0.561127 0.655341 0.740996 0.816602 0.880765 0.932213 0.969826 0.992662 0.999988 0.991301 0.966351 0.925163 0.868046 0.795610 0.708763 0.608719 0.496981 0.375336 0.245826 0.110729 0.027485 0.166189 0.302646 0.434066 0.557660 0.670703 0.770597 0.854937 0.921571 0.968670 0.994778 0.998871 0.980398 0.939320 0.876136 0.791893 0.688187 0.567152 0.431423 0.284099 0.128677 0.031022 0.190938 0.346876 0.494611 0.630010 0.749148 0.848430 0.924712 0.975410 0.998601 0.993110 0.958574 0.895494 0.805250 0.690099 0.553136 0.398236 0.229957 0.053418 0.125841 0.302033 0.469303 0.621932 0.754535 0.862257 0.940977 0.987470 0.999568 0.976274 0.917844 0.825831 0.703068 0.553618 0.382660 0.196331 0.001526 0.194346 0.383643 0.558781 0.712545 0.838407 0.930809 0.985435 0.999441 0.971625 0.902537 0.794518 0.651661 0.479692 0.285765 0.078196 0.133877 0.340894 0.533289 0.701948 0.838652 0.936499 0.990278 0.996785 0.955040 0.866414 0.734632 0.565668 0.367514 0.149829 0.076498 0.299883 0.508633 0.691565 0.838616 0.941432 0.993868 0.992399 0.936396 0.828255 0.673345 0.479805 0.258157 0.020762 0.218830 0.446654 0.649146 0.813955 0.930738 0.991839 0.992844 0.932943 0.815094 0.645936 0.435484 0.196586 0.055827 0.305646 0.536602 0.733342 0.882464 0.973474 0.999578 0.958244 0.851497 0.685898 0.472226 0.224824 0.039311 0.301660 0.543479 0.747140 0.897447 0.982822 0.996249 0.935922 0.805519 0.614069 0.375398 0.107215 0.170181 0.435396 0.667591 0.848155 0.962221 0.999969 0.957542 0.837513 0.648830 0.406249 0.129256 0.159455 0.435799 0.676310 0.860163 0.971020 0.998565 0.939542 0.798217 0.586180 0.321500 0.027261 0.270409 0.544612 0.770143 0.925833 0.996610 0.975048 0.862242 0.667906 0.409656 0.111500 0.198315 0.489959 0.734869 0.908606 0.993352 0.979838 0.868464 0.669485 0.402191 0.093137 0.226414 0.523618 0.767427 0.931884 0.998968 0.960675 0.820096 0.591330 0.298198 0.028121 0.352356 0.638906 0.855800 0.978311 0.991892 0.894032 0.694790 0.415928 0.088651 0.249784 0.560267 0.806372 0.958674 0.998384 0.919802 0.731264 0.454443 0.121982 0.226225 0.547791 0.802974 0.959674 0.997575 0.910920 0.709541 0.417919 0.072364 0.283385 0.603676 0.846788 0.980455 0.986281 0.862437 0.624223 0.302370 0.060765 0.416708 0.717265 0.921117 0.999615
1.000000 1.000000 1.000000 1.000000 1.000000 1.000000 1.000000 1.000000 1.000000 1.000000 1.000000 1.000000 1.000000 1.000000 1.000000 1.000000 1.000000 1.000000 1.000000 1.000000 1.000000 1.000000 1.000000 1.000000 1.000000 1.000000 1.000000 1.000000 1.000000 1.000000 1.000000 1.000000 1.000000 1.000000 1.000000 1.000000 1.000000 1.000000 1.000000 1.000000 1.000000 1.000000 1.000000 1.000000 1.000000 1.000000 1.000000 1.000000 1.000000 1.000000 1.000000 1.000000 0.910310 0.910310 0.900741 0.900741 0.900741 0.900741 0.900741 0.900741 0.900741 0.900741 0.900741 0.900741 0.900741 0.900741 0.900741 0.900741 0.900741 0.900741 0.900741 0.900741 0.900741 0.900741 0.900741 0.900741 0.900741 0.900741 0.900741 0.900741 0.900741 0.900741 0.900741 0.900741 0.900741 0.900741 0.900741 0.900741 0.900741 0.900741 0.900741 0.900741 0.900741 0.900741 0.900741 0.888309 0.895077 0.898231 0.900016 0.903774 0.904743 0.904034 0.903734 0.903468 0.903991 0.905417 0.913332 0.932058 0.942903 0.948944 0.953682 0.961527 0.963455 0.962727 0.968945 0.975128 0.973158 0.972806 0.973411 0.974775 0.976922 0.977111 0.978586 0.978872 0.979488 0.979700 0.979419 0.979003 0.978565 0.978395 0.977983 0.978135 0.978730 0.979111 0.979391 0.979599 0.979699 0.971012 0.970998 0.966258 0.966778 0.967870 0.967587 0.954262 0.951266 0.955086 0.954530 0.954371 0.954271 0.953859 0.954337 0.946489 0.942376 0.942396 0.929466 0.927380 0.926410 0.925152 0.924366 0.924592 0.923687 0.925541 0.923674 0.914258 0.907571 0.879351 0.900053 0.892887 0.863307 0.848293 0.851205 0.853648 0.854362 0.852280 0.849450 0.843914 0.835767 0.836813 0.839851 0.844748 0.842882 0.842917 0.845414 0.844706 0.824821 0.812469 0.799503 0.788839 0.788950 0.788786 0.785705 0.778435 0.786736 0.783393 0.779804 0.770992 0.764865 0.741981 0.723430 0.722699 0.731039 0.746404 0.741069 0.716141 0.686071 0.720482 0.714537 0.711304 0.714244 0.710100 0.683318 0.676395 0.680363 0.660140 0.670285 0.667945 0.664186 0.666013 0.649509 0.625082 0.628315 0.615373 0.603992 0.598419 0.600991 0.628453 0.586628 0.579979 0.567517 0.558394 0.557615 0.515153 0.522747 0.526663 0.508534 0.504318 0.485387 0.487342 0.490863 0.487927 0.479914 0.483937 0.481637 0.512696 0.501722 0.499910 0.499884 0.504238 0.481268 0.463755 0.452622 0.453140 0.449657 0.478587 0.478101 0.477262 0.478251 0.469988 0.453081 0.423770 0.416755 0.416707 0.388053 0.380228 0.352328 0.345750 0.368785 0.355960 0.322383 0.293810 0.266025 0.265537 0.256142 0.238482 0.259558 0.213111 0.148104 0.123971 0.118049 0.132729 0.153648 0.164552 0.146573 0.161898 0.201516 0.212486 0.201511 0.211856 0.176400 0.147898 0.169889 0.183717 0.127043 0.141131 0.123565 0.133656 0.132374 0.110505 0.126554 0.067815 0.041071 0.039085 0.061100 0.071050 0.065844 0.064209 0.056129 0.044658 0.060444 0.066909 0.071992 0.053850 0.094191 0.102124 0.102330 0.072849 0.066375 0.068702 0.086299 0.088611 0.086622 0.089234 0.113151 0.125154 0.128398 0.145006 0.139462 0.119664 0.114215 0.151181 0.162193 0.133289 0.154060 0.138374 0.093554 0.093554 0.075419 0.075419 0.075419 0.075419 0.075419 0.075419 0.075419 0.075419 0.075419 0.068547 0.068547 0.068547 0.068547 0.068547 0.068547 0.068547 0.068547 0.068547 0.068547 0.068547 0.068547 0.068547 0.068547 0.068547 0.068547 0.068547 0.068547
0.000000 0.000000 0.000000 0.000000 0.000000 0.000000 0.000000 0.000000 0.000000 0.000000 0.000000 0.000000 0.000000 0.000000 0.000000 0.000000 0.000000 0.000000 0.000000 0.000000 0.000000 0.000000 0.000000 0.000000 0.000000 0.000000 0.000000 0.000000 0.000000 0.000000 0.000000 0.000000 0.000000 0.000000 0.000000 0.000000 0.000000 0.000000 0.000000 0.000000 0.000000 0.000000 0.000000 0.000000 0.000000 0.000000 0.000000 0.000000 0.000000 0.000000 0.000000 0.000000 0.181818 0.181818 0.199007 0.199007 0.199007 0.199007 0.199007 0.199007 0.199007 0.199007 0.199007 0.199007 0.199007 0.199007 0.199007 0.199007 0.199007 0.199007 0.199007 0.199007 0.199007 0.199007 0.199007 0.199007 0.199007 0.199007 0.199007 0.199007 0.199007 0.199007 0.199007 0.199007 0.199007 0.199007 0.199007 0.199007 0.199007 0.199007 0.199007 0.199007 0.199007 0.199007 0.199007 0.230940 0.230940 0.230940 0.230940 0.230940 0.230940 0.230940 0.230940 0.230940 0.230940 0.230940 0.230940 0.230940 0.230940 0.230940 0.230940 0.230940 0.230940 0.230940 0.230940 0.230940 0.230940 0.230940 0.230940 0.230940 0.230940 0.230940 0.230940 0.244339 0.244339 0.244339 0.244339 0.244339 0.244339 0.244339 0.244339 0.244339 0.244339 0.244339 0.244339 0.244339 0.244339 0.244339 0.244339 0.244339 0.244339 0.244339 0.244339 0.244339 0.244339 0.244339 0.251976 0.251976 0.251976 0.251976 0.251976 0.251976 0.251976 0.251976 0.251976 0.251976 0.251976 0.251976 0.251976 0.251976 0.251976 0.251976 0.251976 0.251976 0.251976 0.251976 0.264906 0.264906 0.264906 0.264906 0.264906 0.264906 0.264906 0.264906 0.264906 0.264906 0.264906 0.264906 0.264906 0.264906 0.264906 0.264906 0.264906 0.264906 0.264906 0.264906 0.264906 0.264906 0.264906 0.264906 0.264906 0.264906 0.264906 0.264906 0.264906 0.264906 0.264906 0.264906 0.264906 0.264906 0.264906 0.264906 0.264906 0.264906 0.264906 0.264906 0.264906 0.264906 0.264906 0.264906 0.264906 0.264906 0.264906 0.264906 0.264906 0.264906 0.264906 0.264906 0.264906 0.264906 0.264906 0.264906 0.264906 0.264906 0.264906 0.264906 0.264906 0.264906 0.264906 0.264906 0.264906 0.264906 0.264906 0.264906 0.264906 0.264906 0.264906 0.264906 0.264906 0.264906 0.264906 0.269680 0.269680 0.269680 0.269680 0.269680 0.269680 0.269680 0.269680 0.269680 0.269680 0.269680 0.269680 0.264906 0.264906 0.264906 0.264906 0.264906 0.264906 0.264906 0.264906 0.264906 0.264906 0.264906 0.264906 0.269680 0.269680 0.269680 0.269680 0.269680 0.269680 0.269680 0.269680 0.269680 0.269680 0.269680 0.264906 0.264906 0.264906 0.264906 0.264906 0.264906 0.264906 0.264906 0.264906 0.264906 0.264906 0.256074 0.256074 0.256074 0.256074 0.256074 0.256074 0.256074 0.256074 0.256074 0.256074 0.256074 0.264906 0.264906 0.264906 0.264906 0.264906 0.264906 0.264906 0.264906 0.264906 0.264906 0.260378 0.260378 0.260378 0.260378 0.260378 0.260378 0.260378 0.260378 0.260378 0.260378 0.264906 0.264906 0.264906 0.264906 0.264906 0.264906 0.264906 0.264906 0.264906 0.260378 0.260378 0.260378 0.260378 0.260378 0.260378 0.260378 0.260378 0.260378 0.256074 0.256074 0.256074 0.256074 0.256074 0.256074 0.256074 0.256074 0.256074 0.251976 0.251976 0.251976 0.251976 0.251976 0.251976 0.251976 0.251976 0.251976 0.251976 0.251976 0.251976 0.251976 0.251976 0.251976 0.251976 0.251976 0.251976
