# Output from CTFFind version 4.1.9, run on 2019-11-02 17:44:44
# Input file: stack1_bm3d_averaged_1_1.25_0_750_half.mrc ; Number of micrographs: 1
# Pixel size: 3.000 Angstroms ; acceleration voltage: 300.0 keV ; spherical aberration: 0.00 mm ; amplitude contrast: 0.07
# Box size: 512 pixels ; min. res.: 30.0 Angstroms ; max. res.: 5.0 Angstroms ; min. def.: 5000.0 um; max. def. 50000.0 um; num. frames averaged: 1
# 6 lines per micrograph: #1 - spatial frequency (1/Angstroms); #2 - 1D rotational average of spectrum (assuming no astigmatism); #3 - 1D rotational average of spectrum; #4 - CTF fit; #5 - cross-correlation between spectrum and CTF fit; #6 - 2sigma of expected cross correlation of noise
0.000000 0.000651 0.001302 0.001953 0.002604 0.003255 0.003906 0.004557 0.005208 0.005859 0.006510 0.007161 0.007812 0.008464 0.009115 0.009766 0.010417 0.011068 0.011719 0.012370 0.013021 0.013672 0.014323 0.014974 0.015625 0.016276 0.016927 0.017578 0.018229 0.018880 0.019531 0.020182 0.020833 0.021484 0.022135 0.022786 0.023438 0.024089 0.024740 0.025391 0.026042 0.026693 0.027344 0.027995 0.028646 0.029297 0.029948 0.030599 0.031250 0.031901 0.032552 0.033203 0.033854 0.034505 0.035156 0.035807 0.036458 0.037109 0.037760 0.038411 0.039062 0.039714 0.040365 0.041016 0.041667 0.042318 0.042969 0.043620 0.044271 0.044922 0.045573 0.046224 0.046875 0.047526 0.048177 0.048828 0.049479 0.050130 0.050781 0.051432 0.052083 0.052734 0.053385 0.054036 0.054688 0.055339 0.055990 0.056641 0.057292 0.057943 0.058594 0.059245 0.059896 0.060547 0.061198 0.061849 0.062500 0.063151 0.063802 0.064453 0.065104 0.065755 0.066406 0.067057 0.067708 0.068359 0.069010 0.069661 0.070312 0.070964 0.071615 0.072266 0.072917 0.073568 0.074219 0.074870 0.075521 0.076172 0.076823 0.077474 0.078125 0.078776 0.079427 0.080078 0.080729 0.081380 0.082031 0.082682 0.083333 0.083984 0.084635 0.085286 0.085938 0.086589 0.087240 0.087891 0.088542 0.089193 0.089844 0.090495 0.091146 0.091797 0.092448 0.093099 0.093750 0.094401 0.095052 0.095703 0.096354 0.097005 0.097656 0.098307 0.098958 0.099609 0.100260 0.100911 0.101562 0.102214 0.102865 0.103516 0.104167 0.104818 0.105469 0.106120 0.106771 0.107422 0.108073 0.108724 0.109375 0.110026 0.110677 0.111328 0.111979 0.112630 0.113281 0.113932 0.114583 0.115234 0.115885 0.116536 0.117188 0.117839 0.118490 0.119141 0.119792 0.120443 0.121094 0.121745 0.122396 0.123047 0.123698 0.124349 0.125000 0.125651 0.126302 0.126953 0.127604 0.128255 0.128906 0.129557 0.130208 0.130859 0.131510 0.132161 0.132812 0.133464 0.134115 0.134766 0.135417 0.136068 0.136719 0.137370 0.138021 0.138672 0.139323 0.139974 0.140625 0.141276 0.141927 0.142578 0.143229 0.143880 0.144531 0.145182 0.145833 0.146484 0.147135 0.147786 0.148438 0.149089 0.149740 0.150391 0.151042 0.151693 0.152344 0.152995 0.153646 0.154297 0.154948 0.155599 0.156250 0.156901 0.157552 0.158203 0.158854 0.159505 0.160156 0.160807 0.161458 0.162109 0.162760 0.163411 0.164062 0.164714 0.165365 0.166016 0.166667 0.167318 0.167969 0.168620 0.169271 0.169922 0.170573 0.171224 0.171875 0.172526 0.173177 0.173828 0.174479 0.175130 0.175781 0.176432 0.177083 0.177734 0.178385 0.179036 0.179688 0.180339 0.180990 0.181641 0.182292 0.182943 0.183594 0.184245 0.184896 0.185547 0.186198 0.186849 0.187500 0.188151 0.188802 0.189453 0.190104 0.190755 0.191406 0.192057 0.192708 0.193359 0.194010 0.194661 0.195312 0.195964 0.196615 0.197266 0.197917 0.198568 0.199219 0.199870 0.200521 0.201172 0.201823 0.202474 0.203125 0.203776 0.204427 0.205078 0.205729 0.206380 0.207031 0.207682 0.208333 0.208984 0.209635 0.210286 0.210938 0.211589 0.212240 0.212891 0.213542 0.214193 0.214844 0.215495 0.216146 0.216797 0.217448 0.218099 0.218750 0.219401 0.220052 0.220703 0.221354 0.222005 0.222656 0.223307 0.223958 0.224609 0.225260 0.225911 0.226562 0.227214 0.227865 0.228516 0.229167 0.229818 0.230469 0.231120 0.231771 0.232422 0.233073 0.233724 0.234375 0.235026 0.235677
       0.33120        0.33120        0.33120        0.33120        0.33120        0.33120        0.33120        0.33120        0.33120        0.33120        0.33120        0.33120        0.33120        0.33120        0.33120        0.33120        0.33120        0.33120        0.33120        0.33120        0.33120        0.33120        0.33120        0.33120        0.33120        0.33120        0.33120        0.33120        0.33120        0.33120        0.33120        0.33120        0.33120        0.33120        0.33120        0.33120        0.33120        0.33120        0.33120        0.33120        0.33120        0.33120        0.33120        0.33120        0.33120        0.33120        0.33120        0.33120        0.33120        0.33120        0.33120        0.50079        0.71765        0.42645        0.18943       -0.08096       -0.26040       -0.06806       -0.13365       -0.05630       -0.00391       -0.14936       -0.09565       -0.05323       -0.00420       -0.15380       -0.22334       -0.34597       -0.46350       -0.56132       -0.51890       -0.45003       -0.37194       -0.54945       -0.45211       -0.62297       -0.50589       -0.47391       -0.39165       -0.38580       -0.33954       -0.25051       -0.16340       -0.14058        0.03105       -0.01420        0.11797        0.16567        0.30470        0.41047        0.46157        0.49772        0.54074        0.54890        0.68876        0.64348        0.67580        0.58869        0.55455        0.65109        0.52586        0.42591        0.38370        0.31769        0.22955        0.26059        0.25005        0.10295        0.07994       -0.00096       -0.00768        0.03529       -0.00932        0.07119        0.09652        0.23021        0.28429        0.29880        0.38216        0.56144        0.53464        0.57685        0.66793        0.69835        0.62786        0.63448        0.63283        0.55093        0.57165        0.39790        0.34588        0.26339        0.18214        0.07269        0.14280        0.11616        0.09447        0.10600        0.20584        0.20733        0.31490        0.35747        0.41119        0.49037        0.57765        0.54288        0.55558        0.60356        0.53430        0.46006        0.48224        0.32375        0.24663        0.25618        0.24109        0.13792        0.14236        0.15073        0.22002        0.24310        0.33097        0.36805        0.39225        0.46414        0.44399        0.47651        0.44625        0.47007        0.44510        0.40173        0.37995        0.35462        0.31308        0.28722        0.20491        0.19741        0.22099        0.26892        0.26358        0.34558        0.37410        0.35501        0.40885        0.45043        0.44314        0.42407        0.44215        0.37149        0.33279        0.27909        0.25855        0.28881        0.26347        0.29299        0.29942        0.34362        0.33796        0.39489        0.39790        0.42259        0.40783        0.43265        0.40193        0.36379        0.28195        0.28837        0.30223        0.27419        0.25190        0.32458        0.36891        0.33800        0.35309        0.36097        0.35147        0.40636        0.40191        0.36263        0.33769        0.30566        0.31041        0.31769        0.31390        0.29859        0.28321        0.33639        0.35841        0.37545        0.33474        0.33011        0.33449        0.34559        0.30757        0.28036        0.30538        0.31535        0.33474        0.31815        0.32874        0.35369        0.32797        0.31445        0.32645        0.29809        0.25924        0.25082        0.26448        0.30444        0.32064        0.35344        0.29910        0.30915        0.32916        0.29113        0.31617        0.28819        0.28055        0.28981        0.29486        0.30713        0.34330        0.32608        0.32891        0.33339        0.31848        0.33402        0.31650        0.31910        0.31237        0.27547        0.28569        0.30398        0.28821        0.32272        0.32927        0.33429        0.32321        0.34625        0.32113        0.27940        0.24671        0.26950        0.32915        0.35635        0.34370        0.31492        0.29101        0.29822        0.31122        0.25221        0.29634        0.30333        0.32903        0.29586        0.30288        0.27573        0.33354        0.33807        0.33948        0.31620        0.29154        0.31219        0.39590        0.33063        0.31151        0.30528        0.29274        0.28171        0.29798        0.27651        0.31475        0.23088        0.26689        0.29764        0.31141        0.29514        0.26671        0.29099        0.23852        0.22203        0.26824        0.30186        0.30404        0.28214        0.28022        0.33174        0.25678        0.22436        0.29908        0.26268        0.26103        0.27793        0.38257        0.28257        0.28410        0.25130        0.24400        0.26969        0.25715        0.23347        0.17400        0.24507        0.23062        0.24684        0.31431        0.26819        0.34886        0.30307        0.24665        0.22849        0.21422        0.24865        0.30298        0.22409        0.13414        0.17741        0.24210        0.23782        0.30747        0.24911        0.03604       -0.43281       -0.94641
2.695907 2.667514 2.639273 2.611183 2.583246 2.555461 2.527827 2.500346 2.473016 2.445839 2.418814 2.391941 2.365219 2.338650 2.312232 2.285967 2.259854 2.233893 2.208083 2.182426 2.156921 2.131567 2.106366 2.081317 2.056419 2.031674 2.007081 1.982639 1.958350 1.934213 1.910228 1.886394 1.862713 1.839184 1.815806 1.792581 1.769508 1.746587 1.723817 1.701200 1.678735 1.656422 1.634260 1.612251 1.590394 1.568688 1.547135 1.525734 1.504485 1.483387 1.462442 1.533203 1.839189 1.532394 1.164323 0.941783 0.545087 0.915853 0.634433 0.873200 0.927263 0.590301 0.707757 0.779383 0.822688 0.627189 0.535127 0.348567 0.099852 0.072661 0.040733 0.075873 0.301860 -0.041249 0.076818 -0.139609 -0.020663 -0.017842 0.078677 0.058186 0.101545 0.175718 0.281640 0.246729 0.483223 0.398802 0.551698 0.529522 0.772806 0.796501 0.884199 0.932963 0.945324 0.955101 1.112554 0.957327 1.150542 0.952406 0.859410 1.023080 0.854708 0.764082 0.625305 0.597737 0.463484 0.420355 0.511402 0.267841 0.197671 0.158769 0.013313 0.210110 -0.006518 0.118843 0.179798 0.261685 0.340818 0.349063 0.433336 0.548901 0.669908 0.545715 0.753186 0.859512 0.646039 0.705167 0.677002 0.599012 0.540978 0.473581 0.305722 0.217543 0.119174 -0.039733 -0.016047 0.056001 -0.091568 -0.055804 0.053186 0.051766 0.111252 0.225485 0.242043 0.316167 0.434906 0.445526 0.452972 0.479714 0.451467 0.328185 0.341631 0.249254 0.047916 0.062697 0.021950 -0.050849 -0.098509 -0.098232 -0.013964 -0.052061 0.076419 0.129970 0.133201 0.260595 0.226479 0.250022 0.285528 0.259549 0.248992 0.213645 0.171798 0.116369 0.110250 0.029030 0.014315 -0.117281 -0.051153 0.010401 0.001353 0.017261 0.100819 0.085067 0.137126 0.186336 0.258587 0.171157 0.194934 0.113881 0.142087 0.018407 -0.036318 0.018723 -0.021659 -0.001218 -0.003812 0.034210 0.075006 0.056289 0.146865 0.105465 0.165120 0.068042 0.150958 0.093154 -0.006105 -0.058044 -0.021136 -0.032966 -0.072360 -0.070180 0.053155 0.062766 -0.010468 0.061187 0.058096 0.069595 0.145709 0.073248 0.068692 0.045652 -0.024464 0.029570 0.003478 0.010663 0.003806 -0.005948 0.037408 0.069988 0.070092 0.033654 0.045882 0.019724 0.062985 -0.011962 -0.019017 0.022384 0.012266 0.060584 0.034235 0.039797 0.069610 0.032516 0.016738 0.032526 -0.007056 -0.051191 -0.031861 -0.028849 0.023321 0.041266 0.101644 -0.004403 0.057461 0.053212 -0.000718 0.065178 0.025195 0.013744 0.043887 0.054155 0.048116 0.101337 0.061608 0.080117 0.092082 0.081438 0.070610 0.073518 0.092319 0.043394 -0.007708 0.049959 0.038295 0.052180 0.074163 0.096026 0.005307 0.070072 0.087098 0.014491 0.015615 -0.070837 -0.014321 0.112074 0.081102 0.055684 0.041787 -0.011444 0.045243 0.025175 -0.055381 0.046571 0.041235 0.068607 0.039798 -0.003152 -0.001725 0.057704 0.048845 0.024090 0.037279 -0.031554 0.068885 0.120537 0.018374 -0.004523 0.001111 -0.001746 -0.029903 -0.018038 -0.037184 0.003634 -0.102697 -0.025791 -0.021017 0.020397 -0.028751 -0.027473 -0.010971 -0.070640 -0.049639 -0.055205 0.045633 0.012410 0.015399 -0.006448 0.096868 -0.057717 -0.035844 0.033393 -0.014722 0.023653 0.003619 0.190677 -0.032431 0.018747 0.027040 -0.027286 0.006977 -0.003838 -0.019446 -0.144788 0.009925 -0.032514 0.001927 0.037083 -0.000195 0.142140 0.046616 -0.007853 -0.038814 -0.029457 -0.033842 0.056041 0.272413 0.165280 0.227924 0.241752 0.319173 0.342828 0.285373 0.044841 -1.120233
0.072396 0.072910 0.074451 0.077018 0.080612 0.085232 0.090875 0.097540 0.105226 0.113929 0.123645 0.134370 0.146098 0.158824 0.172537 0.187229 0.202888 0.219500 0.237050 0.255518 0.274885 0.295125 0.316210 0.338110 0.360790 0.384209 0.408324 0.433086 0.458441 0.484329 0.510686 0.537441 0.564515 0.591826 0.619283 0.646789 0.674239 0.701521 0.728519 0.755105 0.781147 0.806506 0.831035 0.854580 0.876984 0.898081 0.917701 0.935670 0.951808 0.965936 0.977870 0.987425 0.994418 0.998668 0.999994 0.998223 0.993188 0.984730 0.972698 0.956957 0.937383 0.913872 0.886337 0.854712 0.818955 0.779050 0.735009 0.686876 0.634726 0.578668 0.518851 0.455459 0.388717 0.318892 0.246291 0.171264 0.094204 0.015544 0.064240 0.144635 0.225087 0.305013 0.383794 0.460786 0.535322 0.606721 0.674287 0.737322 0.795133 0.847037 0.892373 0.930508 0.960848 0.982850 0.996028 0.999967 0.994329 0.978867 0.953432 0.917980 0.872584 0.817437 0.752860 0.679306 0.597360 0.507745 0.411314 0.309051 0.202063 0.091575 0.021086 0.134500 0.247170 0.357547 0.464040 0.565048 0.658981 0.744285 0.819475 0.883160 0.934071 0.971093 0.993294 0.999947 0.990560 0.964894 0.922985 0.865158 0.792034 0.704538 0.603897 0.491629 0.369534 0.239669 0.104323 0.034022 0.172730 0.309058 0.440212 0.563401 0.675903 0.775124 0.858667 0.924395 0.970491 0.995520 0.998478 0.978841 0.936595 0.872268 0.786936 0.682228 0.560304 0.423831 0.275930 0.120124 0.039749 0.199612 0.355263 0.502474 0.637117 0.755276 0.853377 0.928299 0.977492 0.999070 0.991902 0.955676 0.890941 0.799132 0.682557 0.544365 0.388476 0.219492 0.042567 0.136735 0.312609 0.479200 0.630794 0.762029 0.868087 0.944890 0.989276 0.999143 0.973571 0.912901 0.818767 0.694091 0.543012 0.370787 0.183614 0.011562 0.207304 0.395950 0.569928 0.722051 0.845840 0.935807 0.987729 0.998865 0.968130 0.896200 0.785543 0.640375 0.466537 0.271283 0.063008 0.149098 0.355446 0.546481 0.713130 0.847246 0.942032 0.992411 0.995334 0.949992 0.857934 0.723063 0.551525 0.351455 0.132637 0.093959 0.316706 0.523916 0.704456 0.848373 0.947454 0.995743 0.989931 0.929628 0.817470 0.659067 0.462773 0.239290 0.001116 0.238121 0.464445 0.664344 0.825593 0.938036 0.994262 0.990139 0.925173 0.802636 0.629482 0.415996 0.175250 0.077670 0.326582 0.555243 0.748403 0.892871 0.978434 0.998647 0.951369 0.839031 0.668600 0.451204 0.201486 0.063349 0.324697 0.563834 0.763281 0.908118 0.987130 0.993753 0.926680 0.790100 0.593526 0.351211 0.081175 0.196086 0.459138 0.687262 0.862117 0.969254 0.999382 0.949244 0.822040 0.627326 0.380388 0.101113 0.187555 0.461482 0.697343 0.874660 0.977615 0.996547 0.928936 0.779809 0.561468 0.292586 0.003329 0.299932 0.570357 0.789683 0.937255 0.998714 0.967480 0.845552 0.643529 0.379789 0.078928 0.230491 0.518593 0.757093 0.922124 0.996677 0.972470 0.850974 0.643479 0.370180 0.058307 0.260507 0.553424 0.789762 0.944281 0.999956 0.949969 0.798660 0.561307 0.262712 0.065283 0.387134 0.667423 0.874786 0.985496 0.986288 0.876075 0.666340 0.380085 0.049437 0.287875 0.592774 0.829393 0.969351 0.995264 0.903053 0.702697 0.417334 0.080721 0.266660 0.582407 0.827411 0.970742 0.993694 0.892362 0.678443 0.378057 0.028722 0.325252 0.638319 0.869591 0.988268 0.977866 0.838675 0.588066 0.258479 0.106590 0.458283 0.748880 0.938307 0.999814
1.000000 1.000000 1.000000 1.000000 1.000000 1.000000 1.000000 1.000000 1.000000 1.000000 1.000000 1.000000 1.000000 1.000000 1.000000 1.000000 1.000000 1.000000 1.000000 1.000000 1.000000 1.000000 1.000000 1.000000 1.000000 1.000000 1.000000 1.000000 1.000000 1.000000 1.000000 1.000000 1.000000 1.000000 1.000000 1.000000 1.000000 1.000000 1.000000 1.000000 1.000000 1.000000 1.000000 1.000000 1.000000 1.000000 1.000000 1.000000 1.000000 1.000000 1.000000 1.000000 0.918154 0.918154 0.904296 0.904296 0.904296 0.904296 0.904296 0.904296 0.904296 0.904296 0.904296 0.904296 0.904296 0.904296 0.904296 0.904296 0.904296 0.904296 0.904296 0.904296 0.904296 0.904296 0.904296 0.904296 0.904296 0.904296 0.904296 0.904296 0.904296 0.904296 0.904296 0.904296 0.904296 0.904296 0.904296 0.904296 0.904296 0.904296 0.904296 0.904296 0.904296 0.904296 0.904296 0.900408 0.905062 0.907071 0.905382 0.908999 0.909086 0.908364 0.908651 0.908265 0.908553 0.909944 0.920521 0.931634 0.942772 0.943337 0.948453 0.952886 0.955165 0.956117 0.957546 0.967147 0.965915 0.965358 0.966079 0.967683 0.969929 0.968492 0.968298 0.971407 0.972142 0.970372 0.968325 0.967697 0.967067 0.967140 0.966727 0.966622 0.966523 0.967023 0.967247 0.967466 0.967605 0.967637 0.968661 0.969817 0.972063 0.973032 0.972812 0.971604 0.965918 0.969868 0.970404 0.970111 0.970021 0.969530 0.969864 0.957854 0.952804 0.952762 0.948788 0.947923 0.945346 0.943655 0.941575 0.941667 0.940323 0.941064 0.937989 0.926376 0.913480 0.902024 0.922096 0.907834 0.895868 0.873309 0.873244 0.870189 0.870845 0.863698 0.857588 0.853281 0.850270 0.851477 0.850797 0.854298 0.851786 0.838288 0.841136 0.838344 0.808539 0.794707 0.776623 0.776153 0.773797 0.775138 0.774432 0.771939 0.780200 0.770410 0.769110 0.760837 0.741818 0.708671 0.692676 0.702850 0.712554 0.712255 0.708726 0.693545 0.659706 0.672208 0.700490 0.693227 0.695735 0.687545 0.680841 0.681074 0.683787 0.676072 0.668551 0.667829 0.666438 0.674412 0.677953 0.672938 0.663650 0.648623 0.635412 0.621827 0.635254 0.637607 0.603830 0.598328 0.587910 0.580299 0.569037 0.542902 0.540005 0.515566 0.505351 0.505664 0.509154 0.508841 0.516957 0.518770 0.500867 0.519513 0.525162 0.553172 0.530911 0.529701 0.531357 0.537966 0.523915 0.504405 0.499184 0.500191 0.511210 0.539536 0.575847 0.565501 0.551065 0.539740 0.550959 0.523812 0.531999 0.552947 0.528149 0.463850 0.413149 0.410429 0.370389 0.368070 0.348996 0.339846 0.342225 0.334408 0.324371 0.310907 0.298527 0.241976 0.202630 0.185593 0.163576 0.173277 0.191034 0.182309 0.185227 0.212209 0.261134 0.261014 0.251572 0.249317 0.235063 0.198967 0.201845 0.223765 0.178987 0.172599 0.164820 0.136739 0.127590 0.078299 0.115395 0.017941 -0.000619 -0.003725 0.016126 0.027075 0.028708 0.033173 0.000317 0.015277 0.053585 0.057135 0.043704 -0.023743 -0.006868 0.003858 0.004066 -0.020028 -0.045175 -0.047445 -0.065725 -0.069023 -0.049328 0.018731 0.077417 0.080020 0.061187 0.091947 0.091523 0.074791 0.078404 0.055081 0.043721 0.027810 0.019229 -0.025706 -0.055799 -0.055799 -0.051826 -0.051826 -0.051826 -0.051826 -0.051826 -0.051826 -0.051826 -0.051826 -0.051826 -0.054898 -0.054898 -0.054898 -0.054898 -0.054898 -0.054898 -0.054898 -0.054898 -0.054898 -0.027292 -0.027292 -0.027292 -0.027292 -0.027292 -0.027292 -0.027292 -0.027292 -0.027292
0.000000 0.000000 0.000000 0.000000 0.000000 0.000000 0.000000 0.000000 0.000000 0.000000 0.000000 0.000000 0.000000 0.000000 0.000000 0.000000 0.000000 0.000000 0.000000 0.000000 0.000000 0.000000 0.000000 0.000000 0.000000 0.000000 0.000000 0.000000 0.000000 0.000000 0.000000 0.000000 0.000000 0.000000 0.000000 0.000000 0.000000 0.000000 0.000000 0.000000 0.000000 0.000000 0.000000 0.000000 0.000000 0.000000 0.000000 0.000000 0.000000 0.000000 0.000000 0.000000 0.181818 0.181818 0.199007 0.199007 0.199007 0.199007 0.199007 0.199007 0.199007 0.199007 0.199007 0.199007 0.199007 0.199007 0.199007 0.199007 0.199007 0.199007 0.199007 0.199007 0.199007 0.199007 0.199007 0.199007 0.199007 0.199007 0.199007 0.199007 0.199007 0.199007 0.199007 0.199007 0.199007 0.199007 0.199007 0.199007 0.199007 0.199007 0.199007 0.199007 0.199007 0.199007 0.199007 0.230940 0.230940 0.230940 0.230940 0.230940 0.230940 0.230940 0.230940 0.230940 0.230940 0.230940 0.230940 0.230940 0.230940 0.230940 0.230940 0.230940 0.230940 0.230940 0.230940 0.230940 0.230940 0.230940 0.230940 0.230940 0.230940 0.230940 0.230940 0.244339 0.244339 0.244339 0.244339 0.244339 0.244339 0.244339 0.244339 0.244339 0.244339 0.244339 0.244339 0.244339 0.244339 0.244339 0.244339 0.244339 0.244339 0.244339 0.244339 0.244339 0.244339 0.244339 0.251976 0.251976 0.251976 0.251976 0.251976 0.251976 0.251976 0.251976 0.251976 0.251976 0.251976 0.251976 0.251976 0.251976 0.251976 0.251976 0.251976 0.251976 0.251976 0.251976 0.264906 0.264906 0.264906 0.264906 0.264906 0.264906 0.264906 0.264906 0.264906 0.264906 0.264906 0.264906 0.264906 0.264906 0.264906 0.264906 0.264906 0.264906 0.264906 0.264906 0.264906 0.264906 0.264906 0.264906 0.264906 0.264906 0.264906 0.264906 0.264906 0.264906 0.264906 0.264906 0.264906 0.264906 0.264906 0.264906 0.264906 0.264906 0.264906 0.264906 0.264906 0.264906 0.264906 0.264906 0.264906 0.264906 0.264906 0.264906 0.264906 0.264906 0.264906 0.264906 0.264906 0.264906 0.264906 0.264906 0.264906 0.264906 0.264906 0.264906 0.264906 0.264906 0.264906 0.264906 0.264906 0.264906 0.264906 0.264906 0.264906 0.264906 0.264906 0.264906 0.264906 0.264906 0.264906 0.269680 0.269680 0.269680 0.269680 0.269680 0.269680 0.269680 0.269680 0.269680 0.269680 0.269680 0.269680 0.264906 0.264906 0.264906 0.264906 0.264906 0.264906 0.264906 0.264906 0.264906 0.264906 0.264906 0.264906 0.269680 0.269680 0.269680 0.269680 0.269680 0.269680 0.269680 0.269680 0.269680 0.269680 0.269680 0.264906 0.264906 0.264906 0.264906 0.264906 0.264906 0.264906 0.264906 0.264906 0.264906 0.264906 0.256074 0.256074 0.256074 0.256074 0.256074 0.256074 0.256074 0.256074 0.256074 0.256074 0.256074 0.264906 0.264906 0.264906 0.264906 0.264906 0.264906 0.264906 0.264906 0.264906 0.264906 0.260378 0.260378 0.260378 0.260378 0.260378 0.260378 0.260378 0.260378 0.260378 0.260378 0.264906 0.264906 0.264906 0.264906 0.264906 0.264906 0.264906 0.264906 0.264906 0.260378 0.260378 0.260378 0.260378 0.260378 0.260378 0.260378 0.260378 0.260378 0.256074 0.256074 0.256074 0.256074 0.256074 0.256074 0.256074 0.256074 0.256074 0.251976 0.251976 0.251976 0.251976 0.251976 0.251976 0.251976 0.251976 0.251976 0.264906 0.264906 0.264906 0.264906 0.264906 0.264906 0.264906 0.264906 0.264906
