# Output from CTFFind version 4.1.9, run on 2019-11-03 19:26:49
# Input file: stack6_bm3d_averaged_1_3.75_0_1000_half.mrc ; Number of micrographs: 1
# Pixel size: 3.000 Angstroms ; acceleration voltage: 300.0 keV ; spherical aberration: 0.00 mm ; amplitude contrast: 0.07
# Box size: 512 pixels ; min. res.: 30.0 Angstroms ; max. res.: 5.0 Angstroms ; min. def.: 5000.0 um; max. def. 50000.0 um; num. frames averaged: 1
# 6 lines per micrograph: #1 - spatial frequency (1/Angstroms); #2 - 1D rotational average of spectrum (assuming no astigmatism); #3 - 1D rotational average of spectrum; #4 - CTF fit; #5 - cross-correlation between spectrum and CTF fit; #6 - 2sigma of expected cross correlation of noise
0.000000 0.000651 0.001302 0.001953 0.002604 0.003255 0.003906 0.004557 0.005208 0.005859 0.006510 0.007161 0.007812 0.008464 0.009115 0.009766 0.010417 0.011068 0.011719 0.012370 0.013021 0.013672 0.014323 0.014974 0.015625 0.016276 0.016927 0.017578 0.018229 0.018880 0.019531 0.020182 0.020833 0.021484 0.022135 0.022786 0.023438 0.024089 0.024740 0.025391 0.026042 0.026693 0.027344 0.027995 0.028646 0.029297 0.029948 0.030599 0.031250 0.031901 0.032552 0.033203 0.033854 0.034505 0.035156 0.035807 0.036458 0.037109 0.037760 0.038411 0.039062 0.039714 0.040365 0.041016 0.041667 0.042318 0.042969 0.043620 0.044271 0.044922 0.045573 0.046224 0.046875 0.047526 0.048177 0.048828 0.049479 0.050130 0.050781 0.051432 0.052083 0.052734 0.053385 0.054036 0.054688 0.055339 0.055990 0.056641 0.057292 0.057943 0.058594 0.059245 0.059896 0.060547 0.061198 0.061849 0.062500 0.063151 0.063802 0.064453 0.065104 0.065755 0.066406 0.067057 0.067708 0.068359 0.069010 0.069661 0.070312 0.070964 0.071615 0.072266 0.072917 0.073568 0.074219 0.074870 0.075521 0.076172 0.076823 0.077474 0.078125 0.078776 0.079427 0.080078 0.080729 0.081380 0.082031 0.082682 0.083333 0.083984 0.084635 0.085286 0.085938 0.086589 0.087240 0.087891 0.088542 0.089193 0.089844 0.090495 0.091146 0.091797 0.092448 0.093099 0.093750 0.094401 0.095052 0.095703 0.096354 0.097005 0.097656 0.098307 0.098958 0.099609 0.100260 0.100911 0.101562 0.102214 0.102865 0.103516 0.104167 0.104818 0.105469 0.106120 0.106771 0.107422 0.108073 0.108724 0.109375 0.110026 0.110677 0.111328 0.111979 0.112630 0.113281 0.113932 0.114583 0.115234 0.115885 0.116536 0.117188 0.117839 0.118490 0.119141 0.119792 0.120443 0.121094 0.121745 0.122396 0.123047 0.123698 0.124349 0.125000 0.125651 0.126302 0.126953 0.127604 0.128255 0.128906 0.129557 0.130208 0.130859 0.131510 0.132161 0.132812 0.133464 0.134115 0.134766 0.135417 0.136068 0.136719 0.137370 0.138021 0.138672 0.139323 0.139974 0.140625 0.141276 0.141927 0.142578 0.143229 0.143880 0.144531 0.145182 0.145833 0.146484 0.147135 0.147786 0.148438 0.149089 0.149740 0.150391 0.151042 0.151693 0.152344 0.152995 0.153646 0.154297 0.154948 0.155599 0.156250 0.156901 0.157552 0.158203 0.158854 0.159505 0.160156 0.160807 0.161458 0.162109 0.162760 0.163411 0.164062 0.164714 0.165365 0.166016 0.166667 0.167318 0.167969 0.168620 0.169271 0.169922 0.170573 0.171224 0.171875 0.172526 0.173177 0.173828 0.174479 0.175130 0.175781 0.176432 0.177083 0.177734 0.178385 0.179036 0.179688 0.180339 0.180990 0.181641 0.182292 0.182943 0.183594 0.184245 0.184896 0.185547 0.186198 0.186849 0.187500 0.188151 0.188802 0.189453 0.190104 0.190755 0.191406 0.192057 0.192708 0.193359 0.194010 0.194661 0.195312 0.195964 0.196615 0.197266 0.197917 0.198568 0.199219 0.199870 0.200521 0.201172 0.201823 0.202474 0.203125 0.203776 0.204427 0.205078 0.205729 0.206380 0.207031 0.207682 0.208333 0.208984 0.209635 0.210286 0.210938 0.211589 0.212240 0.212891 0.213542 0.214193 0.214844 0.215495 0.216146 0.216797 0.217448 0.218099 0.218750 0.219401 0.220052 0.220703 0.221354 0.222005 0.222656 0.223307 0.223958 0.224609 0.225260 0.225911 0.226562 0.227214 0.227865 0.228516 0.229167 0.229818 0.230469 0.231120 0.231771 0.232422 0.233073 0.233724 0.234375 0.235026 0.235677
       0.30057        0.30057        0.30057        0.30057        0.30057        0.30057        0.30057        0.30057        0.30057        0.30057        0.30057        0.30057        0.30057        0.30057        0.30057        0.30057        0.30057        0.30057        0.30057        0.30057        0.30057        0.30057        0.30057        0.30057        0.30057        0.30057        0.30057        0.30057        0.30057        0.30057        0.30057        0.30057        0.30057        0.30057        0.30057        0.30057        0.30057        0.30057        0.30057        0.30057        0.30057        0.30057        0.30057        0.30057        0.30057        0.30057        0.30057        0.30057        0.30057        0.30057        0.30057        0.61195        0.76084        0.36699        0.22930        0.13901       -0.14445        0.11793        0.02494        0.03933        0.09931        0.33002        0.37468        0.31332        0.18641       -0.02490        0.01152        0.05167       -0.16507       -0.17445       -0.09215       -0.12160       -0.27739       -0.16999       -0.30606       -0.29133       -0.30513       -0.38086       -0.45443       -0.43218       -0.35109       -0.30940       -0.40163       -0.30381       -0.36978       -0.30678       -0.24038       -0.18674       -0.14935       -0.06331       -0.03762        0.08341        0.11829        0.22025        0.32456        0.38827        0.37280        0.47744        0.56709        0.58624        0.66813        0.63592        0.69075        0.60903        0.63974        0.64340        0.58037        0.57893        0.58739        0.39964        0.34103        0.35520        0.33990        0.18379        0.12616        0.07523        0.07079        0.05399       -0.04548        0.01964       -0.02097       -0.06475        0.06680        0.16134        0.26237        0.33225        0.32744        0.38277        0.49720        0.52735        0.47498        0.64966        0.52652        0.50456        0.55627        0.53340        0.51434        0.45824        0.38305        0.34487        0.24209        0.19660        0.15318        0.15576        0.12195        0.06742        0.11225        0.14958        0.18261        0.17042        0.22994        0.26497        0.33346        0.44774        0.42739        0.43051        0.48595        0.53864        0.52751        0.48506        0.37835        0.40285        0.35910        0.27672        0.22730        0.22715        0.18627        0.17147        0.15977        0.18027        0.16054        0.21232        0.26329        0.33413        0.37831        0.39721        0.45150        0.47839        0.44636        0.43401        0.40081        0.40265        0.39471        0.34708        0.28476        0.27195        0.22041        0.24646        0.23434        0.19426        0.22797        0.23342        0.24901        0.32200        0.35543        0.37566        0.38495        0.39465        0.42205        0.41090        0.40853        0.30507        0.29405        0.26013        0.27730        0.23858        0.19899        0.25561        0.31054        0.29611        0.28093        0.32857        0.28991        0.37203        0.34094        0.35235        0.36326        0.35429        0.31486        0.30042        0.28269        0.27642        0.25370        0.24543        0.24887        0.27848        0.28448        0.30999        0.34604        0.36504        0.33298        0.32474        0.34458        0.31221        0.27645        0.28425        0.26438        0.26450        0.26292        0.29310        0.27836        0.26696        0.29903        0.30176        0.32323        0.32673        0.32989        0.27200        0.26800        0.28580        0.27995        0.26690        0.25717        0.22659        0.24529        0.25580        0.25625        0.27129        0.27388        0.31472        0.32895        0.30874        0.30211        0.23105        0.23565        0.26904        0.23234        0.21108        0.25904        0.31097        0.24868        0.29652        0.29606        0.29245        0.31535        0.26462        0.28050        0.28624        0.27059        0.26103        0.22552        0.24627        0.24370        0.28715        0.29606        0.30727        0.29794        0.32233        0.24481        0.29903        0.28966        0.22099        0.29029        0.26754        0.28697        0.29074        0.30287        0.30702        0.34388        0.28724        0.24373        0.24454        0.21687        0.24254        0.27960        0.29848        0.27663        0.27688        0.27065        0.26687        0.26174        0.27714        0.22768        0.26797        0.24506        0.23598        0.23442        0.29899        0.30228        0.27377        0.27263        0.22602        0.28929        0.23146        0.20182        0.22999        0.27835        0.26999        0.31079        0.24460        0.20878        0.25661        0.22645        0.23799        0.19620        0.20760        0.19998        0.25622        0.25541        0.20112        0.26325        0.23564        0.29115        0.23512        0.23031        0.24692        0.20795        0.13063        0.18150        0.13098        0.16402        0.18273        0.09682        0.30031        0.13087        0.06493        0.12215        0.11478        0.21282        0.23297       -0.02230       -0.70683       -0.98503
3.002080 2.972357 2.942787 2.913369 2.884104 2.854991 2.826031 2.797223 2.768568 2.740065 2.711714 2.683516 2.655471 2.627577 2.599836 2.572248 2.544812 2.517529 2.490398 2.463419 2.436593 2.409919 2.383398 2.357029 2.330812 2.304748 2.278837 2.253078 2.227471 2.202017 2.176715 2.151565 2.126569 2.101724 2.077032 2.052492 2.028105 2.003870 1.979788 1.955858 1.932081 1.908456 1.884983 1.861663 1.838495 1.815480 1.792617 1.769907 1.747349 1.724943 1.702690 2.043708 2.378959 1.740869 1.698261 1.382753 0.856395 1.242402 1.098109 1.140992 0.997788 1.595658 1.527194 1.520575 1.269536 0.938247 0.775001 1.017624 0.746482 0.431322 0.568361 0.664780 0.392333 0.460019 0.283088 0.244697 0.159932 0.152918 -0.097693 -0.045954 0.052649 0.040018 0.009507 0.109592 -0.055729 -0.007280 0.131766 0.200317 0.247436 0.325448 0.350898 0.634790 0.534452 0.678717 0.909043 0.959542 0.917789 1.176857 1.187610 1.265995 1.348231 1.220462 1.436891 1.195959 1.188603 1.354047 1.148464 1.081502 1.194328 0.933084 0.672370 0.699373 0.745161 0.448174 0.377101 0.256470 0.188171 0.149886 0.007548 0.127775 0.028789 -0.088111 0.077261 0.215319 0.334323 0.501287 0.517543 0.520198 0.717303 0.807714 0.598988 0.983184 0.874065 0.635960 0.782009 0.695103 0.737715 0.695271 0.443024 0.465145 0.269398 0.191890 0.128576 0.002243 0.053042 -0.096109 -0.033888 -0.027871 0.099546 -0.038285 0.208583 0.152642 0.198750 0.396101 0.470930 0.408786 0.382961 0.607960 0.608912 0.489139 0.352237 0.344394 0.322398 0.180265 0.061207 0.047172 0.021578 -0.023990 -0.081826 -0.046654 -0.108515 0.015296 0.012628 0.132455 0.237096 0.240890 0.361303 0.344437 0.405749 0.360884 0.436707 0.364360 0.264000 0.341339 0.141965 0.182438 0.050821 0.091719 0.048081 0.035857 -0.044434 0.060700 0.035407 0.118796 0.233925 0.245046 0.256875 0.272241 0.327139 0.323484 0.322442 0.212013 0.097809 0.130820 0.051953 0.058549 -0.028098 -0.031574 0.076192 0.128740 0.096861 0.089370 0.117223 0.178532 0.202710 0.168912 0.185504 0.222000 0.138277 0.111468 0.079886 0.058680 0.064356 -0.032088 0.030178 0.061095 0.010741 0.100348 0.117899 0.198910 0.210257 0.155732 0.131069 0.175793 0.087276 0.060463 0.086121 0.023997 0.022430 0.065587 0.075488 0.062385 0.030731 0.121077 0.092929 0.141111 0.147398 0.112274 0.069101 0.023498 0.078963 0.047513 0.054351 -0.007009 -0.037386 0.013914 0.003701 0.013198 0.067865 0.012351 0.114835 0.146491 0.054226 0.068741 -0.052083 0.008662 0.024490 -0.059776 -0.063772 0.053821 0.078916 -0.035051 0.071571 0.053140 0.081407 0.058045 -0.003935 0.009601 0.099158 -0.050877 0.013493 -0.049491 -0.012927 -0.047720 0.060659 0.051209 0.061865 0.032134 0.109391 -0.055940 0.071397 -0.007953 -0.071366 0.042978 -0.018888 0.031155 0.009391 0.104399 0.054374 0.067337 0.036414 -0.118100 -0.021046 -0.115351 -0.019731 0.014144 0.017045 0.009804 -0.031541 0.003682 -0.016193 -0.054070 -0.008695 -0.130026 -0.009556 -0.055780 -0.095129 -0.042059 0.027721 0.000527 -0.002599 0.018987 -0.051413 0.055148 -0.034551 -0.104090 -0.029249 0.055866 0.064215 0.084144 0.001253 -0.038219 0.047121 0.004837 -0.053046 -0.004482 -0.098415 0.008248 0.087788 0.063722 -0.020315 0.117185 0.053790 0.187952 0.046835 0.112492 0.114904 0.071678 -0.124095 0.054852 -0.109513 0.086894 0.050995 -0.017728 0.485721 0.155128 0.100729 0.253548 0.210424 0.298635 0.321321 -0.022850 -1.575131
0.072396 0.072835 0.074150 0.076342 0.079409 0.083353 0.088170 0.093861 0.100424 0.107856 0.116156 0.125320 0.135344 0.146224 0.157955 0.170530 0.183942 0.198181 0.213237 0.229099 0.245753 0.263182 0.281370 0.300296 0.319938 0.340270 0.361264 0.382889 0.405110 0.427889 0.451184 0.474950 0.499136 0.523688 0.548549 0.573653 0.598935 0.624320 0.649730 0.675084 0.700292 0.725261 0.749892 0.774082 0.797722 0.820698 0.842892 0.864179 0.884433 0.903522 0.921311 0.937661 0.952431 0.965478 0.976658 0.985825 0.992835 0.997544 0.999809 0.999492 0.996458 0.990578 0.981729 0.969796 0.954675 0.936271 0.914501 0.889298 0.860608 0.828396 0.792645 0.753357 0.710558 0.664295 0.614641 0.561693 0.505579 0.446451 0.384493 0.319918 0.252969 0.183921 0.113078 0.040776 0.032618 0.106712 0.181081 0.255277 0.328829 0.401240 0.472000 0.540578 0.606435 0.669023 0.727792 0.782194 0.831689 0.875748 0.913865 0.945557 0.970376 0.987910 0.997795 0.999719 0.993430 0.978741 0.955537 0.923782 0.883523 0.834894 0.778121 0.713527 0.641530 0.562646 0.477490 0.386772 0.291298 0.191960 0.089734 0.014328 0.119108 0.223431 0.326080 0.425807 0.521350 0.611449 0.694862 0.770385 0.836870 0.893247 0.938538 0.971884 0.992557 0.999984 0.993759 0.973659 0.939660 0.891944 0.830909 0.757171 0.671570 0.575161 0.469211 0.355185 0.234739 0.109687 0.018012 0.146287 0.272984 0.395903 0.512840 0.621617 0.720139 0.806423 0.878652 0.935215 0.974746 0.996163 0.998708 0.981967 0.945904 0.890872 0.817625 0.727318 0.621503 0.502108 0.371412 0.232011 0.086773 0.061222 0.208735 0.352446 0.489017 0.615186 0.727835 0.824080 0.901349 0.957455 0.990672 0.999795 0.984190 0.943834 0.879341 0.791968 0.683608 0.556765 0.414504 0.260394 0.098424 0.067092 0.231625 0.390553 0.539292 0.673430 0.788866 0.881939 0.949564 0.989332 0.999623 0.979675 0.929641 0.850619 0.744647 0.614673 0.464490 0.298637 0.122286 0.058924 0.239051 0.412046 0.571955 0.713131 0.830443 0.919469 0.976685 0.999614 0.986957 0.938675 0.856032 0.741594 0.599169 0.433707 0.251145 0.058212 0.137812 0.329362 0.508880 0.669116 0.803429 0.906080 0.972492 0.999474 0.985401 0.930326 0.836033 0.706006 0.545342 0.360561 0.159381 0.049602 0.257260 0.454338 0.631862 0.781555 0.896247 0.970234 0.999586 0.982388 0.918884 0.811529 0.664937 0.485708 0.282173 0.064020 0.158141 0.373297 0.570563 0.739751 0.871911 0.959820 0.998416 0.985118 0.920027 0.806001 0.648567 0.455698 0.237444 0.005433 0.227733 0.449147 0.646318 0.807893 0.924326 0.988477 0.996086 0.946094 0.840791 0.685760 0.489638 0.263665 0.021087 0.223613 0.455568 0.660422 0.825241 0.939359 0.995100 0.988340 0.918859 0.790444 0.610754 0.390898 0.144814 0.111603 0.361497 0.588171 0.776185 0.912465 0.987232 0.994755 0.933845 0.808042 0.625479 0.398419 0.142476 0.124426 0.383274 0.615333 0.803505 0.933619 0.995557 0.984079 0.899335 0.746977 0.537846 0.287270 0.013993 0.261204 0.517058 0.733480 0.893162 0.982993 0.995205 0.928106 0.786349 0.580696 0.327265 0.046339 0.239234 0.505868 0.731200 0.895987 0.985804 0.992367 0.914374 0.757760 0.535336 0.265826 0.027658 0.319560 0.584083 0.797483 0.940246 0.998927 0.967493 0.848022 0.650685 0.392960 0.098174 0.206566 0.492829 0.733524 0.905487 0.991773 0.983406 0.880395 0.691920 0.435612 0.135987 0.177829 0.474893 0.725521 0.904248
1.000000 1.000000 1.000000 1.000000 1.000000 1.000000 1.000000 1.000000 1.000000 1.000000 1.000000 1.000000 1.000000 1.000000 1.000000 1.000000 1.000000 1.000000 1.000000 1.000000 1.000000 1.000000 1.000000 1.000000 1.000000 1.000000 1.000000 1.000000 1.000000 1.000000 1.000000 1.000000 1.000000 1.000000 1.000000 1.000000 1.000000 1.000000 1.000000 1.000000 1.000000 1.000000 1.000000 1.000000 1.000000 1.000000 1.000000 1.000000 1.000000 1.000000 1.000000 1.000000 0.829298 0.829298 0.829298 0.829298 0.829298 0.829298 0.829298 0.802869 0.802869 0.802869 0.802869 0.802869 0.802869 0.802869 0.802869 0.802869 0.802869 0.802869 0.802869 0.802869 0.802869 0.802869 0.802869 0.802869 0.802869 0.802869 0.802869 0.802869 0.802869 0.802869 0.802869 0.802869 0.802869 0.802869 0.802869 0.802869 0.802869 0.802869 0.802869 0.802869 0.802869 0.802869 0.802869 0.802869 0.802869 0.802869 0.802869 0.802869 0.802869 0.802869 0.802869 0.945619 0.946493 0.946877 0.947516 0.945927 0.945616 0.943910 0.943003 0.945691 0.945903 0.945860 0.946799 0.947355 0.948492 0.949963 0.951863 0.952296 0.960481 0.964261 0.963657 0.963431 0.962480 0.976259 0.976188 0.975937 0.975870 0.975971 0.975955 0.975877 0.975799 0.976412 0.975742 0.976150 0.976079 0.975724 0.975148 0.974949 0.974596 0.974002 0.974332 0.975056 0.975126 0.975583 0.978184 0.977267 0.977874 0.976505 0.975789 0.971027 0.969059 0.967194 0.967531 0.968908 0.966859 0.964938 0.965828 0.964093 0.964015 0.963954 0.964218 0.964486 0.962889 0.962990 0.963015 0.963843 0.960914 0.948688 0.946291 0.942959 0.944158 0.946297 0.948784 0.948721 0.948267 0.946415 0.939943 0.936199 0.924251 0.921193 0.916687 0.917365 0.917637 0.918627 0.917167 0.916603 0.915046 0.914501 0.911240 0.914216 0.912602 0.911065 0.904366 0.903163 0.901802 0.903194 0.905362 0.906259 0.902079 0.897615 0.884091 0.868374 0.867270 0.866739 0.873842 0.869791 0.868761 0.868794 0.851512 0.848650 0.838457 0.837375 0.838678 0.839475 0.840557 0.843028 0.843117 0.834649 0.824743 0.820114 0.817504 0.820574 0.830135 0.832473 0.829515 0.820161 0.816790 0.792329 0.793330 0.796246 0.792324 0.798080 0.781351 0.781125 0.771752 0.772865 0.768799 0.762466 0.761897 0.742151 0.747293 0.751083 0.755748 0.755880 0.740632 0.733533 0.694025 0.700356 0.682265 0.691355 0.692153 0.680411 0.669318 0.671144 0.674799 0.671455 0.675215 0.654824 0.642127 0.624795 0.620371 0.627816 0.596333 0.604731 0.603068 0.596500 0.588428 0.599540 0.611318 0.614547 0.594435 0.592727 0.580840 0.547148 0.522128 0.504565 0.493043 0.497777 0.512677 0.511830 0.519889 0.506159 0.481244 0.453702 0.464012 0.468783 0.459703 0.457444 0.448291 0.437008 0.451799 0.435158 0.458495 0.451231 0.444862 0.414464 0.335619 0.311403 0.265669 0.280666 0.284723 0.285894 0.281795 0.282890 0.265274 0.208408 0.205603 0.207876 0.229283 0.197388 0.164832 0.177073 0.180793 0.181250 0.178151 0.175928 0.224270 0.212002 0.238272 0.237716 0.182385 0.157901 0.096524 0.101216 0.102907 0.134292 0.158544 0.148550 0.118845 0.021640 0.047345 0.082191 0.082191 0.082191 0.082191 0.082191 0.082191 0.082191 0.082191 0.082191 0.082191 0.082191 0.006936 0.006936 0.006936 0.006936 0.006936 0.006936 0.006936 0.006936 0.006936 0.006936 0.006936 0.006936 0.006936 0.006936 0.006936 0.006936 0.006936 0.006936 0.006936
0.000000 0.000000 0.000000 0.000000 0.000000 0.000000 0.000000 0.000000 0.000000 0.000000 0.000000 0.000000 0.000000 0.000000 0.000000 0.000000 0.000000 0.000000 0.000000 0.000000 0.000000 0.000000 0.000000 0.000000 0.000000 0.000000 0.000000 0.000000 0.000000 0.000000 0.000000 0.000000 0.000000 0.000000 0.000000 0.000000 0.000000 0.000000 0.000000 0.000000 0.000000 0.000000 0.000000 0.000000 0.000000 0.000000 0.000000 0.000000 0.000000 0.000000 0.000000 0.000000 0.173422 0.173422 0.173422 0.173422 0.173422 0.173422 0.173422 0.191565 0.191565 0.191565 0.191565 0.191565 0.191565 0.191565 0.191565 0.191565 0.191565 0.191565 0.191565 0.191565 0.191565 0.191565 0.191565 0.191565 0.191565 0.191565 0.191565 0.191565 0.191565 0.191565 0.191565 0.191565 0.191565 0.191565 0.191565 0.191565 0.191565 0.191565 0.191565 0.191565 0.191565 0.191565 0.191565 0.191565 0.191565 0.191565 0.191565 0.191565 0.191565 0.191565 0.191565 0.219529 0.219529 0.219529 0.219529 0.219529 0.219529 0.219529 0.219529 0.219529 0.219529 0.219529 0.219529 0.219529 0.219529 0.219529 0.219529 0.219529 0.219529 0.219529 0.219529 0.219529 0.219529 0.219529 0.219529 0.219529 0.219529 0.219529 0.219529 0.219529 0.219529 0.219529 0.237356 0.237356 0.237356 0.237356 0.237356 0.237356 0.237356 0.237356 0.237356 0.237356 0.237356 0.237356 0.237356 0.237356 0.237356 0.237356 0.237356 0.237356 0.237356 0.237356 0.237356 0.237356 0.237356 0.237356 0.244339 0.244339 0.244339 0.244339 0.244339 0.244339 0.244339 0.244339 0.244339 0.244339 0.244339 0.244339 0.244339 0.244339 0.244339 0.244339 0.244339 0.244339 0.244339 0.244339 0.244339 0.248069 0.248069 0.248069 0.248069 0.248069 0.248069 0.248069 0.248069 0.248069 0.248069 0.248069 0.248069 0.248069 0.248069 0.248069 0.248069 0.248069 0.248069 0.248069 0.248069 0.248069 0.248069 0.248069 0.248069 0.248069 0.248069 0.248069 0.248069 0.248069 0.248069 0.248069 0.248069 0.248069 0.248069 0.248069 0.248069 0.248069 0.256074 0.256074 0.256074 0.256074 0.256074 0.256074 0.256074 0.256074 0.256074 0.256074 0.256074 0.256074 0.256074 0.256074 0.256074 0.256074 0.256074 0.256074 0.256074 0.256074 0.256074 0.256074 0.256074 0.256074 0.256074 0.256074 0.256074 0.256074 0.256074 0.256074 0.256074 0.256074 0.256074 0.256074 0.256074 0.256074 0.256074 0.256074 0.256074 0.256074 0.256074 0.256074 0.256074 0.256074 0.256074 0.260378 0.260378 0.260378 0.260378 0.260378 0.260378 0.260378 0.260378 0.260378 0.260378 0.260378 0.260378 0.260378 0.256074 0.256074 0.256074 0.256074 0.256074 0.256074 0.256074 0.256074 0.256074 0.256074 0.256074 0.256074 0.256074 0.260378 0.260378 0.260378 0.260378 0.260378 0.260378 0.260378 0.260378 0.260378 0.260378 0.260378 0.260378 0.251976 0.251976 0.251976 0.251976 0.251976 0.251976 0.251976 0.251976 0.251976 0.251976 0.251976 0.251976 0.256074 0.256074 0.256074 0.256074 0.256074 0.256074 0.256074 0.256074 0.256074 0.256074 0.256074 0.251976 0.251976 0.251976 0.251976 0.251976 0.251976 0.251976 0.251976 0.251976 0.251976 0.251976 0.248069 0.248069 0.248069 0.248069 0.248069 0.248069 0.248069 0.248069 0.248069 0.248069 0.248069 0.256074 0.256074 0.256074 0.256074 0.256074 0.256074 0.256074 0.256074 0.256074 0.256074 0.256074 0.256074 0.256074 0.256074 0.256074 0.256074 0.256074 0.256074 0.256074
