# Output from CTFFind version 4.1.9, run on 2019-11-03 19:00:54
# Input file: stack6_bm3d_averaged_1_2.75_0_1000_half.mrc ; Number of micrographs: 1
# Pixel size: 3.000 Angstroms ; acceleration voltage: 300.0 keV ; spherical aberration: 0.00 mm ; amplitude contrast: 0.07
# Box size: 512 pixels ; min. res.: 30.0 Angstroms ; max. res.: 5.0 Angstroms ; min. def.: 5000.0 um; max. def. 50000.0 um; num. frames averaged: 1
# 6 lines per micrograph: #1 - spatial frequency (1/Angstroms); #2 - 1D rotational average of spectrum (assuming no astigmatism); #3 - 1D rotational average of spectrum; #4 - CTF fit; #5 - cross-correlation between spectrum and CTF fit; #6 - 2sigma of expected cross correlation of noise
0.000000 0.000651 0.001302 0.001953 0.002604 0.003255 0.003906 0.004557 0.005208 0.005859 0.006510 0.007161 0.007812 0.008464 0.009115 0.009766 0.010417 0.011068 0.011719 0.012370 0.013021 0.013672 0.014323 0.014974 0.015625 0.016276 0.016927 0.017578 0.018229 0.018880 0.019531 0.020182 0.020833 0.021484 0.022135 0.022786 0.023438 0.024089 0.024740 0.025391 0.026042 0.026693 0.027344 0.027995 0.028646 0.029297 0.029948 0.030599 0.031250 0.031901 0.032552 0.033203 0.033854 0.034505 0.035156 0.035807 0.036458 0.037109 0.037760 0.038411 0.039062 0.039714 0.040365 0.041016 0.041667 0.042318 0.042969 0.043620 0.044271 0.044922 0.045573 0.046224 0.046875 0.047526 0.048177 0.048828 0.049479 0.050130 0.050781 0.051432 0.052083 0.052734 0.053385 0.054036 0.054688 0.055339 0.055990 0.056641 0.057292 0.057943 0.058594 0.059245 0.059896 0.060547 0.061198 0.061849 0.062500 0.063151 0.063802 0.064453 0.065104 0.065755 0.066406 0.067057 0.067708 0.068359 0.069010 0.069661 0.070312 0.070964 0.071615 0.072266 0.072917 0.073568 0.074219 0.074870 0.075521 0.076172 0.076823 0.077474 0.078125 0.078776 0.079427 0.080078 0.080729 0.081380 0.082031 0.082682 0.083333 0.083984 0.084635 0.085286 0.085938 0.086589 0.087240 0.087891 0.088542 0.089193 0.089844 0.090495 0.091146 0.091797 0.092448 0.093099 0.093750 0.094401 0.095052 0.095703 0.096354 0.097005 0.097656 0.098307 0.098958 0.099609 0.100260 0.100911 0.101562 0.102214 0.102865 0.103516 0.104167 0.104818 0.105469 0.106120 0.106771 0.107422 0.108073 0.108724 0.109375 0.110026 0.110677 0.111328 0.111979 0.112630 0.113281 0.113932 0.114583 0.115234 0.115885 0.116536 0.117188 0.117839 0.118490 0.119141 0.119792 0.120443 0.121094 0.121745 0.122396 0.123047 0.123698 0.124349 0.125000 0.125651 0.126302 0.126953 0.127604 0.128255 0.128906 0.129557 0.130208 0.130859 0.131510 0.132161 0.132812 0.133464 0.134115 0.134766 0.135417 0.136068 0.136719 0.137370 0.138021 0.138672 0.139323 0.139974 0.140625 0.141276 0.141927 0.142578 0.143229 0.143880 0.144531 0.145182 0.145833 0.146484 0.147135 0.147786 0.148438 0.149089 0.149740 0.150391 0.151042 0.151693 0.152344 0.152995 0.153646 0.154297 0.154948 0.155599 0.156250 0.156901 0.157552 0.158203 0.158854 0.159505 0.160156 0.160807 0.161458 0.162109 0.162760 0.163411 0.164062 0.164714 0.165365 0.166016 0.166667 0.167318 0.167969 0.168620 0.169271 0.169922 0.170573 0.171224 0.171875 0.172526 0.173177 0.173828 0.174479 0.175130 0.175781 0.176432 0.177083 0.177734 0.178385 0.179036 0.179688 0.180339 0.180990 0.181641 0.182292 0.182943 0.183594 0.184245 0.184896 0.185547 0.186198 0.186849 0.187500 0.188151 0.188802 0.189453 0.190104 0.190755 0.191406 0.192057 0.192708 0.193359 0.194010 0.194661 0.195312 0.195964 0.196615 0.197266 0.197917 0.198568 0.199219 0.199870 0.200521 0.201172 0.201823 0.202474 0.203125 0.203776 0.204427 0.205078 0.205729 0.206380 0.207031 0.207682 0.208333 0.208984 0.209635 0.210286 0.210938 0.211589 0.212240 0.212891 0.213542 0.214193 0.214844 0.215495 0.216146 0.216797 0.217448 0.218099 0.218750 0.219401 0.220052 0.220703 0.221354 0.222005 0.222656 0.223307 0.223958 0.224609 0.225260 0.225911 0.226562 0.227214 0.227865 0.228516 0.229167 0.229818 0.230469 0.231120 0.231771 0.232422 0.233073 0.233724 0.234375 0.235026 0.235677
       0.30062        0.30062        0.30062        0.30062        0.30062        0.30062        0.30062        0.30062        0.30062        0.30062        0.30062        0.30062        0.30062        0.30062        0.30062        0.30062        0.30062        0.30062        0.30062        0.30062        0.30062        0.30062        0.30062        0.30062        0.30062        0.30062        0.30062        0.30062        0.30062        0.30062        0.30062        0.30062        0.30062        0.30062        0.30062        0.30062        0.30062        0.30062        0.30062        0.30062        0.30062        0.30062        0.30062        0.30062        0.30062        0.30062        0.30062        0.30062        0.30062        0.30062        0.30062        0.61809        0.77558        0.38202        0.25839        0.15701       -0.12775        0.11900        0.02193        0.03411        0.10515        0.34349        0.39701        0.34724        0.20086       -0.02356        0.02577        0.06244       -0.17230       -0.18059       -0.08918       -0.11750       -0.28831       -0.17995       -0.31334       -0.28308       -0.29784       -0.39141       -0.45822       -0.44735       -0.38343       -0.33027       -0.41353       -0.31918       -0.39245       -0.32946       -0.26369       -0.19890       -0.17407       -0.08721       -0.04902        0.05479        0.09323        0.22526        0.31561        0.37844        0.38374        0.49735        0.56278        0.59366        0.68266        0.65670        0.72172        0.62029        0.65232        0.66014        0.60317        0.59921        0.61115        0.40523        0.36487        0.36050        0.33349        0.18905        0.12366        0.05919        0.07430        0.03016       -0.06581        0.00055       -0.03684       -0.07446        0.04953        0.15583        0.26094        0.32273        0.31538        0.39160        0.50621        0.53829        0.49650        0.65536        0.53315        0.51545        0.56935        0.57112        0.52475        0.48222        0.40759        0.35947        0.22694        0.18514        0.12570        0.13665        0.10978        0.05593        0.07784        0.14552        0.14409        0.15628        0.20873        0.24364        0.33684        0.44715        0.44668        0.45389        0.50677        0.56226        0.53937        0.50252        0.38662        0.40569        0.35841        0.28493        0.23336        0.21191        0.16438        0.18226        0.17745        0.16788        0.13665        0.20207        0.24612        0.34339        0.38144        0.40204        0.46672        0.49185        0.43471        0.44690        0.40723        0.40336        0.40345        0.34164        0.27339        0.26663        0.20002        0.21569        0.21475        0.19321        0.21832        0.22112        0.25129        0.31855        0.37265        0.37380        0.37625        0.38044        0.43347        0.42759        0.41169        0.32485        0.30610        0.27565        0.29235        0.24380        0.20413        0.26114        0.29428        0.27643        0.28355        0.32634        0.31001        0.38294        0.34108        0.34253        0.35777        0.33937        0.31927        0.30376        0.27593        0.28915        0.25725        0.22603        0.26111        0.26170        0.29973        0.30376        0.33811        0.35784        0.31907        0.31021        0.34801        0.33009        0.25717        0.27813        0.28370        0.25739        0.24876        0.28744        0.27623        0.27405        0.30570        0.30259        0.31265        0.31783        0.33526        0.27389        0.28687        0.31253        0.27102        0.25291        0.24674        0.23944        0.24714        0.26561        0.26763        0.26951        0.26861        0.31416        0.34307        0.28485        0.30405        0.24821        0.24127        0.24973        0.23861        0.23210        0.24060        0.28893        0.25225        0.29316        0.28759        0.28412        0.30934        0.25392        0.28536        0.28585        0.29130        0.25494        0.24653        0.23118        0.25011        0.29985        0.29187        0.31707        0.31275        0.31703        0.28940        0.31491        0.26458        0.19091        0.28230        0.27765        0.26240        0.28018        0.30606        0.29658        0.34686        0.27852        0.22437        0.22685        0.24150        0.26553        0.29976        0.28801        0.25695        0.28149        0.26069        0.28466        0.27724        0.25704        0.24716        0.25303        0.28910        0.24996        0.25828        0.29965        0.28978        0.25796        0.27864        0.26193        0.27660        0.21132        0.23562        0.23720        0.27855        0.27935        0.31098        0.25449        0.23653        0.25588        0.22967        0.20298        0.18579        0.22365        0.20713        0.23363        0.23095        0.19953        0.26969        0.24632        0.27307        0.23193        0.17586        0.18443        0.18848        0.15079        0.22047        0.15947        0.17555        0.19507        0.08520        0.23506        0.12405        0.03792        0.15448        0.12937        0.12417        0.17355       -0.18301       -0.53315       -0.86647
2.820696 2.793258 2.765959 2.738800 2.711779 2.684898 2.658156 2.631553 2.605090 2.578765 2.552579 2.526533 2.500626 2.474858 2.449229 2.423739 2.398388 2.373177 2.348104 2.323171 2.298377 2.273722 2.249206 2.224829 2.200592 2.176493 2.152534 2.128714 2.105033 2.081491 2.058088 2.034824 2.011700 1.988715 1.965868 1.943161 1.920593 1.898165 1.875875 1.853724 1.831713 1.809841 1.788108 1.766514 1.745059 1.723743 1.702567 1.681529 1.660631 1.639872 1.619252 1.940583 2.265623 1.675546 1.666288 1.343361 0.869576 1.188022 1.055002 1.086155 0.980815 1.537036 1.492631 1.499694 1.236258 0.920415 0.775571 1.001141 0.716411 0.432324 0.574915 0.654907 0.394256 0.462184 0.287113 0.279514 0.193956 0.168376 -0.074263 -0.014399 0.040470 0.046208 0.028019 0.128634 -0.053691 0.006168 0.110122 0.209072 0.251705 0.291010 0.345281 0.598429 0.473079 0.679583 0.880032 0.911943 0.897639 1.154918 1.136517 1.217422 1.313455 1.190807 1.415068 1.166665 1.158258 1.325358 1.131486 1.071165 1.190295 0.893658 0.707356 0.692092 0.720752 0.445940 0.397661 0.246798 0.223045 0.153627 0.000641 0.132221 0.013050 -0.057450 0.095925 0.219146 0.348040 0.485235 0.495954 0.527818 0.718883 0.778917 0.618743 0.975621 0.821143 0.674554 0.767348 0.748406 0.724419 0.718930 0.471504 0.525956 0.247450 0.199336 0.115918 -0.003781 0.063227 -0.064983 -0.053827 -0.015920 0.086265 -0.054171 0.218379 0.135543 0.204229 0.404478 0.467253 0.459958 0.406290 0.618316 0.624050 0.499372 0.365274 0.349853 0.325526 0.176936 0.112146 0.038155 0.032814 -0.024987 -0.012234 -0.029645 -0.107493 -0.007985 0.020403 0.134285 0.269517 0.233997 0.382047 0.368239 0.388723 0.360983 0.427045 0.364655 0.262900 0.338499 0.132387 0.191620 0.024854 0.066547 0.018218 0.032982 -0.028967 0.031947 0.071994 0.117693 0.234956 0.282427 0.218002 0.252590 0.335374 0.327177 0.338809 0.195342 0.128537 0.135506 0.086820 0.092044 -0.017472 -0.019898 0.117379 0.057745 0.081311 0.097031 0.118992 0.201563 0.219266 0.173951 0.176432 0.193136 0.146014 0.131420 0.074440 0.077118 0.109163 -0.036096 0.032939 0.068077 0.021303 0.144599 0.100005 0.187828 0.189435 0.125716 0.118635 0.194289 0.114356 0.031486 0.083829 0.055831 0.019191 0.049669 0.086091 0.057063 0.044244 0.140145 0.090277 0.112109 0.129435 0.118957 0.090541 0.050359 0.108601 0.046572 0.018395 -0.006199 -0.007684 0.012171 0.021810 0.045457 0.062383 0.005106 0.093187 0.147557 0.003525 0.087263 -0.019091 -0.014808 -0.018563 -0.035454 -0.050221 0.023222 0.039440 -0.052373 0.076224 0.031812 0.042661 0.051889 -0.022325 0.015493 0.066642 -0.016222 0.002742 -0.048195 -0.043709 -0.032913 0.051422 0.049426 0.051393 0.019385 0.111679 0.000430 0.070214 -0.073203 -0.126731 0.031611 -0.015479 -0.013569 -0.026215 0.078639 0.020823 0.068002 -0.040536 -0.140128 -0.070367 -0.094079 0.020248 0.008279 -0.006046 -0.047817 -0.024580 -0.052384 0.009182 -0.041813 -0.054670 -0.062580 -0.096499 0.008985 -0.062959 -0.017007 0.015996 -0.013823 -0.031991 0.028256 0.002037 0.001821 -0.091306 -0.021213 -0.063567 0.056314 0.074934 0.090104 0.006323 -0.021566 0.047795 -0.004812 -0.102755 -0.000226 -0.034175 -0.001483 0.032600 0.034707 -0.027471 0.114504 0.079818 0.146813 0.036170 0.012907 0.002046 0.039683 -0.079719 0.106738 -0.067799 0.102808 0.063587 -0.014154 0.351487 0.176818 0.063432 0.278876 0.199936 0.170631 0.397413 -0.269162 -1.285747
0.072396 0.072835 0.074150 0.076342 0.079410 0.083354 0.088173 0.093864 0.100428 0.107862 0.116162 0.125328 0.135353 0.146235 0.157968 0.170545 0.183958 0.198199 0.213258 0.229122 0.245778 0.263210 0.281401 0.300330 0.319974 0.340309 0.361306 0.382933 0.405157 0.427939 0.451237 0.475005 0.499194 0.523749 0.548612 0.573719 0.599003 0.624390 0.649802 0.675157 0.700366 0.725336 0.749969 0.774159 0.797799 0.820774 0.842966 0.864252 0.884504 0.903590 0.921374 0.937720 0.952485 0.965526 0.976699 0.985859 0.992860 0.997559 0.999813 0.999485 0.996438 0.990544 0.981681 0.969733 0.954595 0.936173 0.914385 0.889163 0.860454 0.828221 0.792449 0.753140 0.710319 0.664034 0.614357 0.561388 0.505252 0.446103 0.384125 0.319530 0.252563 0.183498 0.112640 0.040325 0.033081 0.107182 0.181557 0.255757 0.329308 0.401716 0.472468 0.541034 0.606876 0.669444 0.728189 0.782562 0.832024 0.876046 0.914120 0.945766 0.970534 0.988013 0.997840 0.999703 0.993349 0.978593 0.955320 0.923495 0.883165 0.834465 0.777623 0.712961 0.640899 0.561954 0.476741 0.385973 0.290454 0.191079 0.088825 0.015256 0.120045 0.224366 0.327001 0.426704 0.522210 0.612259 0.695610 0.771059 0.837458 0.893736 0.938920 0.972148 0.992696 0.999990 0.993627 0.973386 0.939245 0.891387 0.830214 0.756344 0.670618 0.574095 0.468043 0.353933 0.233418 0.108317 0.019409 0.147687 0.274364 0.397239 0.514105 0.622787 0.721188 0.807329 0.879394 0.935771 0.975100 0.996303 0.998623 0.981653 0.945358 0.890099 0.816633 0.726122 0.620121 0.500564 0.369734 0.230233 0.084930 0.063090 0.210587 0.354238 0.490707 0.616731 0.729194 0.825216 0.902226 0.958045 0.990953 0.999750 0.983812 0.943123 0.878305 0.790626 0.681988 0.554901 0.412440 0.258180 0.096118 0.069428 0.233926 0.392752 0.541324 0.675231 0.790379 0.883112 0.950350 0.989700 0.999550 0.979151 0.928672 0.849225 0.742861 0.612541 0.462073 0.296010 0.119526 0.061726 0.241802 0.414652 0.574323 0.715174 0.832080 0.920634 0.977325 0.999694 0.986460 0.937607 0.854418 0.739482 0.596626 0.430821 0.248018 0.054960 0.141068 0.332494 0.511759 0.671622 0.805453 0.907529 0.973293 0.999581 0.984794 0.929015 0.834059 0.703439 0.542278 0.357125 0.155716 0.053339 0.260906 0.457726 0.634832 0.783962 0.897971 0.971179 0.999693 0.981633 0.917286 0.809148 0.661871 0.482095 0.278178 0.059834 0.162315 0.377247 0.574085 0.742658 0.874039 0.961044 0.998656 0.984341 0.918256 0.803311 0.645085 0.451598 0.232937 0.000760 0.232314 0.453378 0.649957 0.810721 0.926165 0.989205 0.995639 0.944478 0.838077 0.682092 0.485214 0.258742 0.015950 0.228656 0.460200 0.664355 0.828214 0.941172 0.995616 0.987505 0.916701 0.787081 0.606380 0.385787 0.139286 0.117189 0.366773 0.592771 0.779792 0.914816 0.988142 0.994138 0.931719 0.804529 0.620804 0.392894 0.136477 0.130472 0.388936 0.620190 0.807189 0.935844 0.996130 0.982932 0.896527 0.742693 0.532387 0.281038 0.007451 0.267554 0.522718 0.737996 0.896159 0.984211 0.994517 0.925539 0.782081 0.575048 0.320679 0.039338 0.246073 0.511973 0.736050 0.899152 0.986991 0.991445 0.911389 0.752940 0.529074 0.258644 0.035143 0.326687 0.590216 0.802056 0.942828 0.999255 0.965503 0.843862 0.644706 0.385693 0.090275 0.214368 0.499797 0.738986 0.908902 0.992785 0.981883 0.876448 0.685900 0.428077 0.127660 0.186130 0.482352 0.731369 0.907882
1.000000 1.000000 1.000000 1.000000 1.000000 1.000000 1.000000 1.000000 1.000000 1.000000 1.000000 1.000000 1.000000 1.000000 1.000000 1.000000 1.000000 1.000000 1.000000 1.000000 1.000000 1.000000 1.000000 1.000000 1.000000 1.000000 1.000000 1.000000 1.000000 1.000000 1.000000 1.000000 1.000000 1.000000 1.000000 1.000000 1.000000 1.000000 1.000000 1.000000 1.000000 1.000000 1.000000 1.000000 1.000000 1.000000 1.000000 1.000000 1.000000 1.000000 1.000000 1.000000 0.827897 0.827897 0.827897 0.827897 0.827897 0.827897 0.827897 0.805389 0.805389 0.805389 0.805389 0.805389 0.805389 0.805389 0.805389 0.805389 0.805389 0.805389 0.805389 0.805389 0.805389 0.805389 0.805389 0.805389 0.805389 0.805389 0.805389 0.805389 0.805389 0.805389 0.805389 0.805389 0.805389 0.805389 0.805389 0.805389 0.805389 0.805389 0.805389 0.805389 0.805389 0.805389 0.805389 0.805389 0.805389 0.805389 0.805389 0.805389 0.805389 0.805389 0.805389 0.949168 0.949967 0.950294 0.949310 0.947807 0.944275 0.940156 0.939342 0.941771 0.941999 0.942013 0.943011 0.943621 0.945248 0.946279 0.947477 0.948278 0.956322 0.959962 0.959638 0.959327 0.958998 0.969669 0.966747 0.964255 0.964333 0.964507 0.964475 0.964349 0.964235 0.963812 0.963450 0.963966 0.963820 0.963226 0.962395 0.961377 0.960622 0.959989 0.960026 0.960896 0.961004 0.961659 0.962982 0.962949 0.963619 0.962275 0.961478 0.956948 0.954873 0.955553 0.952095 0.953181 0.952956 0.952285 0.951062 0.951124 0.951052 0.949981 0.949851 0.948729 0.942877 0.942923 0.942836 0.943563 0.937396 0.927652 0.924401 0.922847 0.923990 0.926995 0.930374 0.928798 0.927618 0.923291 0.916127 0.910144 0.899312 0.897631 0.895509 0.903000 0.904212 0.905282 0.905541 0.906180 0.904856 0.902971 0.886838 0.890676 0.887720 0.884223 0.879787 0.876997 0.875171 0.876631 0.879321 0.869642 0.857128 0.857575 0.847328 0.816770 0.814701 0.818231 0.827678 0.833328 0.830978 0.829870 0.816873 0.813296 0.799468 0.789490 0.791124 0.793902 0.791910 0.796101 0.800101 0.782407 0.775855 0.770927 0.775774 0.789555 0.799979 0.804922 0.802558 0.797137 0.795776 0.755292 0.751363 0.754192 0.732193 0.736392 0.727845 0.727958 0.733041 0.730605 0.726912 0.732138 0.729625 0.700928 0.706699 0.711096 0.713683 0.715259 0.692925 0.685554 0.646614 0.645149 0.625579 0.636055 0.638997 0.652126 0.640740 0.650630 0.660369 0.659190 0.668251 0.667362 0.653269 0.645310 0.650223 0.656339 0.617043 0.626332 0.625771 0.620261 0.613666 0.612900 0.627447 0.619796 0.598410 0.597093 0.557288 0.526842 0.516393 0.501081 0.487848 0.474022 0.493933 0.500524 0.496481 0.484767 0.459579 0.385959 0.385600 0.385638 0.365167 0.375343 0.370079 0.343887 0.379233 0.378782 0.386765 0.357656 0.341437 0.323000 0.245995 0.223461 0.177776 0.191646 0.192330 0.181776 0.175906 0.176171 0.166528 0.136668 0.146083 0.145937 0.170493 0.152082 0.127889 0.138204 0.139576 0.126233 0.111427 0.106538 0.151727 0.118761 0.126835 0.129688 0.084880 0.055239 -0.005523 0.006636 0.017925 0.049892 0.078645 0.066839 0.040629 -0.047470 -0.016475 0.013396 0.013396 0.013396 0.013396 0.013396 0.013396 0.013396 0.013396 0.013396 0.013396 0.013396 -0.048823 -0.048823 -0.048823 -0.048823 -0.048823 -0.048823 -0.048823 -0.048823 -0.048823 -0.048823 -0.048823 -0.048823 -0.048823 -0.048823 -0.048823 -0.048823 -0.048823 -0.048823 -0.048823
0.000000 0.000000 0.000000 0.000000 0.000000 0.000000 0.000000 0.000000 0.000000 0.000000 0.000000 0.000000 0.000000 0.000000 0.000000 0.000000 0.000000 0.000000 0.000000 0.000000 0.000000 0.000000 0.000000 0.000000 0.000000 0.000000 0.000000 0.000000 0.000000 0.000000 0.000000 0.000000 0.000000 0.000000 0.000000 0.000000 0.000000 0.000000 0.000000 0.000000 0.000000 0.000000 0.000000 0.000000 0.000000 0.000000 0.000000 0.000000 0.000000 0.000000 0.000000 0.000000 0.173422 0.173422 0.173422 0.173422 0.173422 0.173422 0.173422 0.191565 0.191565 0.191565 0.191565 0.191565 0.191565 0.191565 0.191565 0.191565 0.191565 0.191565 0.191565 0.191565 0.191565 0.191565 0.191565 0.191565 0.191565 0.191565 0.191565 0.191565 0.191565 0.191565 0.191565 0.191565 0.191565 0.191565 0.191565 0.191565 0.191565 0.191565 0.191565 0.191565 0.191565 0.191565 0.191565 0.191565 0.191565 0.191565 0.191565 0.191565 0.191565 0.191565 0.191565 0.219529 0.219529 0.219529 0.219529 0.219529 0.219529 0.219529 0.219529 0.219529 0.219529 0.219529 0.219529 0.219529 0.219529 0.219529 0.219529 0.219529 0.219529 0.219529 0.219529 0.219529 0.219529 0.219529 0.219529 0.219529 0.219529 0.219529 0.219529 0.219529 0.219529 0.219529 0.237356 0.237356 0.237356 0.237356 0.237356 0.237356 0.237356 0.237356 0.237356 0.237356 0.237356 0.237356 0.237356 0.237356 0.237356 0.237356 0.237356 0.237356 0.237356 0.237356 0.237356 0.237356 0.237356 0.237356 0.244339 0.244339 0.244339 0.244339 0.244339 0.244339 0.244339 0.244339 0.244339 0.244339 0.244339 0.244339 0.244339 0.244339 0.244339 0.244339 0.244339 0.244339 0.244339 0.244339 0.244339 0.248069 0.248069 0.248069 0.248069 0.248069 0.248069 0.248069 0.248069 0.248069 0.248069 0.248069 0.248069 0.248069 0.248069 0.248069 0.248069 0.248069 0.248069 0.248069 0.248069 0.248069 0.248069 0.248069 0.248069 0.248069 0.248069 0.248069 0.248069 0.248069 0.248069 0.248069 0.248069 0.248069 0.248069 0.248069 0.248069 0.248069 0.256074 0.256074 0.256074 0.256074 0.256074 0.256074 0.256074 0.256074 0.256074 0.256074 0.256074 0.256074 0.256074 0.256074 0.256074 0.256074 0.256074 0.256074 0.256074 0.256074 0.256074 0.256074 0.256074 0.256074 0.256074 0.256074 0.256074 0.256074 0.256074 0.256074 0.256074 0.256074 0.256074 0.256074 0.256074 0.256074 0.256074 0.256074 0.256074 0.256074 0.256074 0.256074 0.256074 0.256074 0.256074 0.260378 0.260378 0.260378 0.260378 0.260378 0.260378 0.260378 0.260378 0.260378 0.260378 0.260378 0.260378 0.260378 0.256074 0.256074 0.256074 0.256074 0.256074 0.256074 0.256074 0.256074 0.256074 0.256074 0.256074 0.256074 0.256074 0.260378 0.260378 0.260378 0.260378 0.260378 0.260378 0.260378 0.260378 0.260378 0.260378 0.260378 0.260378 0.251976 0.251976 0.251976 0.251976 0.251976 0.251976 0.251976 0.251976 0.251976 0.251976 0.251976 0.251976 0.256074 0.256074 0.256074 0.256074 0.256074 0.256074 0.256074 0.256074 0.256074 0.256074 0.256074 0.251976 0.251976 0.251976 0.251976 0.251976 0.251976 0.251976 0.251976 0.251976 0.251976 0.251976 0.248069 0.248069 0.248069 0.248069 0.248069 0.248069 0.248069 0.248069 0.248069 0.248069 0.248069 0.256074 0.256074 0.256074 0.256074 0.256074 0.256074 0.256074 0.256074 0.256074 0.256074 0.256074 0.256074 0.256074 0.256074 0.256074 0.256074 0.256074 0.256074 0.256074
