# Output from CTFFind version 4.1.9, run on 2019-11-03 20:05:38
# Input file: stack16_bm3d_averaged_1_5.5_0_750_half.mrc ; Number of micrographs: 1
# Pixel size: 3.000 Angstroms ; acceleration voltage: 300.0 keV ; spherical aberration: 0.00 mm ; amplitude contrast: 0.07
# Box size: 512 pixels ; min. res.: 30.0 Angstroms ; max. res.: 5.0 Angstroms ; min. def.: 5000.0 um; max. def. 50000.0 um; num. frames averaged: 1
# 6 lines per micrograph: #1 - spatial frequency (1/Angstroms); #2 - 1D rotational average of spectrum (assuming no astigmatism); #3 - 1D rotational average of spectrum; #4 - CTF fit; #5 - cross-correlation between spectrum and CTF fit; #6 - 2sigma of expected cross correlation of noise
0.000000 0.000651 0.001302 0.001953 0.002604 0.003255 0.003906 0.004557 0.005208 0.005859 0.006510 0.007161 0.007812 0.008464 0.009115 0.009766 0.010417 0.011068 0.011719 0.012370 0.013021 0.013672 0.014323 0.014974 0.015625 0.016276 0.016927 0.017578 0.018229 0.018880 0.019531 0.020182 0.020833 0.021484 0.022135 0.022786 0.023438 0.024089 0.024740 0.025391 0.026042 0.026693 0.027344 0.027995 0.028646 0.029297 0.029948 0.030599 0.031250 0.031901 0.032552 0.033203 0.033854 0.034505 0.035156 0.035807 0.036458 0.037109 0.037760 0.038411 0.039062 0.039714 0.040365 0.041016 0.041667 0.042318 0.042969 0.043620 0.044271 0.044922 0.045573 0.046224 0.046875 0.047526 0.048177 0.048828 0.049479 0.050130 0.050781 0.051432 0.052083 0.052734 0.053385 0.054036 0.054688 0.055339 0.055990 0.056641 0.057292 0.057943 0.058594 0.059245 0.059896 0.060547 0.061198 0.061849 0.062500 0.063151 0.063802 0.064453 0.065104 0.065755 0.066406 0.067057 0.067708 0.068359 0.069010 0.069661 0.070312 0.070964 0.071615 0.072266 0.072917 0.073568 0.074219 0.074870 0.075521 0.076172 0.076823 0.077474 0.078125 0.078776 0.079427 0.080078 0.080729 0.081380 0.082031 0.082682 0.083333 0.083984 0.084635 0.085286 0.085938 0.086589 0.087240 0.087891 0.088542 0.089193 0.089844 0.090495 0.091146 0.091797 0.092448 0.093099 0.093750 0.094401 0.095052 0.095703 0.096354 0.097005 0.097656 0.098307 0.098958 0.099609 0.100260 0.100911 0.101562 0.102214 0.102865 0.103516 0.104167 0.104818 0.105469 0.106120 0.106771 0.107422 0.108073 0.108724 0.109375 0.110026 0.110677 0.111328 0.111979 0.112630 0.113281 0.113932 0.114583 0.115234 0.115885 0.116536 0.117188 0.117839 0.118490 0.119141 0.119792 0.120443 0.121094 0.121745 0.122396 0.123047 0.123698 0.124349 0.125000 0.125651 0.126302 0.126953 0.127604 0.128255 0.128906 0.129557 0.130208 0.130859 0.131510 0.132161 0.132812 0.133464 0.134115 0.134766 0.135417 0.136068 0.136719 0.137370 0.138021 0.138672 0.139323 0.139974 0.140625 0.141276 0.141927 0.142578 0.143229 0.143880 0.144531 0.145182 0.145833 0.146484 0.147135 0.147786 0.148438 0.149089 0.149740 0.150391 0.151042 0.151693 0.152344 0.152995 0.153646 0.154297 0.154948 0.155599 0.156250 0.156901 0.157552 0.158203 0.158854 0.159505 0.160156 0.160807 0.161458 0.162109 0.162760 0.163411 0.164062 0.164714 0.165365 0.166016 0.166667 0.167318 0.167969 0.168620 0.169271 0.169922 0.170573 0.171224 0.171875 0.172526 0.173177 0.173828 0.174479 0.175130 0.175781 0.176432 0.177083 0.177734 0.178385 0.179036 0.179688 0.180339 0.180990 0.181641 0.182292 0.182943 0.183594 0.184245 0.184896 0.185547 0.186198 0.186849 0.187500 0.188151 0.188802 0.189453 0.190104 0.190755 0.191406 0.192057 0.192708 0.193359 0.194010 0.194661 0.195312 0.195964 0.196615 0.197266 0.197917 0.198568 0.199219 0.199870 0.200521 0.201172 0.201823 0.202474 0.203125 0.203776 0.204427 0.205078 0.205729 0.206380 0.207031 0.207682 0.208333 0.208984 0.209635 0.210286 0.210938 0.211589 0.212240 0.212891 0.213542 0.214193 0.214844 0.215495 0.216146 0.216797 0.217448 0.218099 0.218750 0.219401 0.220052 0.220703 0.221354 0.222005 0.222656 0.223307 0.223958 0.224609 0.225260 0.225911 0.226562 0.227214 0.227865 0.228516 0.229167 0.229818 0.230469 0.231120 0.231771 0.232422 0.233073 0.233724 0.234375 0.235026 0.235677
       0.34161        0.34161        0.34161        0.34161        0.34161        0.34161        0.34161        0.34161        0.34161        0.34161        0.34161        0.34161        0.34161        0.34161        0.34161        0.34161        0.34161        0.34161        0.34161        0.34161        0.34161        0.34161        0.34161        0.34161        0.34161        0.34161        0.34161        0.34161        0.34161        0.34161        0.34161        0.34161        0.34161        0.34161        0.34161        0.34161        0.34161        0.34161        0.34161        0.34161        0.34161        0.34161        0.34161        0.34161        0.34161        0.34161        0.34161        0.34161        0.34161        0.34161        0.34161        0.42279        0.55586        0.34218       -0.21183       -0.45623       -0.55106       -0.65063       -0.72149       -0.73152       -0.82854       -0.89841       -0.69249       -0.84944       -0.82951       -0.97562       -1.01259       -0.89466       -0.85372       -0.80711       -0.72433       -0.65448       -0.56620       -0.47172       -0.40523       -0.17692       -0.07377        0.02556        0.24922        0.25165        0.30839        0.36842        0.39700        0.51167        0.53456        0.57058        0.53084        0.47035        0.50464        0.51848        0.44009        0.32646        0.20663        0.17479        0.10623       -0.00152       -0.01779       -0.02631        0.04731        0.01240        0.06603        0.04027        0.15565        0.19068        0.40356        0.45630        0.54774        0.65613        0.68762        0.71262        0.63366        0.60993        0.53367        0.43587        0.38349        0.26857        0.21133        0.20530        0.09373        0.10001        0.09283        0.07826        0.09053        0.30125        0.41049        0.51579        0.53172        0.57062        0.60712        0.58628        0.57411        0.58118        0.56318        0.46310        0.29863        0.25857        0.24503        0.13972        0.08348        0.15818        0.19329        0.27740        0.34891        0.42043        0.46951        0.52832        0.59945        0.54372        0.50508        0.49514        0.35173        0.26329        0.25067        0.16959        0.18200        0.22304        0.26581        0.27599        0.31764        0.42115        0.45434        0.49725        0.45012        0.44152        0.48049        0.38645        0.32502        0.28114        0.25115        0.22505        0.22452        0.23375        0.33099        0.43659        0.42581        0.48750        0.55071        0.44177        0.40816        0.35244        0.30652        0.26147        0.27403        0.26602        0.28368        0.33684        0.34752        0.42792        0.46969        0.43444        0.45416        0.36747        0.37402        0.35129        0.26262        0.24357        0.24137        0.31887        0.37280        0.36332        0.38655        0.43086        0.43489        0.36909        0.33544        0.31567        0.34578        0.30657        0.27454        0.27671        0.34692        0.36596        0.38130        0.38643        0.38255        0.41191        0.39610        0.31395        0.28384        0.31198        0.33971        0.36770        0.35641        0.40081        0.33797        0.36747        0.38817        0.33080        0.35027        0.31395        0.29504        0.33431        0.33559        0.32274        0.34519        0.36438        0.32285        0.34194        0.31333        0.31053        0.28725        0.31372        0.30886        0.32399        0.36253        0.36464        0.34649        0.30289        0.29200        0.28168        0.32435        0.30438        0.31020        0.36444        0.35637        0.33745        0.30839        0.30038        0.30777        0.27027        0.30481        0.31844        0.32796        0.36380        0.34166        0.29986        0.32937        0.33326        0.32051        0.35308        0.34109        0.30711        0.32973        0.28857        0.31849        0.28930        0.30726        0.28610        0.31677        0.35335        0.32905        0.35017        0.30545        0.31977        0.34297        0.33334        0.30748        0.30855        0.34752        0.33195        0.32647        0.31799        0.30905        0.30464        0.30859        0.31837        0.31831        0.34479        0.33835        0.33580        0.28733        0.27801        0.26368        0.26515        0.35910        0.30776        0.34771        0.29333        0.25884        0.27751        0.35869        0.30402        0.27899        0.29754        0.31177        0.29159        0.26529        0.30550        0.26756        0.27863        0.30121        0.32395        0.33013        0.31872        0.29902        0.26348        0.26489        0.25887        0.26668        0.28948        0.35571        0.28732        0.19683        0.29874        0.27713        0.31587        0.24257        0.30106        0.30438        0.33122        0.28734        0.27409        0.26304        0.23697        0.29323        0.34203        0.34793        0.24180        0.28097        0.22637        0.22468        0.20623        0.33256        0.24765        0.18913        0.12848        0.21707        0.31272        0.21213        0.18433        0.08560       -0.52190       -0.64668
3.153519 3.113703 3.074144 3.034843 2.995799 2.957014 2.918486 2.880216 2.842204 2.804449 2.766952 2.729713 2.692732 2.656008 2.619542 2.583334 2.547383 2.511690 2.476255 2.441078 2.406158 2.371497 2.337092 2.302946 2.269057 2.235426 2.202053 2.168938 2.136080 2.103480 2.071137 2.039053 2.007226 1.975657 1.944346 1.913292 1.882496 1.851958 1.821677 1.791655 1.761890 1.732382 1.703133 1.674141 1.645407 1.616931 1.588712 1.560751 1.533048 1.505602 1.478415 1.513236 1.597354 1.537468 0.846386 0.591988 0.452763 0.384112 0.288954 0.212241 0.176558 -0.052964 0.200350 0.065109 -0.034453 -0.115921 -0.241083 -0.148676 -0.061774 -0.094313 -0.078772 0.032667 0.028928 0.223463 0.105255 0.353145 0.460775 0.486687 0.763847 0.685730 0.691036 0.827867 0.797758 0.837251 0.919464 0.860678 0.892237 0.727806 0.795932 0.846153 0.683045 0.605590 0.438745 0.426069 0.342664 0.187344 0.184244 0.115729 0.210218 0.119552 0.210608 0.106199 0.220036 0.232313 0.447988 0.408177 0.581296 0.620351 0.652961 0.726395 0.613589 0.591200 0.464330 0.415031 0.297254 0.266887 0.098977 0.159658 -0.024169 0.038384 -0.033236 -0.040182 -0.047384 0.033073 0.277131 0.296853 0.370092 0.313476 0.394886 0.405963 0.431752 0.412805 0.362663 0.340635 0.130695 0.082940 0.066241 -0.012973 -0.152561 -0.043514 -0.066610 0.041077 0.084949 0.159434 0.227323 0.234802 0.324907 0.416869 0.299773 0.367470 0.244597 0.140907 0.067383 0.043253 0.003277 0.047078 0.072280 0.102532 0.118270 0.179485 0.242177 0.308425 0.282599 0.221698 0.258920 0.230009 0.112111 0.071972 0.049410 0.030855 0.007352 -0.010116 0.034821 0.171540 0.190615 0.195256 0.306195 0.190904 0.200400 0.079671 0.071428 0.002907 -0.006272 0.002417 -0.005201 0.042426 0.060377 0.095395 0.157788 0.144496 0.222996 0.131933 0.077949 0.101571 0.046823 -0.056937 -0.024478 0.021319 0.060167 0.074828 0.073479 0.154175 0.123874 0.151927 0.037666 0.053902 0.046162 0.050023 0.025282 -0.021495 0.038910 0.046051 0.088585 0.106246 0.090588 0.109600 0.126503 0.077073 0.013197 -0.003951 0.031028 0.079797 0.065578 0.097422 0.093658 0.050376 0.109739 0.067187 0.042460 0.081573 -0.018417 0.019517 0.062236 0.038051 0.043639 0.057261 0.072652 0.051428 0.062504 0.012207 0.019979 -0.000725 0.048984 0.003956 0.044910 0.068176 0.074161 0.039861 -0.009091 -0.006389 -0.018057 0.035973 -0.000166 0.013394 0.070074 0.056827 -0.004917 0.008931 -0.013026 0.009732 -0.043469 -0.001955 0.004691 0.032899 0.047497 0.020705 -0.015178 0.006357 0.013391 0.003221 0.043153 0.012468 -0.015569 0.034157 -0.043683 -0.020494 -0.051262 -0.013401 -0.048891 0.013467 0.033942 -0.001826 -0.000269 -0.005489 0.004040 0.024931 0.022704 -0.012184 0.001586 0.025292 0.039939 0.016694 0.010853 0.030795 -0.004410 0.000056 0.020286 -0.001040 0.078936 0.054175 0.033322 0.000752 -0.009216 -0.035215 -0.000254 0.079532 -0.001878 0.070919 -0.018028 -0.024160 -0.019734 0.096036 -0.002273 -0.017305 0.035085 0.046279 0.010349 0.006552 0.027393 0.003733 0.021484 0.027272 0.077444 0.071218 0.050666 0.035359 -0.001346 0.002155 -0.006870 -0.013236 0.006325 0.106288 -0.023194 -0.093860 0.054402 -0.010367 0.055013 -0.061354 0.009095 0.015688 0.023834 0.000718 -0.018872 -0.021203 -0.073782 0.027938 0.050261 0.064761 -0.126063 0.000595 -0.028304 -0.015132 -0.120704 0.106596 0.013728 -0.016573 -0.084701 0.194810 0.261488 0.145315 0.143679 0.089402 -0.615314
0.072396 0.073047 0.074998 0.078250 0.082801 0.088649 0.095793 0.104230 0.113955 0.124964 0.137249 0.150804 0.165616 0.181674 0.198963 0.217463 0.237153 0.258007 0.279993 0.303077 0.327218 0.352368 0.378473 0.405474 0.433301 0.461879 0.491122 0.520935 0.551215 0.581847 0.612706 0.643657 0.674553 0.705235 0.735534 0.765270 0.794248 0.822267 0.849112 0.874558 0.898373 0.920315 0.940133 0.957573 0.972377 0.984281 0.993024 0.998346 0.999990 0.997709 0.991264 0.980432 0.965005 0.944798 0.919649 0.889428 0.854034 0.813409 0.767531 0.716427 0.660174 0.598901 0.532797 0.462109 0.387148 0.308292 0.225984 0.140736 0.053126 0.036198 0.126528 0.217093 0.307064 0.395564 0.481672 0.564433 0.642867 0.715981 0.782784 0.842296 0.893570 0.935703 0.967857 0.989272 0.999290 0.997370 0.983106 0.956244 0.916699 0.864569 0.800147 0.723931 0.636632 0.539175 0.432701 0.318563 0.198311 0.073683 0.053412 0.180928 0.306702 0.428496 0.544031 0.651032 0.747279 0.830652 0.899184 0.951116 0.984946 0.999482 0.993885 0.967716 0.920967 0.854090 0.768018 0.664164 0.544428 0.411167 0.267171 0.115615 0.040002 0.195928 0.348246 0.492969 0.626149 0.743984 0.842941 0.919868 0.972110 0.997613 0.995021 0.963754 0.904066 0.817090 0.704839 0.570194 0.416856 0.249264 0.072490 0.107908 0.286043 0.455893 0.611505 0.747208 0.857837 0.938943 0.986995 0.999560 0.975443 0.914798 0.819184 0.691570 0.536285 0.358906 0.166083 0.034681 0.235309 0.427467 0.602911 0.753853 0.873319 0.955498 0.996062 0.992420 0.943920 0.851961 0.720017 0.553557 0.359869 0.147778 0.072726 0.290937 0.495948 0.677200 0.825044 0.931281 0.989658 0.996279 0.949911 0.852160 0.707493 0.523100 0.308599 0.075578 0.162994 0.393470 0.602306 0.776867 0.906224 0.981884 0.998401 0.953825 0.849963 0.692393 0.490253 0.255782 0.003629 0.250022 0.488474 0.695620 0.857055 0.961133 0.999858 0.969578 0.871394 0.711246 0.499652 0.251102 0.016862 0.284849 0.532998 0.742460 0.896867 0.983672 0.995246 0.929639 0.790922 0.589057 0.339293 0.061097 0.223303 0.490655 0.718599 0.887566 0.982528 0.994424 0.921134 0.767874 0.546973 0.276997 0.018713 0.313993 0.582163 0.798429 0.942248 0.999366 0.963344 0.836406 0.629472 0.361387 0.057296 0.253601 0.540842 0.775670 0.933989 0.998922 0.962744 0.827936 0.607219 0.322520 0.002921 0.318226 0.606727 0.831232 0.966701 0.997322 0.918510 0.737725 0.473964 0.155936 0.180939 0.498405 0.759721 0.933951 0.999763 0.948196 0.784053 0.525685 0.203147 0.145172 0.477007 0.751352 0.933582 0.999939 0.940827 0.762378 0.486072 0.146371 0.213442 0.546683 0.809325 0.965904 0.994458 0.889819 0.664724 0.348524 0.016432 0.380346 0.692690 0.909283 0.998670 0.946893 0.759907 0.463206 0.098579 0.281571 0.621699 0.871224 0.992195 0.965257 0.793009 0.500117 0.130057 0.261118 0.613190 0.871037 0.993399 0.959701 0.773791 0.463880 0.078549 0.320649 0.668927 0.908808 0.999771 0.925350 0.696415 0.349949 0.056630 0.454794 0.776396 0.965410 0.987917 0.838479 0.541720 0.148627 0.271965 0.645252 0.903800 0.999906 0.914659 0.662038 0.286999 0.142162 0.546096 0.848976 0.992917 0.949278 0.724743 0.360771 0.073717 0.495109 0.821164 0.987137 0.958948 0.740537 0.373862 0.068780 0.498744 0.828690 0.990477 0.949514 0.712572 0.327187 0.127463 0.556569 0.869408 0.998662 0.915273 0.635400 0.217802 0.248088 0.661096
1.000000 1.000000 1.000000 1.000000 1.000000 1.000000 1.000000 1.000000 1.000000 1.000000 1.000000 1.000000 1.000000 1.000000 1.000000 1.000000 1.000000 1.000000 1.000000 1.000000 1.000000 1.000000 1.000000 1.000000 1.000000 1.000000 1.000000 1.000000 1.000000 1.000000 1.000000 1.000000 1.000000 1.000000 1.000000 1.000000 1.000000 1.000000 1.000000 1.000000 1.000000 1.000000 1.000000 1.000000 1.000000 1.000000 1.000000 1.000000 1.000000 1.000000 1.000000 1.000000 0.926217 0.926217 0.926217 0.926217 0.926217 0.926217 0.926217 0.926217 0.926217 0.926217 0.926217 0.926217 0.926217 0.926217 0.926217 0.926217 0.926217 0.926217 0.926217 0.926217 0.926217 0.926217 0.926217 0.926217 0.926217 0.926217 0.926217 0.926217 0.926217 0.926217 0.926217 0.926217 0.926217 0.913305 0.911400 0.912561 0.913749 0.913657 0.913101 0.912735 0.913769 0.915319 0.917336 0.938955 0.941986 0.943152 0.944447 0.945871 0.948307 0.946287 0.954002 0.960626 0.959643 0.960650 0.954461 0.955774 0.955140 0.954410 0.955985 0.956059 0.954437 0.952526 0.951040 0.950533 0.950241 0.953765 0.954311 0.954478 0.955029 0.954960 0.955679 0.956283 0.954373 0.956555 0.948672 0.947471 0.952870 0.950982 0.952523 0.952486 0.953182 0.953957 0.954243 0.954487 0.951392 0.951032 0.950287 0.941409 0.934606 0.933761 0.936154 0.939345 0.936747 0.933087 0.934463 0.936904 0.936259 0.935579 0.925894 0.921856 0.897877 0.885751 0.874762 0.875151 0.878428 0.880843 0.878468 0.870934 0.861358 0.857510 0.857710 0.853539 0.846302 0.862457 0.856847 0.855065 0.859019 0.862131 0.867585 0.864728 0.860295 0.855683 0.851196 0.843799 0.845615 0.850030 0.854090 0.838094 0.829088 0.846393 0.836048 0.826945 0.834519 0.836532 0.833524 0.832399 0.833118 0.831153 0.824495 0.818629 0.821949 0.830927 0.830207 0.819089 0.815775 0.811741 0.811524 0.804220 0.807949 0.808275 0.804466 0.797597 0.813770 0.779415 0.802548 0.801877 0.787011 0.771004 0.759438 0.768472 0.779649 0.782224 0.774606 0.772007 0.771369 0.763904 0.736520 0.737575 0.744831 0.743170 0.730510 0.712488 0.719737 0.724814 0.720524 0.716255 0.719219 0.720758 0.693915 0.707066 0.711095 0.697606 0.712527 0.714723 0.705478 0.707301 0.709912 0.712506 0.706380 0.665236 0.668181 0.660012 0.653972 0.604042 0.603343 0.601321 0.545208 0.549268 0.515315 0.497880 0.497501 0.488634 0.539963 0.491522 0.478067 0.509535 0.437169 0.360439 0.376044 0.374960 0.388426 0.396839 0.376550 0.376455 0.363051 0.342692 0.351592 0.374939 0.390540 0.355413 0.357770 0.350291 0.322637 0.295140 0.310619 0.313792 0.335093 0.336699 0.314109 0.341676 0.382114 0.324476 0.301195 0.282000 0.295525 0.309216 0.314473 0.303224 0.284452 0.268506 0.245259 0.270131 0.267281 0.273190 0.292301 0.323538 0.317828 0.324956 0.349546 0.300163 0.317072 0.319520 0.309131 0.317402 0.321906 0.321919 0.311834 0.332570 0.306813 0.318356 0.301532 0.291765 0.351506 0.331541 0.303376 0.298181 0.303785 0.308035 0.280324 0.227904 0.215019 0.215985 0.152639 0.124003 0.125211 0.125747 0.082358 0.057739 0.042024 0.003587 0.003349 0.006275 0.041327 0.010361 0.033370 0.041483 0.041483 0.041483 0.041483 0.041483 0.041483 0.041483 0.041483 0.041483 0.041483 0.041483 0.041483 0.041483 0.041483 0.064335 0.064335 0.064335 0.064335 0.064335 0.064335 0.064335 0.064335 0.064335 0.064335 0.064335 0.064335
0.000000 0.000000 0.000000 0.000000 0.000000 0.000000 0.000000 0.000000 0.000000 0.000000 0.000000 0.000000 0.000000 0.000000 0.000000 0.000000 0.000000 0.000000 0.000000 0.000000 0.000000 0.000000 0.000000 0.000000 0.000000 0.000000 0.000000 0.000000 0.000000 0.000000 0.000000 0.000000 0.000000 0.000000 0.000000 0.000000 0.000000 0.000000 0.000000 0.000000 0.000000 0.000000 0.000000 0.000000 0.000000 0.000000 0.000000 0.000000 0.000000 0.000000 0.000000 0.000000 0.209657 0.209657 0.209657 0.209657 0.209657 0.209657 0.209657 0.209657 0.209657 0.209657 0.209657 0.209657 0.209657 0.209657 0.209657 0.209657 0.209657 0.209657 0.209657 0.209657 0.209657 0.209657 0.209657 0.209657 0.209657 0.209657 0.209657 0.209657 0.209657 0.209657 0.209657 0.209657 0.209657 0.244339 0.244339 0.244339 0.244339 0.244339 0.244339 0.244339 0.244339 0.244339 0.244339 0.244339 0.244339 0.244339 0.244339 0.244339 0.244339 0.244339 0.244339 0.244339 0.244339 0.244339 0.244339 0.244339 0.244339 0.244339 0.260378 0.260378 0.260378 0.260378 0.260378 0.260378 0.260378 0.260378 0.260378 0.260378 0.260378 0.260378 0.260378 0.260378 0.260378 0.260378 0.260378 0.260378 0.260378 0.260378 0.269680 0.269680 0.269680 0.269680 0.269680 0.269680 0.269680 0.269680 0.269680 0.269680 0.269680 0.269680 0.269680 0.269680 0.269680 0.269680 0.269680 0.269680 0.269680 0.269680 0.269680 0.269680 0.269680 0.269680 0.269680 0.269680 0.269680 0.269680 0.269680 0.269680 0.269680 0.269680 0.269680 0.280056 0.280056 0.280056 0.280056 0.280056 0.280056 0.280056 0.280056 0.280056 0.280056 0.280056 0.280056 0.280056 0.280056 0.280056 0.280056 0.280056 0.280056 0.280056 0.280056 0.280056 0.280056 0.280056 0.280056 0.280056 0.280056 0.280056 0.274721 0.274721 0.274721 0.274721 0.274721 0.274721 0.274721 0.274721 0.274721 0.274721 0.274721 0.274721 0.274721 0.285714 0.285714 0.285714 0.285714 0.285714 0.285714 0.285714 0.285714 0.285714 0.285714 0.285714 0.280056 0.280056 0.280056 0.280056 0.280056 0.280056 0.280056 0.280056 0.280056 0.280056 0.280056 0.274721 0.274721 0.274721 0.274721 0.274721 0.274721 0.274721 0.274721 0.274721 0.274721 0.274721 0.280056 0.280056 0.280056 0.280056 0.280056 0.280056 0.280056 0.280056 0.280056 0.280056 0.285714 0.285714 0.285714 0.285714 0.285714 0.285714 0.285714 0.285714 0.285714 0.269680 0.269680 0.269680 0.269680 0.269680 0.269680 0.269680 0.269680 0.269680 0.269680 0.274721 0.274721 0.274721 0.274721 0.274721 0.274721 0.274721 0.274721 0.274721 0.285714 0.285714 0.285714 0.285714 0.285714 0.285714 0.285714 0.285714 0.264906 0.264906 0.264906 0.264906 0.264906 0.264906 0.264906 0.264906 0.264906 0.274721 0.274721 0.274721 0.274721 0.274721 0.274721 0.274721 0.274721 0.269680 0.269680 0.269680 0.269680 0.269680 0.269680 0.269680 0.269680 0.269680 0.269680 0.269680 0.269680 0.269680 0.269680 0.269680 0.269680 0.280056 0.280056 0.280056 0.280056 0.280056 0.280056 0.280056 0.260378 0.260378 0.260378 0.260378 0.260378 0.260378 0.260378 0.260378 0.269680 0.269680 0.269680 0.269680 0.269680 0.269680 0.269680 0.264906 0.264906 0.264906 0.264906 0.264906 0.264906 0.264906 0.264906 0.264906 0.264906 0.264906 0.264906 0.264906 0.264906 0.260378 0.260378 0.260378 0.260378 0.260378 0.260378 0.260378 0.260378 0.260378 0.260378 0.260378 0.260378
