# Output from CTFFind version 4.1.9, run on 2019-11-04 22:09:27
# Input file: stack16_bm3d_averaged_1_0_0_2500_half.mrc ; Number of micrographs: 1
# Pixel size: 3.000 Angstroms ; acceleration voltage: 300.0 keV ; spherical aberration: 0.00 mm ; amplitude contrast: 0.07
# Box size: 512 pixels ; min. res.: 30.0 Angstroms ; max. res.: 5.0 Angstroms ; min. def.: 5000.0 um; max. def. 50000.0 um; num. frames averaged: 1
# 6 lines per micrograph: #1 - spatial frequency (1/Angstroms); #2 - 1D rotational average of spectrum (assuming no astigmatism); #3 - 1D rotational average of spectrum; #4 - CTF fit; #5 - cross-correlation between spectrum and CTF fit; #6 - 2sigma of expected cross correlation of noise
0.000000 0.000651 0.001302 0.001953 0.002604 0.003255 0.003906 0.004557 0.005208 0.005859 0.006510 0.007161 0.007812 0.008464 0.009115 0.009766 0.010417 0.011068 0.011719 0.012370 0.013021 0.013672 0.014323 0.014974 0.015625 0.016276 0.016927 0.017578 0.018229 0.018880 0.019531 0.020182 0.020833 0.021484 0.022135 0.022786 0.023438 0.024089 0.024740 0.025391 0.026042 0.026693 0.027344 0.027995 0.028646 0.029297 0.029948 0.030599 0.031250 0.031901 0.032552 0.033203 0.033854 0.034505 0.035156 0.035807 0.036458 0.037109 0.037760 0.038411 0.039062 0.039714 0.040365 0.041016 0.041667 0.042318 0.042969 0.043620 0.044271 0.044922 0.045573 0.046224 0.046875 0.047526 0.048177 0.048828 0.049479 0.050130 0.050781 0.051432 0.052083 0.052734 0.053385 0.054036 0.054688 0.055339 0.055990 0.056641 0.057292 0.057943 0.058594 0.059245 0.059896 0.060547 0.061198 0.061849 0.062500 0.063151 0.063802 0.064453 0.065104 0.065755 0.066406 0.067057 0.067708 0.068359 0.069010 0.069661 0.070312 0.070964 0.071615 0.072266 0.072917 0.073568 0.074219 0.074870 0.075521 0.076172 0.076823 0.077474 0.078125 0.078776 0.079427 0.080078 0.080729 0.081380 0.082031 0.082682 0.083333 0.083984 0.084635 0.085286 0.085938 0.086589 0.087240 0.087891 0.088542 0.089193 0.089844 0.090495 0.091146 0.091797 0.092448 0.093099 0.093750 0.094401 0.095052 0.095703 0.096354 0.097005 0.097656 0.098307 0.098958 0.099609 0.100260 0.100911 0.101562 0.102214 0.102865 0.103516 0.104167 0.104818 0.105469 0.106120 0.106771 0.107422 0.108073 0.108724 0.109375 0.110026 0.110677 0.111328 0.111979 0.112630 0.113281 0.113932 0.114583 0.115234 0.115885 0.116536 0.117188 0.117839 0.118490 0.119141 0.119792 0.120443 0.121094 0.121745 0.122396 0.123047 0.123698 0.124349 0.125000 0.125651 0.126302 0.126953 0.127604 0.128255 0.128906 0.129557 0.130208 0.130859 0.131510 0.132161 0.132812 0.133464 0.134115 0.134766 0.135417 0.136068 0.136719 0.137370 0.138021 0.138672 0.139323 0.139974 0.140625 0.141276 0.141927 0.142578 0.143229 0.143880 0.144531 0.145182 0.145833 0.146484 0.147135 0.147786 0.148438 0.149089 0.149740 0.150391 0.151042 0.151693 0.152344 0.152995 0.153646 0.154297 0.154948 0.155599 0.156250 0.156901 0.157552 0.158203 0.158854 0.159505 0.160156 0.160807 0.161458 0.162109 0.162760 0.163411 0.164062 0.164714 0.165365 0.166016 0.166667 0.167318 0.167969 0.168620 0.169271 0.169922 0.170573 0.171224 0.171875 0.172526 0.173177 0.173828 0.174479 0.175130 0.175781 0.176432 0.177083 0.177734 0.178385 0.179036 0.179688 0.180339 0.180990 0.181641 0.182292 0.182943 0.183594 0.184245 0.184896 0.185547 0.186198 0.186849 0.187500 0.188151 0.188802 0.189453 0.190104 0.190755 0.191406 0.192057 0.192708 0.193359 0.194010 0.194661 0.195312 0.195964 0.196615 0.197266 0.197917 0.198568 0.199219 0.199870 0.200521 0.201172 0.201823 0.202474 0.203125 0.203776 0.204427 0.205078 0.205729 0.206380 0.207031 0.207682 0.208333 0.208984 0.209635 0.210286 0.210938 0.211589 0.212240 0.212891 0.213542 0.214193 0.214844 0.215495 0.216146 0.216797 0.217448 0.218099 0.218750 0.219401 0.220052 0.220703 0.221354 0.222005 0.222656 0.223307 0.223958 0.224609 0.225260 0.225911 0.226562 0.227214 0.227865 0.228516 0.229167 0.229818 0.230469 0.231120 0.231771 0.232422 0.233073 0.233724 0.234375 0.235026 0.235677
       0.34349        0.34349        0.34349        0.34349        0.34349        0.34349        0.34349        0.34349        0.34349        0.34349        0.34349        0.34349        0.34349        0.34349        0.34349        0.34349        0.34349        0.34349        0.34349        0.34349        0.34349        0.34349        0.34349        0.34349        0.34349        0.34349        0.34349        0.34349        0.34349        0.34349        0.34349        0.34349        0.34349        0.34349        0.34349        0.34349        0.34349        0.34349        0.34349        0.34349        0.34349        0.34349        0.34349        0.34349        0.34349        0.34349        0.34349        0.34349        0.34349        0.34349        0.34349        0.48947        0.70502        0.45600       -0.10916       -0.41430       -0.57088       -0.66035       -0.74623       -0.76230       -0.86888       -0.91344       -0.76109       -0.92479       -0.87163       -1.02422       -1.09440       -0.98892       -0.96055       -0.88347       -0.86438       -0.75171       -0.64113       -0.49977       -0.42258       -0.21776       -0.11917       -0.02363        0.20389        0.24399        0.30884        0.38684        0.44061        0.51731        0.58194        0.59612        0.59435        0.50312        0.54637        0.48615        0.39002        0.32424        0.20818        0.17477        0.10328       -0.06344       -0.11286       -0.09295        0.00865       -0.01695        0.00835        0.03023        0.21200        0.22023        0.39055        0.45827        0.56370        0.70286        0.76160        0.72729        0.70893        0.70710        0.58725        0.54446        0.40038        0.27322        0.19328        0.14297        0.06569        0.02061        0.02400        0.06172        0.07948        0.27290        0.41766        0.50375        0.58653        0.63996        0.70747        0.66189        0.65126        0.67301        0.61150        0.47947        0.28384        0.23210        0.20537        0.13155        0.04962        0.09411        0.12384        0.24968        0.33902        0.41521        0.50167        0.54104        0.66537        0.61079        0.55598        0.50690        0.36725        0.21104        0.21191        0.15261        0.11184        0.11936        0.21408        0.25537        0.36298        0.44428        0.44070        0.56967        0.51332        0.44490        0.45155        0.38611        0.32420        0.27779        0.22087        0.23837        0.20987        0.21409        0.32719        0.44808        0.48844        0.47948        0.55135        0.49589        0.45707        0.39591        0.29138        0.22397        0.23260        0.24758        0.26797        0.27062        0.32472        0.44210        0.49716        0.48722        0.45885        0.41968        0.38583        0.36282        0.24927        0.23152        0.24834        0.29561        0.35361        0.36445        0.39558        0.40805        0.44576        0.37089        0.34809        0.31290        0.30223        0.26575        0.26096        0.31420        0.34641        0.41679        0.41727        0.39965        0.39493        0.40873        0.35149        0.28905        0.29035        0.27360        0.30992        0.36113        0.36456        0.41519        0.36169        0.36619        0.39005        0.34530        0.31445        0.27934        0.29809        0.34089        0.33482        0.32784        0.37774        0.39704        0.33776        0.35361        0.29388        0.30880        0.29187        0.28182        0.30087        0.33048        0.38275        0.36753        0.34864        0.33037        0.28736        0.27775        0.29720        0.28182        0.31370        0.37010        0.39438        0.33874        0.31829        0.31331        0.29702        0.28149        0.27900        0.29883        0.34227        0.33661        0.34692        0.31838        0.34360        0.32556        0.28962        0.31455        0.32080        0.32889        0.33243        0.31757        0.31752        0.30937        0.32926        0.31516        0.33463        0.39167        0.34084        0.36015        0.32385        0.31677        0.28872        0.31184        0.28934        0.31098        0.31816        0.35365        0.36530        0.31981        0.32105        0.31197        0.29380        0.29420        0.28991        0.33785        0.34013        0.35941        0.33862        0.32863        0.25737        0.27003        0.31260        0.35314        0.31394        0.30173        0.29106        0.28980        0.32391        0.30571        0.30422        0.33254        0.34566        0.31750        0.24567        0.28741        0.28139        0.28854        0.31927        0.32011        0.34840        0.34227        0.27935        0.26333        0.29051        0.26269        0.28656        0.27475        0.24536        0.26732        0.24290        0.27821        0.27475        0.27562        0.26943        0.31383        0.32982        0.31841        0.29924        0.31719        0.24899        0.27336        0.25391        0.33637        0.33796        0.23702        0.26467        0.27610        0.24810        0.24899        0.29715        0.22743        0.14450        0.17078        0.25742        0.28152        0.23630        0.15362        0.02917       -0.39634       -0.74651
3.059144 3.021161 2.983421 2.945926 2.908674 2.871666 2.834902 2.798382 2.762105 2.726073 2.690284 2.654739 2.619438 2.584381 2.549567 2.514998 2.480672 2.446590 2.412752 2.379157 2.345807 2.312700 2.279837 2.247218 2.214843 2.182712 2.150824 2.119180 2.087780 2.056624 2.025712 1.995043 1.964619 1.934438 1.904501 1.874808 1.845358 1.816153 1.787191 1.758473 1.729999 1.701769 1.673783 1.646040 1.618541 1.591286 1.564275 1.537508 1.510984 1.484705 1.458669 1.514275 1.707744 1.616454 0.970704 0.682835 0.477776 0.433996 0.320423 0.265310 0.200737 0.022146 0.196592 0.081001 -0.005513 -0.059648 -0.196334 -0.150925 -0.090774 -0.091092 -0.100084 0.009991 0.031391 0.235407 0.150931 0.366741 0.447029 0.477493 0.718536 0.702679 0.711155 0.841849 0.825975 0.858240 0.926029 0.895360 0.944761 0.756168 0.839153 0.843705 0.621569 0.610446 0.459941 0.439757 0.390517 0.208436 0.120195 0.101122 0.205529 0.148289 0.191842 0.111898 0.317802 0.290555 0.460063 0.417932 0.583432 0.648546 0.770283 0.692360 0.665279 0.674523 0.538093 0.507911 0.373183 0.294186 0.118230 0.146731 0.001666 -0.014558 -0.037728 -0.027584 -0.000140 0.036400 0.274580 0.333612 0.386781 0.397775 0.472460 0.525191 0.468903 0.507843 0.403603 0.389827 0.155967 0.064800 0.071956 0.000519 -0.121098 -0.041021 -0.108293 0.018323 0.134870 0.157332 0.253663 0.258697 0.386951 0.462847 0.358199 0.387735 0.284446 0.128874 0.050006 0.052444 0.010637 0.001754 0.005055 0.108032 0.133089 0.264651 0.237743 0.308079 0.375310 0.234425 0.241456 0.219310 0.134161 0.080689 0.056248 0.026720 0.039095 -0.013371 0.030535 0.186430 0.222567 0.250490 0.280028 0.231897 0.238758 0.150009 0.104106 -0.025347 -0.015389 -0.006223 0.018654 0.006782 0.028382 0.105442 0.184869 0.200910 0.222244 0.139563 0.145373 0.079565 0.054878 -0.056462 -0.011369 -0.008591 0.054526 0.065416 0.080710 0.157664 0.086670 0.164553 0.068988 0.053909 0.042864 0.027274 0.000844 0.012290 0.057327 0.082858 0.136107 0.141833 0.070736 0.133198 0.102231 0.020827 0.007104 0.004593 -0.006866 0.059009 0.061777 0.097838 0.099117 0.071851 0.069300 0.083588 0.033524 0.012013 -0.011131 0.014940 0.061213 0.029544 0.042401 0.083734 0.085671 0.057533 0.033288 0.005161 0.015748 -0.004491 -0.013953 0.015221 0.051623 0.103181 0.060425 0.059209 0.041122 -0.014381 -0.000318 0.013581 0.008999 0.026442 0.105113 0.060167 0.024344 0.044079 0.003033 0.024849 -0.012638 -0.005271 0.022587 0.066150 0.030676 0.047310 0.030074 0.052318 0.028732 -0.004256 0.026739 0.042077 0.035987 0.033604 0.022260 0.007728 -0.005138 0.027172 0.010276 0.042562 0.081152 0.046122 0.029631 0.017552 0.002324 -0.004045 0.008837 0.001402 0.014835 -0.004151 0.085347 0.057342 0.034603 0.037638 0.002931 0.010047 0.011825 -0.005595 0.058486 0.060425 0.087733 0.051128 0.051894 -0.026496 0.018541 0.036674 0.077057 0.030386 0.037352 0.014129 0.008231 0.048426 0.043709 0.035963 0.059156 0.079529 0.064402 -0.019276 0.019604 0.042326 0.027995 0.044568 0.075505 0.078999 0.075028 0.017584 0.001832 0.016246 -0.001737 0.017246 -0.012684 -0.031789 -0.003776 -0.049013 0.003173 -0.007221 0.007576 -0.066840 0.001629 0.021218 0.005737 -0.023663 0.039845 -0.087364 -0.016634 -0.038418 0.038357 0.065996 -0.095550 -0.008616 0.042966 0.021170 -0.042031 0.046658 0.031683 0.004594 -0.043565 0.084589 0.243091 0.211330 0.119052 0.028357 -0.656765
0.072396 0.073046 0.074995 0.078242 0.082787 0.088629 0.095764 0.104190 0.113903 0.124898 0.137168 0.150706 0.165500 0.181538 0.198806 0.217283 0.236949 0.257778 0.279738 0.302795 0.326908 0.352029 0.378106 0.405078 0.432876 0.461425 0.490640 0.520426 0.550679 0.581287 0.612123 0.643054 0.673933 0.704602 0.734893 0.764623 0.793603 0.821629 0.848487 0.873954 0.897797 0.919775 0.939640 0.957136 0.972005 0.983987 0.992818 0.998240 0.999997 0.997840 0.991532 0.980849 0.965583 0.945549 0.920584 0.890557 0.855368 0.814954 0.769294 0.718413 0.662386 0.601339 0.535459 0.464989 0.390239 0.311582 0.229458 0.144374 0.056907 0.032302 0.122547 0.213061 0.303020 0.391552 0.477737 0.560624 0.639236 0.712583 0.779673 0.839530 0.891205 0.933794 0.966457 0.988432 0.999056 0.997781 0.984196 0.958039 0.919214 0.867810 0.804108 0.728593 0.641962 0.545127 0.439214 0.325560 0.205703 0.081366 0.045556 0.173027 0.298897 0.420933 0.536861 0.644413 0.741364 0.825591 0.895120 0.948179 0.983250 0.999121 0.994930 0.970210 0.924921 0.859483 0.774790 0.672222 0.553638 0.421361 0.278142 0.127127 0.028216 0.184156 0.336794 0.482152 0.616281 0.735373 0.835875 0.914607 0.968876 0.996580 0.996305 0.967408 0.910073 0.825356 0.715194 0.582392 0.430576 0.264120 0.088036 0.092164 0.270626 0.441342 0.598356 0.735974 0.848986 0.932879 0.984039 0.999928 0.979237 0.921990 0.829613 0.704937 0.552159 0.376733 0.185204 0.015011 0.215892 0.409131 0.586475 0.740089 0.862914 0.949021 0.993926 0.994859 0.950963 0.863423 0.735494 0.572433 0.381338 0.170868 0.049102 0.267943 0.474766 0.658962 0.810780 0.921852 0.985701 0.998162 0.957700 0.865597 0.725995 0.545776 0.334284 0.102893 0.135578 0.367551 0.579449 0.758518 0.893608 0.975922 0.999635 0.962372 0.865479 0.714078 0.516882 0.285761 0.035083 0.219127 0.460210 0.671958 0.839720 0.951474 0.998736 0.977286 0.887606 0.735014 0.529449 0.284909 0.018569 0.250382 0.502097 0.717547 0.879983 0.976307 0.998198 0.942919 0.813720 0.619776 0.375639 0.100244 0.184500 0.455419 0.689952 0.868074 0.974053 0.997941 0.936605 0.794217 0.582109 0.317998 0.024611 0.272215 0.545770 0.770880 0.926287 0.996734 0.974575 0.860726 0.664829 0.404594 0.104310 0.207321 0.499890 0.744254 0.915464 0.995435 0.974958 0.854912 0.646452 0.370148 0.054080 0.268909 0.564583 0.800959 0.951837 0.999801 0.938400 0.773146 0.521240 0.209941 0.126237 0.449288 0.721985 0.912218 0.996894 0.964890 0.818683 0.574427 0.260358 0.086315 0.423714 0.710327 0.910168 0.997403 0.959872 0.800971 0.539615 0.208204 0.151221 0.492227 0.769969 0.947154 0.999192 0.917815 0.712588 0.410061 0.050532 0.317139 0.642138 0.878710 0.992753 0.966899 0.803411 0.524321 0.168718 0.212528 0.563942 0.833519 0.980511 0.981786 0.835718 0.562936 0.203687 0.187866 0.551704 0.831124 0.981692 0.978513 0.820620 0.531663 0.156682 0.244693 0.607604 0.872445 0.994786 0.953069 0.752710 0.425772 0.026154 0.379076 0.720871 0.939997 0.997502 0.881924 0.611897 0.233506 0.187285 0.575957 0.862639 0.994767 0.947028 0.726534 0.372187 0.051810 0.467389 0.796897 0.977706 0.974378 0.785948 0.446823 0.020888 0.410251 0.762814 0.967178 0.981887 0.802426 0.462857 0.029772 0.410468 0.768829 0.971709 0.976286 0.779981 0.421752 0.025177 0.468012 0.813535 0.987838 0.952441 0.713218 0.319974 0.143481 0.576923
1.000000 1.000000 1.000000 1.000000 1.000000 1.000000 1.000000 1.000000 1.000000 1.000000 1.000000 1.000000 1.000000 1.000000 1.000000 1.000000 1.000000 1.000000 1.000000 1.000000 1.000000 1.000000 1.000000 1.000000 1.000000 1.000000 1.000000 1.000000 1.000000 1.000000 1.000000 1.000000 1.000000 1.000000 1.000000 1.000000 1.000000 1.000000 1.000000 1.000000 1.000000 1.000000 1.000000 1.000000 1.000000 1.000000 1.000000 1.000000 1.000000 1.000000 1.000000 1.000000 0.932991 0.932991 0.932991 0.932991 0.932991 0.932991 0.932991 0.932991 0.932991 0.932991 0.932991 0.932991 0.932991 0.932991 0.932991 0.932991 0.932991 0.932991 0.932991 0.932991 0.932991 0.932991 0.932991 0.932991 0.932991 0.932991 0.932991 0.932991 0.932991 0.932991 0.932991 0.932991 0.932991 0.922326 0.923814 0.926792 0.927866 0.927826 0.927368 0.927050 0.927268 0.928984 0.931306 0.947923 0.950104 0.950676 0.951968 0.952210 0.954727 0.952975 0.952782 0.963339 0.962152 0.962863 0.955907 0.957491 0.956574 0.955644 0.956149 0.956397 0.954462 0.952311 0.950620 0.949980 0.949605 0.951373 0.951851 0.951814 0.953288 0.953252 0.952974 0.949613 0.948189 0.949660 0.951704 0.950851 0.956560 0.956388 0.964424 0.965212 0.963802 0.963706 0.963904 0.964102 0.952792 0.945592 0.939755 0.928056 0.918418 0.916578 0.919574 0.921655 0.920733 0.916414 0.915295 0.912569 0.907087 0.906217 0.906171 0.907820 0.904576 0.900985 0.884683 0.884417 0.886787 0.885842 0.883684 0.875652 0.871088 0.871711 0.874845 0.872270 0.868700 0.884674 0.879659 0.884598 0.887582 0.890947 0.894937 0.891124 0.890616 0.887002 0.883207 0.878256 0.879837 0.868856 0.871631 0.867233 0.858628 0.851287 0.854295 0.863717 0.871576 0.879719 0.878765 0.878398 0.877577 0.871220 0.871647 0.865537 0.866705 0.871861 0.878064 0.873808 0.871103 0.875025 0.873164 0.875582 0.877821 0.873497 0.871845 0.862855 0.862927 0.865740 0.883017 0.882335 0.870633 0.864666 0.856035 0.862616 0.865699 0.865121 0.866815 0.856401 0.857463 0.846960 0.836344 0.837749 0.842203 0.837103 0.838742 0.835801 0.838725 0.841274 0.839132 0.833896 0.832746 0.838245 0.815652 0.822605 0.825534 0.821511 0.825699 0.817490 0.811734 0.806523 0.806601 0.800958 0.811549 0.809941 0.778213 0.762380 0.770436 0.755035 0.746345 0.741944 0.742072 0.709031 0.682531 0.656325 0.651408 0.644072 0.645989 0.654315 0.648982 0.634580 0.621228 0.614501 0.630638 0.632833 0.599242 0.599151 0.593572 0.588532 0.583265 0.585062 0.584737 0.591860 0.596519 0.561742 0.557983 0.563313 0.538882 0.537834 0.535188 0.525941 0.496361 0.502567 0.499098 0.515959 0.540380 0.510667 0.506862 0.513480 0.525094 0.536694 0.536006 0.522120 0.505792 0.513811 0.489637 0.475658 0.493242 0.509758 0.501133 0.515469 0.502724 0.531690 0.525520 0.512895 0.542830 0.561720 0.559934 0.535091 0.547059 0.522668 0.525683 0.506095 0.459045 0.466623 0.452742 0.405495 0.400351 0.418562 0.403401 0.401324 0.374355 0.376844 0.351951 0.315775 0.329005 0.322450 0.287890 0.251052 0.252676 0.254621 0.222178 0.195702 0.217009 0.167430 0.160931 0.179596 0.188962 0.187448 0.179621 0.201802 0.201802 0.201802 0.201802 0.201802 0.201802 0.201802 0.201802 0.201802 0.201802 0.201802 0.201802 0.201802 0.201802 0.227170 0.227170 0.227170 0.227170 0.227170 0.227170 0.227170 0.227170 0.227170 0.227170 0.227170 0.227170
0.000000 0.000000 0.000000 0.000000 0.000000 0.000000 0.000000 0.000000 0.000000 0.000000 0.000000 0.000000 0.000000 0.000000 0.000000 0.000000 0.000000 0.000000 0.000000 0.000000 0.000000 0.000000 0.000000 0.000000 0.000000 0.000000 0.000000 0.000000 0.000000 0.000000 0.000000 0.000000 0.000000 0.000000 0.000000 0.000000 0.000000 0.000000 0.000000 0.000000 0.000000 0.000000 0.000000 0.000000 0.000000 0.000000 0.000000 0.000000 0.000000 0.000000 0.000000 0.000000 0.209657 0.209657 0.209657 0.209657 0.209657 0.209657 0.209657 0.209657 0.209657 0.209657 0.209657 0.209657 0.209657 0.209657 0.209657 0.209657 0.209657 0.209657 0.209657 0.209657 0.209657 0.209657 0.209657 0.209657 0.209657 0.209657 0.209657 0.209657 0.209657 0.209657 0.209657 0.209657 0.209657 0.244339 0.244339 0.244339 0.244339 0.244339 0.244339 0.244339 0.244339 0.244339 0.244339 0.244339 0.244339 0.244339 0.244339 0.244339 0.244339 0.244339 0.244339 0.244339 0.244339 0.244339 0.244339 0.244339 0.244339 0.244339 0.260378 0.260378 0.260378 0.260378 0.260378 0.260378 0.260378 0.260378 0.260378 0.260378 0.260378 0.260378 0.260378 0.260378 0.260378 0.260378 0.260378 0.260378 0.260378 0.260378 0.269680 0.269680 0.269680 0.269680 0.269680 0.269680 0.269680 0.269680 0.269680 0.269680 0.269680 0.269680 0.269680 0.269680 0.269680 0.269680 0.269680 0.269680 0.269680 0.269680 0.269680 0.269680 0.269680 0.269680 0.269680 0.269680 0.269680 0.269680 0.269680 0.269680 0.269680 0.269680 0.269680 0.280056 0.280056 0.280056 0.280056 0.280056 0.280056 0.280056 0.280056 0.280056 0.280056 0.280056 0.280056 0.280056 0.280056 0.280056 0.280056 0.280056 0.280056 0.280056 0.280056 0.280056 0.280056 0.280056 0.280056 0.280056 0.280056 0.280056 0.274721 0.274721 0.274721 0.274721 0.274721 0.274721 0.274721 0.274721 0.274721 0.274721 0.274721 0.274721 0.274721 0.285714 0.285714 0.285714 0.285714 0.285714 0.285714 0.285714 0.285714 0.285714 0.285714 0.285714 0.280056 0.280056 0.280056 0.280056 0.280056 0.280056 0.280056 0.280056 0.280056 0.280056 0.280056 0.274721 0.274721 0.274721 0.274721 0.274721 0.274721 0.274721 0.274721 0.274721 0.274721 0.274721 0.280056 0.280056 0.280056 0.280056 0.280056 0.280056 0.280056 0.280056 0.280056 0.280056 0.285714 0.285714 0.285714 0.285714 0.285714 0.285714 0.285714 0.285714 0.285714 0.269680 0.269680 0.269680 0.269680 0.269680 0.269680 0.269680 0.269680 0.269680 0.269680 0.274721 0.274721 0.274721 0.274721 0.274721 0.274721 0.274721 0.274721 0.274721 0.285714 0.285714 0.285714 0.285714 0.285714 0.285714 0.285714 0.285714 0.264906 0.264906 0.264906 0.264906 0.264906 0.264906 0.264906 0.264906 0.264906 0.274721 0.274721 0.274721 0.274721 0.274721 0.274721 0.274721 0.274721 0.269680 0.269680 0.269680 0.269680 0.269680 0.269680 0.269680 0.269680 0.269680 0.269680 0.269680 0.269680 0.269680 0.269680 0.269680 0.269680 0.280056 0.280056 0.280056 0.280056 0.280056 0.280056 0.280056 0.260378 0.260378 0.260378 0.260378 0.260378 0.260378 0.260378 0.260378 0.269680 0.269680 0.269680 0.269680 0.269680 0.269680 0.269680 0.264906 0.264906 0.264906 0.264906 0.264906 0.264906 0.264906 0.264906 0.264906 0.264906 0.264906 0.264906 0.264906 0.264906 0.260378 0.260378 0.260378 0.260378 0.260378 0.260378 0.260378 0.260378 0.260378 0.260378 0.260378 0.260378
