# Output from CTFFind version 4.1.9, run on 2019-11-02 17:48:09
# Input file: stack1_bm3d_averaged_1_1.5_0_2000_half.mrc ; Number of micrographs: 1
# Pixel size: 3.000 Angstroms ; acceleration voltage: 300.0 keV ; spherical aberration: 0.00 mm ; amplitude contrast: 0.07
# Box size: 512 pixels ; min. res.: 30.0 Angstroms ; max. res.: 5.0 Angstroms ; min. def.: 5000.0 um; max. def. 50000.0 um; num. frames averaged: 1
# 6 lines per micrograph: #1 - spatial frequency (1/Angstroms); #2 - 1D rotational average of spectrum (assuming no astigmatism); #3 - 1D rotational average of spectrum; #4 - CTF fit; #5 - cross-correlation between spectrum and CTF fit; #6 - 2sigma of expected cross correlation of noise
0.000000 0.000651 0.001302 0.001953 0.002604 0.003255 0.003906 0.004557 0.005208 0.005859 0.006510 0.007161 0.007812 0.008464 0.009115 0.009766 0.010417 0.011068 0.011719 0.012370 0.013021 0.013672 0.014323 0.014974 0.015625 0.016276 0.016927 0.017578 0.018229 0.018880 0.019531 0.020182 0.020833 0.021484 0.022135 0.022786 0.023438 0.024089 0.024740 0.025391 0.026042 0.026693 0.027344 0.027995 0.028646 0.029297 0.029948 0.030599 0.031250 0.031901 0.032552 0.033203 0.033854 0.034505 0.035156 0.035807 0.036458 0.037109 0.037760 0.038411 0.039062 0.039714 0.040365 0.041016 0.041667 0.042318 0.042969 0.043620 0.044271 0.044922 0.045573 0.046224 0.046875 0.047526 0.048177 0.048828 0.049479 0.050130 0.050781 0.051432 0.052083 0.052734 0.053385 0.054036 0.054688 0.055339 0.055990 0.056641 0.057292 0.057943 0.058594 0.059245 0.059896 0.060547 0.061198 0.061849 0.062500 0.063151 0.063802 0.064453 0.065104 0.065755 0.066406 0.067057 0.067708 0.068359 0.069010 0.069661 0.070312 0.070964 0.071615 0.072266 0.072917 0.073568 0.074219 0.074870 0.075521 0.076172 0.076823 0.077474 0.078125 0.078776 0.079427 0.080078 0.080729 0.081380 0.082031 0.082682 0.083333 0.083984 0.084635 0.085286 0.085938 0.086589 0.087240 0.087891 0.088542 0.089193 0.089844 0.090495 0.091146 0.091797 0.092448 0.093099 0.093750 0.094401 0.095052 0.095703 0.096354 0.097005 0.097656 0.098307 0.098958 0.099609 0.100260 0.100911 0.101562 0.102214 0.102865 0.103516 0.104167 0.104818 0.105469 0.106120 0.106771 0.107422 0.108073 0.108724 0.109375 0.110026 0.110677 0.111328 0.111979 0.112630 0.113281 0.113932 0.114583 0.115234 0.115885 0.116536 0.117188 0.117839 0.118490 0.119141 0.119792 0.120443 0.121094 0.121745 0.122396 0.123047 0.123698 0.124349 0.125000 0.125651 0.126302 0.126953 0.127604 0.128255 0.128906 0.129557 0.130208 0.130859 0.131510 0.132161 0.132812 0.133464 0.134115 0.134766 0.135417 0.136068 0.136719 0.137370 0.138021 0.138672 0.139323 0.139974 0.140625 0.141276 0.141927 0.142578 0.143229 0.143880 0.144531 0.145182 0.145833 0.146484 0.147135 0.147786 0.148438 0.149089 0.149740 0.150391 0.151042 0.151693 0.152344 0.152995 0.153646 0.154297 0.154948 0.155599 0.156250 0.156901 0.157552 0.158203 0.158854 0.159505 0.160156 0.160807 0.161458 0.162109 0.162760 0.163411 0.164062 0.164714 0.165365 0.166016 0.166667 0.167318 0.167969 0.168620 0.169271 0.169922 0.170573 0.171224 0.171875 0.172526 0.173177 0.173828 0.174479 0.175130 0.175781 0.176432 0.177083 0.177734 0.178385 0.179036 0.179688 0.180339 0.180990 0.181641 0.182292 0.182943 0.183594 0.184245 0.184896 0.185547 0.186198 0.186849 0.187500 0.188151 0.188802 0.189453 0.190104 0.190755 0.191406 0.192057 0.192708 0.193359 0.194010 0.194661 0.195312 0.195964 0.196615 0.197266 0.197917 0.198568 0.199219 0.199870 0.200521 0.201172 0.201823 0.202474 0.203125 0.203776 0.204427 0.205078 0.205729 0.206380 0.207031 0.207682 0.208333 0.208984 0.209635 0.210286 0.210938 0.211589 0.212240 0.212891 0.213542 0.214193 0.214844 0.215495 0.216146 0.216797 0.217448 0.218099 0.218750 0.219401 0.220052 0.220703 0.221354 0.222005 0.222656 0.223307 0.223958 0.224609 0.225260 0.225911 0.226562 0.227214 0.227865 0.228516 0.229167 0.229818 0.230469 0.231120 0.231771 0.232422 0.233073 0.233724 0.234375 0.235026 0.235677
       0.33170        0.33170        0.33170        0.33170        0.33170        0.33170        0.33170        0.33170        0.33170        0.33170        0.33170        0.33170        0.33170        0.33170        0.33170        0.33170        0.33170        0.33170        0.33170        0.33170        0.33170        0.33170        0.33170        0.33170        0.33170        0.33170        0.33170        0.33170        0.33170        0.33170        0.33170        0.33170        0.33170        0.33170        0.33170        0.33170        0.33170        0.33170        0.33170        0.33170        0.33170        0.33170        0.33170        0.33170        0.33170        0.33170        0.33170        0.33170        0.33170        0.33170        0.33170        0.49948        0.71523        0.42524        0.18960       -0.08041       -0.26214       -0.06980       -0.13148       -0.05929       -0.00280       -0.14811       -0.09798       -0.04729       -0.00045       -0.15268       -0.22155       -0.34302       -0.46484       -0.56546       -0.52034       -0.45448       -0.37335       -0.55272       -0.45122       -0.62286       -0.50446       -0.47470       -0.39426       -0.38227       -0.33917       -0.24670       -0.16389       -0.14179        0.03043       -0.01486        0.11669        0.16827        0.30502        0.41054        0.46315        0.49486        0.53976        0.54790        0.69252        0.64501        0.67870        0.58675        0.55398        0.65208        0.52574        0.42899        0.38820        0.31676        0.22950        0.26353        0.25051        0.10181        0.08262       -0.00159       -0.00937        0.03284       -0.00798        0.07165        0.09157        0.23030        0.28221        0.30211        0.38686        0.56053        0.53709        0.57622        0.66939        0.69262        0.62819        0.63556        0.63386        0.54427        0.57099        0.39221        0.34747        0.26473        0.18481        0.07257        0.14278        0.11551        0.09524        0.10852        0.20496        0.20230        0.31444        0.35496        0.41208        0.49173        0.57606        0.54386        0.55589        0.60560        0.53862        0.46505        0.48095        0.32309        0.24800        0.25451        0.24215        0.13946        0.14370        0.15151        0.22334        0.24989        0.33102        0.36908        0.39329        0.46302        0.44646        0.47612        0.44521        0.47136        0.44420        0.40099        0.37519        0.35777        0.31670        0.28703        0.20607        0.20471        0.22492        0.26805        0.26051        0.34190        0.37290        0.35300        0.40936        0.45536        0.44575        0.42395        0.43876        0.36134        0.33384        0.28058        0.25843        0.28695        0.26245        0.29332        0.30010        0.34678        0.33583        0.40156        0.39796        0.42391        0.40848        0.43340        0.40419        0.36706        0.28356        0.28911        0.30122        0.27801        0.25783        0.33093        0.37020        0.33522        0.35575        0.36475        0.35027        0.40430        0.40034        0.36106        0.34042        0.30892        0.31090        0.31748        0.31003        0.29712        0.28307        0.33712        0.35569        0.37410        0.33564        0.32913        0.33379        0.34613        0.30704        0.27868        0.30656        0.31901        0.32961        0.32053        0.33280        0.35352        0.33149        0.31758        0.33043        0.29976        0.25901        0.24835        0.26275        0.30313        0.32043        0.35359        0.29901        0.30888        0.33271        0.29328        0.32050        0.29284        0.28061        0.28807        0.29495        0.30765        0.34500        0.31829        0.32741        0.32725        0.32279        0.33502        0.31673        0.32121        0.31523        0.27458        0.29085        0.30809        0.28753        0.32333        0.32936        0.33310        0.31602        0.34677        0.32668        0.27727        0.24483        0.27079        0.33048        0.36163        0.35179        0.31899        0.29361        0.29744        0.31475        0.25013        0.29020        0.29841        0.31651        0.29300        0.30206        0.27127        0.33349        0.34205        0.34002        0.32213        0.29421        0.30777        0.39117        0.33323        0.31433        0.30624        0.30439        0.28505        0.29707        0.27872        0.30305        0.23101        0.27199        0.29687        0.31259        0.29622        0.27647        0.28963        0.23640        0.22909        0.27222        0.31283        0.30452        0.30683        0.28446        0.33254        0.25205        0.22406        0.30152        0.25785        0.26586        0.27423        0.37132        0.28061        0.28614        0.26337        0.23507        0.26201        0.25296        0.22861        0.16176        0.22526        0.22480        0.24912        0.31122        0.27883        0.33778        0.30033        0.27193        0.25821        0.21969        0.24393        0.27078        0.21716        0.13355        0.17752        0.24647        0.22148        0.32006        0.27853        0.06146       -0.41126       -0.94977
2.710037 2.681367 2.652852 2.624492 2.596286 2.568234 2.540337 2.512595 2.485007 2.457573 2.430294 2.403170 2.376200 2.349384 2.322724 2.296217 2.269865 2.243668 2.217625 2.191737 2.166003 2.140424 2.114999 2.089728 2.064613 2.039651 2.014845 1.990192 1.965695 1.941352 1.917163 1.893129 1.869249 1.845524 1.821953 1.798537 1.775275 1.752168 1.729216 1.706417 1.683774 1.661285 1.638950 1.616770 1.594745 1.572874 1.551157 1.529595 1.508188 1.486935 1.465836 1.534349 1.837670 1.528242 1.196496 0.945673 0.546886 0.917214 0.641663 0.872150 0.929651 0.596042 0.706033 0.789637 0.829972 0.629069 0.541258 0.354193 0.102085 0.072714 0.043871 0.071367 0.301444 -0.038303 0.078084 -0.136074 -0.017649 -0.015330 0.074452 0.067974 0.102101 0.180771 0.283520 0.247543 0.481928 0.399308 0.548853 0.531747 0.774458 0.793353 0.882734 0.930221 0.940485 0.953973 1.125342 0.945215 1.151515 0.950526 0.854605 1.021727 0.851488 0.765144 0.629033 0.596139 0.458751 0.423555 0.509964 0.264337 0.202058 0.160231 0.009134 0.205032 -0.006606 0.120803 0.175009 0.257818 0.337976 0.349802 0.437521 0.545201 0.671990 0.538874 0.746062 0.858945 0.640828 0.705439 0.675937 0.587404 0.541931 0.462965 0.305758 0.216234 0.121458 -0.038674 -0.015363 0.054035 -0.089004 -0.057876 0.055349 0.045954 0.111497 0.218536 0.242554 0.315613 0.444551 0.452329 0.443129 0.472030 0.458826 0.337440 0.339041 0.248782 0.050386 0.064468 0.018105 -0.042976 -0.097876 -0.093746 -0.012821 -0.040610 0.082098 0.132815 0.126488 0.265668 0.231496 0.248883 0.279816 0.238878 0.240601 0.213366 0.158257 0.115323 0.109471 0.025895 0.011604 -0.113457 -0.044443 0.006624 -0.004108 0.016963 0.096710 0.076904 0.121541 0.215135 0.267905 0.177178 0.194894 0.112589 0.142914 0.026127 -0.035884 0.025215 -0.020381 0.011069 -0.001188 0.042550 0.084136 0.062479 0.164694 0.108048 0.185265 0.081950 0.169610 0.104750 0.011669 -0.044387 -0.007684 -0.019453 -0.050855 -0.052183 0.079265 0.072924 -0.001223 0.103306 0.084782 0.075009 0.158588 0.087082 0.085566 0.068048 -0.004437 0.043939 0.014420 0.025315 0.014154 0.009681 0.061163 0.083701 0.079814 0.048134 0.058391 0.034085 0.078031 0.000374 -0.005475 0.036389 0.031274 0.064548 0.049929 0.068690 0.074378 0.054456 0.026566 0.041467 0.001543 -0.044790 -0.031311 -0.018033 0.026572 0.041431 0.109427 0.001028 0.057108 0.058860 -0.001351 0.071388 0.020793 0.004880 0.034310 0.048181 0.038102 0.093421 0.042269 0.072095 0.071956 0.089518 0.068896 0.076705 0.092730 0.045995 -0.009190 0.056788 0.044279 0.043894 0.081216 0.080841 0.034580 0.064667 0.096062 0.023252 0.010104 -0.064627 -0.008249 0.117581 0.093410 0.077883 0.046716 -0.006134 0.061101 0.034158 -0.056850 0.049197 0.034104 0.057264 0.046639 -0.004293 0.044918 0.009732 0.062437 0.034264 0.043107 -0.042163 0.066330 0.113757 0.019486 -0.003091 0.014712 0.008525 -0.041209 -0.018459 -0.037345 -0.024480 -0.101378 -0.032428 -0.028482 0.008945 -0.027975 -0.070928 0.021359 -0.070783 -0.043175 -0.072301 0.058839 0.013885 0.033877 -0.011876 0.077463 -0.054324 -0.063635 0.035119 -0.042051 0.010229 -0.016731 0.164578 -0.052584 0.016363 0.013164 -0.047491 -0.004095 -0.018803 -0.030373 -0.168874 -0.013792 -0.044246 -0.012272 0.040091 0.014348 0.130032 0.047913 0.034827 0.012068 0.004320 -0.025960 0.303402 0.263979 0.163799 0.225434 0.260931 0.302401 0.345841 0.314674 0.074562 -1.120849
0.072396 0.072911 0.074453 0.077025 0.080624 0.085249 0.090900 0.097575 0.105270 0.113985 0.123714 0.134454 0.146198 0.158940 0.172672 0.187383 0.203063 0.219697 0.237269 0.255762 0.275153 0.295419 0.316531 0.338458 0.361165 0.384612 0.408754 0.433544 0.458927 0.484843 0.511226 0.538006 0.565105 0.592439 0.619916 0.647440 0.674906 0.702202 0.729209 0.755800 0.781844 0.807199 0.831719 0.855250 0.877633 0.898702 0.918287 0.936212 0.952300 0.966368 0.978233 0.987710 0.994616 0.998767 0.999985 0.998095 0.992931 0.984332 0.972150 0.956249 0.936505 0.912815 0.885092 0.853271 0.817311 0.777198 0.732945 0.684596 0.632229 0.575955 0.515925 0.452324 0.385381 0.315365 0.242585 0.167395 0.090190 0.011407 0.068477 0.148943 0.229437 0.309370 0.388123 0.465047 0.539476 0.610721 0.678090 0.740880 0.798399 0.849963 0.894910 0.932609 0.962468 0.983945 0.996558 0.999895 0.993624 0.977503 0.951389 0.915245 0.869153 0.813315 0.748061 0.673854 0.591290 0.501101 0.404153 0.301442 0.194084 0.083315 0.029528 0.143015 0.255644 0.365855 0.472055 0.572639 0.666015 0.750632 0.825006 0.887752 0.937612 0.973481 0.994441 0.999782 0.989031 0.961972 0.918665 0.859458 0.785002 0.696249 0.594454 0.481165 0.358207 0.227666 0.091852 0.046731 0.185430 0.321489 0.452107 0.574490 0.685921 0.783816 0.865795 0.929744 0.973879 0.996800 0.997547 0.975644 0.931129 0.864587 0.777151 0.670507 0.546876 0.408977 0.259984 0.103461 0.056713 0.216438 0.371494 0.517650 0.650786 0.767009 0.862781 0.935034 0.981279 0.999709 0.989277 0.949765 0.881823 0.786991 0.667679 0.527133 0.369370 0.199068 0.021449 0.157874 0.333069 0.498274 0.647797 0.776317 0.879089 0.952128 0.992388 0.997903 0.967904 0.902892 0.804668 0.676316 0.522137 0.347522 0.158793 0.037015 0.232402 0.419686 0.591312 0.740156 0.859836 0.945011 0.991632 0.997167 0.960762 0.883336 0.767605 0.618025 0.440655 0.242941 0.033428 0.178596 0.383501 0.571754 0.734365 0.863339 0.952091 0.995807 0.991742 0.939425 0.840753 0.699976 0.523561 0.319927 0.099087 0.127833 0.349137 0.553156 0.728874 0.866544 0.958253 0.998413 0.984145 0.915522 0.795654 0.630608 0.429154 0.202338 0.037089 0.275368 0.498510 0.693125 0.847249 0.951102 0.997758 0.983649 0.908891 0.777381 0.596661 0.377548 0.133525 0.120036 0.366840 0.590699 0.776613 0.911801 0.986625 0.995328 0.936539 0.813485 0.633900 0.409602 0.155782 0.109986 0.368939 0.602444 0.793346 0.927265 0.993738 0.987092 0.906998 0.758636 0.552456 0.303497 0.030383 0.246066 0.504373 0.724099 0.887471 0.980886 0.996102 0.931047 0.790146 0.584115 0.329239 0.046163 0.241757 0.510321 0.736562 0.900718 0.988027 0.990130 0.905960 0.742013 0.511960 0.235596 0.062797 0.356515 0.618840 0.825465 0.956809 0.999941 0.949956 0.810617 0.594214 0.320578 0.015357 0.292326 0.572621 0.797883 0.945421 0.999876 0.954923 0.814111 0.590731 0.306678 0.009595 0.325861 0.609383 0.830315 0.964908 0.998155 0.925579 0.753945 0.500780 0.192708 0.137256 0.453182 0.720142 0.908094 0.995362 0.971239 0.837439 0.608165 0.308756 0.027005 0.360619 0.653264 0.870333 0.985601 0.984526 0.866209 0.643797 0.343185 0.000128 0.343912 0.646751 0.870683 0.987242 0.980964 0.851585 0.614386 0.298555 0.056251 0.404812 0.702065 0.908988 0.997799 0.955851 0.787594 0.514323 0.171650 0.194983 0.536272 0.805677 0.965838 0.993876
1.000000 1.000000 1.000000 1.000000 1.000000 1.000000 1.000000 1.000000 1.000000 1.000000 1.000000 1.000000 1.000000 1.000000 1.000000 1.000000 1.000000 1.000000 1.000000 1.000000 1.000000 1.000000 1.000000 1.000000 1.000000 1.000000 1.000000 1.000000 1.000000 1.000000 1.000000 1.000000 1.000000 1.000000 1.000000 1.000000 1.000000 1.000000 1.000000 1.000000 1.000000 1.000000 1.000000 1.000000 1.000000 1.000000 1.000000 1.000000 1.000000 1.000000 1.000000 1.000000 0.917318 0.917318 0.904206 0.904206 0.904206 0.904206 0.904206 0.904206 0.904206 0.904206 0.904206 0.904206 0.904206 0.904206 0.904206 0.904206 0.904206 0.904206 0.904206 0.904206 0.904206 0.904206 0.904206 0.904206 0.904206 0.904206 0.904206 0.904206 0.904206 0.904206 0.904206 0.904206 0.904206 0.904206 0.904206 0.904206 0.904206 0.904206 0.904206 0.904206 0.904206 0.904206 0.904206 0.902475 0.907512 0.909480 0.908067 0.911542 0.911588 0.909603 0.909059 0.908742 0.909106 0.910514 0.920962 0.931908 0.942846 0.943376 0.948604 0.952816 0.955349 0.956068 0.957692 0.967960 0.965256 0.964796 0.965490 0.966908 0.968980 0.967853 0.967227 0.970293 0.970927 0.969455 0.967004 0.966352 0.964990 0.964298 0.963946 0.963820 0.964917 0.965430 0.965048 0.964666 0.964819 0.964883 0.965884 0.967049 0.969643 0.970795 0.970715 0.969619 0.964487 0.967913 0.968835 0.968252 0.968273 0.967952 0.968237 0.952030 0.949722 0.949624 0.945839 0.944828 0.942116 0.940370 0.939431 0.940304 0.939259 0.939351 0.936426 0.923379 0.910119 0.897850 0.917609 0.905783 0.893373 0.869890 0.870052 0.863516 0.863910 0.855871 0.848974 0.844679 0.842123 0.844296 0.844563 0.849073 0.845485 0.829411 0.833046 0.828605 0.794011 0.781061 0.767554 0.763853 0.760784 0.761895 0.761936 0.756406 0.765122 0.757632 0.754584 0.744290 0.720640 0.685952 0.673779 0.685239 0.695677 0.696520 0.692556 0.676991 0.637033 0.650816 0.678401 0.671597 0.672117 0.667015 0.660425 0.669218 0.668602 0.664561 0.657984 0.657312 0.656933 0.667474 0.673087 0.665782 0.659980 0.647952 0.638235 0.624829 0.636459 0.643256 0.612090 0.605882 0.599792 0.594684 0.586621 0.565739 0.566579 0.545785 0.531103 0.530654 0.531986 0.535704 0.545926 0.545049 0.522057 0.544999 0.541430 0.573456 0.547870 0.545654 0.547497 0.557598 0.538489 0.527193 0.519745 0.520779 0.537226 0.568565 0.608496 0.601372 0.589334 0.582947 0.596789 0.577153 0.585760 0.609593 0.588415 0.516748 0.472780 0.469846 0.438869 0.428038 0.415210 0.395061 0.374643 0.374972 0.370409 0.355978 0.344749 0.290365 0.257488 0.238942 0.223622 0.238152 0.253560 0.251797 0.251401 0.289787 0.334498 0.336543 0.326777 0.309735 0.310418 0.308881 0.261715 0.260698 0.224530 0.212485 0.242895 0.192256 0.197574 0.137030 0.130557 0.147099 0.171890 0.185205 0.141499 0.126286 0.147777 0.166483 0.157590 0.150255 0.108321 0.082525 0.070204 0.081649 0.063874 0.033718 0.033947 0.042896 0.023866 0.004484 0.013528 0.004555 0.008632 -0.004487 -0.003930 0.037214 0.063673 0.054663 0.057991 0.076209 0.064284 0.045010 0.037935 0.023678 0.017752 -0.031463 -0.056227 -0.056227 -0.050825 -0.050825 -0.050825 -0.050825 -0.050825 -0.050825 -0.050825 -0.050825 -0.050825 -0.051149 -0.051149 -0.051149 -0.051149 -0.051149 -0.051149 -0.051149 -0.051149 -0.051149 -0.031385 -0.031385 -0.031385 -0.031385 -0.031385 -0.031385 -0.031385 -0.031385 -0.031385
0.000000 0.000000 0.000000 0.000000 0.000000 0.000000 0.000000 0.000000 0.000000 0.000000 0.000000 0.000000 0.000000 0.000000 0.000000 0.000000 0.000000 0.000000 0.000000 0.000000 0.000000 0.000000 0.000000 0.000000 0.000000 0.000000 0.000000 0.000000 0.000000 0.000000 0.000000 0.000000 0.000000 0.000000 0.000000 0.000000 0.000000 0.000000 0.000000 0.000000 0.000000 0.000000 0.000000 0.000000 0.000000 0.000000 0.000000 0.000000 0.000000 0.000000 0.000000 0.000000 0.181818 0.181818 0.199007 0.199007 0.199007 0.199007 0.199007 0.199007 0.199007 0.199007 0.199007 0.199007 0.199007 0.199007 0.199007 0.199007 0.199007 0.199007 0.199007 0.199007 0.199007 0.199007 0.199007 0.199007 0.199007 0.199007 0.199007 0.199007 0.199007 0.199007 0.199007 0.199007 0.199007 0.199007 0.199007 0.199007 0.199007 0.199007 0.199007 0.199007 0.199007 0.199007 0.199007 0.230940 0.230940 0.230940 0.230940 0.230940 0.230940 0.230940 0.230940 0.230940 0.230940 0.230940 0.230940 0.230940 0.230940 0.230940 0.230940 0.230940 0.230940 0.230940 0.230940 0.230940 0.230940 0.230940 0.230940 0.230940 0.230940 0.230940 0.230940 0.244339 0.244339 0.244339 0.244339 0.244339 0.244339 0.244339 0.244339 0.244339 0.244339 0.244339 0.244339 0.244339 0.244339 0.244339 0.244339 0.244339 0.244339 0.244339 0.244339 0.244339 0.244339 0.244339 0.251976 0.251976 0.251976 0.251976 0.251976 0.251976 0.251976 0.251976 0.251976 0.251976 0.251976 0.251976 0.251976 0.251976 0.251976 0.251976 0.251976 0.251976 0.251976 0.251976 0.264906 0.264906 0.264906 0.264906 0.264906 0.264906 0.264906 0.264906 0.264906 0.264906 0.264906 0.264906 0.264906 0.264906 0.264906 0.264906 0.264906 0.264906 0.264906 0.264906 0.264906 0.264906 0.264906 0.264906 0.264906 0.264906 0.264906 0.264906 0.264906 0.264906 0.264906 0.264906 0.264906 0.264906 0.264906 0.264906 0.264906 0.264906 0.264906 0.264906 0.264906 0.264906 0.264906 0.264906 0.264906 0.264906 0.264906 0.264906 0.264906 0.264906 0.264906 0.264906 0.264906 0.264906 0.264906 0.264906 0.264906 0.264906 0.264906 0.264906 0.264906 0.264906 0.264906 0.264906 0.264906 0.264906 0.264906 0.264906 0.264906 0.264906 0.264906 0.264906 0.264906 0.264906 0.264906 0.269680 0.269680 0.269680 0.269680 0.269680 0.269680 0.269680 0.269680 0.269680 0.269680 0.269680 0.269680 0.264906 0.264906 0.264906 0.264906 0.264906 0.264906 0.264906 0.264906 0.264906 0.264906 0.264906 0.264906 0.269680 0.269680 0.269680 0.269680 0.269680 0.269680 0.269680 0.269680 0.269680 0.269680 0.269680 0.264906 0.264906 0.264906 0.264906 0.264906 0.264906 0.264906 0.264906 0.264906 0.264906 0.264906 0.269680 0.269680 0.269680 0.269680 0.269680 0.269680 0.269680 0.269680 0.269680 0.269680 0.251976 0.251976 0.251976 0.251976 0.251976 0.251976 0.251976 0.251976 0.251976 0.251976 0.251976 0.269680 0.269680 0.269680 0.269680 0.269680 0.269680 0.269680 0.269680 0.269680 0.256074 0.256074 0.256074 0.256074 0.256074 0.256074 0.256074 0.256074 0.256074 0.256074 0.260378 0.260378 0.260378 0.260378 0.260378 0.260378 0.260378 0.260378 0.260378 0.256074 0.256074 0.256074 0.256074 0.256074 0.256074 0.256074 0.256074 0.256074 0.251976 0.251976 0.251976 0.251976 0.251976 0.251976 0.251976 0.251976 0.251976 0.264906 0.264906 0.264906 0.264906 0.264906 0.264906 0.264906 0.264906 0.264906
