# Output from CTFFind version 4.1.9, run on 2019-11-03 19:24:24
# Input file: stack16_bm3d_averaged_1_3.75_0_50_half.mrc ; Number of micrographs: 1
# Pixel size: 3.000 Angstroms ; acceleration voltage: 300.0 keV ; spherical aberration: 0.00 mm ; amplitude contrast: 0.07
# Box size: 512 pixels ; min. res.: 30.0 Angstroms ; max. res.: 5.0 Angstroms ; min. def.: 5000.0 um; max. def. 50000.0 um; num. frames averaged: 1
# 6 lines per micrograph: #1 - spatial frequency (1/Angstroms); #2 - 1D rotational average of spectrum (assuming no astigmatism); #3 - 1D rotational average of spectrum; #4 - CTF fit; #5 - cross-correlation between spectrum and CTF fit; #6 - 2sigma of expected cross correlation of noise
0.000000 0.000651 0.001302 0.001953 0.002604 0.003255 0.003906 0.004557 0.005208 0.005859 0.006510 0.007161 0.007812 0.008464 0.009115 0.009766 0.010417 0.011068 0.011719 0.012370 0.013021 0.013672 0.014323 0.014974 0.015625 0.016276 0.016927 0.017578 0.018229 0.018880 0.019531 0.020182 0.020833 0.021484 0.022135 0.022786 0.023438 0.024089 0.024740 0.025391 0.026042 0.026693 0.027344 0.027995 0.028646 0.029297 0.029948 0.030599 0.031250 0.031901 0.032552 0.033203 0.033854 0.034505 0.035156 0.035807 0.036458 0.037109 0.037760 0.038411 0.039062 0.039714 0.040365 0.041016 0.041667 0.042318 0.042969 0.043620 0.044271 0.044922 0.045573 0.046224 0.046875 0.047526 0.048177 0.048828 0.049479 0.050130 0.050781 0.051432 0.052083 0.052734 0.053385 0.054036 0.054688 0.055339 0.055990 0.056641 0.057292 0.057943 0.058594 0.059245 0.059896 0.060547 0.061198 0.061849 0.062500 0.063151 0.063802 0.064453 0.065104 0.065755 0.066406 0.067057 0.067708 0.068359 0.069010 0.069661 0.070312 0.070964 0.071615 0.072266 0.072917 0.073568 0.074219 0.074870 0.075521 0.076172 0.076823 0.077474 0.078125 0.078776 0.079427 0.080078 0.080729 0.081380 0.082031 0.082682 0.083333 0.083984 0.084635 0.085286 0.085938 0.086589 0.087240 0.087891 0.088542 0.089193 0.089844 0.090495 0.091146 0.091797 0.092448 0.093099 0.093750 0.094401 0.095052 0.095703 0.096354 0.097005 0.097656 0.098307 0.098958 0.099609 0.100260 0.100911 0.101562 0.102214 0.102865 0.103516 0.104167 0.104818 0.105469 0.106120 0.106771 0.107422 0.108073 0.108724 0.109375 0.110026 0.110677 0.111328 0.111979 0.112630 0.113281 0.113932 0.114583 0.115234 0.115885 0.116536 0.117188 0.117839 0.118490 0.119141 0.119792 0.120443 0.121094 0.121745 0.122396 0.123047 0.123698 0.124349 0.125000 0.125651 0.126302 0.126953 0.127604 0.128255 0.128906 0.129557 0.130208 0.130859 0.131510 0.132161 0.132812 0.133464 0.134115 0.134766 0.135417 0.136068 0.136719 0.137370 0.138021 0.138672 0.139323 0.139974 0.140625 0.141276 0.141927 0.142578 0.143229 0.143880 0.144531 0.145182 0.145833 0.146484 0.147135 0.147786 0.148438 0.149089 0.149740 0.150391 0.151042 0.151693 0.152344 0.152995 0.153646 0.154297 0.154948 0.155599 0.156250 0.156901 0.157552 0.158203 0.158854 0.159505 0.160156 0.160807 0.161458 0.162109 0.162760 0.163411 0.164062 0.164714 0.165365 0.166016 0.166667 0.167318 0.167969 0.168620 0.169271 0.169922 0.170573 0.171224 0.171875 0.172526 0.173177 0.173828 0.174479 0.175130 0.175781 0.176432 0.177083 0.177734 0.178385 0.179036 0.179688 0.180339 0.180990 0.181641 0.182292 0.182943 0.183594 0.184245 0.184896 0.185547 0.186198 0.186849 0.187500 0.188151 0.188802 0.189453 0.190104 0.190755 0.191406 0.192057 0.192708 0.193359 0.194010 0.194661 0.195312 0.195964 0.196615 0.197266 0.197917 0.198568 0.199219 0.199870 0.200521 0.201172 0.201823 0.202474 0.203125 0.203776 0.204427 0.205078 0.205729 0.206380 0.207031 0.207682 0.208333 0.208984 0.209635 0.210286 0.210938 0.211589 0.212240 0.212891 0.213542 0.214193 0.214844 0.215495 0.216146 0.216797 0.217448 0.218099 0.218750 0.219401 0.220052 0.220703 0.221354 0.222005 0.222656 0.223307 0.223958 0.224609 0.225260 0.225911 0.226562 0.227214 0.227865 0.228516 0.229167 0.229818 0.230469 0.231120 0.231771 0.232422 0.233073 0.233724 0.234375 0.235026 0.235677
       0.33807        0.33807        0.33807        0.33807        0.33807        0.33807        0.33807        0.33807        0.33807        0.33807        0.33807        0.33807        0.33807        0.33807        0.33807        0.33807        0.33807        0.33807        0.33807        0.33807        0.33807        0.33807        0.33807        0.33807        0.33807        0.33807        0.33807        0.33807        0.33807        0.33807        0.33807        0.33807        0.33807        0.33807        0.33807        0.33807        0.33807        0.33807        0.33807        0.33807        0.33807        0.33807        0.33807        0.33807        0.33807        0.33807        0.33807        0.33807        0.33807        0.33807        0.33807        0.42497        0.56633        0.35342       -0.19723       -0.45212       -0.55382       -0.65357       -0.72353       -0.74125       -0.84379       -0.90673       -0.70302       -0.86470       -0.84017       -0.98629       -1.02535       -0.91013       -0.86822       -0.81419       -0.73974       -0.66358       -0.57812       -0.48498       -0.41479       -0.18805       -0.08032        0.01560        0.24377        0.24822        0.30450        0.36758        0.39767        0.50691        0.54077        0.57410        0.53599        0.47739        0.51067        0.50942        0.43279        0.32302        0.19640        0.17062        0.10362       -0.01588       -0.03323       -0.03878        0.03895        0.00047        0.05757        0.03461        0.14905        0.18891        0.40572        0.45807        0.55603        0.65827        0.69326        0.72083        0.64356        0.61659        0.53343        0.44242        0.38184        0.26415        0.20820        0.19755        0.08321        0.08144        0.07040        0.07073        0.08385        0.29950        0.41019        0.51396        0.53991        0.57902        0.61502        0.59224        0.58644        0.58806        0.56655        0.46965        0.29102        0.24972        0.23036        0.12756        0.07605        0.14015        0.17173        0.27484        0.35011        0.41291        0.47308        0.53565        0.60582        0.55342        0.51079        0.49821        0.35683        0.24634        0.23603        0.16174        0.15983        0.20839        0.25176        0.26687        0.31376        0.41757        0.44295        0.50266        0.45774        0.45127        0.47566        0.37969        0.32143        0.27628        0.24021        0.21614        0.21955        0.23163        0.32525        0.43038        0.41842        0.48910        0.55160        0.45006        0.41517        0.35683        0.30786        0.25167        0.25984        0.26979        0.28469        0.32595        0.33946        0.41588        0.47025        0.43639        0.45447        0.35885        0.37313        0.35056        0.24833        0.23284        0.23222        0.30207        0.36368        0.36489        0.38858        0.43244        0.43080        0.36757        0.33911        0.31496        0.34180        0.30081        0.27643        0.27017        0.33178        0.35966        0.37535        0.39758        0.37572        0.40503        0.38706        0.30190        0.27971        0.31102        0.33606        0.35982        0.36209        0.40831        0.33751        0.36896        0.38552        0.32567        0.34748        0.30120        0.29312        0.33746        0.32820        0.31849        0.33754        0.36037        0.31975        0.33622        0.30095        0.30540        0.28115        0.30319        0.29799        0.33219        0.37042        0.36059        0.34295        0.29481        0.28389        0.28428        0.32205        0.29746        0.30811        0.36042        0.36657        0.33689        0.30318        0.30674        0.30719        0.27058        0.29019        0.29703        0.32020        0.34937        0.32907        0.28874        0.32586        0.31250        0.30185        0.35349        0.34049        0.30866        0.33081        0.29070        0.32180        0.28482        0.30565        0.29101        0.31523        0.37312        0.33227        0.34572        0.30808        0.31327        0.32642        0.32363        0.29185        0.29456        0.33377        0.32377        0.32052        0.31175        0.31059        0.29628        0.29902        0.32037        0.32701        0.32796        0.33133        0.32651        0.28098        0.26988        0.26777        0.26759        0.35791        0.31481        0.36522        0.29989        0.26842        0.28293        0.35455        0.30511        0.28400        0.27900        0.31149        0.28259        0.26321        0.30804        0.26939        0.26881        0.30504        0.31305        0.33578        0.32959        0.30110        0.26217        0.25480        0.24831        0.26384        0.29109        0.33775        0.28237        0.19349        0.29190        0.27062        0.29770        0.23325        0.30914        0.30257        0.31649        0.27668        0.27322        0.27078        0.23241        0.29661        0.33081        0.35792        0.25415        0.26790        0.21745        0.23490        0.21249        0.33246        0.23188        0.21771        0.12240        0.24110        0.25445        0.19891        0.14232        0.04351       -0.59284       -0.86868
3.078757 3.040113 3.001719 2.963574 2.925679 2.888033 2.850637 2.813491 2.776595 2.739947 2.703550 2.667402 2.631504 2.595856 2.560456 2.525307 2.490407 2.455757 2.421357 2.387206 2.353304 2.319653 2.286251 2.253098 2.220195 2.187542 2.155138 2.122984 2.091080 2.059425 2.028020 1.996865 1.965959 1.935302 1.904895 1.874738 1.844831 1.815173 1.785765 1.756606 1.727697 1.699038 1.670628 1.642468 1.614557 1.586896 1.559485 1.532323 1.505411 1.478748 1.452336 1.488737 1.584649 1.525304 0.850368 0.587816 0.442641 0.373849 0.284412 0.201039 0.160582 -0.059906 0.189615 0.051943 -0.045026 -0.121102 -0.245370 -0.159384 -0.074077 -0.094604 -0.089965 0.030238 0.020462 0.213544 0.098281 0.343939 0.453888 0.475522 0.752834 0.684528 0.681441 0.824197 0.796455 0.830130 0.921227 0.860346 0.893211 0.730632 0.803424 0.840153 0.674187 0.599996 0.438803 0.418953 0.353338 0.181483 0.177154 0.113143 0.212084 0.116591 0.215054 0.102521 0.229578 0.233666 0.461760 0.411545 0.592859 0.627593 0.667150 0.729680 0.630195 0.607939 0.468761 0.427053 0.307890 0.274525 0.106608 0.170539 -0.019509 0.030498 -0.035991 -0.038852 -0.036896 0.040935 0.289089 0.308256 0.384506 0.332364 0.412118 0.445440 0.430535 0.428812 0.372510 0.362136 0.142516 0.087233 0.067615 -0.006796 -0.146222 -0.040143 -0.071337 0.045504 0.102317 0.168294 0.243696 0.247444 0.345152 0.420989 0.322394 0.382269 0.264774 0.143519 0.062071 0.052317 0.007505 0.040490 0.074439 0.105900 0.116232 0.199101 0.247872 0.297744 0.310131 0.239554 0.265554 0.236998 0.111985 0.089071 0.043197 0.037292 0.007754 0.004484 0.042268 0.172494 0.194239 0.194466 0.319220 0.197964 0.225929 0.094066 0.086826 0.001827 -0.007282 0.008600 0.010387 0.044702 0.057549 0.093716 0.161022 0.154697 0.219571 0.123073 0.082433 0.102779 0.042905 -0.068856 -0.029195 0.010262 0.053989 0.066085 0.082466 0.157051 0.131848 0.149282 0.043690 0.056372 0.052705 0.050571 0.024034 -0.015225 0.028764 0.040220 0.083938 0.108422 0.102479 0.106814 0.122084 0.071212 0.004699 0.004741 0.029385 0.077810 0.061762 0.113349 0.098253 0.053284 0.111704 0.066185 0.037840 0.075776 -0.029390 0.026965 0.059521 0.032776 0.038228 0.047320 0.068775 0.050995 0.047701 0.006652 0.022017 -0.012619 0.031957 0.000818 0.056965 0.081629 0.067066 0.036820 -0.014597 -0.009755 -0.010200 0.030535 -0.001105 0.013517 0.071364 0.068157 -0.014080 0.010474 -0.004546 0.005676 -0.040116 -0.017828 -0.009337 0.025749 0.026317 0.017137 -0.018024 0.007928 -0.009295 -0.000798 0.045173 0.018630 0.023084 -0.085803 0.015315 -0.008562 -0.039279 -0.008970 -0.029561 0.024420 0.065700 0.011205 0.005176 0.009446 0.010864 0.015316 0.026424 -0.018790 -0.002840 0.030732 0.037972 0.020635 0.010423 0.052454 -0.016913 0.002285 0.032167 0.020071 0.063440 0.056177 0.024790 -0.004690 -0.003069 -0.031617 0.007987 0.080793 0.001564 0.084698 -0.009749 -0.020268 -0.016499 0.086798 -0.003005 0.000571 0.016024 0.032735 -0.003472 0.006885 0.026314 0.004510 -0.000334 0.029109 0.063890 0.092630 0.057817 0.037299 0.009058 -0.015512 -0.006758 0.010286 0.012154 0.094482 -0.020836 -0.098610 0.051915 -0.011049 0.039567 -0.060261 0.033020 0.007010 0.016982 -0.018162 -0.005861 -0.027085 -0.053891 0.033357 0.042608 0.078067 -0.086272 0.030829 -0.054374 0.009059 -0.080242 0.138437 0.021190 0.060920 -0.075212 0.125992 0.248754 0.173256 0.090315 0.047657 -0.815882
0.072396 0.073047 0.074999 0.078252 0.082804 0.088655 0.095801 0.104240 0.113969 0.124981 0.137271 0.150830 0.165647 0.181710 0.199005 0.217511 0.237207 0.258067 0.280060 0.303152 0.327299 0.352457 0.378570 0.405579 0.433414 0.461999 0.491249 0.521070 0.551357 0.581995 0.612860 0.643816 0.674716 0.705402 0.735704 0.765440 0.794419 0.822436 0.849277 0.874718 0.898525 0.920457 0.940263 0.957689 0.972474 0.984358 0.993078 0.998373 0.999988 0.997674 0.991193 0.980321 0.964851 0.944598 0.919401 0.889128 0.853681 0.813000 0.767064 0.715901 0.659589 0.598256 0.532093 0.461347 0.386331 0.307422 0.225066 0.139774 0.052127 0.037228 0.127580 0.218157 0.308131 0.396622 0.482710 0.565437 0.643824 0.716876 0.783602 0.843023 0.894191 0.936203 0.968221 0.989488 0.999346 0.997255 0.982812 0.955763 0.916028 0.863706 0.799094 0.722693 0.635218 0.537598 0.430977 0.316711 0.196356 0.071653 0.055486 0.183013 0.308761 0.430489 0.545918 0.652773 0.748833 0.831978 0.900245 0.951878 0.985379 0.999561 0.993593 0.967041 0.919906 0.852650 0.766213 0.662023 0.541984 0.408465 0.264267 0.112571 0.043115 0.199034 0.351263 0.495815 0.628739 0.746239 0.844784 0.921231 0.972936 0.997856 0.994650 0.962756 0.902449 0.814878 0.702078 0.566950 0.413215 0.245330 0.068379 0.112063 0.290104 0.459718 0.614951 0.750141 0.860134 0.940498 0.987726 0.999411 0.974389 0.912847 0.816382 0.687998 0.532060 0.354174 0.161021 0.039875 0.240423 0.432282 0.607212 0.757436 0.876004 0.957138 0.996549 0.991697 0.941983 0.848863 0.715867 0.548522 0.354164 0.141663 0.078960 0.296984 0.501497 0.681950 0.828727 0.933675 0.990597 0.995672 0.947746 0.848512 0.702521 0.517045 0.301773 0.068350 0.170218 0.400268 0.608263 0.781608 0.909431 0.983319 0.997929 0.951425 0.845733 0.686555 0.483140 0.247821 0.004681 0.258143 0.495858 0.701749 0.861483 0.963510 0.999968 0.967357 0.866942 0.704825 0.491677 0.242119 0.026221 0.293896 0.541047 0.748878 0.901125 0.985391 0.994232 0.925907 0.784705 0.580794 0.329603 0.050735 0.233498 0.499835 0.725973 0.892472 0.984490 0.993209 0.916776 0.760684 0.537524 0.266079 0.030153 0.324935 0.591592 0.805446 0.946149 0.999720 0.960042 0.829682 0.619901 0.349835 0.044850 0.265736 0.551454 0.783669 0.938514 0.999441 0.959121 0.820462 0.596591 0.309792 0.010602 0.331118 0.617589 0.838850 0.970179 0.996194 0.912812 0.728003 0.461235 0.141587 0.195303 0.511129 0.769293 0.939195 0.999978 0.943260 0.774460 0.512503 0.187906 0.160644 0.490810 0.761744 0.939198 0.999987 0.935198 0.751686 0.471605 0.129929 0.229746 0.560707 0.819172 0.970185 0.992502 0.881779 0.651588 0.332003 0.034126 0.396767 0.705520 0.916655 0.999442 0.940843 0.747787 0.446666 0.079954 0.299588 0.636433 0.880433 0.994408 0.960023 0.780995 0.483046 0.110468 0.280240 0.628863 0.880746 0.995519 0.953771 0.760627 0.445479 0.057804 0.340400 0.684433 0.917447 1.000000 0.916998 0.680748 0.329499 0.078460 0.474292 0.790164 0.970982 0.984193 0.825969 0.522490 0.125987 0.294019 0.662750 0.913516 0.999953 0.904883 0.644088 0.264074 0.165870 0.566151 0.861557 0.995523 0.941265 0.707491 0.337472 0.098633 0.516811 0.835342 0.990886 0.951374 0.722989 0.349716 0.094746 0.521279 0.843150 0.993778 0.940817 0.693508 0.301593 0.154306 0.579014 0.882628 0.999708 0.903754 0.613623 0.190356 0.275302 0.682099
1.000000 1.000000 1.000000 1.000000 1.000000 1.000000 1.000000 1.000000 1.000000 1.000000 1.000000 1.000000 1.000000 1.000000 1.000000 1.000000 1.000000 1.000000 1.000000 1.000000 1.000000 1.000000 1.000000 1.000000 1.000000 1.000000 1.000000 1.000000 1.000000 1.000000 1.000000 1.000000 1.000000 1.000000 1.000000 1.000000 1.000000 1.000000 1.000000 1.000000 1.000000 1.000000 1.000000 1.000000 1.000000 1.000000 1.000000 1.000000 1.000000 1.000000 1.000000 1.000000 0.929069 0.929069 0.929069 0.929069 0.929069 0.929069 0.929069 0.929069 0.929069 0.929069 0.929069 0.929069 0.929069 0.929069 0.929069 0.929069 0.929069 0.929069 0.929069 0.929069 0.929069 0.929069 0.929069 0.929069 0.929069 0.929069 0.929069 0.929069 0.929069 0.929069 0.929069 0.929069 0.929069 0.916789 0.914785 0.915907 0.917030 0.916937 0.916411 0.916075 0.917110 0.918635 0.920587 0.942138 0.945591 0.946258 0.947507 0.948952 0.951479 0.949601 0.953881 0.964443 0.963579 0.964516 0.958475 0.959621 0.959071 0.958392 0.960118 0.960069 0.958573 0.956815 0.955457 0.955021 0.954748 0.956432 0.956853 0.957025 0.957488 0.957430 0.957283 0.957239 0.957532 0.959773 0.958924 0.957991 0.963640 0.962218 0.964143 0.964117 0.964827 0.965558 0.965772 0.965954 0.962143 0.961704 0.960951 0.948106 0.941538 0.938505 0.940951 0.944050 0.941290 0.936645 0.937904 0.940582 0.938608 0.938174 0.928989 0.927462 0.908183 0.899493 0.889442 0.889861 0.891697 0.892813 0.890778 0.882940 0.872785 0.868818 0.870273 0.865583 0.860470 0.877073 0.871946 0.872803 0.876887 0.879859 0.885186 0.880353 0.876570 0.872352 0.868242 0.864422 0.866867 0.871631 0.874831 0.863701 0.856205 0.859285 0.849111 0.842633 0.849415 0.851127 0.846721 0.845664 0.846635 0.846929 0.838731 0.833469 0.835167 0.844535 0.845506 0.835515 0.831358 0.823976 0.824021 0.820364 0.821363 0.820521 0.817464 0.811299 0.824303 0.792608 0.813356 0.808424 0.795820 0.781189 0.768945 0.775908 0.788334 0.791883 0.791348 0.773288 0.771923 0.771143 0.750863 0.756628 0.763633 0.760978 0.748078 0.725662 0.733393 0.742010 0.735310 0.725326 0.727650 0.729039 0.694185 0.705596 0.709464 0.699880 0.713912 0.713724 0.705542 0.702551 0.703140 0.696726 0.686146 0.648384 0.651315 0.662273 0.657357 0.606038 0.603724 0.604783 0.601831 0.530235 0.536129 0.524855 0.525178 0.507538 0.540445 0.518471 0.522751 0.550795 0.497210 0.412622 0.425812 0.424264 0.441095 0.445714 0.429406 0.371145 0.390141 0.419116 0.404795 0.379188 0.329218 0.367155 0.383871 0.415559 0.407029 0.417562 0.442262 0.427392 0.409019 0.386326 0.404238 0.398526 0.436559 0.386360 0.357151 0.350129 0.350613 0.362280 0.355218 0.337131 0.291844 0.325456 0.283737 0.310032 0.288837 0.267052 0.262611 0.292611 0.286877 0.294667 0.279204 0.314274 0.307988 0.309153 0.299900 0.310083 0.334313 0.333161 0.321579 0.323679 0.286607 0.281632 0.268785 0.252677 0.318832 0.289615 0.274588 0.269956 0.262094 0.276656 0.241251 0.204693 0.149159 0.154486 0.142257 0.123040 0.101696 0.065724 0.058560 0.029149 0.036915 0.056499 0.036307 0.040298 0.040298 0.040298 0.040298 0.002715 0.002715 0.002715 0.002715 0.002715 0.002715 0.002715 0.002715 0.002715 0.002715 0.002715 0.002715 0.002715 0.002715 0.025146 0.025146 0.025146 0.025146 0.025146 0.025146 0.025146 0.025146 0.025146 0.025146 0.025146 0.025146
0.000000 0.000000 0.000000 0.000000 0.000000 0.000000 0.000000 0.000000 0.000000 0.000000 0.000000 0.000000 0.000000 0.000000 0.000000 0.000000 0.000000 0.000000 0.000000 0.000000 0.000000 0.000000 0.000000 0.000000 0.000000 0.000000 0.000000 0.000000 0.000000 0.000000 0.000000 0.000000 0.000000 0.000000 0.000000 0.000000 0.000000 0.000000 0.000000 0.000000 0.000000 0.000000 0.000000 0.000000 0.000000 0.000000 0.000000 0.000000 0.000000 0.000000 0.000000 0.000000 0.209657 0.209657 0.209657 0.209657 0.209657 0.209657 0.209657 0.209657 0.209657 0.209657 0.209657 0.209657 0.209657 0.209657 0.209657 0.209657 0.209657 0.209657 0.209657 0.209657 0.209657 0.209657 0.209657 0.209657 0.209657 0.209657 0.209657 0.209657 0.209657 0.209657 0.209657 0.209657 0.209657 0.244339 0.244339 0.244339 0.244339 0.244339 0.244339 0.244339 0.244339 0.244339 0.244339 0.244339 0.244339 0.244339 0.244339 0.244339 0.244339 0.244339 0.244339 0.244339 0.244339 0.244339 0.244339 0.244339 0.244339 0.244339 0.260378 0.260378 0.260378 0.260378 0.260378 0.260378 0.260378 0.260378 0.260378 0.260378 0.260378 0.260378 0.260378 0.260378 0.260378 0.260378 0.260378 0.260378 0.260378 0.260378 0.269680 0.269680 0.269680 0.269680 0.269680 0.269680 0.269680 0.269680 0.269680 0.269680 0.269680 0.269680 0.269680 0.269680 0.269680 0.269680 0.269680 0.269680 0.269680 0.269680 0.269680 0.269680 0.269680 0.269680 0.269680 0.269680 0.269680 0.269680 0.269680 0.269680 0.269680 0.269680 0.269680 0.280056 0.280056 0.280056 0.280056 0.280056 0.280056 0.280056 0.280056 0.280056 0.280056 0.280056 0.280056 0.280056 0.280056 0.280056 0.280056 0.280056 0.280056 0.280056 0.280056 0.280056 0.280056 0.280056 0.280056 0.280056 0.280056 0.280056 0.274721 0.274721 0.274721 0.274721 0.274721 0.274721 0.274721 0.274721 0.274721 0.274721 0.274721 0.274721 0.274721 0.285714 0.285714 0.285714 0.285714 0.285714 0.285714 0.285714 0.285714 0.285714 0.285714 0.285714 0.280056 0.280056 0.280056 0.280056 0.280056 0.280056 0.280056 0.280056 0.280056 0.280056 0.280056 0.274721 0.274721 0.274721 0.274721 0.274721 0.274721 0.274721 0.274721 0.274721 0.274721 0.274721 0.280056 0.280056 0.280056 0.280056 0.280056 0.280056 0.280056 0.280056 0.280056 0.280056 0.285714 0.285714 0.285714 0.285714 0.285714 0.285714 0.285714 0.285714 0.285714 0.269680 0.269680 0.269680 0.269680 0.269680 0.269680 0.269680 0.269680 0.269680 0.269680 0.291730 0.291730 0.291730 0.291730 0.291730 0.291730 0.291730 0.291730 0.269680 0.269680 0.269680 0.269680 0.269680 0.269680 0.269680 0.269680 0.269680 0.264906 0.264906 0.264906 0.264906 0.264906 0.264906 0.264906 0.264906 0.264906 0.274721 0.274721 0.274721 0.274721 0.274721 0.274721 0.274721 0.274721 0.269680 0.269680 0.269680 0.269680 0.269680 0.269680 0.269680 0.269680 0.269680 0.269680 0.269680 0.269680 0.269680 0.269680 0.269680 0.269680 0.280056 0.280056 0.280056 0.280056 0.280056 0.280056 0.280056 0.274721 0.274721 0.274721 0.274721 0.274721 0.274721 0.274721 0.256074 0.256074 0.256074 0.256074 0.256074 0.256074 0.256074 0.256074 0.264906 0.264906 0.264906 0.264906 0.264906 0.264906 0.264906 0.264906 0.264906 0.264906 0.264906 0.264906 0.264906 0.264906 0.260378 0.260378 0.260378 0.260378 0.260378 0.260378 0.260378 0.260378 0.260378 0.260378 0.260378 0.260378
