# Output from CTFFind version 4.1.9, run on 2019-11-02 17:59:17
# Input file: stack16_bm3d_averaged_1_1.75_0_750_half.mrc ; Number of micrographs: 1
# Pixel size: 3.000 Angstroms ; acceleration voltage: 300.0 keV ; spherical aberration: 0.00 mm ; amplitude contrast: 0.07
# Box size: 512 pixels ; min. res.: 30.0 Angstroms ; max. res.: 5.0 Angstroms ; min. def.: 5000.0 um; max. def. 50000.0 um; num. frames averaged: 1
# 6 lines per micrograph: #1 - spatial frequency (1/Angstroms); #2 - 1D rotational average of spectrum (assuming no astigmatism); #3 - 1D rotational average of spectrum; #4 - CTF fit; #5 - cross-correlation between spectrum and CTF fit; #6 - 2sigma of expected cross correlation of noise
0.000000 0.000651 0.001302 0.001953 0.002604 0.003255 0.003906 0.004557 0.005208 0.005859 0.006510 0.007161 0.007812 0.008464 0.009115 0.009766 0.010417 0.011068 0.011719 0.012370 0.013021 0.013672 0.014323 0.014974 0.015625 0.016276 0.016927 0.017578 0.018229 0.018880 0.019531 0.020182 0.020833 0.021484 0.022135 0.022786 0.023438 0.024089 0.024740 0.025391 0.026042 0.026693 0.027344 0.027995 0.028646 0.029297 0.029948 0.030599 0.031250 0.031901 0.032552 0.033203 0.033854 0.034505 0.035156 0.035807 0.036458 0.037109 0.037760 0.038411 0.039062 0.039714 0.040365 0.041016 0.041667 0.042318 0.042969 0.043620 0.044271 0.044922 0.045573 0.046224 0.046875 0.047526 0.048177 0.048828 0.049479 0.050130 0.050781 0.051432 0.052083 0.052734 0.053385 0.054036 0.054688 0.055339 0.055990 0.056641 0.057292 0.057943 0.058594 0.059245 0.059896 0.060547 0.061198 0.061849 0.062500 0.063151 0.063802 0.064453 0.065104 0.065755 0.066406 0.067057 0.067708 0.068359 0.069010 0.069661 0.070312 0.070964 0.071615 0.072266 0.072917 0.073568 0.074219 0.074870 0.075521 0.076172 0.076823 0.077474 0.078125 0.078776 0.079427 0.080078 0.080729 0.081380 0.082031 0.082682 0.083333 0.083984 0.084635 0.085286 0.085938 0.086589 0.087240 0.087891 0.088542 0.089193 0.089844 0.090495 0.091146 0.091797 0.092448 0.093099 0.093750 0.094401 0.095052 0.095703 0.096354 0.097005 0.097656 0.098307 0.098958 0.099609 0.100260 0.100911 0.101562 0.102214 0.102865 0.103516 0.104167 0.104818 0.105469 0.106120 0.106771 0.107422 0.108073 0.108724 0.109375 0.110026 0.110677 0.111328 0.111979 0.112630 0.113281 0.113932 0.114583 0.115234 0.115885 0.116536 0.117188 0.117839 0.118490 0.119141 0.119792 0.120443 0.121094 0.121745 0.122396 0.123047 0.123698 0.124349 0.125000 0.125651 0.126302 0.126953 0.127604 0.128255 0.128906 0.129557 0.130208 0.130859 0.131510 0.132161 0.132812 0.133464 0.134115 0.134766 0.135417 0.136068 0.136719 0.137370 0.138021 0.138672 0.139323 0.139974 0.140625 0.141276 0.141927 0.142578 0.143229 0.143880 0.144531 0.145182 0.145833 0.146484 0.147135 0.147786 0.148438 0.149089 0.149740 0.150391 0.151042 0.151693 0.152344 0.152995 0.153646 0.154297 0.154948 0.155599 0.156250 0.156901 0.157552 0.158203 0.158854 0.159505 0.160156 0.160807 0.161458 0.162109 0.162760 0.163411 0.164062 0.164714 0.165365 0.166016 0.166667 0.167318 0.167969 0.168620 0.169271 0.169922 0.170573 0.171224 0.171875 0.172526 0.173177 0.173828 0.174479 0.175130 0.175781 0.176432 0.177083 0.177734 0.178385 0.179036 0.179688 0.180339 0.180990 0.181641 0.182292 0.182943 0.183594 0.184245 0.184896 0.185547 0.186198 0.186849 0.187500 0.188151 0.188802 0.189453 0.190104 0.190755 0.191406 0.192057 0.192708 0.193359 0.194010 0.194661 0.195312 0.195964 0.196615 0.197266 0.197917 0.198568 0.199219 0.199870 0.200521 0.201172 0.201823 0.202474 0.203125 0.203776 0.204427 0.205078 0.205729 0.206380 0.207031 0.207682 0.208333 0.208984 0.209635 0.210286 0.210938 0.211589 0.212240 0.212891 0.213542 0.214193 0.214844 0.215495 0.216146 0.216797 0.217448 0.218099 0.218750 0.219401 0.220052 0.220703 0.221354 0.222005 0.222656 0.223307 0.223958 0.224609 0.225260 0.225911 0.226562 0.227214 0.227865 0.228516 0.229167 0.229818 0.230469 0.231120 0.231771 0.232422 0.233073 0.233724 0.234375 0.235026 0.235677
       0.34247        0.34247        0.34247        0.34247        0.34247        0.34247        0.34247        0.34247        0.34247        0.34247        0.34247        0.34247        0.34247        0.34247        0.34247        0.34247        0.34247        0.34247        0.34247        0.34247        0.34247        0.34247        0.34247        0.34247        0.34247        0.34247        0.34247        0.34247        0.34247        0.34247        0.34247        0.34247        0.34247        0.34247        0.34247        0.34247        0.34247        0.34247        0.34247        0.34247        0.34247        0.34247        0.34247        0.34247        0.34247        0.34247        0.34247        0.34247        0.34247        0.34247        0.34247        0.48640        0.69518        0.45601       -0.11419       -0.41154       -0.57159       -0.66191       -0.74238       -0.76030       -0.87106       -0.91762       -0.75785       -0.92580       -0.87283       -1.02624       -1.09992       -0.98817       -0.96022       -0.88299       -0.84881       -0.74616       -0.63855       -0.49851       -0.42281       -0.22081       -0.11495       -0.02320        0.19869        0.24071        0.30667        0.37969        0.43308        0.50975        0.57813        0.59967        0.58722        0.49959        0.54613        0.48393        0.39500        0.32618        0.20160        0.16977        0.09552       -0.05298       -0.11268       -0.08790        0.01641       -0.01629        0.02279        0.02591        0.20056        0.21662        0.39269        0.45622        0.56261        0.69848        0.76254        0.73577        0.69915        0.68992        0.57983        0.53420        0.39549        0.27836        0.19624        0.15482        0.07010        0.03261        0.02200        0.06379        0.08341        0.27775        0.41430        0.50590        0.58882        0.63648        0.69888        0.65622        0.65434        0.66716        0.60251        0.48600        0.28916        0.24240        0.20674        0.12529        0.04063        0.09276        0.10942        0.25160        0.35138        0.41640        0.50397        0.54308        0.65065        0.59918        0.54985        0.51347        0.36163        0.20350        0.21304        0.15769        0.12799        0.12661        0.21520        0.25400        0.35474        0.43919        0.43249        0.54406        0.50745        0.46040        0.46068        0.37861        0.32614        0.26841        0.20755        0.22890        0.21438        0.20595        0.31087        0.45194        0.48159        0.48581        0.55372        0.49876        0.44991        0.39907        0.30025        0.23223        0.23564        0.23638        0.26126        0.27839        0.33078        0.43998        0.50382        0.49481        0.46262        0.40857        0.38565        0.35740        0.24692        0.22240        0.25219        0.29560        0.36026        0.36181        0.39246        0.41910        0.44251        0.37625        0.34851        0.31648        0.31602        0.27121        0.25896        0.30097        0.34726        0.40982        0.41763        0.39163        0.38727        0.40048        0.34729        0.28834        0.30080        0.29286        0.30553        0.35691        0.37807        0.41439        0.35456        0.36153        0.38677        0.34590        0.31055        0.28312        0.28813        0.33558        0.32471        0.32422        0.36442        0.39261        0.33660        0.35383        0.30218        0.30552        0.28050        0.28085        0.30213        0.32824        0.38283        0.36186        0.34585        0.31926        0.28189        0.27285        0.29566        0.28243        0.31749        0.36571        0.39564        0.33434        0.32159        0.30583        0.30408        0.29920        0.28107        0.31198        0.33753        0.32989        0.33928        0.31860        0.35283        0.32539        0.29155        0.31254        0.32457        0.35082        0.35149        0.31884        0.31459        0.29698        0.32094        0.30815        0.33497        0.39153        0.32750        0.35763        0.31001        0.30714        0.29486        0.30956        0.29456        0.30986        0.31806        0.34093        0.35504        0.29943        0.32257        0.32092        0.30010        0.29072        0.30235        0.32193        0.34968        0.35107        0.32801        0.30850        0.27433        0.24766        0.31360        0.34708        0.31846        0.29580        0.27600        0.29148        0.32758        0.31739        0.29893        0.34382        0.32816        0.30281        0.23896        0.28118        0.29008        0.28755        0.33487        0.32780        0.34895        0.34864        0.28963        0.28108        0.29684        0.28082        0.30726        0.27308        0.25808        0.26088        0.27982        0.29378        0.29471        0.29061        0.26429        0.31862        0.32123        0.31021        0.26334        0.25926        0.22682        0.25242        0.24229        0.29795        0.35954        0.23712        0.23719        0.28451        0.23372        0.22635        0.31483        0.25373        0.12772        0.17319        0.21752        0.28983        0.26218        0.11067        0.06561       -0.41864       -0.79201
3.054165 3.016113 2.978305 2.940743 2.903426 2.866354 2.829527 2.792945 2.756608 2.720516 2.684669 2.649067 2.613710 2.578598 2.543731 2.509109 2.474732 2.440600 2.406713 2.373071 2.339674 2.306523 2.273616 2.240954 2.208537 2.176365 2.144439 2.112757 2.081320 2.050129 2.019182 1.988480 1.958024 1.927812 1.897846 1.868124 1.838647 1.809416 1.780429 1.751688 1.723191 1.694940 1.666933 1.639172 1.611656 1.584384 1.557358 1.530576 1.504040 1.477749 1.451702 1.511333 1.686780 1.610350 0.959932 0.681778 0.475249 0.426986 0.323920 0.263591 0.198953 0.015467 0.197764 0.079512 -0.012212 -0.060780 -0.202870 -0.154954 -0.088548 -0.093356 -0.089271 0.010950 0.034142 0.230056 0.150065 0.361181 0.443193 0.476430 0.707274 0.694725 0.703829 0.830449 0.814058 0.839730 0.916504 0.894356 0.931007 0.746014 0.832741 0.833060 0.624732 0.603358 0.452460 0.433375 0.370566 0.213667 0.119765 0.097486 0.211233 0.139846 0.205631 0.112870 0.296629 0.281928 0.456784 0.409485 0.580814 0.639147 0.754576 0.713382 0.650021 0.654134 0.519579 0.500288 0.352791 0.294858 0.120481 0.151124 0.004528 -0.005651 -0.040106 -0.030529 -0.001760 0.035846 0.276458 0.323788 0.388540 0.390930 0.461072 0.510156 0.473481 0.501270 0.389450 0.392641 0.154014 0.076293 0.076699 -0.009478 -0.129347 -0.044126 -0.118727 0.012981 0.140191 0.161081 0.254479 0.261181 0.376127 0.452883 0.345576 0.393702 0.284569 0.122213 0.049148 0.054168 0.028126 0.010631 0.012520 0.111359 0.122506 0.267695 0.233981 0.295146 0.354635 0.252003 0.251634 0.221716 0.129376 0.086134 0.038956 0.025834 0.038566 -0.012019 0.024172 0.180524 0.220326 0.251110 0.286238 0.233199 0.240931 0.144555 0.115589 -0.014417 -0.009536 -0.008685 0.011931 0.011329 0.032264 0.104298 0.193219 0.206815 0.225982 0.132432 0.138431 0.077533 0.058556 -0.065034 -0.016757 0.006873 0.055948 0.067563 0.073324 0.151801 0.098819 0.161633 0.063803 0.048537 0.047760 0.030831 0.004183 0.000745 0.038828 0.085292 0.121462 0.133289 0.062042 0.116855 0.092772 0.006473 0.011417 0.011636 -0.000125 0.042329 0.060161 0.102511 0.092349 0.052989 0.071865 0.076519 0.033570 0.010164 -0.012174 0.001019 0.058743 0.019102 0.032515 0.068598 0.087512 0.063281 0.033995 0.016069 0.010104 -0.009779 -0.008116 0.012223 0.051408 0.106203 0.059286 0.058881 0.026515 -0.012062 -0.005422 0.019870 0.012622 0.031210 0.103755 0.069141 0.012988 0.049079 0.000168 0.033803 -0.002259 -0.000411 0.035727 0.053838 0.027080 0.041067 0.024987 0.057362 0.019958 -0.004233 0.023039 0.037940 0.053161 0.046676 0.023590 -0.006401 -0.015115 0.018349 0.003988 0.045246 0.072645 0.031536 0.021590 0.001931 0.002490 -0.011577 0.011544 0.002051 0.011246 -0.003219 0.063747 0.039462 0.018378 0.043771 -0.000161 0.012501 -0.000952 0.003890 0.035095 0.071265 0.067041 0.040651 0.030399 -0.017927 -0.012228 0.024023 0.067332 0.032953 0.037199 -0.013618 0.006481 0.048791 0.053965 0.014518 0.066812 0.047087 0.032293 -0.040903 0.006114 0.038175 0.004764 0.039278 0.072124 0.068406 0.056542 0.010563 0.007177 0.005429 -0.005618 0.031793 -0.036558 -0.020608 -0.036860 -0.025247 -0.004340 -0.012856 0.013332 -0.093932 -0.000749 -0.011631 -0.021959 -0.077584 -0.038345 -0.118484 -0.046487 -0.081271 -0.020452 0.066643 -0.111556 -0.058597 0.027458 -0.023577 -0.075293 0.048584 0.027932 -0.064076 -0.055387 0.022793 0.257220 0.245053 0.034690 0.060793 -0.694187
0.072396 0.073046 0.074995 0.078243 0.082789 0.088630 0.095766 0.104193 0.113907 0.124903 0.137175 0.150713 0.165509 0.181549 0.198818 0.217297 0.236965 0.257796 0.279758 0.302818 0.326932 0.352056 0.378135 0.405109 0.432910 0.461461 0.490678 0.520466 0.550721 0.581331 0.612169 0.643102 0.673982 0.704652 0.734943 0.764674 0.793654 0.821679 0.848536 0.874001 0.897842 0.919818 0.939678 0.957170 0.972035 0.984010 0.992835 0.998249 0.999996 0.997830 0.991511 0.980816 0.965538 0.945490 0.920511 0.890469 0.855263 0.814833 0.769156 0.718257 0.662212 0.601148 0.535250 0.464763 0.389996 0.311324 0.229185 0.144089 0.056610 0.032608 0.122860 0.213377 0.303338 0.391867 0.478047 0.560924 0.639522 0.712851 0.779918 0.839748 0.891392 0.933945 0.966568 0.988499 0.999075 0.997750 0.984112 0.957899 0.919018 0.867557 0.803798 0.728228 0.641544 0.544660 0.438703 0.325011 0.205122 0.080763 0.046173 0.173649 0.299511 0.421528 0.537426 0.644935 0.741831 0.825991 0.895442 0.948412 0.983386 0.999153 0.994852 0.970018 0.924614 0.859062 0.774261 0.671592 0.552917 0.420561 0.277282 0.126223 0.029142 0.185082 0.337695 0.483004 0.617060 0.736054 0.836435 0.915026 0.969136 0.996668 0.996211 0.967128 0.909608 0.824713 0.714386 0.581438 0.429502 0.262956 0.086815 0.093402 0.271840 0.442490 0.599395 0.736864 0.849690 0.933366 0.984282 0.999911 0.978950 0.921437 0.828804 0.703895 0.550920 0.375338 0.183704 0.016557 0.217421 0.410577 0.587775 0.741182 0.863745 0.949546 0.994111 0.994684 0.950427 0.862539 0.734291 0.570961 0.379659 0.169058 0.050959 0.269756 0.476440 0.660410 0.811919 0.922614 0.986034 0.998038 0.957111 0.864563 0.724559 0.544007 0.332276 0.100749 0.137736 0.369597 0.581262 0.759981 0.894626 0.976420 0.999570 0.961732 0.864288 0.712398 0.514807 0.283415 0.032615 0.221562 0.462449 0.673842 0.841115 0.952270 0.998865 0.976720 0.886369 0.733177 0.527130 0.282266 0.015786 0.253103 0.504550 0.719538 0.881353 0.976935 0.998017 0.941925 0.811973 0.617395 0.372804 0.097173 0.187559 0.458213 0.692246 0.869658 0.974778 0.997726 0.935449 0.792199 0.579385 0.314796 0.021205 0.275517 0.548666 0.773098 0.927608 0.997015 0.973766 0.858879 0.662103 0.401231 0.100625 0.210973 0.503151 0.746786 0.916999 0.995796 0.974086 0.852869 0.643429 0.366438 0.050065 0.272809 0.567950 0.803419 0.953101 0.999709 0.936933 0.770444 0.517579 0.205717 0.130553 0.453199 0.725031 0.914031 0.997238 0.963694 0.816061 0.570668 0.255892 0.090954 0.427960 0.713646 0.912129 0.997737 0.958507 0.798047 0.535481 0.203373 0.156133 0.496580 0.773180 0.948772 0.998973 0.915757 0.708938 0.405289 0.045278 0.322163 0.646220 0.881263 0.993388 0.965494 0.800133 0.519610 0.163233 0.217993 0.568589 0.836642 0.981618 0.980677 0.832524 0.558108 0.197940 0.193667 0.556654 0.834438 0.982821 0.977245 0.817117 0.526452 0.150576 0.250721 0.612567 0.875508 0.995412 0.951117 0.748465 0.419916 0.019656 0.385126 0.725424 0.942239 0.997009 0.878743 0.606543 0.226891 0.193996 0.581569 0.866118 0.995455 0.944756 0.721672 0.365599 0.058932 0.473723 0.801236 0.979205 0.972708 0.781379 0.440197 0.013450 0.417065 0.767656 0.969074 0.980416 0.797831 0.456012 0.022023 0.417559 0.773816 0.973540 0.974541 0.774967 0.414468 0.033238 0.475164 0.818251 0.989079 0.949896 0.707381 0.312063 0.151774 0.583788
1.000000 1.000000 1.000000 1.000000 1.000000 1.000000 1.000000 1.000000 1.000000 1.000000 1.000000 1.000000 1.000000 1.000000 1.000000 1.000000 1.000000 1.000000 1.000000 1.000000 1.000000 1.000000 1.000000 1.000000 1.000000 1.000000 1.000000 1.000000 1.000000 1.000000 1.000000 1.000000 1.000000 1.000000 1.000000 1.000000 1.000000 1.000000 1.000000 1.000000 1.000000 1.000000 1.000000 1.000000 1.000000 1.000000 1.000000 1.000000 1.000000 1.000000 1.000000 1.000000 0.936857 0.936857 0.936857 0.936857 0.936857 0.936857 0.936857 0.936857 0.936857 0.936857 0.936857 0.936857 0.936857 0.936857 0.936857 0.936857 0.936857 0.936857 0.936857 0.936857 0.936857 0.936857 0.936857 0.936857 0.936857 0.936857 0.936857 0.936857 0.936857 0.936857 0.936857 0.936857 0.936857 0.929188 0.930551 0.933280 0.934263 0.934237 0.933833 0.933561 0.933778 0.935431 0.937639 0.954193 0.956171 0.956648 0.957877 0.956630 0.959617 0.958089 0.958094 0.968793 0.967721 0.968286 0.961323 0.962771 0.961893 0.960983 0.961764 0.961918 0.960094 0.958091 0.956525 0.955951 0.955608 0.957316 0.957735 0.957715 0.958233 0.958077 0.957806 0.954460 0.953004 0.954411 0.956306 0.955576 0.961413 0.959751 0.963048 0.963854 0.962472 0.962372 0.962581 0.962785 0.956658 0.952619 0.948641 0.937341 0.929185 0.925759 0.928443 0.930074 0.928792 0.923493 0.922528 0.920413 0.916151 0.915364 0.914586 0.915871 0.910246 0.906862 0.890503 0.889785 0.892971 0.893556 0.891278 0.882794 0.878501 0.879512 0.882481 0.880327 0.877214 0.893380 0.887513 0.891971 0.894926 0.897854 0.901653 0.896739 0.893607 0.889724 0.886321 0.880438 0.881559 0.875714 0.878431 0.871996 0.862201 0.855878 0.858344 0.866326 0.874192 0.881706 0.880750 0.881365 0.880606 0.868160 0.870208 0.855781 0.856448 0.860192 0.865700 0.864194 0.861717 0.865814 0.863997 0.861658 0.865015 0.861886 0.859785 0.850069 0.850813 0.852961 0.868643 0.869957 0.856194 0.844257 0.831824 0.838549 0.842312 0.841781 0.843342 0.838494 0.840501 0.832026 0.818348 0.819309 0.824925 0.818815 0.821882 0.822186 0.827705 0.830408 0.828949 0.825307 0.823858 0.827146 0.791678 0.799222 0.799869 0.791613 0.796723 0.790365 0.782845 0.780794 0.777500 0.764209 0.775135 0.769843 0.735219 0.736698 0.743776 0.733366 0.721967 0.720465 0.721262 0.712756 0.703351 0.674563 0.671255 0.660947 0.658797 0.659307 0.646883 0.640233 0.629167 0.591250 0.602437 0.607523 0.590092 0.593161 0.585205 0.579802 0.571573 0.556358 0.556488 0.561682 0.564583 0.536511 0.528175 0.539561 0.510084 0.507931 0.508317 0.500266 0.486165 0.491779 0.482011 0.510111 0.528104 0.483556 0.470482 0.487990 0.505251 0.514835 0.516270 0.502152 0.482186 0.507039 0.486046 0.471877 0.486111 0.486860 0.477733 0.486344 0.479279 0.508040 0.495898 0.464427 0.488534 0.467214 0.463631 0.475893 0.472454 0.472845 0.471145 0.468937 0.420170 0.434538 0.418272 0.368483 0.390073 0.396406 0.385392 0.380202 0.351888 0.354510 0.321770 0.303291 0.292945 0.289305 0.244492 0.201500 0.207967 0.206738 0.180059 0.146097 0.154120 0.113172 0.105853 0.128640 0.128963 0.117829 0.124712 0.149555 0.149555 0.149555 0.149555 0.149555 0.149555 0.149555 0.149555 0.149555 0.149555 0.149555 0.149555 0.149555 0.149555 0.174635 0.174635 0.174635 0.174635 0.174635 0.174635 0.174635 0.174635 0.174635 0.174635 0.174635 0.174635
0.000000 0.000000 0.000000 0.000000 0.000000 0.000000 0.000000 0.000000 0.000000 0.000000 0.000000 0.000000 0.000000 0.000000 0.000000 0.000000 0.000000 0.000000 0.000000 0.000000 0.000000 0.000000 0.000000 0.000000 0.000000 0.000000 0.000000 0.000000 0.000000 0.000000 0.000000 0.000000 0.000000 0.000000 0.000000 0.000000 0.000000 0.000000 0.000000 0.000000 0.000000 0.000000 0.000000 0.000000 0.000000 0.000000 0.000000 0.000000 0.000000 0.000000 0.000000 0.000000 0.209657 0.209657 0.209657 0.209657 0.209657 0.209657 0.209657 0.209657 0.209657 0.209657 0.209657 0.209657 0.209657 0.209657 0.209657 0.209657 0.209657 0.209657 0.209657 0.209657 0.209657 0.209657 0.209657 0.209657 0.209657 0.209657 0.209657 0.209657 0.209657 0.209657 0.209657 0.209657 0.209657 0.244339 0.244339 0.244339 0.244339 0.244339 0.244339 0.244339 0.244339 0.244339 0.244339 0.244339 0.244339 0.244339 0.244339 0.244339 0.244339 0.244339 0.244339 0.244339 0.244339 0.244339 0.244339 0.244339 0.244339 0.244339 0.260378 0.260378 0.260378 0.260378 0.260378 0.260378 0.260378 0.260378 0.260378 0.260378 0.260378 0.260378 0.260378 0.260378 0.260378 0.260378 0.260378 0.260378 0.260378 0.260378 0.269680 0.269680 0.269680 0.269680 0.269680 0.269680 0.269680 0.269680 0.269680 0.269680 0.269680 0.269680 0.269680 0.269680 0.269680 0.269680 0.269680 0.269680 0.269680 0.269680 0.269680 0.269680 0.269680 0.269680 0.269680 0.269680 0.269680 0.269680 0.269680 0.269680 0.269680 0.269680 0.269680 0.280056 0.280056 0.280056 0.280056 0.280056 0.280056 0.280056 0.280056 0.280056 0.280056 0.280056 0.280056 0.280056 0.280056 0.280056 0.280056 0.280056 0.280056 0.280056 0.280056 0.280056 0.280056 0.280056 0.280056 0.280056 0.280056 0.280056 0.274721 0.274721 0.274721 0.274721 0.274721 0.274721 0.274721 0.274721 0.274721 0.274721 0.274721 0.274721 0.274721 0.285714 0.285714 0.285714 0.285714 0.285714 0.285714 0.285714 0.285714 0.285714 0.285714 0.285714 0.280056 0.280056 0.280056 0.280056 0.280056 0.280056 0.280056 0.280056 0.280056 0.280056 0.280056 0.274721 0.274721 0.274721 0.274721 0.274721 0.274721 0.274721 0.274721 0.274721 0.274721 0.274721 0.280056 0.280056 0.280056 0.280056 0.280056 0.280056 0.280056 0.280056 0.280056 0.280056 0.285714 0.285714 0.285714 0.285714 0.285714 0.285714 0.285714 0.285714 0.285714 0.269680 0.269680 0.269680 0.269680 0.269680 0.269680 0.269680 0.269680 0.269680 0.269680 0.274721 0.274721 0.274721 0.274721 0.274721 0.274721 0.274721 0.274721 0.274721 0.285714 0.285714 0.285714 0.285714 0.285714 0.285714 0.285714 0.285714 0.264906 0.264906 0.264906 0.264906 0.264906 0.264906 0.264906 0.264906 0.264906 0.274721 0.274721 0.274721 0.274721 0.274721 0.274721 0.274721 0.274721 0.269680 0.269680 0.269680 0.269680 0.269680 0.269680 0.269680 0.269680 0.269680 0.269680 0.269680 0.269680 0.269680 0.269680 0.269680 0.269680 0.280056 0.280056 0.280056 0.280056 0.280056 0.280056 0.280056 0.260378 0.260378 0.260378 0.260378 0.260378 0.260378 0.260378 0.260378 0.269680 0.269680 0.269680 0.269680 0.269680 0.269680 0.269680 0.264906 0.264906 0.264906 0.264906 0.264906 0.264906 0.264906 0.264906 0.264906 0.264906 0.264906 0.264906 0.264906 0.264906 0.260378 0.260378 0.260378 0.260378 0.260378 0.260378 0.260378 0.260378 0.260378 0.260378 0.260378 0.260378
