# Output from CTFFind version 4.1.9, run on 2019-11-02 17:46:37
# Input file: stack6_bm3d_averaged_1_0.5_0_1250_half.mrc ; Number of micrographs: 1
# Pixel size: 3.000 Angstroms ; acceleration voltage: 300.0 keV ; spherical aberration: 0.00 mm ; amplitude contrast: 0.07
# Box size: 512 pixels ; min. res.: 30.0 Angstroms ; max. res.: 5.0 Angstroms ; min. def.: 5000.0 um; max. def. 50000.0 um; num. frames averaged: 1
# 6 lines per micrograph: #1 - spatial frequency (1/Angstroms); #2 - 1D rotational average of spectrum (assuming no astigmatism); #3 - 1D rotational average of spectrum; #4 - CTF fit; #5 - cross-correlation between spectrum and CTF fit; #6 - 2sigma of expected cross correlation of noise
0.000000 0.000651 0.001302 0.001953 0.002604 0.003255 0.003906 0.004557 0.005208 0.005859 0.006510 0.007161 0.007812 0.008464 0.009115 0.009766 0.010417 0.011068 0.011719 0.012370 0.013021 0.013672 0.014323 0.014974 0.015625 0.016276 0.016927 0.017578 0.018229 0.018880 0.019531 0.020182 0.020833 0.021484 0.022135 0.022786 0.023438 0.024089 0.024740 0.025391 0.026042 0.026693 0.027344 0.027995 0.028646 0.029297 0.029948 0.030599 0.031250 0.031901 0.032552 0.033203 0.033854 0.034505 0.035156 0.035807 0.036458 0.037109 0.037760 0.038411 0.039062 0.039714 0.040365 0.041016 0.041667 0.042318 0.042969 0.043620 0.044271 0.044922 0.045573 0.046224 0.046875 0.047526 0.048177 0.048828 0.049479 0.050130 0.050781 0.051432 0.052083 0.052734 0.053385 0.054036 0.054688 0.055339 0.055990 0.056641 0.057292 0.057943 0.058594 0.059245 0.059896 0.060547 0.061198 0.061849 0.062500 0.063151 0.063802 0.064453 0.065104 0.065755 0.066406 0.067057 0.067708 0.068359 0.069010 0.069661 0.070312 0.070964 0.071615 0.072266 0.072917 0.073568 0.074219 0.074870 0.075521 0.076172 0.076823 0.077474 0.078125 0.078776 0.079427 0.080078 0.080729 0.081380 0.082031 0.082682 0.083333 0.083984 0.084635 0.085286 0.085938 0.086589 0.087240 0.087891 0.088542 0.089193 0.089844 0.090495 0.091146 0.091797 0.092448 0.093099 0.093750 0.094401 0.095052 0.095703 0.096354 0.097005 0.097656 0.098307 0.098958 0.099609 0.100260 0.100911 0.101562 0.102214 0.102865 0.103516 0.104167 0.104818 0.105469 0.106120 0.106771 0.107422 0.108073 0.108724 0.109375 0.110026 0.110677 0.111328 0.111979 0.112630 0.113281 0.113932 0.114583 0.115234 0.115885 0.116536 0.117188 0.117839 0.118490 0.119141 0.119792 0.120443 0.121094 0.121745 0.122396 0.123047 0.123698 0.124349 0.125000 0.125651 0.126302 0.126953 0.127604 0.128255 0.128906 0.129557 0.130208 0.130859 0.131510 0.132161 0.132812 0.133464 0.134115 0.134766 0.135417 0.136068 0.136719 0.137370 0.138021 0.138672 0.139323 0.139974 0.140625 0.141276 0.141927 0.142578 0.143229 0.143880 0.144531 0.145182 0.145833 0.146484 0.147135 0.147786 0.148438 0.149089 0.149740 0.150391 0.151042 0.151693 0.152344 0.152995 0.153646 0.154297 0.154948 0.155599 0.156250 0.156901 0.157552 0.158203 0.158854 0.159505 0.160156 0.160807 0.161458 0.162109 0.162760 0.163411 0.164062 0.164714 0.165365 0.166016 0.166667 0.167318 0.167969 0.168620 0.169271 0.169922 0.170573 0.171224 0.171875 0.172526 0.173177 0.173828 0.174479 0.175130 0.175781 0.176432 0.177083 0.177734 0.178385 0.179036 0.179688 0.180339 0.180990 0.181641 0.182292 0.182943 0.183594 0.184245 0.184896 0.185547 0.186198 0.186849 0.187500 0.188151 0.188802 0.189453 0.190104 0.190755 0.191406 0.192057 0.192708 0.193359 0.194010 0.194661 0.195312 0.195964 0.196615 0.197266 0.197917 0.198568 0.199219 0.199870 0.200521 0.201172 0.201823 0.202474 0.203125 0.203776 0.204427 0.205078 0.205729 0.206380 0.207031 0.207682 0.208333 0.208984 0.209635 0.210286 0.210938 0.211589 0.212240 0.212891 0.213542 0.214193 0.214844 0.215495 0.216146 0.216797 0.217448 0.218099 0.218750 0.219401 0.220052 0.220703 0.221354 0.222005 0.222656 0.223307 0.223958 0.224609 0.225260 0.225911 0.226562 0.227214 0.227865 0.228516 0.229167 0.229818 0.230469 0.231120 0.231771 0.232422 0.233073 0.233724 0.234375 0.235026 0.235677
       0.31190        0.31190        0.31190        0.31190        0.31190        0.31190        0.31190        0.31190        0.31190        0.31190        0.31190        0.31190        0.31190        0.31190        0.31190        0.31190        0.31190        0.31190        0.31190        0.31190        0.31190        0.31190        0.31190        0.31190        0.31190        0.31190        0.31190        0.31190        0.31190        0.31190        0.31190        0.31190        0.31190        0.31190        0.31190        0.31190        0.31190        0.31190        0.31190        0.31190        0.31190        0.31190        0.31190        0.31190        0.31190        0.31190        0.31190        0.31190        0.31190        0.31190        0.31190        0.63496        0.82005        0.41755        0.31220        0.18913       -0.10529        0.11222       -0.00282        0.03401        0.11825        0.33640        0.42394        0.40614        0.22497       -0.01191        0.04819        0.07122       -0.16692       -0.17922       -0.08633       -0.10729       -0.29158       -0.18773       -0.30187       -0.25714       -0.28542       -0.40115       -0.47566       -0.47788       -0.42112       -0.33699       -0.43920       -0.36754       -0.40758       -0.34756       -0.27424       -0.19821       -0.19251       -0.13470       -0.09345        0.03780        0.08480        0.25029        0.28056        0.37026        0.40288        0.51966        0.58975        0.60718        0.74091        0.70038        0.74152        0.64989        0.66612        0.69755        0.63363        0.61518        0.60903        0.43636        0.39987        0.35923        0.32457        0.22211        0.13211        0.06042        0.05838        0.00051       -0.07904       -0.03010       -0.03119       -0.06931        0.06193        0.16394        0.25432        0.32212        0.33590        0.43191        0.54886        0.59424        0.54415        0.67128        0.56599        0.54399        0.59816        0.64239        0.53241        0.46016        0.40736        0.37514        0.24985        0.21440        0.13111        0.11645        0.05536        0.05810        0.10944        0.16925        0.14486        0.18046        0.21902        0.24051        0.33308        0.45868        0.49339        0.49791        0.52129        0.57866        0.57040        0.52230        0.42511        0.38468        0.36722        0.27144        0.24699        0.21484        0.20662        0.20363        0.18234        0.16028        0.12629        0.19221        0.25033        0.34897        0.38436        0.40649        0.46340        0.53660        0.47614        0.48289        0.42259        0.40277        0.38384        0.36324        0.28924        0.25801        0.19842        0.23204        0.21679        0.19180        0.21845        0.22470        0.24217        0.29979        0.40223        0.40305        0.37204        0.39067        0.45549        0.48455        0.42675        0.35322        0.32621        0.27801        0.26177        0.24782        0.21329        0.28454        0.29234        0.29569        0.31657        0.31201        0.34930        0.37288        0.37247        0.37405        0.35807        0.31932        0.33491        0.31769        0.29717        0.28121        0.27157        0.21791        0.27275        0.27368        0.30265        0.32192        0.34593        0.37910        0.34147        0.32137        0.36137        0.36928        0.26702        0.29480        0.30497        0.24384        0.21013        0.25891        0.27232        0.27675        0.30007        0.30667        0.33532        0.33498        0.36282        0.32652        0.32122        0.30988        0.29491        0.27653        0.25143        0.25416        0.25778        0.27606        0.29883        0.29664        0.30207        0.31453        0.32656        0.26316        0.30462        0.26983        0.26234        0.27788        0.26390        0.26234        0.26625        0.31105        0.28479        0.31598        0.28643        0.27442        0.30610        0.30906        0.33021        0.31494        0.29144        0.25384        0.26697        0.27113        0.26424        0.31254        0.31672        0.33839        0.32143        0.30948        0.25810        0.28054        0.21077        0.20714        0.24410        0.25745        0.25656        0.28847        0.31166        0.29734        0.34914        0.30975        0.26281        0.23625        0.23628        0.29024        0.31266        0.30447        0.26761        0.28058        0.26170        0.32197        0.28339        0.25263        0.26635        0.25394        0.28941        0.25104        0.28802        0.32976        0.28910        0.21800        0.23644        0.28616        0.32118        0.27128        0.26498        0.24317        0.27677        0.29282        0.37685        0.29124        0.27445        0.25313        0.25939        0.22079        0.17728        0.24952        0.22678        0.20607        0.18618        0.19589        0.23977        0.22642        0.23564        0.19245        0.25529        0.22651        0.20635        0.17693        0.16770        0.19641        0.23899        0.14298        0.06009        0.19858        0.20318        0.15278        0.24629        0.14974        0.21307        0.21710       -0.05343       -0.46967       -0.94324
2.848330 2.820302 2.792418 2.764679 2.737084 2.709634 2.682327 2.655165 2.628147 2.601273 2.574543 2.547958 2.521517 2.495220 2.469067 2.443059 2.417194 2.391474 2.365899 2.340467 2.315180 2.290037 2.265038 2.240183 2.215473 2.190907 2.166485 2.142207 2.118074 2.094084 2.070239 2.046539 2.022982 1.999570 1.976302 1.953178 1.930198 1.907363 1.884672 1.862125 1.839722 1.817463 1.795349 1.773379 1.751554 1.729872 1.708335 1.686942 1.665693 1.644588 1.623628 1.919046 2.276443 1.700124 1.740304 1.380076 0.941756 1.197955 1.020619 1.071926 1.030170 1.490991 1.517038 1.542153 1.278998 0.940590 0.823471 1.008550 0.715901 0.489163 0.586642 0.677651 0.421034 0.488133 0.323555 0.367509 0.244306 0.160080 -0.038082 0.000428 0.023081 0.081076 0.037032 0.071441 -0.039802 0.027913 0.111846 0.225004 0.286056 0.208736 0.318535 0.549963 0.452047 0.726852 0.789674 0.878080 0.908784 1.121035 1.143264 1.173760 1.326938 1.236276 1.371262 1.194632 1.114458 1.298036 1.144991 1.052432 1.126731 0.888384 0.742242 0.680695 0.674193 0.457810 0.394579 0.257260 0.228432 0.091500 -0.007843 0.087976 0.026262 -0.064327 0.112187 0.251959 0.304981 0.465606 0.486027 0.555679 0.724984 0.825590 0.662326 0.961850 0.799645 0.667260 0.766911 0.804082 0.713539 0.639239 0.448313 0.500535 0.281030 0.191945 0.139718 0.005571 -0.019014 -0.108328 -0.015874 0.028200 0.088510 -0.050604 0.252148 0.097397 0.208966 0.378451 0.440563 0.529758 0.437095 0.576183 0.639131 0.506959 0.389641 0.334771 0.322739 0.148027 0.139325 0.012308 0.090812 0.029483 -0.000673 -0.024717 -0.120997 -0.010623 0.022501 0.111206 0.297146 0.201650 0.356040 0.373185 0.423848 0.417706 0.386010 0.329674 0.230134 0.303709 0.165921 0.155132 0.005819 0.043486 0.062142 -0.025270 -0.010362 0.017262 0.059020 0.073903 0.214192 0.308567 0.243736 0.208145 0.377975 0.406929 0.351092 0.241873 0.175210 0.148198 0.080417 0.075460 0.023433 0.021042 0.134718 0.053181 0.186539 0.091486 0.142443 0.233310 0.211779 0.236088 0.200056 0.200174 0.120602 0.164108 0.122369 0.094739 0.110004 -0.001459 0.033556 0.089475 0.049619 0.148585 0.124337 0.211586 0.210075 0.138417 0.131942 0.234367 0.117873 0.073779 0.086214 0.058474 -0.001073 -0.028873 0.045097 0.071586 0.031520 0.117429 0.112020 0.124444 0.128462 0.180360 0.115150 0.080201 0.101826 0.083102 0.026707 0.014582 0.031540 -0.002118 0.069877 0.101609 0.063947 0.071378 0.141217 0.081442 0.017519 0.113370 0.026782 0.029412 0.061380 0.019389 0.016733 0.059629 0.086010 0.026682 0.109334 0.050736 0.027516 0.117337 0.069085 0.093982 0.087864 0.021475 -0.007504 0.003735 0.042270 0.006751 0.070391 0.097508 0.091333 0.061808 0.135987 -0.011435 0.029014 -0.091993 -0.018085 -0.041569 0.007490 0.020025 0.033206 0.072382 0.083804 0.106216 0.014264 -0.018391 -0.060854 -0.077779 0.070467 0.048957 0.049959 -0.016753 0.001984 -0.030688 0.066166 0.015711 -0.062275 -0.015647 -0.075425 0.026324 -0.043196 0.026159 0.067660 -0.011356 -0.074384 -0.043194 0.097502 0.042091 0.006763 0.004615 -0.049032 0.075431 0.078802 0.175874 0.048020 0.017734 0.029548 0.056323 -0.049940 -0.044918 0.058384 0.020582 -0.022670 -0.036573 -0.032480 0.097882 -0.043092 0.070046 0.005789 0.130771 -0.001925 0.063264 -0.085152 -0.013017 -0.034153 0.112770 -0.018072 -0.175816 0.291263 0.296745 0.216476 0.413083 0.182030 0.278428 0.371134 -0.073221 -1.320338
0.072396 0.072834 0.074148 0.076338 0.079403 0.083343 0.088156 0.093842 0.100399 0.107825 0.116118 0.125273 0.135289 0.146160 0.157880 0.170444 0.183844 0.198071 0.213115 0.228963 0.245603 0.263018 0.281191 0.300101 0.319727 0.340043 0.361021 0.382629 0.404833 0.427595 0.450874 0.474623 0.498793 0.523330 0.548175 0.573265 0.598534 0.623906 0.649306 0.674650 0.699850 0.724813 0.749441 0.773630 0.797271 0.820251 0.842452 0.863749 0.884017 0.903124 0.920935 0.937311 0.952112 0.965195 0.976415 0.985628 0.992690 0.997455 0.999783 0.999534 0.996574 0.990774 0.982010 0.970169 0.955145 0.936843 0.915181 0.890090 0.861516 0.829425 0.793798 0.754637 0.711966 0.665833 0.616308 0.563490 0.507503 0.448500 0.386662 0.322202 0.255361 0.186412 0.115659 0.043436 0.029893 0.103935 0.178269 0.252448 0.326001 0.398435 0.469238 0.537883 0.603831 0.666535 0.725446 0.780017 0.829706 0.873987 0.912352 0.944318 0.969435 0.987291 0.997520 0.999808 0.993900 0.979606 0.956809 0.925467 0.885625 0.837412 0.781050 0.716855 0.645240 0.566718 0.481896 0.391480 0.296268 0.197148 0.095091 0.008857 0.113581 0.217913 0.320637 0.420510 0.516271 0.606660 0.690437 0.766396 0.833388 0.890337 0.936264 0.970301 0.991715 0.999923 0.994509 0.975241 0.942081 0.895200 0.834981 0.762027 0.677162 0.581429 0.476077 0.362561 0.242520 0.117759 0.009776 0.138021 0.264831 0.388011 0.505356 0.614692 0.713916 0.801041 0.874240 0.931888 0.972602 0.995285 0.999151 0.983767 0.949067 0.895377 0.823421 0.734325 0.629611 0.511177 0.381277 0.242481 0.097633 0.050203 0.197801 0.341848 0.479014 0.606027 0.719763 0.817320 0.896100 0.953891 0.988930 0.999969 0.986330 0.947941 0.885364 0.799802 0.693098 0.567702 0.426633 0.273416 0.112006 0.053314 0.218032 0.377537 0.527241 0.662719 0.779845 0.874919 0.944804 0.987037 0.999924 0.982630 0.935225 0.858724 0.755078 0.627156 0.478670 0.314097 0.138545 0.042388 0.222785 0.396607 0.557894 0.700966 0.820642 0.912435 0.972733 0.998959 0.989699 0.944794 0.865380 0.753898 0.614037 0.450635 0.269533 0.077384 0.118584 0.310830 0.491793 0.654187 0.791308 0.897321 0.967527 0.998592 0.988728 0.937814 0.847454 0.720957 0.563253 0.380720 0.180949 0.027545 0.235691 0.434232 0.614161 0.767118 0.885806 0.964356 0.998641 0.986520 0.928000 0.825294 0.682779 0.506842 0.305628 0.088682 0.133477 0.349871 0.549585 0.722339 0.859029 0.952224 0.996606 0.989300 0.930097 0.821533 0.668829 0.479684 0.263911 0.032973 0.200624 0.423992 0.624570 0.790846 0.913041 0.983709 0.998231 0.955153 0.856359 0.707034 0.515456 0.292556 0.051363 0.193776 0.428003 0.636871 0.807241 0.928134 0.991478 0.992685 0.931032 0.809799 0.636159 0.420803 0.177333 0.078578 0.330162 0.560646 0.754398 0.897992 0.981186 0.997694 0.945716 0.828167 0.652584 0.430701 0.177722 0.088687 0.349611 0.586224 0.781147 0.919768 0.991375 0.990032 0.915143 0.771605 0.569566 0.323775 0.052555 0.223531 0.483223 0.706193 0.874671 0.974904 0.998324 0.942357 0.810756 0.613433 0.365786 0.087565 0.198674 0.469358 0.701856 0.876390 0.977761 0.996739 0.930972 0.785336 0.571662 0.307862 0.016481 0.277181 0.547254 0.769577 0.923902 0.995790 0.978042 0.871492 0.685104 0.435304 0.144619 0.160304 0.451103 0.700348 0.884139 0.984462 0.991035 0.902437 0.726433 0.479395 0.184866 0.128618 0.430244 0.689959 0.881475
1.000000 1.000000 1.000000 1.000000 1.000000 1.000000 1.000000 1.000000 1.000000 1.000000 1.000000 1.000000 1.000000 1.000000 1.000000 1.000000 1.000000 1.000000 1.000000 1.000000 1.000000 1.000000 1.000000 1.000000 1.000000 1.000000 1.000000 1.000000 1.000000 1.000000 1.000000 1.000000 1.000000 1.000000 1.000000 1.000000 1.000000 1.000000 1.000000 1.000000 1.000000 1.000000 1.000000 1.000000 1.000000 1.000000 1.000000 1.000000 1.000000 1.000000 1.000000 1.000000 0.834839 0.834839 0.834839 0.834839 0.834839 0.834839 0.834839 0.812262 0.812262 0.812262 0.812262 0.812262 0.812262 0.812262 0.812262 0.812262 0.812262 0.812262 0.812262 0.812262 0.812262 0.812262 0.812262 0.812262 0.812262 0.812262 0.812262 0.812262 0.812262 0.812262 0.812262 0.812262 0.812262 0.812262 0.812262 0.812262 0.812262 0.812262 0.812262 0.812262 0.812262 0.812262 0.812262 0.812262 0.812262 0.812262 0.812262 0.812262 0.812262 0.812262 0.812262 0.952591 0.953248 0.945589 0.944473 0.942718 0.939507 0.935048 0.934586 0.935941 0.936151 0.936792 0.938238 0.939318 0.941054 0.942165 0.943068 0.943924 0.951977 0.955587 0.956004 0.955540 0.950935 0.957538 0.956690 0.956528 0.957308 0.957607 0.958322 0.958202 0.958035 0.957489 0.956336 0.957054 0.956907 0.956184 0.955154 0.952841 0.952823 0.952369 0.952491 0.953447 0.954137 0.954775 0.955287 0.955247 0.955432 0.955414 0.955316 0.950290 0.950320 0.943838 0.944513 0.945689 0.945381 0.944328 0.942923 0.942974 0.942838 0.942749 0.942546 0.942771 0.923620 0.923063 0.923093 0.923252 0.915609 0.904617 0.897216 0.890495 0.891376 0.895444 0.900387 0.900826 0.897712 0.896761 0.880618 0.884366 0.871361 0.868430 0.856896 0.867324 0.868371 0.869643 0.863746 0.863185 0.861933 0.860140 0.851603 0.855698 0.855993 0.852017 0.848474 0.846649 0.845176 0.847130 0.851912 0.848917 0.845174 0.842465 0.830720 0.821457 0.820376 0.822946 0.830818 0.843053 0.843067 0.842333 0.835439 0.831760 0.825206 0.818939 0.816512 0.818195 0.816085 0.819783 0.818142 0.825528 0.815571 0.810749 0.815759 0.825190 0.830806 0.833697 0.836532 0.834713 0.834313 0.818989 0.819719 0.811322 0.761740 0.764845 0.753643 0.753168 0.743321 0.742222 0.738260 0.738218 0.732466 0.715515 0.727636 0.720845 0.695126 0.702303 0.696279 0.683839 0.662027 0.667714 0.682160 0.690703 0.690049 0.692165 0.681071 0.680752 0.692277 0.693147 0.699435 0.693238 0.690629 0.682957 0.684743 0.674621 0.673727 0.669647 0.668488 0.669159 0.665584 0.655542 0.663798 0.660494 0.654040 0.645202 0.599632 0.559075 0.539364 0.532617 0.515169 0.492983 0.510079 0.518263 0.500484 0.492194 0.473733 0.435568 0.426941 0.425469 0.402650 0.386083 0.364705 0.335508 0.342637 0.345567 0.348466 0.334589 0.332816 0.317389 0.274213 0.263974 0.225853 0.241379 0.259773 0.248588 0.226471 0.228394 0.241605 0.239333 0.251943 0.250329 0.264720 0.219201 0.165144 0.177578 0.175353 0.185730 0.169870 0.143489 0.169245 0.156729 0.167667 0.170853 0.129521 0.099260 0.079254 0.055048 0.060075 0.084788 0.101235 0.094297 0.070569 -0.019893 0.013361 0.042662 0.042662 0.042662 0.042662 0.042662 0.042662 0.042662 0.042662 0.042662 0.042662 0.042662 -0.024811 -0.024811 -0.024811 -0.024811 -0.024811 -0.024811 -0.024811 -0.024811 -0.024811 -0.024811 -0.024811 -0.024811 -0.024811 -0.024811 -0.024811 -0.024811 -0.024811 -0.024811 -0.024811
0.000000 0.000000 0.000000 0.000000 0.000000 0.000000 0.000000 0.000000 0.000000 0.000000 0.000000 0.000000 0.000000 0.000000 0.000000 0.000000 0.000000 0.000000 0.000000 0.000000 0.000000 0.000000 0.000000 0.000000 0.000000 0.000000 0.000000 0.000000 0.000000 0.000000 0.000000 0.000000 0.000000 0.000000 0.000000 0.000000 0.000000 0.000000 0.000000 0.000000 0.000000 0.000000 0.000000 0.000000 0.000000 0.000000 0.000000 0.000000 0.000000 0.000000 0.000000 0.000000 0.173422 0.173422 0.173422 0.173422 0.173422 0.173422 0.173422 0.191565 0.191565 0.191565 0.191565 0.191565 0.191565 0.191565 0.191565 0.191565 0.191565 0.191565 0.191565 0.191565 0.191565 0.191565 0.191565 0.191565 0.191565 0.191565 0.191565 0.191565 0.191565 0.191565 0.191565 0.191565 0.191565 0.191565 0.191565 0.191565 0.191565 0.191565 0.191565 0.191565 0.191565 0.191565 0.191565 0.191565 0.191565 0.191565 0.191565 0.191565 0.191565 0.191565 0.191565 0.219529 0.219529 0.219529 0.219529 0.219529 0.219529 0.219529 0.219529 0.219529 0.219529 0.219529 0.219529 0.219529 0.219529 0.219529 0.219529 0.219529 0.219529 0.219529 0.219529 0.219529 0.219529 0.219529 0.219529 0.219529 0.219529 0.219529 0.219529 0.219529 0.219529 0.219529 0.237356 0.237356 0.237356 0.237356 0.237356 0.237356 0.237356 0.237356 0.237356 0.237356 0.237356 0.237356 0.237356 0.237356 0.237356 0.237356 0.237356 0.237356 0.237356 0.237356 0.237356 0.237356 0.237356 0.237356 0.244339 0.244339 0.244339 0.244339 0.244339 0.244339 0.244339 0.244339 0.244339 0.244339 0.244339 0.244339 0.244339 0.244339 0.244339 0.244339 0.244339 0.244339 0.244339 0.244339 0.244339 0.248069 0.248069 0.248069 0.248069 0.248069 0.248069 0.248069 0.248069 0.248069 0.248069 0.248069 0.248069 0.248069 0.248069 0.248069 0.248069 0.248069 0.248069 0.248069 0.248069 0.248069 0.248069 0.248069 0.248069 0.248069 0.248069 0.248069 0.248069 0.248069 0.248069 0.248069 0.248069 0.248069 0.248069 0.248069 0.248069 0.248069 0.256074 0.256074 0.256074 0.256074 0.256074 0.256074 0.256074 0.256074 0.256074 0.256074 0.256074 0.256074 0.256074 0.256074 0.256074 0.256074 0.256074 0.256074 0.256074 0.256074 0.256074 0.256074 0.256074 0.256074 0.256074 0.256074 0.256074 0.256074 0.256074 0.256074 0.256074 0.256074 0.256074 0.256074 0.256074 0.256074 0.256074 0.256074 0.256074 0.256074 0.256074 0.256074 0.256074 0.256074 0.256074 0.260378 0.260378 0.260378 0.260378 0.260378 0.260378 0.260378 0.260378 0.260378 0.260378 0.260378 0.260378 0.260378 0.256074 0.256074 0.256074 0.256074 0.256074 0.256074 0.256074 0.256074 0.256074 0.256074 0.256074 0.256074 0.256074 0.260378 0.260378 0.260378 0.260378 0.260378 0.260378 0.260378 0.260378 0.260378 0.260378 0.260378 0.260378 0.251976 0.251976 0.251976 0.251976 0.251976 0.251976 0.251976 0.251976 0.251976 0.251976 0.251976 0.251976 0.256074 0.256074 0.256074 0.256074 0.256074 0.256074 0.256074 0.256074 0.256074 0.256074 0.256074 0.251976 0.251976 0.251976 0.251976 0.251976 0.251976 0.251976 0.251976 0.251976 0.251976 0.251976 0.248069 0.248069 0.248069 0.248069 0.248069 0.248069 0.248069 0.248069 0.248069 0.248069 0.248069 0.256074 0.256074 0.256074 0.256074 0.256074 0.256074 0.256074 0.256074 0.256074 0.256074 0.256074 0.256074 0.256074 0.256074 0.256074 0.256074 0.256074 0.256074 0.256074
