# Output from CTFFind version 4.1.9, run on 2019-11-02 17:49:54
# Input file: stack1_bm3d_averaged_1_0.5_0_3000_half.mrc ; Number of micrographs: 1
# Pixel size: 3.000 Angstroms ; acceleration voltage: 300.0 keV ; spherical aberration: 0.00 mm ; amplitude contrast: 0.07
# Box size: 512 pixels ; min. res.: 30.0 Angstroms ; max. res.: 5.0 Angstroms ; min. def.: 5000.0 um; max. def. 50000.0 um; num. frames averaged: 1
# 6 lines per micrograph: #1 - spatial frequency (1/Angstroms); #2 - 1D rotational average of spectrum (assuming no astigmatism); #3 - 1D rotational average of spectrum; #4 - CTF fit; #5 - cross-correlation between spectrum and CTF fit; #6 - 2sigma of expected cross correlation of noise
0.000000 0.000651 0.001302 0.001953 0.002604 0.003255 0.003906 0.004557 0.005208 0.005859 0.006510 0.007161 0.007812 0.008464 0.009115 0.009766 0.010417 0.011068 0.011719 0.012370 0.013021 0.013672 0.014323 0.014974 0.015625 0.016276 0.016927 0.017578 0.018229 0.018880 0.019531 0.020182 0.020833 0.021484 0.022135 0.022786 0.023438 0.024089 0.024740 0.025391 0.026042 0.026693 0.027344 0.027995 0.028646 0.029297 0.029948 0.030599 0.031250 0.031901 0.032552 0.033203 0.033854 0.034505 0.035156 0.035807 0.036458 0.037109 0.037760 0.038411 0.039062 0.039714 0.040365 0.041016 0.041667 0.042318 0.042969 0.043620 0.044271 0.044922 0.045573 0.046224 0.046875 0.047526 0.048177 0.048828 0.049479 0.050130 0.050781 0.051432 0.052083 0.052734 0.053385 0.054036 0.054688 0.055339 0.055990 0.056641 0.057292 0.057943 0.058594 0.059245 0.059896 0.060547 0.061198 0.061849 0.062500 0.063151 0.063802 0.064453 0.065104 0.065755 0.066406 0.067057 0.067708 0.068359 0.069010 0.069661 0.070312 0.070964 0.071615 0.072266 0.072917 0.073568 0.074219 0.074870 0.075521 0.076172 0.076823 0.077474 0.078125 0.078776 0.079427 0.080078 0.080729 0.081380 0.082031 0.082682 0.083333 0.083984 0.084635 0.085286 0.085938 0.086589 0.087240 0.087891 0.088542 0.089193 0.089844 0.090495 0.091146 0.091797 0.092448 0.093099 0.093750 0.094401 0.095052 0.095703 0.096354 0.097005 0.097656 0.098307 0.098958 0.099609 0.100260 0.100911 0.101562 0.102214 0.102865 0.103516 0.104167 0.104818 0.105469 0.106120 0.106771 0.107422 0.108073 0.108724 0.109375 0.110026 0.110677 0.111328 0.111979 0.112630 0.113281 0.113932 0.114583 0.115234 0.115885 0.116536 0.117188 0.117839 0.118490 0.119141 0.119792 0.120443 0.121094 0.121745 0.122396 0.123047 0.123698 0.124349 0.125000 0.125651 0.126302 0.126953 0.127604 0.128255 0.128906 0.129557 0.130208 0.130859 0.131510 0.132161 0.132812 0.133464 0.134115 0.134766 0.135417 0.136068 0.136719 0.137370 0.138021 0.138672 0.139323 0.139974 0.140625 0.141276 0.141927 0.142578 0.143229 0.143880 0.144531 0.145182 0.145833 0.146484 0.147135 0.147786 0.148438 0.149089 0.149740 0.150391 0.151042 0.151693 0.152344 0.152995 0.153646 0.154297 0.154948 0.155599 0.156250 0.156901 0.157552 0.158203 0.158854 0.159505 0.160156 0.160807 0.161458 0.162109 0.162760 0.163411 0.164062 0.164714 0.165365 0.166016 0.166667 0.167318 0.167969 0.168620 0.169271 0.169922 0.170573 0.171224 0.171875 0.172526 0.173177 0.173828 0.174479 0.175130 0.175781 0.176432 0.177083 0.177734 0.178385 0.179036 0.179688 0.180339 0.180990 0.181641 0.182292 0.182943 0.183594 0.184245 0.184896 0.185547 0.186198 0.186849 0.187500 0.188151 0.188802 0.189453 0.190104 0.190755 0.191406 0.192057 0.192708 0.193359 0.194010 0.194661 0.195312 0.195964 0.196615 0.197266 0.197917 0.198568 0.199219 0.199870 0.200521 0.201172 0.201823 0.202474 0.203125 0.203776 0.204427 0.205078 0.205729 0.206380 0.207031 0.207682 0.208333 0.208984 0.209635 0.210286 0.210938 0.211589 0.212240 0.212891 0.213542 0.214193 0.214844 0.215495 0.216146 0.216797 0.217448 0.218099 0.218750 0.219401 0.220052 0.220703 0.221354 0.222005 0.222656 0.223307 0.223958 0.224609 0.225260 0.225911 0.226562 0.227214 0.227865 0.228516 0.229167 0.229818 0.230469 0.231120 0.231771 0.232422 0.233073 0.233724 0.234375 0.235026 0.235677
       0.33559        0.33559        0.33559        0.33559        0.33559        0.33559        0.33559        0.33559        0.33559        0.33559        0.33559        0.33559        0.33559        0.33559        0.33559        0.33559        0.33559        0.33559        0.33559        0.33559        0.33559        0.33559        0.33559        0.33559        0.33559        0.33559        0.33559        0.33559        0.33559        0.33559        0.33559        0.33559        0.33559        0.33559        0.33559        0.33559        0.33559        0.33559        0.33559        0.33559        0.33559        0.33559        0.33559        0.33559        0.33559        0.33559        0.33559        0.33559        0.33559        0.33559        0.33559        0.50380        0.71959        0.43118        0.19124       -0.07993       -0.26290       -0.06822       -0.13181       -0.05198       -0.00068       -0.14377       -0.08887       -0.04728        0.00045       -0.14871       -0.21662       -0.34388       -0.46047       -0.55634       -0.51489       -0.44621       -0.37008       -0.54440       -0.44481       -0.61795       -0.49816       -0.47237       -0.38772       -0.38173       -0.34045       -0.24782       -0.15671       -0.13407        0.03528       -0.00863        0.12149        0.17147        0.30536        0.40945        0.46627        0.49652        0.54173        0.55123        0.69665        0.64809        0.68032        0.59208        0.55723        0.65734        0.53040        0.42872        0.38537        0.32486        0.23044        0.26857        0.25569        0.11059        0.08712        0.00193       -0.00444        0.03828       -0.00033        0.07900        0.10026        0.23359        0.28421        0.30925        0.38205        0.55995        0.53862        0.58151        0.67274        0.70017        0.63295        0.63791        0.63299        0.55435        0.57835        0.39657        0.34727        0.26928        0.18820        0.07359        0.14746        0.12240        0.09104        0.10722        0.21163        0.21678        0.31902        0.36028        0.41627        0.49841        0.58952        0.54391        0.55646        0.61104        0.54621        0.46732        0.47916        0.32680        0.25465        0.25807        0.24499        0.14746        0.14967        0.15599        0.22261        0.25090        0.32974        0.36413        0.39053        0.47094        0.45049        0.48243        0.45858        0.47011        0.44651        0.41052        0.38400        0.35392        0.31174        0.28718        0.20499        0.19992        0.22332        0.27067        0.27190        0.35299        0.37833        0.36119        0.41317        0.46079        0.45342        0.42539        0.43938        0.37135        0.33934        0.28796        0.26700        0.29310        0.27369        0.29826        0.30276        0.35223        0.34533        0.40435        0.41123        0.43024        0.41200        0.42870        0.40445        0.36680        0.28643        0.29671        0.31335        0.27821        0.25912        0.33385        0.37354        0.34424        0.35592        0.36136        0.35763        0.40909        0.40307        0.36044        0.34162        0.31368        0.31154        0.31615        0.31757        0.29960        0.28880        0.33830        0.35933        0.38177        0.33578        0.32749        0.33669        0.34607        0.30735        0.28411        0.30914        0.31784        0.33851        0.32576        0.33558        0.36084        0.33311        0.31619        0.33189        0.30672        0.26847        0.25588        0.26764        0.30733        0.32479        0.35023        0.30250        0.31873        0.34247        0.29727        0.32051        0.28977        0.28807        0.29615        0.30379        0.30986        0.34640        0.32478        0.33120        0.33771        0.31465        0.33765        0.31846        0.32070        0.30907        0.28602        0.29872        0.32031        0.29676        0.33234        0.34260        0.33422        0.31689        0.33863        0.31757        0.27456        0.25670        0.27435        0.33494        0.36234        0.35045        0.31818        0.29605        0.29643        0.31699        0.24924        0.30032        0.30425        0.32889        0.30169        0.32566        0.28954        0.33876        0.34528        0.34827        0.33160        0.29660        0.32060        0.39780        0.32824        0.31810        0.31502        0.29016        0.28562        0.30004        0.26580        0.30947        0.24194        0.28473        0.29938        0.31790        0.29718        0.28119        0.30383        0.24121        0.23301        0.26276        0.30934        0.30643        0.29084        0.28804        0.33579        0.25623        0.21286        0.31839        0.27850        0.25650        0.28171        0.39864        0.30452        0.28678        0.25168        0.25120        0.26260        0.23238        0.23273        0.16040        0.25664        0.23752        0.25012        0.32071        0.28637        0.34595        0.28352        0.26688        0.24790        0.22302        0.23692        0.29112        0.23163        0.11672        0.13785        0.24729        0.24619        0.34097        0.30626        0.02632       -0.43609       -0.92206
2.741477 2.712387 2.683454 2.654677 2.626058 2.597596 2.569291 2.541142 2.513151 2.485317 2.457640 2.430120 2.402757 2.375552 2.348503 2.321611 2.294876 2.268299 2.241878 2.215615 2.189508 2.163559 2.137766 2.112131 2.086653 2.061332 2.036167 2.011160 1.986310 1.961617 1.937081 1.912702 1.888480 1.864415 1.840508 1.816757 1.793163 1.769727 1.746447 1.723324 1.700359 1.677550 1.654899 1.632405 1.610067 1.587887 1.565864 1.543998 1.522289 1.500737 1.479342 1.548981 1.849468 1.543044 1.205850 0.954295 0.551532 0.924805 0.643678 0.888088 0.940407 0.602158 0.723186 0.795967 0.832534 0.641656 0.550928 0.353593 0.109293 0.084954 0.048576 0.087174 0.306799 -0.030502 0.089555 -0.132545 -0.006353 -0.016207 0.086103 0.068559 0.098951 0.180878 0.289449 0.257042 0.488696 0.404237 0.555118 0.532185 0.775391 0.794437 0.888219 0.924613 0.948792 0.951429 1.132376 0.942432 1.153289 0.954779 0.856644 1.025350 0.855285 0.766168 0.619102 0.601767 0.458197 0.423896 0.517156 0.267795 0.202857 0.158367 0.009784 0.208953 -0.004305 0.122281 0.183243 0.257510 0.330768 0.354158 0.428145 0.537169 0.667351 0.541442 0.746266 0.861805 0.643817 0.703178 0.667035 0.593832 0.544823 0.461808 0.297830 0.217221 0.117728 -0.046470 -0.018585 0.057178 -0.101570 -0.060997 0.044823 0.053952 0.116711 0.217068 0.240762 0.311777 0.452195 0.453682 0.427850 0.485476 0.456341 0.340347 0.332302 0.242254 0.058249 0.061095 0.014854 -0.040585 -0.095928 -0.097285 -0.011597 -0.050935 0.071984 0.126187 0.111110 0.265238 0.233983 0.242346 0.286598 0.243680 0.231670 0.213577 0.165593 0.106565 0.097572 0.021890 -0.000973 -0.122007 -0.054657 -0.002109 -0.002337 0.026177 0.094356 0.083954 0.118008 0.216560 0.267263 0.187104 0.179149 0.111018 0.144725 0.028443 -0.028701 0.029493 -0.022114 0.016078 -0.003857 0.041198 0.091218 0.057824 0.165924 0.114712 0.181335 0.073473 0.155679 0.101697 0.004674 -0.052572 0.002634 -0.021936 -0.056747 -0.057037 0.070628 0.074268 0.001840 0.089738 0.074440 0.080659 0.156790 0.078848 0.071637 0.066302 -0.011654 0.032521 0.011080 0.023265 0.008884 0.006768 0.051545 0.084647 0.081763 0.041090 0.053375 0.037678 0.070129 0.001451 -0.006646 0.035104 0.024937 0.071721 0.050023 0.066246 0.085405 0.049933 0.023340 0.039725 0.009204 -0.037738 -0.024741 -0.018459 0.030496 0.044326 0.095289 0.007240 0.065930 0.057778 -0.013843 0.064592 0.005729 0.007015 0.032630 0.048390 0.026526 0.088727 0.039298 0.062839 0.074993 0.068310 0.067105 0.062079 0.082893 0.029658 -0.007678 0.052403 0.047200 0.045207 0.074146 0.084008 0.015883 0.052271 0.073293 0.001190 -0.006615 -0.060073 -0.023280 0.111711 0.079681 0.059364 0.030166 -0.025046 0.051068 0.018942 -0.073720 0.052655 0.023900 0.059687 0.034410 0.016668 0.041511 0.008827 0.054759 0.023827 0.042776 -0.054577 0.070621 0.110723 -0.006869 -0.004184 0.007631 -0.015824 -0.042932 -0.023765 -0.058456 -0.017580 -0.091137 -0.016622 -0.039653 0.017701 -0.029219 -0.057755 0.023523 -0.060307 -0.052120 -0.080734 0.050737 0.012865 0.016699 -0.010220 0.087730 -0.052017 -0.085734 0.066399 -0.016071 -0.002798 -0.002455 0.197343 -0.016756 0.023195 -0.009087 -0.016732 -0.013931 -0.049084 -0.016265 -0.186145 0.025108 -0.025559 -0.021305 0.064654 0.034738 0.123688 0.003960 0.030903 0.005996 0.018029 -0.042046 0.353868 0.278963 0.141347 0.182062 0.258058 0.329519 0.373675 0.373072 0.033489 -1.089989
0.072396 0.072911 0.074453 0.077025 0.080624 0.085249 0.090900 0.097575 0.105270 0.113985 0.123714 0.134454 0.146198 0.158940 0.172672 0.187383 0.203063 0.219697 0.237269 0.255762 0.275153 0.295419 0.316531 0.338458 0.361165 0.384611 0.408754 0.433544 0.458927 0.484843 0.511226 0.538006 0.565105 0.592439 0.619916 0.647440 0.674906 0.702202 0.729209 0.755800 0.781844 0.807199 0.831719 0.855250 0.877633 0.898702 0.918287 0.936212 0.952300 0.966368 0.978233 0.987710 0.994616 0.998767 0.999985 0.998095 0.992931 0.984332 0.972150 0.956249 0.936505 0.912815 0.885092 0.853271 0.817311 0.777198 0.732945 0.684596 0.632229 0.575956 0.515925 0.452324 0.385382 0.315365 0.242586 0.167395 0.090190 0.011407 0.068476 0.148942 0.229437 0.309370 0.388122 0.465047 0.539475 0.610721 0.678089 0.740880 0.798399 0.849963 0.894910 0.932609 0.962468 0.983945 0.996558 0.999895 0.993625 0.977504 0.951389 0.915246 0.869154 0.813315 0.748061 0.673854 0.591290 0.501102 0.404154 0.301442 0.194085 0.083315 0.029527 0.143014 0.255643 0.365854 0.472054 0.572638 0.666014 0.750631 0.825005 0.887752 0.937612 0.973481 0.994441 0.999782 0.989032 0.961973 0.918666 0.859459 0.785003 0.696250 0.594455 0.481165 0.358208 0.227668 0.091853 0.046729 0.185428 0.321488 0.452105 0.574489 0.685919 0.783814 0.865794 0.929744 0.973878 0.996800 0.997547 0.975644 0.931130 0.864587 0.777152 0.670509 0.546878 0.408979 0.259985 0.103463 0.056711 0.216436 0.371492 0.517648 0.650784 0.767007 0.862780 0.935033 0.981279 0.999709 0.989277 0.949765 0.881824 0.786992 0.667680 0.527136 0.369372 0.199069 0.021451 0.157872 0.333067 0.498273 0.647795 0.776316 0.879088 0.952127 0.992388 0.997903 0.967904 0.902892 0.804669 0.676319 0.522138 0.347524 0.158795 0.037013 0.232398 0.419683 0.591309 0.740153 0.859835 0.945010 0.991632 0.997168 0.960763 0.883337 0.767606 0.618026 0.440657 0.242944 0.033430 0.178594 0.383500 0.571751 0.734363 0.863338 0.952090 0.995806 0.991743 0.939426 0.840755 0.699978 0.523562 0.319931 0.099091 0.127830 0.349134 0.553153 0.728871 0.866542 0.958252 0.998413 0.984146 0.915523 0.795656 0.630611 0.429159 0.202342 0.037086 0.275365 0.498505 0.693123 0.847247 0.951101 0.997757 0.983650 0.908894 0.777385 0.596666 0.377551 0.133531 0.120031 0.366835 0.590696 0.776609 0.911798 0.986624 0.995328 0.936541 0.813488 0.633903 0.409609 0.155789 0.109979 0.368936 0.602441 0.793343 0.927262 0.993737 0.987093 0.907000 0.758641 0.552459 0.303505 0.030387 0.246062 0.504370 0.724093 0.887469 0.980884 0.996102 0.931050 0.790149 0.584118 0.329246 0.046167 0.241750 0.510315 0.736557 0.900716 0.988026 0.990131 0.905963 0.742018 0.511967 0.235600 0.062789 0.356508 0.618834 0.825461 0.956807 0.999941 0.949958 0.810622 0.594220 0.320582 0.015365 0.292318 0.572615 0.797878 0.945418 0.999875 0.954925 0.814116 0.590737 0.306686 0.009588 0.325854 0.609377 0.830311 0.964906 0.998156 0.925581 0.753950 0.500786 0.192716 0.137248 0.453175 0.720137 0.908090 0.995361 0.971241 0.837443 0.608171 0.308767 0.026993 0.360611 0.653258 0.870327 0.985600 0.984527 0.866212 0.643806 0.343192 0.000140 0.343901 0.646745 0.870679 0.987241 0.980967 0.851591 0.614392 0.298566 0.056244 0.404802 0.702059 0.908983 0.997798 0.955853 0.787599 0.514330 0.171657 0.194975 0.536265 0.805672 0.965834 0.993877
1.000000 1.000000 1.000000 1.000000 1.000000 1.000000 1.000000 1.000000 1.000000 1.000000 1.000000 1.000000 1.000000 1.000000 1.000000 1.000000 1.000000 1.000000 1.000000 1.000000 1.000000 1.000000 1.000000 1.000000 1.000000 1.000000 1.000000 1.000000 1.000000 1.000000 1.000000 1.000000 1.000000 1.000000 1.000000 1.000000 1.000000 1.000000 1.000000 1.000000 1.000000 1.000000 1.000000 1.000000 1.000000 1.000000 1.000000 1.000000 1.000000 1.000000 1.000000 1.000000 0.919656 0.919656 0.906202 0.906202 0.906202 0.906202 0.906202 0.906202 0.906202 0.906202 0.906202 0.906202 0.906202 0.906202 0.906202 0.906202 0.906202 0.906202 0.906202 0.906202 0.906202 0.906202 0.906202 0.906202 0.906202 0.906202 0.906202 0.906202 0.906202 0.906202 0.906202 0.906202 0.906202 0.906202 0.906202 0.906202 0.906202 0.906202 0.906202 0.906202 0.906202 0.906202 0.906202 0.901473 0.906561 0.908443 0.907046 0.910539 0.910585 0.909947 0.910318 0.910006 0.910369 0.911762 0.922198 0.933132 0.944280 0.944782 0.949974 0.954287 0.957749 0.958657 0.960356 0.970700 0.969292 0.968861 0.969478 0.970724 0.972704 0.971570 0.970918 0.974218 0.974772 0.973327 0.970915 0.970343 0.969043 0.968401 0.968067 0.967944 0.969010 0.969502 0.969682 0.969937 0.970079 0.970144 0.971144 0.972280 0.974746 0.975704 0.975612 0.974668 0.972993 0.977019 0.978071 0.977878 0.977860 0.977434 0.977648 0.959802 0.957608 0.957495 0.954700 0.953263 0.950163 0.948591 0.947412 0.947987 0.946773 0.946042 0.943014 0.928209 0.913870 0.902429 0.923685 0.907673 0.896240 0.870325 0.870960 0.866754 0.867138 0.858480 0.852876 0.848459 0.845925 0.847735 0.843270 0.846767 0.843255 0.827500 0.830966 0.827564 0.796404 0.780684 0.765106 0.764913 0.761776 0.762846 0.764348 0.757620 0.766231 0.760569 0.757536 0.748134 0.725223 0.691527 0.677645 0.689019 0.699421 0.697722 0.693899 0.678373 0.646383 0.659293 0.679870 0.676560 0.678145 0.671006 0.664714 0.673938 0.675724 0.672561 0.665507 0.664761 0.664755 0.675061 0.679729 0.674169 0.665376 0.651110 0.641422 0.632072 0.646908 0.655197 0.625934 0.619766 0.610887 0.604993 0.591404 0.560535 0.562400 0.542193 0.528458 0.531981 0.534471 0.533478 0.544370 0.545044 0.524431 0.549229 0.558278 0.586953 0.562331 0.558710 0.559946 0.570330 0.552053 0.529227 0.519470 0.520748 0.537485 0.573407 0.615300 0.609482 0.598090 0.588938 0.602854 0.578169 0.585879 0.603952 0.583289 0.506377 0.468503 0.465916 0.432319 0.424108 0.410369 0.391649 0.376796 0.377118 0.372006 0.357144 0.346281 0.278527 0.243751 0.229976 0.215507 0.215144 0.222598 0.210866 0.205680 0.240898 0.287847 0.284809 0.274747 0.276878 0.279140 0.285366 0.254292 0.258153 0.222564 0.217752 0.245733 0.190674 0.193175 0.144841 0.135877 0.146891 0.174660 0.178219 0.131550 0.126203 0.151753 0.166844 0.162680 0.152912 0.111789 0.077700 0.063697 0.076668 0.065829 0.026283 0.035649 0.050949 0.040038 0.028164 0.054196 0.045547 0.050974 0.039695 0.039505 0.083546 0.112596 0.100366 0.102198 0.118078 0.109924 0.087333 0.079481 0.068641 0.064233 0.007672 -0.017857 -0.017857 -0.017414 -0.017414 -0.017414 -0.017414 -0.017414 -0.017414 -0.017414 -0.017414 -0.017414 -0.018614 -0.018614 -0.018614 -0.018614 -0.018614 -0.018614 -0.018614 -0.018614 -0.018614 0.006235 0.006235 0.006235 0.006235 0.006235 0.006235 0.006235 0.006235 0.006235
0.000000 0.000000 0.000000 0.000000 0.000000 0.000000 0.000000 0.000000 0.000000 0.000000 0.000000 0.000000 0.000000 0.000000 0.000000 0.000000 0.000000 0.000000 0.000000 0.000000 0.000000 0.000000 0.000000 0.000000 0.000000 0.000000 0.000000 0.000000 0.000000 0.000000 0.000000 0.000000 0.000000 0.000000 0.000000 0.000000 0.000000 0.000000 0.000000 0.000000 0.000000 0.000000 0.000000 0.000000 0.000000 0.000000 0.000000 0.000000 0.000000 0.000000 0.000000 0.000000 0.181818 0.181818 0.199007 0.199007 0.199007 0.199007 0.199007 0.199007 0.199007 0.199007 0.199007 0.199007 0.199007 0.199007 0.199007 0.199007 0.199007 0.199007 0.199007 0.199007 0.199007 0.199007 0.199007 0.199007 0.199007 0.199007 0.199007 0.199007 0.199007 0.199007 0.199007 0.199007 0.199007 0.199007 0.199007 0.199007 0.199007 0.199007 0.199007 0.199007 0.199007 0.199007 0.199007 0.230940 0.230940 0.230940 0.230940 0.230940 0.230940 0.230940 0.230940 0.230940 0.230940 0.230940 0.230940 0.230940 0.230940 0.230940 0.230940 0.230940 0.230940 0.230940 0.230940 0.230940 0.230940 0.230940 0.230940 0.230940 0.230940 0.230940 0.230940 0.244339 0.244339 0.244339 0.244339 0.244339 0.244339 0.244339 0.244339 0.244339 0.244339 0.244339 0.244339 0.244339 0.244339 0.244339 0.244339 0.244339 0.244339 0.244339 0.244339 0.244339 0.244339 0.244339 0.251976 0.251976 0.251976 0.251976 0.251976 0.251976 0.251976 0.251976 0.251976 0.251976 0.251976 0.251976 0.251976 0.251976 0.251976 0.251976 0.251976 0.251976 0.251976 0.251976 0.264906 0.264906 0.264906 0.264906 0.264906 0.264906 0.264906 0.264906 0.264906 0.264906 0.264906 0.264906 0.264906 0.264906 0.264906 0.264906 0.264906 0.264906 0.264906 0.264906 0.264906 0.264906 0.264906 0.264906 0.264906 0.264906 0.264906 0.264906 0.264906 0.264906 0.264906 0.264906 0.264906 0.264906 0.264906 0.264906 0.264906 0.264906 0.264906 0.264906 0.264906 0.264906 0.264906 0.264906 0.264906 0.264906 0.264906 0.264906 0.264906 0.264906 0.264906 0.264906 0.264906 0.264906 0.264906 0.264906 0.264906 0.264906 0.264906 0.264906 0.264906 0.264906 0.264906 0.264906 0.264906 0.264906 0.264906 0.264906 0.264906 0.264906 0.264906 0.264906 0.264906 0.264906 0.264906 0.269680 0.269680 0.269680 0.269680 0.269680 0.269680 0.269680 0.269680 0.269680 0.269680 0.269680 0.269680 0.264906 0.264906 0.264906 0.264906 0.264906 0.264906 0.264906 0.264906 0.264906 0.264906 0.264906 0.264906 0.269680 0.269680 0.269680 0.269680 0.269680 0.269680 0.269680 0.269680 0.269680 0.269680 0.269680 0.264906 0.264906 0.264906 0.264906 0.264906 0.264906 0.264906 0.264906 0.264906 0.264906 0.264906 0.269680 0.269680 0.269680 0.269680 0.269680 0.269680 0.269680 0.269680 0.269680 0.269680 0.251976 0.251976 0.251976 0.251976 0.251976 0.251976 0.251976 0.251976 0.251976 0.251976 0.251976 0.269680 0.269680 0.269680 0.269680 0.269680 0.269680 0.269680 0.269680 0.269680 0.256074 0.256074 0.256074 0.256074 0.256074 0.256074 0.256074 0.256074 0.256074 0.256074 0.260378 0.260378 0.260378 0.260378 0.260378 0.260378 0.260378 0.260378 0.260378 0.256074 0.256074 0.256074 0.256074 0.256074 0.256074 0.256074 0.256074 0.256074 0.251976 0.251976 0.251976 0.251976 0.251976 0.251976 0.251976 0.251976 0.251976 0.264906 0.264906 0.264906 0.264906 0.264906 0.264906 0.264906 0.264906 0.264906
