# Output from CTFFind version 4.1.9, run on 2019-11-03 20:10:59
# Input file: stack16_bm3d_averaged_1_10_0_3000_half.mrc ; Number of micrographs: 1
# Pixel size: 3.000 Angstroms ; acceleration voltage: 300.0 keV ; spherical aberration: 0.00 mm ; amplitude contrast: 0.07
# Box size: 512 pixels ; min. res.: 30.0 Angstroms ; max. res.: 5.0 Angstroms ; min. def.: 5000.0 um; max. def. 50000.0 um; num. frames averaged: 1
# 6 lines per micrograph: #1 - spatial frequency (1/Angstroms); #2 - 1D rotational average of spectrum (assuming no astigmatism); #3 - 1D rotational average of spectrum; #4 - CTF fit; #5 - cross-correlation between spectrum and CTF fit; #6 - 2sigma of expected cross correlation of noise
0.000000 0.000651 0.001302 0.001953 0.002604 0.003255 0.003906 0.004557 0.005208 0.005859 0.006510 0.007161 0.007812 0.008464 0.009115 0.009766 0.010417 0.011068 0.011719 0.012370 0.013021 0.013672 0.014323 0.014974 0.015625 0.016276 0.016927 0.017578 0.018229 0.018880 0.019531 0.020182 0.020833 0.021484 0.022135 0.022786 0.023438 0.024089 0.024740 0.025391 0.026042 0.026693 0.027344 0.027995 0.028646 0.029297 0.029948 0.030599 0.031250 0.031901 0.032552 0.033203 0.033854 0.034505 0.035156 0.035807 0.036458 0.037109 0.037760 0.038411 0.039062 0.039714 0.040365 0.041016 0.041667 0.042318 0.042969 0.043620 0.044271 0.044922 0.045573 0.046224 0.046875 0.047526 0.048177 0.048828 0.049479 0.050130 0.050781 0.051432 0.052083 0.052734 0.053385 0.054036 0.054688 0.055339 0.055990 0.056641 0.057292 0.057943 0.058594 0.059245 0.059896 0.060547 0.061198 0.061849 0.062500 0.063151 0.063802 0.064453 0.065104 0.065755 0.066406 0.067057 0.067708 0.068359 0.069010 0.069661 0.070312 0.070964 0.071615 0.072266 0.072917 0.073568 0.074219 0.074870 0.075521 0.076172 0.076823 0.077474 0.078125 0.078776 0.079427 0.080078 0.080729 0.081380 0.082031 0.082682 0.083333 0.083984 0.084635 0.085286 0.085938 0.086589 0.087240 0.087891 0.088542 0.089193 0.089844 0.090495 0.091146 0.091797 0.092448 0.093099 0.093750 0.094401 0.095052 0.095703 0.096354 0.097005 0.097656 0.098307 0.098958 0.099609 0.100260 0.100911 0.101562 0.102214 0.102865 0.103516 0.104167 0.104818 0.105469 0.106120 0.106771 0.107422 0.108073 0.108724 0.109375 0.110026 0.110677 0.111328 0.111979 0.112630 0.113281 0.113932 0.114583 0.115234 0.115885 0.116536 0.117188 0.117839 0.118490 0.119141 0.119792 0.120443 0.121094 0.121745 0.122396 0.123047 0.123698 0.124349 0.125000 0.125651 0.126302 0.126953 0.127604 0.128255 0.128906 0.129557 0.130208 0.130859 0.131510 0.132161 0.132812 0.133464 0.134115 0.134766 0.135417 0.136068 0.136719 0.137370 0.138021 0.138672 0.139323 0.139974 0.140625 0.141276 0.141927 0.142578 0.143229 0.143880 0.144531 0.145182 0.145833 0.146484 0.147135 0.147786 0.148438 0.149089 0.149740 0.150391 0.151042 0.151693 0.152344 0.152995 0.153646 0.154297 0.154948 0.155599 0.156250 0.156901 0.157552 0.158203 0.158854 0.159505 0.160156 0.160807 0.161458 0.162109 0.162760 0.163411 0.164062 0.164714 0.165365 0.166016 0.166667 0.167318 0.167969 0.168620 0.169271 0.169922 0.170573 0.171224 0.171875 0.172526 0.173177 0.173828 0.174479 0.175130 0.175781 0.176432 0.177083 0.177734 0.178385 0.179036 0.179688 0.180339 0.180990 0.181641 0.182292 0.182943 0.183594 0.184245 0.184896 0.185547 0.186198 0.186849 0.187500 0.188151 0.188802 0.189453 0.190104 0.190755 0.191406 0.192057 0.192708 0.193359 0.194010 0.194661 0.195312 0.195964 0.196615 0.197266 0.197917 0.198568 0.199219 0.199870 0.200521 0.201172 0.201823 0.202474 0.203125 0.203776 0.204427 0.205078 0.205729 0.206380 0.207031 0.207682 0.208333 0.208984 0.209635 0.210286 0.210938 0.211589 0.212240 0.212891 0.213542 0.214193 0.214844 0.215495 0.216146 0.216797 0.217448 0.218099 0.218750 0.219401 0.220052 0.220703 0.221354 0.222005 0.222656 0.223307 0.223958 0.224609 0.225260 0.225911 0.226562 0.227214 0.227865 0.228516 0.229167 0.229818 0.230469 0.231120 0.231771 0.232422 0.233073 0.233724 0.234375 0.235026 0.235677
       0.37335        0.37335        0.37335        0.37335        0.37335        0.37335        0.37335        0.37335        0.37335        0.37335        0.37335        0.37335        0.37335        0.37335        0.37335        0.37335        0.37335        0.37335        0.37335        0.37335        0.37335        0.37335        0.37335        0.37335        0.37335        0.37335        0.37335        0.37335        0.37335        0.37335        0.37335        0.37335        0.37335        0.37335        0.37335        0.37335        0.37335        0.37335        0.37335        0.37335        0.37335        0.37335        0.37335        0.37335        0.37335        0.37335        0.37335        0.37335        0.37335        0.37335        0.37335        0.44774        0.56357        0.34991       -0.21563       -0.43375       -0.52054       -0.62878       -0.69255       -0.69295       -0.78129       -0.86323       -0.64965       -0.79756       -0.78810       -0.91954       -0.96395       -0.84561       -0.80673       -0.77085       -0.67202       -0.60478       -0.51328       -0.42331       -0.36173       -0.13616       -0.03605        0.07694        0.28997        0.27721        0.33991        0.38317        0.42131        0.55469        0.55556        0.58852        0.54426        0.49101        0.51914        0.55647        0.48200        0.35080        0.24536        0.20868        0.13230        0.05342        0.03468        0.02390        0.09341        0.06146        0.11118        0.08394        0.20285        0.22214        0.42546        0.47518        0.55368        0.66021        0.68432        0.71593        0.65547        0.61900        0.57274        0.46524        0.40573        0.31063        0.24435        0.24510        0.13378        0.15170        0.16408        0.12022        0.12079        0.32124        0.44048        0.54687        0.54447        0.56665        0.61007        0.59593        0.57375        0.59761        0.58113        0.49059        0.33632        0.28970        0.29149        0.19809        0.12157        0.20224        0.25761        0.31670        0.37215        0.44754        0.49398        0.54746        0.61309        0.56288        0.51161        0.53385        0.37786        0.32111        0.29069        0.20582        0.24907        0.27714        0.31199        0.30825        0.36286        0.45212        0.48428        0.51049        0.46854        0.45972        0.50751        0.42003        0.34337        0.30864        0.29069        0.26021        0.24299        0.25990        0.36391        0.47330        0.45759        0.49486        0.56021        0.48054        0.43751        0.37837        0.35282        0.30655        0.30693        0.29191        0.31554        0.39594        0.40366        0.46768        0.48481        0.46350        0.49011        0.40653        0.39695        0.36611        0.30065        0.28021        0.28493        0.37316        0.39667        0.37891        0.40184        0.44520        0.46414        0.41392        0.35626        0.34747        0.37799        0.34555        0.31388        0.32510        0.38641        0.40136        0.42113        0.40838        0.42093        0.44270        0.42814        0.35037        0.31400        0.32474        0.35923        0.41976        0.39296        0.42197        0.37524        0.38872        0.40874        0.36618        0.36921        0.34102        0.33081        0.35988        0.37402        0.35610        0.39573        0.40578        0.35171        0.37003        0.35090        0.33792        0.33295        0.34502        0.35886        0.34725        0.38860        0.40061        0.38866        0.32865        0.32723        0.30993        0.35326        0.34303        0.33789        0.39072        0.37683        0.35869        0.34013        0.33055        0.31839        0.30031        0.34505        0.36202        0.38411        0.38786        0.37737        0.35055        0.36701        0.39158        0.36461        0.36869        0.36661        0.34214        0.35197        0.31575        0.33691        0.33311        0.33836        0.30452        0.34916        0.37589        0.34387        0.38358        0.34327        0.36217        0.37301        0.35682        0.33932        0.36251        0.39934        0.36723        0.39753        0.35685        0.33590        0.35423        0.33890        0.35616        0.35418        0.39264        0.33701        0.34210        0.32315        0.32622        0.29602        0.31394        0.38910        0.34263        0.33034        0.30623        0.28822        0.29611        0.37708        0.32369        0.30986        0.35326        0.33372        0.29929        0.26734        0.30979        0.30346        0.33245        0.33603        0.36913        0.36172        0.34994        0.34119        0.28630        0.32004        0.32558        0.32186        0.33271        0.36460        0.32553        0.24665        0.32088        0.33831        0.35862        0.31146        0.31681        0.26617        0.31732        0.28748        0.27053        0.29937        0.25855        0.32055        0.32221        0.31287        0.29347        0.36045        0.30509        0.25946        0.26421        0.33112        0.25010        0.15396        0.11738        0.19169        0.36303        0.34407        0.21576        0.19935       -0.30377       -0.57739
3.350555 3.307448 3.264622 3.222079 3.179818 3.137839 3.096143 3.054728 3.013596 2.972745 2.932177 2.891891 2.851886 2.812164 2.772724 2.733567 2.694691 2.656097 2.617786 2.579757 2.542009 2.504544 2.467361 2.430461 2.393842 2.357505 2.321451 2.285678 2.250188 2.214979 2.180053 2.145409 2.111047 2.076968 2.043170 2.009655 1.976421 1.943470 1.910800 1.878413 1.846308 1.814485 1.782945 1.751686 1.720709 1.690015 1.659603 1.629472 1.599624 1.570058 1.540775 1.579176 1.632296 1.571177 0.847872 0.616097 0.476983 0.403439 0.304912 0.236910 0.208732 -0.043333 0.226119 0.094539 -0.017291 -0.087758 -0.230327 -0.134143 -0.038144 -0.093788 -0.060580 0.047524 0.051943 0.245343 0.114759 0.366382 0.469047 0.516592 0.788648 0.680781 0.710813 0.819272 0.795515 0.860975 0.921044 0.857335 0.881940 0.728495 0.777199 0.846550 0.701350 0.603325 0.429255 0.431453 0.312053 0.200222 0.191715 0.107646 0.207282 0.119811 0.203814 0.103621 0.213082 0.222153 0.421049 0.387658 0.550102 0.585294 0.592021 0.702417 0.591798 0.545975 0.450202 0.406372 0.267836 0.250125 0.076812 0.135182 -0.040649 0.027930 -0.030089 -0.054867 -0.079471 0.007839 0.236911 0.277457 0.330933 0.264704 0.353449 0.357090 0.378814 0.358451 0.339919 0.304753 0.102070 0.049909 0.053489 -0.037319 -0.153331 -0.081102 -0.066732 0.022848 0.058394 0.126924 0.185928 0.204800 0.297565 0.388818 0.250957 0.352548 0.206770 0.147180 0.055765 0.023282 -0.001079 0.055607 0.064922 0.080708 0.114963 0.161102 0.228169 0.288744 0.253173 0.197030 0.245426 0.216977 0.102720 0.035848 0.058778 0.014692 0.003343 -0.047036 0.027771 0.159962 0.201552 0.175291 0.281390 0.184944 0.196878 0.072561 0.063412 0.030683 -0.002356 -0.015018 -0.009128 0.049088 0.099498 0.111403 0.160522 0.138139 0.226739 0.147760 0.078292 0.097962 0.031479 -0.040742 -0.010115 0.036278 0.080867 0.066273 0.059563 0.145992 0.105763 0.153808 0.042994 0.039876 0.048703 0.046012 0.027187 -0.009917 0.041664 0.061485 0.092683 0.098804 0.080195 0.116752 0.114964 0.077547 0.006443 -0.016316 0.004741 0.069277 0.090561 0.086013 0.081491 0.053348 0.089588 0.062770 0.038661 0.057396 -0.004140 0.006584 0.071073 0.039864 0.041297 0.087674 0.088055 0.044351 0.067850 0.025289 0.017422 0.021949 0.055810 0.031825 0.033073 0.078073 0.083872 0.049743 -0.002053 0.001840 -0.019566 0.051823 0.005312 0.014649 0.074827 0.041956 0.009065 0.021022 -0.016018 -0.002422 -0.029728 0.015141 0.038434 0.064002 0.037751 0.039013 0.016338 0.011885 0.063799 0.018054 0.027849 0.019259 -0.005579 0.018826 -0.038079 -0.035342 -0.037059 -0.011077 -0.070642 0.017656 0.021215 -0.010296 -0.008835 0.002225 -0.006149 0.025182 -0.001362 -0.012562 0.019648 0.036989 0.012487 0.052133 -0.006414 0.007761 0.017009 -0.007920 0.019010 0.000712 0.095467 0.020017 0.010309 0.004844 -0.005258 -0.022232 0.013850 0.069366 0.023091 0.028901 -0.028167 -0.020768 -0.018957 0.078613 0.006073 -0.025049 0.070701 0.045557 -0.009789 -0.007793 -0.002926 0.027343 0.043140 0.041172 0.117090 0.040721 0.067914 0.046469 -0.005705 0.040175 0.026028 0.000727 0.040168 0.066069 0.010387 -0.056122 0.021946 0.045121 0.057017 -0.011294 0.008246 -0.036400 -0.006345 -0.010776 -0.043507 0.013819 -0.067816 0.053168 0.013841 0.049402 -0.076279 0.080278 0.047965 0.007783 -0.023454 0.110261 0.018187 -0.055155 -0.156124 0.166354 0.337718 0.336116 0.135457 0.199313 -0.563436
0.072396 0.073047 0.074998 0.078250 0.082801 0.088650 0.095794 0.104231 0.113957 0.124966 0.137253 0.150808 0.165621 0.181680 0.198969 0.217470 0.237161 0.258016 0.280003 0.303088 0.327230 0.352381 0.378488 0.405490 0.433318 0.461897 0.491141 0.520956 0.551237 0.581869 0.612729 0.643681 0.674577 0.705260 0.735560 0.765295 0.794274 0.822293 0.849137 0.874583 0.898396 0.920336 0.940153 0.957591 0.972392 0.984293 0.993032 0.998350 0.999990 0.997704 0.991253 0.980415 0.964982 0.944767 0.919612 0.889382 0.853981 0.813347 0.767460 0.716347 0.660085 0.598804 0.532691 0.461994 0.387025 0.308160 0.225845 0.140590 0.052975 0.036354 0.126688 0.217254 0.307225 0.395724 0.481829 0.564585 0.643012 0.716117 0.782908 0.842407 0.893664 0.935779 0.967912 0.989305 0.999299 0.997353 0.983061 0.956171 0.916597 0.864438 0.799987 0.723743 0.636418 0.538936 0.432440 0.318282 0.198014 0.073376 0.053726 0.181244 0.307014 0.428798 0.544317 0.651296 0.747515 0.830853 0.899345 0.951232 0.985012 0.999494 0.993841 0.967614 0.920806 0.853872 0.767745 0.663840 0.544058 0.410757 0.266731 0.115154 0.040473 0.196398 0.348703 0.493401 0.626542 0.744326 0.843221 0.920075 0.972236 0.997651 0.994966 0.963603 0.903822 0.816756 0.704421 0.569703 0.416305 0.248668 0.071867 0.108538 0.286659 0.456474 0.612028 0.747654 0.858186 0.939180 0.987108 0.999539 0.975285 0.914504 0.818761 0.691030 0.535646 0.358189 0.165316 0.035468 0.236083 0.428196 0.603565 0.754398 0.873727 0.955749 0.996138 0.992313 0.943629 0.851494 0.719390 0.552795 0.359006 0.146852 0.073671 0.291855 0.496790 0.677922 0.825604 0.931646 0.989803 0.996190 0.949586 0.851610 0.706742 0.522183 0.307564 0.074482 0.164089 0.394501 0.603211 0.777588 0.906713 0.982106 0.998333 0.953465 0.849325 0.691510 0.489179 0.254578 0.002370 0.251254 0.489596 0.696551 0.857730 0.961498 0.999879 0.969247 0.870724 0.710277 0.498446 0.249743 0.018281 0.286222 0.534220 0.743436 0.897518 0.983939 0.995098 0.929079 0.789985 0.587809 0.337827 0.059526 0.224850 0.492051 0.719723 0.888317 0.982832 0.994248 0.920481 0.766791 0.545545 0.275344 0.020444 0.315655 0.583598 0.799498 0.942847 0.999429 0.962854 0.835394 0.628028 0.359640 0.055411 0.255442 0.542455 0.776889 0.934685 0.999012 0.962206 0.826813 0.605615 0.320595 0.000868 0.320182 0.608379 0.832397 0.967240 0.997164 0.917658 0.736260 0.472041 0.153766 0.183118 0.500342 0.761182 0.934759 0.999811 0.947463 0.782611 0.523697 0.200842 0.147520 0.479108 0.752941 0.934448 0.999963 0.939990 0.760771 0.483891 0.143884 0.215916 0.548818 0.810833 0.966571 0.994181 0.888618 0.662747 0.346027 0.019113 0.382842 0.694649 0.910418 0.998808 0.945996 0.758089 0.460709 0.095758 0.284308 0.623946 0.872640 0.992554 0.964487 0.791206 0.497541 0.127092 0.264023 0.615580 0.872532 0.993746 0.958828 0.771816 0.461103 0.075407 0.323654 0.671297 0.910143 0.999835 0.924110 0.694062 0.346860 0.059935 0.457761 0.778508 0.966286 0.987384 0.836612 0.538824 0.145201 0.275318 0.647923 0.905306 0.999948 0.913210 0.659341 0.283541 0.145764 0.549154 0.850918 0.993350 0.948100 0.722157 0.357254 0.077498 0.498419 0.823344 0.987747 0.957840 0.737911 0.370215 0.072722 0.502179 0.830916 0.991023 0.948240 0.709718 0.323328 0.131540 0.560000 0.871452 0.998869 0.913571 0.632130 0.213653 0.252225 0.664313
1.000000 1.000000 1.000000 1.000000 1.000000 1.000000 1.000000 1.000000 1.000000 1.000000 1.000000 1.000000 1.000000 1.000000 1.000000 1.000000 1.000000 1.000000 1.000000 1.000000 1.000000 1.000000 1.000000 1.000000 1.000000 1.000000 1.000000 1.000000 1.000000 1.000000 1.000000 1.000000 1.000000 1.000000 1.000000 1.000000 1.000000 1.000000 1.000000 1.000000 1.000000 1.000000 1.000000 1.000000 1.000000 1.000000 1.000000 1.000000 1.000000 1.000000 1.000000 1.000000 0.923642 0.923642 0.923642 0.923642 0.923642 0.923642 0.923642 0.923642 0.923642 0.923642 0.923642 0.923642 0.923642 0.923642 0.923642 0.923642 0.923642 0.923642 0.923642 0.923642 0.923642 0.923642 0.923642 0.923642 0.923642 0.923642 0.923642 0.923642 0.923642 0.923642 0.923642 0.923642 0.923642 0.913418 0.911502 0.912667 0.911233 0.909755 0.909168 0.908779 0.909821 0.911428 0.913497 0.935116 0.936948 0.938223 0.939549 0.941123 0.943360 0.941175 0.945128 0.951138 0.950012 0.951329 0.951579 0.952148 0.951514 0.950789 0.953053 0.952252 0.950582 0.948592 0.946920 0.946367 0.946142 0.949782 0.950266 0.950435 0.951023 0.950972 0.951689 0.949584 0.947951 0.950244 0.931724 0.929958 0.934818 0.932202 0.933106 0.933075 0.933737 0.934647 0.935062 0.935342 0.931927 0.931366 0.930214 0.924477 0.916998 0.917312 0.919404 0.921592 0.918973 0.917898 0.919139 0.919949 0.917596 0.920544 0.913276 0.910765 0.886345 0.873537 0.867901 0.868662 0.873741 0.877731 0.875513 0.871656 0.865200 0.862826 0.861130 0.862669 0.852642 0.854308 0.853624 0.847291 0.850060 0.852836 0.858272 0.857696 0.854016 0.848882 0.842127 0.827692 0.827729 0.827954 0.831694 0.812179 0.795822 0.828750 0.823090 0.819611 0.826983 0.828769 0.826603 0.825024 0.825389 0.823373 0.815428 0.806388 0.810091 0.819233 0.823708 0.816043 0.811445 0.813261 0.813087 0.808944 0.813867 0.816380 0.813121 0.803938 0.819320 0.800910 0.815879 0.816360 0.794027 0.779557 0.766711 0.773398 0.780244 0.768229 0.769055 0.781141 0.780985 0.777425 0.767901 0.740881 0.748240 0.746291 0.738566 0.729862 0.736216 0.728359 0.727561 0.727557 0.732082 0.731630 0.709440 0.723486 0.729986 0.730527 0.741351 0.742096 0.734058 0.737327 0.742414 0.729313 0.724250 0.705581 0.708077 0.641479 0.635047 0.613929 0.609660 0.605284 0.549732 0.550826 0.534573 0.518906 0.517604 0.484786 0.526303 0.427331 0.421178 0.437676 0.377673 0.372529 0.392538 0.393533 0.409312 0.381370 0.380095 0.387309 0.363508 0.335198 0.311555 0.335155 0.343339 0.335709 0.337651 0.307720 0.300683 0.250179 0.268379 0.272717 0.298819 0.296672 0.282344 0.300730 0.353971 0.288235 0.274873 0.252754 0.279099 0.282496 0.267579 0.258246 0.285233 0.229551 0.248228 0.252767 0.254301 0.311460 0.336479 0.337670 0.333388 0.341607 0.371052 0.338427 0.345148 0.358880 0.350674 0.367879 0.370782 0.383858 0.386577 0.431288 0.454595 0.460908 0.471612 0.487351 0.487582 0.465119 0.472215 0.428028 0.453432 0.430714 0.439453 0.400633 0.386355 0.384247 0.348973 0.305951 0.306836 0.302350 0.257218 0.257060 0.246379 0.212887 0.212435 0.224815 0.235026 0.204654 0.211401 0.223730 0.223730 0.223730 0.223730 0.223730 0.223730 0.223730 0.223730 0.223730 0.223730 0.223730 0.223730 0.223730 0.223730 0.243904 0.243904 0.243904 0.243904 0.243904 0.243904 0.243904 0.243904 0.243904 0.243904 0.243904 0.243904
0.000000 0.000000 0.000000 0.000000 0.000000 0.000000 0.000000 0.000000 0.000000 0.000000 0.000000 0.000000 0.000000 0.000000 0.000000 0.000000 0.000000 0.000000 0.000000 0.000000 0.000000 0.000000 0.000000 0.000000 0.000000 0.000000 0.000000 0.000000 0.000000 0.000000 0.000000 0.000000 0.000000 0.000000 0.000000 0.000000 0.000000 0.000000 0.000000 0.000000 0.000000 0.000000 0.000000 0.000000 0.000000 0.000000 0.000000 0.000000 0.000000 0.000000 0.000000 0.000000 0.209657 0.209657 0.209657 0.209657 0.209657 0.209657 0.209657 0.209657 0.209657 0.209657 0.209657 0.209657 0.209657 0.209657 0.209657 0.209657 0.209657 0.209657 0.209657 0.209657 0.209657 0.209657 0.209657 0.209657 0.209657 0.209657 0.209657 0.209657 0.209657 0.209657 0.209657 0.209657 0.209657 0.244339 0.244339 0.244339 0.244339 0.244339 0.244339 0.244339 0.244339 0.244339 0.244339 0.244339 0.244339 0.244339 0.244339 0.244339 0.244339 0.244339 0.244339 0.244339 0.244339 0.244339 0.244339 0.244339 0.244339 0.244339 0.260378 0.260378 0.260378 0.260378 0.260378 0.260378 0.260378 0.260378 0.260378 0.260378 0.260378 0.260378 0.260378 0.260378 0.260378 0.260378 0.260378 0.260378 0.260378 0.260378 0.269680 0.269680 0.269680 0.269680 0.269680 0.269680 0.269680 0.269680 0.269680 0.269680 0.269680 0.269680 0.269680 0.269680 0.269680 0.269680 0.269680 0.269680 0.269680 0.269680 0.269680 0.269680 0.269680 0.269680 0.269680 0.269680 0.269680 0.269680 0.269680 0.269680 0.269680 0.269680 0.269680 0.280056 0.280056 0.280056 0.280056 0.280056 0.280056 0.280056 0.280056 0.280056 0.280056 0.280056 0.280056 0.280056 0.280056 0.280056 0.280056 0.280056 0.280056 0.280056 0.280056 0.280056 0.280056 0.280056 0.280056 0.280056 0.280056 0.280056 0.274721 0.274721 0.274721 0.274721 0.274721 0.274721 0.274721 0.274721 0.274721 0.274721 0.274721 0.274721 0.274721 0.285714 0.285714 0.285714 0.285714 0.285714 0.285714 0.285714 0.285714 0.285714 0.285714 0.285714 0.280056 0.280056 0.280056 0.280056 0.280056 0.280056 0.280056 0.280056 0.280056 0.280056 0.280056 0.274721 0.274721 0.274721 0.274721 0.274721 0.274721 0.274721 0.274721 0.274721 0.274721 0.274721 0.280056 0.280056 0.280056 0.280056 0.280056 0.280056 0.280056 0.280056 0.280056 0.280056 0.285714 0.285714 0.285714 0.285714 0.285714 0.285714 0.285714 0.285714 0.285714 0.269680 0.269680 0.269680 0.269680 0.269680 0.269680 0.269680 0.269680 0.269680 0.269680 0.274721 0.274721 0.274721 0.274721 0.274721 0.274721 0.274721 0.274721 0.274721 0.285714 0.285714 0.285714 0.285714 0.285714 0.285714 0.285714 0.285714 0.264906 0.264906 0.264906 0.264906 0.264906 0.264906 0.264906 0.264906 0.264906 0.274721 0.274721 0.274721 0.274721 0.274721 0.274721 0.274721 0.274721 0.269680 0.269680 0.269680 0.269680 0.269680 0.269680 0.269680 0.269680 0.269680 0.269680 0.269680 0.269680 0.269680 0.269680 0.269680 0.269680 0.280056 0.280056 0.280056 0.280056 0.280056 0.280056 0.280056 0.260378 0.260378 0.260378 0.260378 0.260378 0.260378 0.260378 0.260378 0.269680 0.269680 0.269680 0.269680 0.269680 0.269680 0.269680 0.264906 0.264906 0.264906 0.264906 0.264906 0.264906 0.264906 0.264906 0.264906 0.264906 0.264906 0.264906 0.264906 0.264906 0.260378 0.260378 0.260378 0.260378 0.260378 0.260378 0.260378 0.260378 0.260378 0.260378 0.260378 0.260378
