# Output from CTFFind version 4.1.9, run on 2019-11-03 20:07:17
# Input file: stack16_bm3d_averaged_1_6.0_0_1250_half.mrc ; Number of micrographs: 1
# Pixel size: 3.000 Angstroms ; acceleration voltage: 300.0 keV ; spherical aberration: 0.00 mm ; amplitude contrast: 0.07
# Box size: 512 pixels ; min. res.: 30.0 Angstroms ; max. res.: 5.0 Angstroms ; min. def.: 5000.0 um; max. def. 50000.0 um; num. frames averaged: 1
# 6 lines per micrograph: #1 - spatial frequency (1/Angstroms); #2 - 1D rotational average of spectrum (assuming no astigmatism); #3 - 1D rotational average of spectrum; #4 - CTF fit; #5 - cross-correlation between spectrum and CTF fit; #6 - 2sigma of expected cross correlation of noise
0.000000 0.000651 0.001302 0.001953 0.002604 0.003255 0.003906 0.004557 0.005208 0.005859 0.006510 0.007161 0.007812 0.008464 0.009115 0.009766 0.010417 0.011068 0.011719 0.012370 0.013021 0.013672 0.014323 0.014974 0.015625 0.016276 0.016927 0.017578 0.018229 0.018880 0.019531 0.020182 0.020833 0.021484 0.022135 0.022786 0.023438 0.024089 0.024740 0.025391 0.026042 0.026693 0.027344 0.027995 0.028646 0.029297 0.029948 0.030599 0.031250 0.031901 0.032552 0.033203 0.033854 0.034505 0.035156 0.035807 0.036458 0.037109 0.037760 0.038411 0.039062 0.039714 0.040365 0.041016 0.041667 0.042318 0.042969 0.043620 0.044271 0.044922 0.045573 0.046224 0.046875 0.047526 0.048177 0.048828 0.049479 0.050130 0.050781 0.051432 0.052083 0.052734 0.053385 0.054036 0.054688 0.055339 0.055990 0.056641 0.057292 0.057943 0.058594 0.059245 0.059896 0.060547 0.061198 0.061849 0.062500 0.063151 0.063802 0.064453 0.065104 0.065755 0.066406 0.067057 0.067708 0.068359 0.069010 0.069661 0.070312 0.070964 0.071615 0.072266 0.072917 0.073568 0.074219 0.074870 0.075521 0.076172 0.076823 0.077474 0.078125 0.078776 0.079427 0.080078 0.080729 0.081380 0.082031 0.082682 0.083333 0.083984 0.084635 0.085286 0.085938 0.086589 0.087240 0.087891 0.088542 0.089193 0.089844 0.090495 0.091146 0.091797 0.092448 0.093099 0.093750 0.094401 0.095052 0.095703 0.096354 0.097005 0.097656 0.098307 0.098958 0.099609 0.100260 0.100911 0.101562 0.102214 0.102865 0.103516 0.104167 0.104818 0.105469 0.106120 0.106771 0.107422 0.108073 0.108724 0.109375 0.110026 0.110677 0.111328 0.111979 0.112630 0.113281 0.113932 0.114583 0.115234 0.115885 0.116536 0.117188 0.117839 0.118490 0.119141 0.119792 0.120443 0.121094 0.121745 0.122396 0.123047 0.123698 0.124349 0.125000 0.125651 0.126302 0.126953 0.127604 0.128255 0.128906 0.129557 0.130208 0.130859 0.131510 0.132161 0.132812 0.133464 0.134115 0.134766 0.135417 0.136068 0.136719 0.137370 0.138021 0.138672 0.139323 0.139974 0.140625 0.141276 0.141927 0.142578 0.143229 0.143880 0.144531 0.145182 0.145833 0.146484 0.147135 0.147786 0.148438 0.149089 0.149740 0.150391 0.151042 0.151693 0.152344 0.152995 0.153646 0.154297 0.154948 0.155599 0.156250 0.156901 0.157552 0.158203 0.158854 0.159505 0.160156 0.160807 0.161458 0.162109 0.162760 0.163411 0.164062 0.164714 0.165365 0.166016 0.166667 0.167318 0.167969 0.168620 0.169271 0.169922 0.170573 0.171224 0.171875 0.172526 0.173177 0.173828 0.174479 0.175130 0.175781 0.176432 0.177083 0.177734 0.178385 0.179036 0.179688 0.180339 0.180990 0.181641 0.182292 0.182943 0.183594 0.184245 0.184896 0.185547 0.186198 0.186849 0.187500 0.188151 0.188802 0.189453 0.190104 0.190755 0.191406 0.192057 0.192708 0.193359 0.194010 0.194661 0.195312 0.195964 0.196615 0.197266 0.197917 0.198568 0.199219 0.199870 0.200521 0.201172 0.201823 0.202474 0.203125 0.203776 0.204427 0.205078 0.205729 0.206380 0.207031 0.207682 0.208333 0.208984 0.209635 0.210286 0.210938 0.211589 0.212240 0.212891 0.213542 0.214193 0.214844 0.215495 0.216146 0.216797 0.217448 0.218099 0.218750 0.219401 0.220052 0.220703 0.221354 0.222005 0.222656 0.223307 0.223958 0.224609 0.225260 0.225911 0.226562 0.227214 0.227865 0.228516 0.229167 0.229818 0.230469 0.231120 0.231771 0.232422 0.233073 0.233724 0.234375 0.235026 0.235677
       0.34551        0.34551        0.34551        0.34551        0.34551        0.34551        0.34551        0.34551        0.34551        0.34551        0.34551        0.34551        0.34551        0.34551        0.34551        0.34551        0.34551        0.34551        0.34551        0.34551        0.34551        0.34551        0.34551        0.34551        0.34551        0.34551        0.34551        0.34551        0.34551        0.34551        0.34551        0.34551        0.34551        0.34551        0.34551        0.34551        0.34551        0.34551        0.34551        0.34551        0.34551        0.34551        0.34551        0.34551        0.34551        0.34551        0.34551        0.34551        0.34551        0.34551        0.34551        0.42559        0.55603        0.34188       -0.21431       -0.45443       -0.54830       -0.64862       -0.71863       -0.72662       -0.82176       -0.89409       -0.68710       -0.84301       -0.82461       -0.96926       -1.00701       -0.88841       -0.84734       -0.80297       -0.71784       -0.64839       -0.55967       -0.46556       -0.40011       -0.17150       -0.06891        0.03188        0.25442        0.25532        0.31224        0.36996        0.40007        0.51700        0.53641        0.57202        0.53197        0.47197        0.50509        0.52358        0.44586        0.32932        0.21134        0.17832        0.10936        0.00539       -0.01085       -0.01959        0.05309        0.01942        0.07143        0.04519        0.16084        0.19354        0.40618        0.45820        0.54842        0.65725        0.68740        0.71316        0.63537        0.61070        0.53747        0.43847        0.38619        0.27343        0.21545        0.21038        0.09905        0.10726        0.10323        0.08354        0.09395        0.30404        0.41364        0.52026        0.53234        0.57000        0.60748        0.58699        0.57354        0.58209        0.56529        0.46481        0.30303        0.26280        0.25145        0.14618        0.08843        0.16506        0.20219        0.28254        0.35168        0.42411        0.47115        0.52931        0.60031        0.54439        0.50587        0.49950        0.35418        0.27139        0.25693        0.17330        0.19186        0.23109        0.27252        0.28013        0.32338        0.42560        0.45969        0.49825        0.45119        0.44165        0.48406        0.39087        0.32792        0.28500        0.25652        0.22986        0.22767        0.23699        0.33479        0.44130        0.42912        0.48827        0.55250        0.44532        0.41068        0.35467        0.31178        0.26753        0.27893        0.26863        0.28707        0.34462        0.35347        0.43360        0.47142        0.43714        0.45808        0.37279        0.37685        0.35340        0.26799        0.24956        0.24679        0.32640        0.37725        0.36457        0.38841        0.43185        0.43916        0.37416        0.33758        0.31934        0.34937        0.31170        0.27918        0.28180        0.35260        0.36989        0.38655        0.38724        0.38736        0.41630        0.40172        0.32010        0.28744        0.31351        0.34154        0.37423        0.35838        0.40254        0.34171        0.36917        0.39087        0.33517        0.35282        0.31865        0.29899        0.33620        0.34044        0.32671        0.35198        0.36994        0.32567        0.34533        0.31835        0.31460        0.29283        0.31799        0.31517        0.32617        0.36451        0.36978        0.35189        0.30682        0.29724        0.28469        0.32777        0.30965        0.31309        0.36833        0.35697        0.33992        0.31301        0.30339        0.30906        0.27402        0.31194        0.32597        0.33480        0.36892        0.34764        0.30751        0.33363        0.34300        0.32733        0.35424        0.34441        0.31069        0.33163        0.29068        0.32089        0.29387        0.31204        0.28697        0.31932        0.35193        0.32906        0.35295        0.30976        0.32645        0.34897        0.33856        0.31417        0.31701        0.35651        0.33840        0.33412        0.32407        0.31048        0.31126        0.31284        0.32170        0.32026        0.35177        0.33840        0.33728        0.29177        0.28259        0.26639        0.26848        0.36067        0.30969        0.34459        0.29513        0.26077        0.27745        0.36189        0.30658        0.28166        0.30823        0.31523        0.29521        0.26451        0.30517        0.26950        0.28753        0.30434        0.33216        0.33270        0.31912        0.30555        0.26492        0.27136        0.26640        0.27253        0.29310        0.35892        0.29150        0.19796        0.30159        0.28484        0.32155        0.25013        0.29829        0.30054        0.33364        0.28993        0.27593        0.26529        0.24227        0.30030        0.34187        0.34174        0.24632        0.29236        0.23953        0.23155        0.21123        0.33138        0.25040        0.17498        0.12200        0.20878        0.32951        0.22704        0.19066        0.10785       -0.48670       -0.58954
3.173018 3.132855 3.092952 3.053309 3.013926 2.974804 2.935942 2.897341 2.858999 2.820918 2.783097 2.745537 2.708237 2.671197 2.634417 2.597897 2.561638 2.525640 2.489901 2.454423 2.419205 2.384247 2.349550 2.315113 2.280936 2.247019 2.213363 2.179967 2.146831 2.113956 2.081341 2.048986 2.016891 1.985057 1.953483 1.922169 1.891116 1.860323 1.829790 1.799517 1.769505 1.739753 1.710261 1.681030 1.652059 1.623348 1.594897 1.566707 1.538777 1.511107 1.483698 1.518697 1.598241 1.538317 0.843257 0.593551 0.454298 0.385869 0.290178 0.215284 0.181669 -0.051099 0.203663 0.069084 -0.031844 -0.112484 -0.239336 -0.145956 -0.057799 -0.093873 -0.075943 0.034511 0.031903 0.226012 0.106501 0.354503 0.461480 0.489479 0.765690 0.684223 0.692312 0.824730 0.796096 0.838152 0.922874 0.852986 0.888877 0.725474 0.790544 0.844467 0.684571 0.604366 0.436011 0.425762 0.337470 0.188682 0.184688 0.115269 0.208876 0.120137 0.209254 0.105330 0.217441 0.229545 0.442980 0.404611 0.575883 0.614900 0.643921 0.722167 0.608377 0.583503 0.460541 0.411948 0.291957 0.263631 0.095628 0.155646 -0.026525 0.038027 -0.032370 -0.041460 -0.052386 0.029545 0.270618 0.293954 0.363399 0.305427 0.388300 0.398797 0.423388 0.403591 0.358680 0.333140 0.125401 0.078595 0.064608 -0.017439 -0.152967 -0.047756 -0.066119 0.038524 0.080527 0.154501 0.220280 0.229531 0.319994 0.409084 0.292557 0.363770 0.237409 0.140628 0.066948 0.038401 0.002221 0.048415 0.071202 0.098897 0.117651 0.174927 0.240335 0.308173 0.273786 0.215202 0.255203 0.227097 0.110823 0.065485 0.051177 0.027730 0.007136 -0.015456 0.032014 0.169502 0.189597 0.192033 0.301478 0.188355 0.196721 0.076025 0.068397 0.006097 -0.007152 -0.000090 -0.007952 0.042792 0.063332 0.095918 0.156839 0.141822 0.221965 0.133091 0.077530 0.099707 0.045659 -0.054273 -0.022682 0.023695 0.062355 0.074548 0.069934 0.152107 0.120357 0.152130 0.036836 0.051965 0.045426 0.048739 0.026012 -0.021290 0.039693 0.047088 0.089370 0.101881 0.090410 0.110578 0.125391 0.078648 0.013728 -0.006425 0.027654 0.077899 0.068023 0.093011 0.088039 0.053579 0.107510 0.066560 0.042061 0.080172 -0.015939 0.016649 0.063573 0.038532 0.043416 0.062312 0.074506 0.050026 0.063820 0.014199 0.019785 0.002368 0.052058 0.006458 0.043143 0.067669 0.076830 0.041599 -0.007525 -0.004355 -0.019004 0.038723 0.000331 0.013061 0.071456 0.051705 -0.001213 0.009808 -0.014397 0.008837 -0.042481 0.002913 0.008885 0.036525 0.048573 0.023239 -0.011703 0.005239 0.021809 0.004064 0.039916 0.011820 -0.017420 0.022229 -0.043690 -0.023779 -0.054401 -0.012421 -0.056681 0.009902 0.017953 -0.001756 -0.004969 -0.005510 0.001592 0.026082 0.020029 -0.011863 0.004228 0.025807 0.038826 0.019041 0.009769 0.022714 -0.000481 -0.002217 0.018349 -0.004949 0.086117 0.047587 0.032854 0.002008 -0.010347 -0.033705 -0.000036 0.083759 -0.008327 0.066951 -0.023187 -0.024615 -0.020748 0.095520 -0.000364 -0.020894 0.048577 0.049100 0.010383 0.005084 0.024499 0.003686 0.030054 0.035875 0.075515 0.063496 0.048821 0.039016 -0.005636 0.007864 -0.006667 -0.009783 0.008948 0.101594 -0.020776 -0.093564 0.050192 -0.004098 0.055378 -0.057242 0.001356 0.010869 0.024715 0.002844 -0.019695 -0.021258 -0.071337 0.036743 0.049473 0.059623 -0.124685 0.008353 -0.012243 -0.010910 -0.112119 0.103465 0.016408 -0.037073 -0.094330 0.187528 0.277724 0.160244 0.142801 0.110678 -0.561510
0.072396 0.073047 0.074998 0.078249 0.082800 0.088648 0.095792 0.104228 0.113953 0.124961 0.137246 0.150799 0.165611 0.181668 0.198956 0.217455 0.237144 0.257996 0.279981 0.303064 0.327203 0.352352 0.378456 0.405456 0.433282 0.461858 0.491100 0.520912 0.551190 0.581821 0.612679 0.643629 0.674524 0.705206 0.735505 0.765239 0.794218 0.822237 0.849083 0.874530 0.898347 0.920290 0.940110 0.957553 0.972360 0.984267 0.993015 0.998341 0.999991 0.997715 0.991277 0.980451 0.965032 0.944833 0.919693 0.889480 0.854097 0.813481 0.767613 0.716520 0.660277 0.599015 0.532921 0.462243 0.387292 0.308445 0.226145 0.140905 0.053302 0.036017 0.126343 0.216905 0.306876 0.395377 0.481489 0.564256 0.642698 0.715824 0.782640 0.842168 0.893461 0.935615 0.967792 0.989233 0.999280 0.997390 0.983157 0.956328 0.916816 0.864720 0.800332 0.724148 0.636880 0.539452 0.433005 0.318888 0.198654 0.074041 0.053047 0.180561 0.306340 0.428145 0.543698 0.650726 0.747006 0.830418 0.898997 0.950981 0.984869 0.999467 0.993936 0.967834 0.921153 0.854343 0.768334 0.664541 0.544858 0.411642 0.267682 0.116150 0.039454 0.195382 0.347714 0.492468 0.625692 0.743586 0.842616 0.919627 0.971964 0.997569 0.995085 0.963928 0.904350 0.817479 0.705324 0.570764 0.417496 0.249957 0.073213 0.107177 0.285328 0.455220 0.610897 0.746690 0.857431 0.938667 0.986865 0.999584 0.975626 0.915139 0.819675 0.692197 0.537028 0.359738 0.166973 0.033767 0.234408 0.426619 0.602153 0.753220 0.872844 0.955207 0.995973 0.992544 0.944258 0.852504 0.720745 0.554442 0.360871 0.148853 0.071628 0.289871 0.494969 0.676361 0.824392 0.930855 0.989488 0.996381 0.950288 0.852799 0.708365 0.524163 0.309798 0.076848 0.161722 0.392272 0.601253 0.776028 0.905654 0.981626 0.998477 0.954242 0.850701 0.693415 0.491503 0.257181 0.005092 0.248591 0.487171 0.694535 0.856270 0.960707 0.999830 0.969961 0.872171 0.712370 0.501051 0.252682 0.015214 0.283254 0.531577 0.741323 0.896109 0.983359 0.995414 0.930286 0.792008 0.590506 0.340995 0.062919 0.221505 0.489034 0.717293 0.886693 0.982170 0.994626 0.921889 0.769129 0.548629 0.278917 0.016699 0.312066 0.580496 0.797182 0.941547 0.999289 0.963911 0.837574 0.631148 0.363413 0.059485 0.251460 0.538964 0.774250 0.933177 0.998814 0.963364 0.829236 0.609079 0.324754 0.005297 0.315950 0.604803 0.829875 0.966069 0.997500 0.919494 0.739420 0.476193 0.158460 0.178406 0.496154 0.758019 0.933006 0.999702 0.949042 0.785722 0.527994 0.205824 0.142443 0.474564 0.749504 0.932568 0.999904 0.941791 0.764236 0.488607 0.149261 0.210564 0.544198 0.807567 0.965121 0.994772 0.891207 0.667015 0.351422 0.013319 0.377444 0.690408 0.907955 0.998499 0.947924 0.762016 0.466101 0.101855 0.278389 0.619081 0.869571 0.991768 0.966142 0.795091 0.503100 0.133502 0.257740 0.610408 0.869293 0.992984 0.960702 0.776075 0.467097 0.082195 0.317160 0.666166 0.907245 0.999683 0.926775 0.699136 0.353535 0.052782 0.451339 0.773929 0.964380 0.988521 0.840639 0.545076 0.152602 0.268071 0.642134 0.902039 0.999841 0.916329 0.665160 0.291017 0.137985 0.542531 0.846711 0.992397 0.950627 0.727732 0.364845 0.069326 0.491259 0.818613 0.986411 0.960215 0.743574 0.378083 0.064204 0.494738 0.826084 0.989824 0.950976 0.715877 0.331668 0.122732 0.552576 0.867012 0.998399 0.917229 0.639180 0.222618 0.243281 0.657344
1.000000 1.000000 1.000000 1.000000 1.000000 1.000000 1.000000 1.000000 1.000000 1.000000 1.000000 1.000000 1.000000 1.000000 1.000000 1.000000 1.000000 1.000000 1.000000 1.000000 1.000000 1.000000 1.000000 1.000000 1.000000 1.000000 1.000000 1.000000 1.000000 1.000000 1.000000 1.000000 1.000000 1.000000 1.000000 1.000000 1.000000 1.000000 1.000000 1.000000 1.000000 1.000000 1.000000 1.000000 1.000000 1.000000 1.000000 1.000000 1.000000 1.000000 1.000000 1.000000 0.923127 0.923127 0.923127 0.923127 0.923127 0.923127 0.923127 0.923127 0.923127 0.923127 0.923127 0.923127 0.923127 0.923127 0.923127 0.923127 0.923127 0.923127 0.923127 0.923127 0.923127 0.923127 0.923127 0.923127 0.923127 0.923127 0.923127 0.923127 0.923127 0.923127 0.923127 0.923127 0.923127 0.913230 0.911337 0.912493 0.911041 0.909593 0.909004 0.908611 0.909650 0.911252 0.913330 0.934970 0.938074 0.939318 0.940644 0.942018 0.944303 0.942139 0.949707 0.956210 0.955144 0.956282 0.950109 0.951524 0.950864 0.950123 0.951470 0.951606 0.949905 0.947880 0.946298 0.945744 0.945431 0.949013 0.949610 0.949763 0.950358 0.950302 0.951019 0.951621 0.949762 0.952023 0.944129 0.942793 0.948063 0.945973 0.947344 0.947305 0.947994 0.948796 0.949116 0.949388 0.946383 0.945929 0.945054 0.937101 0.930155 0.929863 0.932315 0.935512 0.933008 0.929679 0.930891 0.933096 0.932368 0.935972 0.926721 0.922469 0.897470 0.884751 0.874269 0.874540 0.878097 0.880641 0.878320 0.871250 0.861968 0.858224 0.858093 0.854126 0.846440 0.862285 0.856548 0.854155 0.857967 0.861120 0.866511 0.864038 0.859584 0.854909 0.850321 0.841838 0.843396 0.847327 0.851475 0.834789 0.825199 0.842274 0.832686 0.823482 0.831177 0.833137 0.830117 0.828869 0.829321 0.827551 0.821150 0.814717 0.818296 0.827219 0.827166 0.816485 0.813524 0.810300 0.809853 0.804024 0.808513 0.809412 0.805826 0.798768 0.815687 0.781847 0.804296 0.804668 0.789091 0.773101 0.761178 0.770637 0.781188 0.782742 0.775584 0.776142 0.775686 0.767143 0.739567 0.738078 0.744939 0.743317 0.731004 0.714759 0.721754 0.724815 0.721017 0.717285 0.720299 0.721046 0.696139 0.709655 0.713793 0.701874 0.716378 0.718636 0.709442 0.711978 0.715060 0.718200 0.713175 0.676112 0.679414 0.659969 0.653397 0.607411 0.605982 0.603317 0.544219 0.549173 0.520587 0.505239 0.504841 0.483915 0.536384 0.472374 0.457726 0.488045 0.414279 0.348618 0.365285 0.365157 0.378680 0.385384 0.369574 0.370287 0.357083 0.337416 0.334639 0.358968 0.375755 0.341042 0.344831 0.332182 0.308645 0.272936 0.288780 0.292393 0.318943 0.321214 0.300533 0.326896 0.364216 0.304064 0.283298 0.262366 0.287419 0.300910 0.303246 0.292189 0.284110 0.256200 0.241782 0.265236 0.266015 0.287205 0.306881 0.334791 0.329374 0.332325 0.360947 0.312348 0.326169 0.328163 0.318207 0.335819 0.339278 0.342368 0.334338 0.356291 0.337904 0.350260 0.337431 0.327452 0.377969 0.358444 0.331278 0.319062 0.324644 0.324049 0.308775 0.256510 0.240246 0.237520 0.185941 0.155867 0.157893 0.158104 0.114759 0.096133 0.079527 0.041363 0.040428 0.045536 0.082216 0.052164 0.072390 0.075410 0.075410 0.075410 0.075410 0.075410 0.075410 0.075410 0.075410 0.075410 0.075410 0.075410 0.075410 0.075410 0.075410 0.098391 0.098391 0.098391 0.098391 0.098391 0.098391 0.098391 0.098391 0.098391 0.098391 0.098391 0.098391
0.000000 0.000000 0.000000 0.000000 0.000000 0.000000 0.000000 0.000000 0.000000 0.000000 0.000000 0.000000 0.000000 0.000000 0.000000 0.000000 0.000000 0.000000 0.000000 0.000000 0.000000 0.000000 0.000000 0.000000 0.000000 0.000000 0.000000 0.000000 0.000000 0.000000 0.000000 0.000000 0.000000 0.000000 0.000000 0.000000 0.000000 0.000000 0.000000 0.000000 0.000000 0.000000 0.000000 0.000000 0.000000 0.000000 0.000000 0.000000 0.000000 0.000000 0.000000 0.000000 0.209657 0.209657 0.209657 0.209657 0.209657 0.209657 0.209657 0.209657 0.209657 0.209657 0.209657 0.209657 0.209657 0.209657 0.209657 0.209657 0.209657 0.209657 0.209657 0.209657 0.209657 0.209657 0.209657 0.209657 0.209657 0.209657 0.209657 0.209657 0.209657 0.209657 0.209657 0.209657 0.209657 0.244339 0.244339 0.244339 0.244339 0.244339 0.244339 0.244339 0.244339 0.244339 0.244339 0.244339 0.244339 0.244339 0.244339 0.244339 0.244339 0.244339 0.244339 0.244339 0.244339 0.244339 0.244339 0.244339 0.244339 0.244339 0.260378 0.260378 0.260378 0.260378 0.260378 0.260378 0.260378 0.260378 0.260378 0.260378 0.260378 0.260378 0.260378 0.260378 0.260378 0.260378 0.260378 0.260378 0.260378 0.260378 0.269680 0.269680 0.269680 0.269680 0.269680 0.269680 0.269680 0.269680 0.269680 0.269680 0.269680 0.269680 0.269680 0.269680 0.269680 0.269680 0.269680 0.269680 0.269680 0.269680 0.269680 0.269680 0.269680 0.269680 0.269680 0.269680 0.269680 0.269680 0.269680 0.269680 0.269680 0.269680 0.269680 0.280056 0.280056 0.280056 0.280056 0.280056 0.280056 0.280056 0.280056 0.280056 0.280056 0.280056 0.280056 0.280056 0.280056 0.280056 0.280056 0.280056 0.280056 0.280056 0.280056 0.280056 0.280056 0.280056 0.280056 0.280056 0.280056 0.280056 0.274721 0.274721 0.274721 0.274721 0.274721 0.274721 0.274721 0.274721 0.274721 0.274721 0.274721 0.274721 0.274721 0.285714 0.285714 0.285714 0.285714 0.285714 0.285714 0.285714 0.285714 0.285714 0.285714 0.285714 0.280056 0.280056 0.280056 0.280056 0.280056 0.280056 0.280056 0.280056 0.280056 0.280056 0.280056 0.274721 0.274721 0.274721 0.274721 0.274721 0.274721 0.274721 0.274721 0.274721 0.274721 0.274721 0.280056 0.280056 0.280056 0.280056 0.280056 0.280056 0.280056 0.280056 0.280056 0.280056 0.285714 0.285714 0.285714 0.285714 0.285714 0.285714 0.285714 0.285714 0.285714 0.269680 0.269680 0.269680 0.269680 0.269680 0.269680 0.269680 0.269680 0.269680 0.269680 0.274721 0.274721 0.274721 0.274721 0.274721 0.274721 0.274721 0.274721 0.274721 0.285714 0.285714 0.285714 0.285714 0.285714 0.285714 0.285714 0.285714 0.264906 0.264906 0.264906 0.264906 0.264906 0.264906 0.264906 0.264906 0.264906 0.274721 0.274721 0.274721 0.274721 0.274721 0.274721 0.274721 0.274721 0.269680 0.269680 0.269680 0.269680 0.269680 0.269680 0.269680 0.269680 0.269680 0.269680 0.269680 0.269680 0.269680 0.269680 0.269680 0.269680 0.280056 0.280056 0.280056 0.280056 0.280056 0.280056 0.280056 0.260378 0.260378 0.260378 0.260378 0.260378 0.260378 0.260378 0.260378 0.269680 0.269680 0.269680 0.269680 0.269680 0.269680 0.269680 0.264906 0.264906 0.264906 0.264906 0.264906 0.264906 0.264906 0.264906 0.264906 0.264906 0.264906 0.264906 0.264906 0.264906 0.260378 0.260378 0.260378 0.260378 0.260378 0.260378 0.260378 0.260378 0.260378 0.260378 0.260378 0.260378
