# Output from CTFFind version 4.1.9, run on 2019-11-03 20:10:20
# Input file: stack1_bm3d_averaged_1_5.5_0_3000_half.mrc ; Number of micrographs: 1
# Pixel size: 3.000 Angstroms ; acceleration voltage: 300.0 keV ; spherical aberration: 0.00 mm ; amplitude contrast: 0.07
# Box size: 512 pixels ; min. res.: 30.0 Angstroms ; max. res.: 5.0 Angstroms ; min. def.: 5000.0 um; max. def. 50000.0 um; num. frames averaged: 1
# 6 lines per micrograph: #1 - spatial frequency (1/Angstroms); #2 - 1D rotational average of spectrum (assuming no astigmatism); #3 - 1D rotational average of spectrum; #4 - CTF fit; #5 - cross-correlation between spectrum and CTF fit; #6 - 2sigma of expected cross correlation of noise
0.000000 0.000651 0.001302 0.001953 0.002604 0.003255 0.003906 0.004557 0.005208 0.005859 0.006510 0.007161 0.007812 0.008464 0.009115 0.009766 0.010417 0.011068 0.011719 0.012370 0.013021 0.013672 0.014323 0.014974 0.015625 0.016276 0.016927 0.017578 0.018229 0.018880 0.019531 0.020182 0.020833 0.021484 0.022135 0.022786 0.023438 0.024089 0.024740 0.025391 0.026042 0.026693 0.027344 0.027995 0.028646 0.029297 0.029948 0.030599 0.031250 0.031901 0.032552 0.033203 0.033854 0.034505 0.035156 0.035807 0.036458 0.037109 0.037760 0.038411 0.039062 0.039714 0.040365 0.041016 0.041667 0.042318 0.042969 0.043620 0.044271 0.044922 0.045573 0.046224 0.046875 0.047526 0.048177 0.048828 0.049479 0.050130 0.050781 0.051432 0.052083 0.052734 0.053385 0.054036 0.054688 0.055339 0.055990 0.056641 0.057292 0.057943 0.058594 0.059245 0.059896 0.060547 0.061198 0.061849 0.062500 0.063151 0.063802 0.064453 0.065104 0.065755 0.066406 0.067057 0.067708 0.068359 0.069010 0.069661 0.070312 0.070964 0.071615 0.072266 0.072917 0.073568 0.074219 0.074870 0.075521 0.076172 0.076823 0.077474 0.078125 0.078776 0.079427 0.080078 0.080729 0.081380 0.082031 0.082682 0.083333 0.083984 0.084635 0.085286 0.085938 0.086589 0.087240 0.087891 0.088542 0.089193 0.089844 0.090495 0.091146 0.091797 0.092448 0.093099 0.093750 0.094401 0.095052 0.095703 0.096354 0.097005 0.097656 0.098307 0.098958 0.099609 0.100260 0.100911 0.101562 0.102214 0.102865 0.103516 0.104167 0.104818 0.105469 0.106120 0.106771 0.107422 0.108073 0.108724 0.109375 0.110026 0.110677 0.111328 0.111979 0.112630 0.113281 0.113932 0.114583 0.115234 0.115885 0.116536 0.117188 0.117839 0.118490 0.119141 0.119792 0.120443 0.121094 0.121745 0.122396 0.123047 0.123698 0.124349 0.125000 0.125651 0.126302 0.126953 0.127604 0.128255 0.128906 0.129557 0.130208 0.130859 0.131510 0.132161 0.132812 0.133464 0.134115 0.134766 0.135417 0.136068 0.136719 0.137370 0.138021 0.138672 0.139323 0.139974 0.140625 0.141276 0.141927 0.142578 0.143229 0.143880 0.144531 0.145182 0.145833 0.146484 0.147135 0.147786 0.148438 0.149089 0.149740 0.150391 0.151042 0.151693 0.152344 0.152995 0.153646 0.154297 0.154948 0.155599 0.156250 0.156901 0.157552 0.158203 0.158854 0.159505 0.160156 0.160807 0.161458 0.162109 0.162760 0.163411 0.164062 0.164714 0.165365 0.166016 0.166667 0.167318 0.167969 0.168620 0.169271 0.169922 0.170573 0.171224 0.171875 0.172526 0.173177 0.173828 0.174479 0.175130 0.175781 0.176432 0.177083 0.177734 0.178385 0.179036 0.179688 0.180339 0.180990 0.181641 0.182292 0.182943 0.183594 0.184245 0.184896 0.185547 0.186198 0.186849 0.187500 0.188151 0.188802 0.189453 0.190104 0.190755 0.191406 0.192057 0.192708 0.193359 0.194010 0.194661 0.195312 0.195964 0.196615 0.197266 0.197917 0.198568 0.199219 0.199870 0.200521 0.201172 0.201823 0.202474 0.203125 0.203776 0.204427 0.205078 0.205729 0.206380 0.207031 0.207682 0.208333 0.208984 0.209635 0.210286 0.210938 0.211589 0.212240 0.212891 0.213542 0.214193 0.214844 0.215495 0.216146 0.216797 0.217448 0.218099 0.218750 0.219401 0.220052 0.220703 0.221354 0.222005 0.222656 0.223307 0.223958 0.224609 0.225260 0.225911 0.226562 0.227214 0.227865 0.228516 0.229167 0.229818 0.230469 0.231120 0.231771 0.232422 0.233073 0.233724 0.234375 0.235026 0.235677
       0.34989        0.34989        0.34989        0.34989        0.34989        0.34989        0.34989        0.34989        0.34989        0.34989        0.34989        0.34989        0.34989        0.34989        0.34989        0.34989        0.34989        0.34989        0.34989        0.34989        0.34989        0.34989        0.34989        0.34989        0.34989        0.34989        0.34989        0.34989        0.34989        0.34989        0.34989        0.34989        0.34989        0.34989        0.34989        0.34989        0.34989        0.34989        0.34989        0.34989        0.34989        0.34989        0.34989        0.34989        0.34989        0.34989        0.34989        0.34989        0.34989        0.34989        0.34989        0.39613        0.57792        0.26939        0.11621       -0.01478       -0.27308       -0.10255       -0.17622       -0.21012        0.01681       -0.13406       -0.10856       -0.05788       -0.03764       -0.13017       -0.15703       -0.29198       -0.38759       -0.49562       -0.43542       -0.33438       -0.26572       -0.38188       -0.29481       -0.38851       -0.32941       -0.37380       -0.19286       -0.18938       -0.24980       -0.08162       -0.03328       -0.04325        0.08381        0.02964        0.20350        0.22546        0.33601        0.36477        0.44165        0.47676        0.53414        0.59837        0.65741        0.56078        0.51975        0.50617        0.47906        0.56457        0.47563        0.41954        0.40662        0.33375        0.28655        0.31071        0.32724        0.22627        0.19713        0.09677        0.13145        0.13820        0.16376        0.12932        0.19840        0.24669        0.29991        0.29928        0.33612        0.46324        0.41498        0.48509        0.63305        0.62032        0.55176        0.55031        0.58005        0.42610        0.48281        0.36996        0.31609        0.29181        0.25229        0.25457        0.18945        0.17261        0.14608        0.21953        0.25216        0.28028        0.34554        0.32239        0.41033        0.47177        0.46766        0.45175        0.48523        0.54914        0.49147        0.47310        0.42125        0.34835        0.33848        0.27106        0.30069        0.23524        0.22112        0.28694        0.23887        0.26265        0.32542        0.41964        0.41800        0.44386        0.42024        0.50080        0.49607        0.46829        0.44224        0.38885        0.38252        0.39977        0.40096        0.33608        0.28176        0.31525        0.29272        0.29395        0.29890        0.34130        0.36895        0.39182        0.45426        0.49195        0.40225        0.43206        0.43103        0.38709        0.32285        0.36675        0.32351        0.31620        0.33566        0.28390        0.25737        0.32076        0.33755        0.42463        0.42320        0.40930        0.40139        0.40169        0.37119        0.37140        0.31774        0.31841        0.34025        0.30818        0.30816        0.33832        0.35058        0.34780        0.35431        0.39259        0.38723        0.45488        0.39831        0.34267        0.36405        0.35008        0.33359        0.33024        0.33568        0.37717        0.33762        0.35869        0.35281        0.41729        0.37906        0.35935        0.37252        0.37784        0.36420        0.34065        0.33290        0.31091        0.34284        0.33014        0.31224        0.32493        0.35649        0.35511        0.34420        0.33652        0.30296        0.30176        0.28147        0.31664        0.32566        0.35288        0.33393        0.33015        0.37244        0.33276        0.33962        0.32564        0.29525        0.34450        0.31665        0.31885        0.33435        0.32306        0.31665        0.29999        0.34097        0.37012        0.32930        0.32091        0.31765        0.32912        0.29987        0.35119        0.32112        0.28169        0.32941        0.30222        0.34794        0.34908        0.38535        0.32050        0.31837        0.26834        0.33529        0.36790        0.34421        0.31129        0.31873        0.32641        0.32241        0.29600        0.31737        0.31067        0.30837        0.29667        0.29970        0.30911        0.29648        0.30104        0.31583        0.27116        0.31822        0.34790        0.36628        0.34814        0.31425        0.32409        0.28073        0.30463        0.29558        0.32687        0.34116        0.28022        0.26707        0.32581        0.34136        0.33003        0.28462        0.28489        0.32406        0.28772        0.30963        0.34882        0.34029        0.28875        0.25468        0.30757        0.33761        0.28690        0.25032        0.27158        0.26513        0.30682        0.35780        0.30448        0.34115        0.28318        0.27064        0.30732        0.29092        0.22491        0.25805        0.29678        0.25153        0.21828        0.24693        0.28789        0.41221        0.30134        0.25177        0.18982        0.24561        0.25966        0.25698        0.34655        0.20268        0.14153        0.27923        0.34487        0.29189        0.17384        0.04240       -0.59596       -1.09931
2.733823 2.705562 2.677451 2.649489 2.621677 2.594015 2.566502 2.539138 2.511925 2.484860 2.457946 2.431180 2.404565 2.378099 2.351782 2.325615 2.299598 2.273730 2.248011 2.222443 2.197023 2.171754 2.146633 2.121663 2.096842 2.072170 2.047648 2.023276 1.999053 1.974980 1.951056 1.927282 1.903657 1.880182 1.856857 1.833681 1.810654 1.787777 1.765050 1.742472 1.720044 1.697765 1.675636 1.653656 1.631826 1.610146 1.588615 1.567234 1.546002 1.524919 1.503987 1.456695 1.941992 1.484864 1.003337 0.816603 0.031754 0.665071 0.192470 0.375071 0.689736 0.433659 0.315078 0.547294 0.476815 0.387590 0.265148 0.032362 -0.220942 -0.398735 -0.385614 -0.328875 0.158188 -0.383321 -0.158598 -0.311450 -0.222497 -0.386960 -0.027122 -0.058494 -0.177072 0.071720 0.237571 0.098620 0.351531 0.250254 0.623697 0.496382 0.813480 0.760490 0.884317 1.104966 0.982427 1.240548 1.303238 1.151023 0.991753 0.993971 0.961049 0.991235 0.956194 0.795493 0.681322 0.626373 0.528819 0.476826 0.544414 0.365964 0.306497 0.109944 0.060573 0.122731 0.157990 0.074941 0.125644 0.256907 0.344803 0.355106 0.440079 0.469602 0.627985 0.434040 0.856456 0.971069 0.753085 0.714844 0.818000 0.544849 0.510816 0.481905 0.231638 0.253764 0.065265 0.194201 -0.028569 -0.014017 -0.108107 -0.090007 0.140581 0.040855 0.160157 0.218526 0.267591 0.386103 0.451771 0.400581 0.410767 0.518612 0.488091 0.379143 0.352919 0.217451 0.174764 0.064417 -0.009172 0.010665 -0.147493 0.009281 0.013698 -0.103731 -0.047610 0.164425 0.324357 0.219930 0.320880 0.158377 0.520210 0.351806 0.292295 0.295164 0.154355 0.104593 0.332969 0.036576 0.045956 -0.033559 0.053380 -0.051624 0.058193 -0.033194 0.155341 0.008940 0.213351 0.351355 0.251157 0.170256 0.225636 0.175350 0.072169 0.082420 0.076413 -0.020812 0.001200 0.051308 -0.139007 -0.098651 0.002058 0.085034 0.273840 0.135042 0.191603 0.113986 0.161072 0.073278 0.063287 -0.052236 0.019696 0.014471 -0.051722 0.005090 0.033716 0.061196 0.009003 0.070132 0.114517 0.130550 0.274399 0.014628 0.047207 0.055486 -0.013393 0.011238 -0.019963 0.046325 0.097914 -0.021198 0.035995 0.059629 0.137602 0.067273 0.051210 0.100671 0.043795 0.073662 -0.015578 0.021678 -0.039938 0.018590 -0.013075 -0.020996 -0.027776 0.055717 0.028644 0.036222 -0.019946 -0.069389 -0.046485 -0.104461 -0.014007 -0.001541 0.056005 -0.028846 0.001618 0.094617 -0.038935 0.011637 -0.067098 -0.083307 0.012054 -0.073638 -0.020437 -0.007514 -0.034554 -0.050419 -0.083774 0.015570 0.099542 -0.032496 -0.035410 -0.018893 -0.072005 -0.043813 0.023883 -0.038003 -0.084137 -0.009489 -0.084708 0.018550 0.049239 0.086275 -0.010523 -0.069197 -0.136987 0.031920 0.090031 -0.044362 -0.024042 -0.047663 -0.017735 -0.011087 -0.102556 -0.020320 -0.023098 -0.050762 -0.063304 -0.094862 -0.016029 -0.078879 -0.020447 -0.096934 -0.113325 0.042852 0.063298 0.107883 0.022704 0.032449 -0.046420 -0.055605 -0.043531 0.001387 0.003881 0.067437 -0.111519 -0.103595 0.030968 0.041523 0.032885 -0.091867 -0.043478 -0.045961 -0.074530 -0.085733 0.083190 -0.024909 -0.067286 -0.141807 -0.074471 0.055402 -0.099002 -0.136509 -0.134133 -0.036008 -0.049355 0.037611 -0.082906 0.030042 0.007294 -0.073799 -0.023271 -0.079319 -0.159999 -0.074905 0.029940 -0.071248 -0.098805 -0.052027 -0.036921 0.337506 -0.020457 0.064206 -0.240168 0.034596 0.038560 0.014956 0.248945 -0.038317 0.266646 0.612678 0.733494 0.346125 0.256515 0.088030 -2.035731
0.072396 0.072904 0.074429 0.076969 0.080525 0.085095 0.090678 0.097272 0.104876 0.113486 0.123099 0.133711 0.145315 0.157906 0.171476 0.186014 0.201510 0.217950 0.235319 0.253600 0.272770 0.292808 0.313686 0.335373 0.357835 0.381035 0.404930 0.429471 0.454607 0.480280 0.506427 0.532979 0.559861 0.586991 0.614282 0.641639 0.668961 0.696140 0.723059 0.749598 0.775627 0.801009 0.825603 0.849259 0.871822 0.893130 0.913019 0.931317 0.947848 0.962437 0.974903 0.985064 0.992740 0.997752 0.999921 0.999076 0.995049 0.987681 0.976822 0.962334 0.944091 0.921984 0.895921 0.865831 0.831665 0.793397 0.751030 0.704596 0.654157 0.599808 0.541682 0.479946 0.414807 0.346510 0.275344 0.201636 0.125755 0.048112 0.030842 0.110616 0.190683 0.270481 0.349414 0.426860 0.502173 0.574686 0.643720 0.708590 0.768611 0.823103 0.871405 0.912880 0.946924 0.972977 0.990531 0.999142 0.998438 0.988129 0.968017 0.938003 0.898099 0.848430 0.789244 0.720916 0.643950 0.558983 0.466782 0.368243 0.264388 0.156357 0.045399 0.067141 0.179833 0.291181 0.399640 0.503640 0.601605 0.691980 0.773261 0.844016 0.902915 0.948764 0.980525 0.997348 0.998595 0.983865 0.953010 0.906159 0.843723 0.766409 0.675220 0.571454 0.456689 0.332775 0.201805 0.066088 0.071884 0.209485 0.343995 0.472662 0.592748 0.701603 0.796716 0.875784 0.936773 0.977979 0.998080 0.996190 0.971899 0.925305 0.857036 0.768261 0.660686 0.536535 0.398518 0.249782 0.093854 0.065444 0.224074 0.377887 0.522733 0.654569 0.769585 0.864316 0.935759 0.981480 0.999710 0.989423 0.950404 0.883284 0.789559 0.671581 0.532517 0.376286 0.207459 0.031146 0.147157 0.321731 0.486816 0.636801 0.766430 0.870985 0.946484 0.989842 0.999017 0.973126 0.912519 0.818817 0.694894 0.544824 0.373768 0.187814 0.006212 0.201002 0.389023 0.562806 0.715265 0.839982 0.931499 0.985585 0.999445 0.971900 0.903485 0.796493 0.654932 0.484416 0.291963 0.085737 0.125282 0.331683 0.524032 0.693323 0.831400 0.931376 0.988003 0.997982 0.960183 0.875770 0.748226 0.583247 0.388530 0.173451 0.051366 0.274558 0.484585 0.670340 0.821745 0.930319 0.989696 0.996026 0.948271 0.848344 0.701099 0.514142 0.297485 0.063046 0.175980 0.405851 0.613067 0.785178 0.911554 0.984082 0.997727 0.950933 0.845817 0.688150 0.487092 0.254721 0.005341 0.245364 0.481312 0.687053 0.848804 0.955406 0.999142 0.976350 0.887784 0.738687 0.538547 0.300567 0.040830 0.222739 0.471605 0.687915 0.855821 0.962664 0.999994 0.964297 0.857391 0.686425 0.463487 0.204809 0.070350 0.341111 0.586566 0.787378 0.927360 0.994830 0.983654 0.893881 0.731896 0.510063 0.245846 0.039485 0.322526 0.579665 0.789050 0.932481 0.997068 0.976460 0.871559 0.690614 0.448676 0.166429 0.131506 0.418690 0.669202 0.860008 0.973130 0.997420 0.929753 0.775503 0.548249 0.268661 0.037273 0.340631 0.612255 0.825593 0.959328 0.999603 0.941550 0.789985 0.559140 0.271441 0.044569 0.357023 0.633906 0.846367 0.971783 0.996265 0.916306 0.739379 0.483385 0.174969 0.153187 0.465745 0.728534 0.912316 0.996117 0.969745 0.835149 0.606462 0.308661 0.025049 0.356862 0.648631 0.866265 0.983807 0.986627 0.873389 0.656483 0.360831 0.021146 0.322035 0.627179 0.856780 0.982057 0.986682 0.869055 0.642797 0.335358 0.015196 0.364780 0.668816 0.887942 0.993200 0.969994 0.820286 0.562659 0.230183 0.133682 0.480701 0.764230
1.000000 1.000000 1.000000 1.000000 1.000000 1.000000 1.000000 1.000000 1.000000 1.000000 1.000000 1.000000 1.000000 1.000000 1.000000 1.000000 1.000000 1.000000 1.000000 1.000000 1.000000 1.000000 1.000000 1.000000 1.000000 1.000000 1.000000 1.000000 1.000000 1.000000 1.000000 1.000000 1.000000 1.000000 1.000000 1.000000 1.000000 1.000000 1.000000 1.000000 1.000000 1.000000 1.000000 1.000000 1.000000 1.000000 1.000000 1.000000 1.000000 1.000000 1.000000 1.000000 0.823175 0.823175 0.823175 0.814544 0.814544 0.814544 0.814544 0.814544 0.814544 0.814544 0.814544 0.814544 0.814544 0.814544 0.814544 0.814544 0.814544 0.814544 0.814544 0.814544 0.814544 0.814544 0.814544 0.814544 0.814544 0.814544 0.814544 0.814544 0.814544 0.814544 0.814544 0.814544 0.814544 0.814544 0.814544 0.814544 0.814544 0.814544 0.814544 0.814544 0.814544 0.814544 0.814544 0.814544 0.827144 0.832415 0.835700 0.839056 0.841862 0.838215 0.837099 0.836156 0.835843 0.836977 0.846148 0.871354 0.888694 0.896256 0.910198 0.914376 0.918687 0.920809 0.927811 0.927625 0.959412 0.954679 0.954246 0.955384 0.947541 0.942627 0.941434 0.939709 0.948573 0.943149 0.940475 0.937462 0.936156 0.933058 0.933106 0.933055 0.929961 0.930434 0.931260 0.928987 0.929584 0.928277 0.927636 0.916730 0.916442 0.915697 0.918531 0.894244 0.889388 0.878953 0.878360 0.880380 0.875668 0.874802 0.866569 0.868015 0.869151 0.865415 0.853603 0.849180 0.844059 0.836243 0.833174 0.831997 0.835292 0.834446 0.836103 0.829141 0.816545 0.804559 0.791112 0.791422 0.778342 0.770470 0.774060 0.773947 0.777034 0.770040 0.768119 0.758495 0.751140 0.736403 0.735585 0.734909 0.745663 0.748991 0.749419 0.747295 0.725502 0.704240 0.694430 0.691515 0.692118 0.656151 0.645213 0.647502 0.650569 0.656722 0.669228 0.663925 0.653480 0.627569 0.603664 0.583775 0.597684 0.619715 0.611152 0.617261 0.596770 0.635375 0.638028 0.654014 0.668045 0.674847 0.669335 0.645539 0.603942 0.603753 0.605242 0.605532 0.600453 0.594283 0.597262 0.615604 0.584873 0.575115 0.561491 0.554082 0.557789 0.570461 0.567547 0.570409 0.543897 0.513371 0.471589 0.469521 0.417494 0.375179 0.368309 0.365149 0.337869 0.335370 0.353807 0.342605 0.335512 0.340816 0.355637 0.322982 0.330775 0.326641 0.302430 0.290951 0.309965 0.327679 0.331761 0.316100 0.286632 0.300485 0.254977 0.271369 0.243582 0.217519 0.213986 0.209291 0.224376 0.249860 0.229216 0.214809 0.191792 0.150570 0.149718 0.161387 0.199920 0.184700 0.161596 0.152061 0.125147 0.101086 0.101641 0.065822 0.026725 0.015808 0.009269 0.009135 0.002051 0.008991 -0.009702 0.004000 -0.017261 0.022948 0.002803 -0.005968 -0.025348 0.010123 -0.004118 -0.012088 0.002829 -0.034209 -0.073226 -0.076522 -0.069982 -0.053965 -0.051633 -0.036266 -0.077293 -0.094163 -0.120206 -0.129388 -0.125967 -0.151510 -0.149006 -0.168756 -0.186909 -0.148920 -0.148468 -0.152104 -0.186352 -0.210088 -0.179453 -0.177944 -0.182836 -0.181970 -0.176333 -0.178763 -0.184631 -0.158696 -0.162146 -0.154835 -0.140369 -0.164802 -0.199418 -0.206352 -0.197404 -0.183140 -0.139178 -0.114955 -0.100787 -0.090332 -0.116802 -0.116802 -0.116802 -0.116802 -0.112239 -0.112239 -0.112239 -0.112239 -0.112239 -0.112239 -0.112239 -0.112239 -0.112239 -0.143978 -0.143978 -0.143978 -0.143978 -0.143978 -0.143978 -0.143978 -0.143978 -0.143978 -0.143978 -0.143978 -0.143978 -0.143978 -0.143978 -0.143978 -0.143978
0.000000 0.000000 0.000000 0.000000 0.000000 0.000000 0.000000 0.000000 0.000000 0.000000 0.000000 0.000000 0.000000 0.000000 0.000000 0.000000 0.000000 0.000000 0.000000 0.000000 0.000000 0.000000 0.000000 0.000000 0.000000 0.000000 0.000000 0.000000 0.000000 0.000000 0.000000 0.000000 0.000000 0.000000 0.000000 0.000000 0.000000 0.000000 0.000000 0.000000 0.000000 0.000000 0.000000 0.000000 0.000000 0.000000 0.000000 0.000000 0.000000 0.000000 0.000000 0.000000 0.180334 0.180334 0.180334 0.199007 0.199007 0.199007 0.199007 0.199007 0.199007 0.199007 0.199007 0.199007 0.199007 0.199007 0.199007 0.199007 0.199007 0.199007 0.199007 0.199007 0.199007 0.199007 0.199007 0.199007 0.199007 0.199007 0.199007 0.199007 0.199007 0.199007 0.199007 0.199007 0.199007 0.199007 0.199007 0.199007 0.199007 0.199007 0.199007 0.199007 0.199007 0.199007 0.199007 0.199007 0.230940 0.230940 0.230940 0.230940 0.230940 0.230940 0.230940 0.230940 0.230940 0.230940 0.230940 0.230940 0.230940 0.230940 0.230940 0.230940 0.230940 0.230940 0.230940 0.230940 0.230940 0.230940 0.230940 0.230940 0.230940 0.230940 0.230940 0.230940 0.244339 0.244339 0.244339 0.244339 0.244339 0.244339 0.244339 0.244339 0.244339 0.244339 0.244339 0.244339 0.244339 0.244339 0.244339 0.244339 0.244339 0.244339 0.244339 0.244339 0.244339 0.244339 0.244339 0.251976 0.251976 0.251976 0.251976 0.251976 0.251976 0.251976 0.251976 0.251976 0.251976 0.251976 0.251976 0.251976 0.251976 0.251976 0.251976 0.251976 0.251976 0.251976 0.251976 0.264906 0.264906 0.264906 0.264906 0.264906 0.264906 0.264906 0.264906 0.264906 0.264906 0.264906 0.264906 0.264906 0.264906 0.264906 0.264906 0.264906 0.264906 0.264906 0.264906 0.264906 0.264906 0.264906 0.264906 0.264906 0.264906 0.264906 0.264906 0.264906 0.264906 0.264906 0.264906 0.264906 0.264906 0.264906 0.264906 0.264906 0.264906 0.264906 0.264906 0.264906 0.264906 0.264906 0.264906 0.264906 0.264906 0.264906 0.264906 0.264906 0.264906 0.264906 0.264906 0.264906 0.264906 0.264906 0.264906 0.264906 0.264906 0.264906 0.264906 0.264906 0.264906 0.264906 0.264906 0.264906 0.264906 0.264906 0.264906 0.264906 0.264906 0.264906 0.264906 0.264906 0.264906 0.264906 0.260378 0.260378 0.260378 0.260378 0.260378 0.260378 0.260378 0.260378 0.260378 0.260378 0.260378 0.260378 0.260378 0.264906 0.264906 0.264906 0.264906 0.264906 0.264906 0.264906 0.264906 0.264906 0.264906 0.264906 0.264906 0.269680 0.269680 0.269680 0.269680 0.269680 0.269680 0.269680 0.269680 0.269680 0.269680 0.269680 0.264906 0.264906 0.264906 0.264906 0.264906 0.264906 0.264906 0.264906 0.264906 0.264906 0.264906 0.269680 0.269680 0.269680 0.269680 0.269680 0.269680 0.269680 0.269680 0.269680 0.269680 0.264906 0.264906 0.264906 0.264906 0.264906 0.264906 0.264906 0.264906 0.264906 0.264906 0.260378 0.260378 0.260378 0.260378 0.260378 0.260378 0.260378 0.260378 0.260378 0.260378 0.256074 0.256074 0.256074 0.256074 0.256074 0.256074 0.256074 0.256074 0.256074 0.256074 0.260378 0.260378 0.260378 0.260378 0.260378 0.260378 0.260378 0.260378 0.260378 0.256074 0.256074 0.256074 0.256074 0.256074 0.256074 0.256074 0.256074 0.256074 0.251976 0.251976 0.251976 0.251976 0.251976 0.251976 0.251976 0.251976 0.251976 0.251976 0.251976 0.251976 0.251976 0.251976 0.251976 0.251976
