# Output from CTFFind version 4.1.9, run on 2019-11-03 20:07:11
# Input file: stack11_bm3d_averaged_1_7.0_0_1250_half.mrc ; Number of micrographs: 1
# Pixel size: 3.000 Angstroms ; acceleration voltage: 300.0 keV ; spherical aberration: 0.00 mm ; amplitude contrast: 0.07
# Box size: 512 pixels ; min. res.: 30.0 Angstroms ; max. res.: 5.0 Angstroms ; min. def.: 5000.0 um; max. def. 50000.0 um; num. frames averaged: 1
# 6 lines per micrograph: #1 - spatial frequency (1/Angstroms); #2 - 1D rotational average of spectrum (assuming no astigmatism); #3 - 1D rotational average of spectrum; #4 - CTF fit; #5 - cross-correlation between spectrum and CTF fit; #6 - 2sigma of expected cross correlation of noise
0.000000 0.000651 0.001302 0.001953 0.002604 0.003255 0.003906 0.004557 0.005208 0.005859 0.006510 0.007161 0.007812 0.008464 0.009115 0.009766 0.010417 0.011068 0.011719 0.012370 0.013021 0.013672 0.014323 0.014974 0.015625 0.016276 0.016927 0.017578 0.018229 0.018880 0.019531 0.020182 0.020833 0.021484 0.022135 0.022786 0.023438 0.024089 0.024740 0.025391 0.026042 0.026693 0.027344 0.027995 0.028646 0.029297 0.029948 0.030599 0.031250 0.031901 0.032552 0.033203 0.033854 0.034505 0.035156 0.035807 0.036458 0.037109 0.037760 0.038411 0.039062 0.039714 0.040365 0.041016 0.041667 0.042318 0.042969 0.043620 0.044271 0.044922 0.045573 0.046224 0.046875 0.047526 0.048177 0.048828 0.049479 0.050130 0.050781 0.051432 0.052083 0.052734 0.053385 0.054036 0.054688 0.055339 0.055990 0.056641 0.057292 0.057943 0.058594 0.059245 0.059896 0.060547 0.061198 0.061849 0.062500 0.063151 0.063802 0.064453 0.065104 0.065755 0.066406 0.067057 0.067708 0.068359 0.069010 0.069661 0.070312 0.070964 0.071615 0.072266 0.072917 0.073568 0.074219 0.074870 0.075521 0.076172 0.076823 0.077474 0.078125 0.078776 0.079427 0.080078 0.080729 0.081380 0.082031 0.082682 0.083333 0.083984 0.084635 0.085286 0.085938 0.086589 0.087240 0.087891 0.088542 0.089193 0.089844 0.090495 0.091146 0.091797 0.092448 0.093099 0.093750 0.094401 0.095052 0.095703 0.096354 0.097005 0.097656 0.098307 0.098958 0.099609 0.100260 0.100911 0.101562 0.102214 0.102865 0.103516 0.104167 0.104818 0.105469 0.106120 0.106771 0.107422 0.108073 0.108724 0.109375 0.110026 0.110677 0.111328 0.111979 0.112630 0.113281 0.113932 0.114583 0.115234 0.115885 0.116536 0.117188 0.117839 0.118490 0.119141 0.119792 0.120443 0.121094 0.121745 0.122396 0.123047 0.123698 0.124349 0.125000 0.125651 0.126302 0.126953 0.127604 0.128255 0.128906 0.129557 0.130208 0.130859 0.131510 0.132161 0.132812 0.133464 0.134115 0.134766 0.135417 0.136068 0.136719 0.137370 0.138021 0.138672 0.139323 0.139974 0.140625 0.141276 0.141927 0.142578 0.143229 0.143880 0.144531 0.145182 0.145833 0.146484 0.147135 0.147786 0.148438 0.149089 0.149740 0.150391 0.151042 0.151693 0.152344 0.152995 0.153646 0.154297 0.154948 0.155599 0.156250 0.156901 0.157552 0.158203 0.158854 0.159505 0.160156 0.160807 0.161458 0.162109 0.162760 0.163411 0.164062 0.164714 0.165365 0.166016 0.166667 0.167318 0.167969 0.168620 0.169271 0.169922 0.170573 0.171224 0.171875 0.172526 0.173177 0.173828 0.174479 0.175130 0.175781 0.176432 0.177083 0.177734 0.178385 0.179036 0.179688 0.180339 0.180990 0.181641 0.182292 0.182943 0.183594 0.184245 0.184896 0.185547 0.186198 0.186849 0.187500 0.188151 0.188802 0.189453 0.190104 0.190755 0.191406 0.192057 0.192708 0.193359 0.194010 0.194661 0.195312 0.195964 0.196615 0.197266 0.197917 0.198568 0.199219 0.199870 0.200521 0.201172 0.201823 0.202474 0.203125 0.203776 0.204427 0.205078 0.205729 0.206380 0.207031 0.207682 0.208333 0.208984 0.209635 0.210286 0.210938 0.211589 0.212240 0.212891 0.213542 0.214193 0.214844 0.215495 0.216146 0.216797 0.217448 0.218099 0.218750 0.219401 0.220052 0.220703 0.221354 0.222005 0.222656 0.223307 0.223958 0.224609 0.225260 0.225911 0.226562 0.227214 0.227865 0.228516 0.229167 0.229818 0.230469 0.231120 0.231771 0.232422 0.233073 0.233724 0.234375 0.235026 0.235677
       0.34514        0.34514        0.34514        0.34514        0.34514        0.34514        0.34514        0.34514        0.34514        0.34514        0.34514        0.34514        0.34514        0.34514        0.34514        0.34514        0.34514        0.34514        0.34514        0.34514        0.34514        0.34514        0.34514        0.34514        0.34514        0.34514        0.34514        0.34514        0.34514        0.34514        0.34514        0.34514        0.34514        0.34514        0.34514        0.34514        0.34514        0.34514        0.34514        0.34514        0.34514        0.34514        0.34514        0.34514        0.34514        0.34514        0.34514        0.34514        0.34514        0.34514        0.34514        0.69907        0.85733        0.53803        0.10525       -0.02909       -0.38529       -0.17991       -0.28836       -0.11626       -0.05519       -0.11296       -0.05342       -0.16611       -0.20548       -0.21346       -0.30681       -0.31823       -0.44348       -0.36187       -0.42558       -0.42062       -0.39327       -0.40595       -0.44584       -0.50677       -0.55828       -0.54892       -0.52300       -0.35593       -0.32518       -0.29044       -0.27044       -0.18571       -0.16948        0.06184        0.14271        0.17620        0.26680        0.38146        0.45779        0.52315        0.60141        0.59846        0.58469        0.70042        0.80318        0.70257        0.74418        0.61903        0.56844        0.48354        0.43299        0.51239        0.39806        0.27247        0.11729        0.11420        0.09470       -0.01260        0.04600        0.05349        0.01275        0.02815        0.03184        0.23688        0.27163        0.29648        0.43564        0.45384        0.41495        0.60065        0.61816        0.63459        0.72358        0.67569        0.64725        0.65596        0.56008        0.46029        0.41897        0.30409        0.27107        0.18541        0.13691        0.05258        0.06696        0.07691        0.10041        0.16089        0.24620        0.29912        0.42332        0.46574        0.48153        0.56392        0.60177        0.63650        0.61494        0.55814        0.46247        0.47345        0.37886        0.27833        0.21275        0.15655        0.17356        0.15404        0.16220        0.19184        0.32420        0.33893        0.40859        0.44742        0.42562        0.47988        0.56339        0.55551        0.50350        0.45751        0.41425        0.37386        0.34287        0.31033        0.26574        0.24740        0.25604        0.25735        0.22687        0.31085        0.36525        0.38484        0.43919        0.45612        0.46757        0.42807        0.41310        0.40220        0.36362        0.33876        0.27515        0.28238        0.26953        0.24799        0.29675        0.29426        0.35290        0.38353        0.43593        0.47680        0.40694        0.42255        0.43278        0.41224        0.35092        0.32966        0.29318        0.32743        0.27665        0.32455        0.31652        0.33412        0.34232        0.36548        0.31375        0.38822        0.41204        0.38128        0.35257        0.36962        0.31958        0.29605        0.30888        0.32024        0.30861        0.32090        0.34589        0.35833        0.34125        0.36440        0.36288        0.42423        0.39104        0.34059        0.34980        0.30043        0.29512        0.32720        0.32059        0.33121        0.34402        0.34406        0.38839        0.33133        0.33034        0.33922        0.34992        0.30523        0.31341        0.28305        0.30355        0.33214        0.30469        0.33264        0.35946        0.37160        0.29993        0.34421        0.30035        0.29313        0.27971        0.24758        0.30844        0.30809        0.34340        0.34036        0.34555        0.32838        0.34999        0.31565        0.34648        0.30632        0.32651        0.29335        0.33765        0.33174        0.37365        0.33213        0.33722        0.33753        0.29362        0.27663        0.31328        0.25098        0.23000        0.34144        0.32407        0.36831        0.34802        0.36402        0.33649        0.33435        0.35225        0.26676        0.27017        0.31990        0.30193        0.31146        0.31469        0.33958        0.32943        0.28894        0.29144        0.34619        0.32257        0.32300        0.29967        0.32207        0.33814        0.39317        0.36400        0.32069        0.28338        0.30364        0.29021        0.30829        0.27930        0.27230        0.31325        0.32982        0.34590        0.35667        0.33252        0.29614        0.30182        0.27185        0.27893        0.25715        0.30659        0.26074        0.24944        0.28928        0.28451        0.26305        0.29418        0.22032        0.21656        0.23872        0.19446        0.27440        0.34950        0.25406        0.24508        0.31903        0.30166        0.30933        0.31433        0.27430        0.25208        0.19481        0.21150        0.20856        0.28366        0.23716        0.28446        0.36467        0.37166        0.25573        0.17957        0.12730       -0.01562       -0.13227       -0.62622
2.809357 2.779539 2.749883 2.720390 2.691059 2.661890 2.632884 2.604040 2.575359 2.546840 2.518484 2.490289 2.462258 2.434388 2.406682 2.379137 2.351755 2.324535 2.297478 2.270583 2.243851 2.217280 2.190873 2.164627 2.138545 2.112624 2.086866 2.061270 2.035837 2.010566 1.985458 1.960512 1.935728 1.911107 1.886648 1.862352 1.838218 1.814246 1.790437 1.766790 1.743306 1.719984 1.696824 1.673827 1.650992 1.628319 1.605810 1.583462 1.561277 1.539254 1.517394 1.735883 2.162730 1.717253 1.194704 1.057412 0.456033 0.853204 0.562948 0.848302 0.818391 0.821420 0.760123 0.758797 0.599190 0.563170 0.503321 0.428616 0.250293 0.365485 0.199433 0.331315 0.219176 0.211528 0.186047 0.041785 0.001486 0.018884 -0.070264 0.133693 0.234094 0.189282 0.180274 0.325050 0.184361 0.524184 0.627966 0.637939 0.654973 0.881217 0.839683 0.948347 0.945220 1.041870 1.011880 1.094348 1.177441 1.049486 1.172666 0.914370 0.934282 0.800390 0.657294 0.813254 0.698533 0.499769 0.335067 0.252678 0.271386 0.149846 0.138604 0.167134 0.109902 0.119508 0.083366 0.249337 0.351798 0.342729 0.479183 0.547351 0.418614 0.597486 0.735180 0.648023 0.722798 0.713080 0.722198 0.648616 0.598508 0.491972 0.368602 0.277863 0.220684 0.092453 0.116734 -0.117444 -0.049396 -0.063545 -0.084889 -0.017948 0.128864 0.071726 0.243346 0.308679 0.337617 0.374191 0.497531 0.466867 0.480608 0.491912 0.306166 0.294381 0.287720 0.086693 0.046066 -0.082485 -0.015792 -0.063063 -0.097322 -0.070640 0.040530 0.095506 0.127073 0.226615 0.223694 0.220809 0.316205 0.342615 0.447160 0.256979 0.232887 0.227739 0.144052 0.145784 0.119890 -0.004585 0.014947 0.077325 -0.010570 0.045127 0.134194 0.135783 0.213896 0.233895 0.258793 0.161547 0.212082 0.128888 0.126924 0.114920 0.027295 -0.026417 -0.001221 -0.020478 -0.052139 0.055740 0.004337 0.106784 0.138609 0.194474 0.164368 0.118110 0.140705 0.159962 0.110281 0.035910 -0.025825 0.028553 0.029007 -0.044079 0.038245 0.020265 0.048144 0.039592 0.055581 0.019958 0.139831 0.118869 0.046829 0.037315 0.042209 0.005369 -0.030768 0.008670 0.004291 -0.004256 0.003085 0.057442 0.053866 0.038853 0.073757 0.061277 0.164536 0.063962 0.041766 0.043528 -0.034839 0.012251 0.047501 0.007799 0.032769 0.056140 0.081296 0.050081 0.041647 0.008013 0.079776 0.027172 0.020703 0.024612 -0.006276 0.032314 0.026649 0.020622 0.069502 0.075856 0.077980 0.041989 0.053086 0.022819 0.015245 -0.024176 -0.024926 0.037000 0.052772 0.080785 0.081396 0.067146 0.070762 0.097577 0.042729 0.090436 0.057094 0.044835 0.018330 0.104411 0.062777 0.125307 0.065963 0.067561 0.097244 0.030736 0.002708 0.085561 -0.040228 -0.029068 0.093616 0.043250 0.159376 0.091938 0.088849 0.065686 0.031650 0.090481 -0.027126 -0.024612 0.047754 0.033300 0.032653 0.017898 0.101992 0.030730 -0.013634 0.049519 0.040909 0.053590 0.056304 -0.009600 0.057010 0.049967 0.116932 0.057128 0.027526 -0.029757 -0.028138 -0.004902 0.008354 -0.057449 -0.021375 0.000643 0.016661 0.035133 0.059292 0.004999 -0.032682 -0.029528 -0.018703 -0.067202 -0.046139 -0.034864 -0.131203 -0.095549 -0.059715 -0.095022 -0.105886 -0.027207 -0.153903 -0.104845 -0.115518 -0.189564 -0.069665 0.061213 -0.074507 -0.136367 0.051126 0.028545 -0.027726 0.072621 -0.023750 -0.004118 -0.084539 -0.039278 0.047531 0.130411 0.053833 0.138823 0.168910 0.437265 0.239409 0.324533 0.162694 -0.021327 -0.701302
0.072396 0.072899 0.074408 0.076923 0.080442 0.084966 0.090493 0.097021 0.104548 0.113071 0.122588 0.133092 0.144580 0.157045 0.170479 0.184873 0.200216 0.216495 0.233695 0.251798 0.270785 0.290632 0.311314 0.332800 0.355059 0.378052 0.401738 0.426072 0.451001 0.476470 0.502418 0.528778 0.555476 0.582434 0.609565 0.636779 0.663977 0.691052 0.717893 0.744381 0.770390 0.795788 0.820434 0.844184 0.866886 0.888383 0.908512 0.927106 0.943993 0.959001 0.971950 0.982665 0.990966 0.996676 0.999619 0.999625 0.996527 0.990165 0.980390 0.967061 0.950051 0.929247 0.904553 0.875894 0.843212 0.806475 0.765677 0.720839 0.672012 0.619278 0.562756 0.502596 0.438990 0.372165 0.302389 0.229970 0.155256 0.078636 0.000540 0.078565 0.158174 0.237746 0.316708 0.394458 0.470368 0.543790 0.614060 0.680504 0.742447 0.799216 0.850151 0.894612 0.931989 0.961709 0.983246 0.996132 0.999965 0.994419 0.979254 0.954323 0.919582 0.875098 0.821051 0.757748 0.685616 0.605215 0.517232 0.422483 0.321907 0.216565 0.107628 0.003629 0.115843 0.227575 0.337330 0.443572 0.544749 0.639316 0.725758 0.802618 0.868524 0.922215 0.962570 0.988637 0.999654 0.995076 0.974599 0.938175 0.886027 0.818664 0.736884 0.641774 0.534706 0.417326 0.291537 0.159474 0.023472 0.113971 0.250234 0.382622 0.508423 0.624960 0.729655 0.820087 0.894055 0.949639 0.985254 0.999708 0.992244 0.962581 0.910943 0.838077 0.745260 0.634291 0.507473 0.367574 0.217780 0.061633 0.097052 0.254268 0.405920 0.547931 0.676353 0.787487 0.877991 0.944998 0.986210 0.999999 0.985473 0.942544 0.871956 0.775302 0.655008 0.514295 0.357107 0.188018 0.012109 0.165174 0.338182 0.501253 0.648882 0.775934 0.877814 0.950666 0.991521 0.998444 0.970640 0.908528 0.813770 0.689256 0.539047 0.368263 0.182930 0.010218 0.203967 0.390900 0.563666 0.715287 0.839445 0.930764 0.985063 0.999574 0.973103 0.906140 0.800895 0.661262 0.492712 0.302104 0.097430 0.112500 0.318427 0.511054 0.681462 0.821545 0.924409 0.984737 0.999099 0.966174 0.886884 0.764424 0.604172 0.413504 0.201474 0.021581 0.244530 0.456002 0.644958 0.801291 0.916379 0.983599 0.998743 0.960317 0.869709 0.731200 0.551815 0.341007 0.110205 0.127787 0.359483 0.571473 0.751209 0.887778 0.972586 0.999951 0.967522 0.876528 0.731796 0.541566 0.317068 0.071901 0.178752 0.419057 0.633528 0.808037 0.930776 0.993100 0.990189 0.921475 0.790797 0.606263 0.379804 0.126466 0.136553 0.391052 0.619086 0.804237 0.932838 0.995029 0.985571 0.904356 0.756542 0.552319 0.306269 0.036380 0.237219 0.493752 0.713379 0.878745 0.976409 0.997998 0.940996 0.809095 0.612048 0.365043 0.087590 0.197969 0.468227 0.700633 0.875418 0.977300 0.996916 0.931749 0.786519 0.572947 0.308895 0.016953 0.277438 0.548206 0.770943 0.925150 0.996196 0.976789 0.867812 0.678439 0.425472 0.131938 0.174945 0.466233 0.714015 0.894097 0.988443 0.987061 0.889174 0.703497 0.447586 0.146288 0.170603 0.471251 0.724967 0.905378 0.993253 0.978638 0.862110 0.654935 0.378124 0.060397 0.264719 0.562384 0.800201 0.951785 0.999788 0.938003 0.772281 0.520141 0.209048 0.126484 0.448651 0.720619 0.910770 0.996458 0.966831 0.824344 0.584737 0.275455 0.067390 0.403147 0.691433 0.897029 0.994254 0.970310 0.827112 0.581352 0.262694 0.089646 0.431682 0.720105 0.917823 0.998819 0.951718 0.781553 0.509421 0.170026 0.192587
1.000000 1.000000 1.000000 1.000000 1.000000 1.000000 1.000000 1.000000 1.000000 1.000000 1.000000 1.000000 1.000000 1.000000 1.000000 1.000000 1.000000 1.000000 1.000000 1.000000 1.000000 1.000000 1.000000 1.000000 1.000000 1.000000 1.000000 1.000000 1.000000 1.000000 1.000000 1.000000 1.000000 1.000000 1.000000 1.000000 1.000000 1.000000 1.000000 1.000000 1.000000 1.000000 1.000000 1.000000 1.000000 1.000000 1.000000 1.000000 1.000000 1.000000 1.000000 1.000000 0.915599 0.915599 0.915599 0.911188 0.911188 0.911188 0.911188 0.911188 0.911188 0.911188 0.911188 0.911188 0.911188 0.911188 0.911188 0.911188 0.911188 0.911188 0.911188 0.911188 0.911188 0.911188 0.911188 0.911188 0.911188 0.911188 0.911188 0.911188 0.911188 0.911188 0.911188 0.911188 0.911188 0.911188 0.911188 0.911188 0.911188 0.911188 0.911188 0.911188 0.911188 0.911188 0.911188 0.911188 0.939651 0.941088 0.949431 0.948967 0.948422 0.946431 0.945171 0.944957 0.944869 0.945222 0.945958 0.946953 0.953176 0.954114 0.958527 0.961245 0.961216 0.962952 0.964916 0.964555 0.956234 0.955991 0.954560 0.953830 0.955940 0.954570 0.953330 0.953801 0.953418 0.955844 0.955402 0.954183 0.952531 0.950926 0.949623 0.949069 0.948836 0.949640 0.949719 0.951294 0.954322 0.954482 0.954217 0.951456 0.951073 0.952278 0.951714 0.953536 0.941365 0.940712 0.939245 0.939243 0.941841 0.941736 0.941636 0.942539 0.942240 0.942161 0.942307 0.935641 0.935387 0.927879 0.924241 0.922789 0.917355 0.913293 0.915941 0.918566 0.919781 0.920233 0.911018 0.908087 0.909039 0.907864 0.909332 0.909242 0.910347 0.910747 0.910671 0.905524 0.895811 0.894173 0.886170 0.888888 0.885526 0.882880 0.879922 0.871117 0.862631 0.874727 0.861809 0.820352 0.824043 0.828479 0.820553 0.816642 0.817536 0.819052 0.824029 0.818053 0.816718 0.810793 0.797592 0.792828 0.785319 0.771538 0.769340 0.760372 0.749968 0.744079 0.767910 0.761497 0.773233 0.777627 0.777215 0.773736 0.764665 0.753867 0.754100 0.749457 0.745187 0.721789 0.714063 0.714201 0.711536 0.699271 0.702445 0.690630 0.690760 0.678052 0.682800 0.688460 0.691686 0.687692 0.681234 0.672767 0.668931 0.682240 0.696313 0.688342 0.684292 0.690367 0.680785 0.676025 0.668619 0.672729 0.665039 0.656791 0.659074 0.692906 0.665017 0.654593 0.661803 0.663731 0.660269 0.660918 0.640525 0.634410 0.611524 0.628804 0.634163 0.650789 0.651761 0.654165 0.665020 0.670844 0.681583 0.686191 0.684876 0.644900 0.649009 0.667488 0.675166 0.663805 0.653708 0.653639 0.647186 0.683805 0.668470 0.626292 0.622286 0.621407 0.577323 0.556601 0.554903 0.557157 0.584337 0.580920 0.562880 0.536799 0.538566 0.539782 0.537929 0.536326 0.521477 0.529035 0.513782 0.490024 0.502091 0.509919 0.508267 0.492299 0.485823 0.499400 0.477946 0.505602 0.481802 0.463414 0.480268 0.478920 0.466764 0.394677 0.403008 0.392402 0.378128 0.333824 0.343321 0.353138 0.335183 0.260143 0.254320 0.255047 0.251549 0.231607 0.208535 0.195203 0.184730 0.162289 0.101718 0.052834 0.054460 0.058256 0.084943 0.044419 0.098610 0.166814 0.164732 0.164732 0.164732 0.164732 0.164732 0.164732 0.164732 0.164732 0.140644 0.140644 0.140644 0.140644 0.140644 0.140644 0.140644 0.140644 0.140644 0.164732 0.164732 0.164732 0.164732 0.164732 0.164732 0.164732 0.164732 0.164732 0.164732 0.164732 0.164732 0.164732 0.164732
0.000000 0.000000 0.000000 0.000000 0.000000 0.000000 0.000000 0.000000 0.000000 0.000000 0.000000 0.000000 0.000000 0.000000 0.000000 0.000000 0.000000 0.000000 0.000000 0.000000 0.000000 0.000000 0.000000 0.000000 0.000000 0.000000 0.000000 0.000000 0.000000 0.000000 0.000000 0.000000 0.000000 0.000000 0.000000 0.000000 0.000000 0.000000 0.000000 0.000000 0.000000 0.000000 0.000000 0.000000 0.000000 0.000000 0.000000 0.000000 0.000000 0.000000 0.000000 0.000000 0.180334 0.180334 0.180334 0.199007 0.199007 0.199007 0.199007 0.199007 0.199007 0.199007 0.199007 0.199007 0.199007 0.199007 0.199007 0.199007 0.199007 0.199007 0.199007 0.199007 0.199007 0.199007 0.199007 0.199007 0.199007 0.199007 0.199007 0.199007 0.199007 0.199007 0.199007 0.199007 0.199007 0.199007 0.199007 0.199007 0.199007 0.199007 0.199007 0.199007 0.199007 0.199007 0.199007 0.199007 0.225018 0.225018 0.225018 0.225018 0.225018 0.225018 0.225018 0.225018 0.225018 0.225018 0.225018 0.225018 0.225018 0.225018 0.225018 0.225018 0.225018 0.225018 0.225018 0.225018 0.225018 0.225018 0.225018 0.225018 0.225018 0.225018 0.225018 0.225018 0.225018 0.244339 0.244339 0.244339 0.244339 0.244339 0.244339 0.244339 0.244339 0.244339 0.244339 0.244339 0.244339 0.244339 0.244339 0.244339 0.244339 0.244339 0.244339 0.244339 0.244339 0.244339 0.244339 0.244339 0.256074 0.256074 0.256074 0.256074 0.256074 0.256074 0.256074 0.256074 0.256074 0.256074 0.256074 0.256074 0.256074 0.256074 0.256074 0.256074 0.256074 0.256074 0.256074 0.256074 0.256074 0.256074 0.256074 0.256074 0.256074 0.256074 0.256074 0.256074 0.256074 0.256074 0.256074 0.256074 0.256074 0.256074 0.256074 0.256074 0.256074 0.264906 0.264906 0.264906 0.264906 0.264906 0.264906 0.264906 0.264906 0.264906 0.264906 0.264906 0.264906 0.264906 0.264906 0.264906 0.264906 0.264906 0.264906 0.264906 0.264906 0.264906 0.264906 0.264906 0.264906 0.264906 0.264906 0.264906 0.264906 0.264906 0.264906 0.264906 0.264906 0.264906 0.264906 0.264906 0.264906 0.264906 0.264906 0.264906 0.264906 0.264906 0.264906 0.264906 0.264906 0.264906 0.264906 0.264906 0.264906 0.264906 0.264906 0.264906 0.264906 0.264906 0.264906 0.264906 0.264906 0.264906 0.264906 0.260378 0.260378 0.260378 0.260378 0.260378 0.260378 0.260378 0.260378 0.260378 0.260378 0.260378 0.260378 0.260378 0.264906 0.264906 0.264906 0.264906 0.264906 0.264906 0.264906 0.264906 0.264906 0.264906 0.264906 0.264906 0.269680 0.269680 0.269680 0.269680 0.269680 0.269680 0.269680 0.269680 0.269680 0.269680 0.269680 0.264906 0.264906 0.264906 0.264906 0.264906 0.264906 0.264906 0.264906 0.264906 0.264906 0.264906 0.256074 0.256074 0.256074 0.256074 0.256074 0.256074 0.256074 0.256074 0.256074 0.256074 0.256074 0.264906 0.264906 0.264906 0.264906 0.264906 0.264906 0.264906 0.264906 0.264906 0.264906 0.260378 0.260378 0.260378 0.260378 0.260378 0.260378 0.260378 0.260378 0.260378 0.260378 0.264906 0.264906 0.264906 0.264906 0.264906 0.264906 0.264906 0.264906 0.264906 0.251976 0.251976 0.251976 0.251976 0.251976 0.251976 0.251976 0.251976 0.251976 0.251976 0.256074 0.256074 0.256074 0.256074 0.256074 0.256074 0.256074 0.256074 0.256074 0.251976 0.251976 0.251976 0.251976 0.251976 0.251976 0.251976 0.251976 0.251976 0.251976 0.251976 0.251976 0.251976 0.251976
