# Output from CTFFind version 4.1.9, run on 2019-11-03 19:40:58
# Input file: stack11_bm3d_averaged_1_4.75_0_1250_half.mrc ; Number of micrographs: 1
# Pixel size: 3.000 Angstroms ; acceleration voltage: 300.0 keV ; spherical aberration: 0.00 mm ; amplitude contrast: 0.07
# Box size: 512 pixels ; min. res.: 30.0 Angstroms ; max. res.: 5.0 Angstroms ; min. def.: 5000.0 um; max. def. 50000.0 um; num. frames averaged: 1
# 6 lines per micrograph: #1 - spatial frequency (1/Angstroms); #2 - 1D rotational average of spectrum (assuming no astigmatism); #3 - 1D rotational average of spectrum; #4 - CTF fit; #5 - cross-correlation between spectrum and CTF fit; #6 - 2sigma of expected cross correlation of noise
0.000000 0.000651 0.001302 0.001953 0.002604 0.003255 0.003906 0.004557 0.005208 0.005859 0.006510 0.007161 0.007812 0.008464 0.009115 0.009766 0.010417 0.011068 0.011719 0.012370 0.013021 0.013672 0.014323 0.014974 0.015625 0.016276 0.016927 0.017578 0.018229 0.018880 0.019531 0.020182 0.020833 0.021484 0.022135 0.022786 0.023438 0.024089 0.024740 0.025391 0.026042 0.026693 0.027344 0.027995 0.028646 0.029297 0.029948 0.030599 0.031250 0.031901 0.032552 0.033203 0.033854 0.034505 0.035156 0.035807 0.036458 0.037109 0.037760 0.038411 0.039062 0.039714 0.040365 0.041016 0.041667 0.042318 0.042969 0.043620 0.044271 0.044922 0.045573 0.046224 0.046875 0.047526 0.048177 0.048828 0.049479 0.050130 0.050781 0.051432 0.052083 0.052734 0.053385 0.054036 0.054688 0.055339 0.055990 0.056641 0.057292 0.057943 0.058594 0.059245 0.059896 0.060547 0.061198 0.061849 0.062500 0.063151 0.063802 0.064453 0.065104 0.065755 0.066406 0.067057 0.067708 0.068359 0.069010 0.069661 0.070312 0.070964 0.071615 0.072266 0.072917 0.073568 0.074219 0.074870 0.075521 0.076172 0.076823 0.077474 0.078125 0.078776 0.079427 0.080078 0.080729 0.081380 0.082031 0.082682 0.083333 0.083984 0.084635 0.085286 0.085938 0.086589 0.087240 0.087891 0.088542 0.089193 0.089844 0.090495 0.091146 0.091797 0.092448 0.093099 0.093750 0.094401 0.095052 0.095703 0.096354 0.097005 0.097656 0.098307 0.098958 0.099609 0.100260 0.100911 0.101562 0.102214 0.102865 0.103516 0.104167 0.104818 0.105469 0.106120 0.106771 0.107422 0.108073 0.108724 0.109375 0.110026 0.110677 0.111328 0.111979 0.112630 0.113281 0.113932 0.114583 0.115234 0.115885 0.116536 0.117188 0.117839 0.118490 0.119141 0.119792 0.120443 0.121094 0.121745 0.122396 0.123047 0.123698 0.124349 0.125000 0.125651 0.126302 0.126953 0.127604 0.128255 0.128906 0.129557 0.130208 0.130859 0.131510 0.132161 0.132812 0.133464 0.134115 0.134766 0.135417 0.136068 0.136719 0.137370 0.138021 0.138672 0.139323 0.139974 0.140625 0.141276 0.141927 0.142578 0.143229 0.143880 0.144531 0.145182 0.145833 0.146484 0.147135 0.147786 0.148438 0.149089 0.149740 0.150391 0.151042 0.151693 0.152344 0.152995 0.153646 0.154297 0.154948 0.155599 0.156250 0.156901 0.157552 0.158203 0.158854 0.159505 0.160156 0.160807 0.161458 0.162109 0.162760 0.163411 0.164062 0.164714 0.165365 0.166016 0.166667 0.167318 0.167969 0.168620 0.169271 0.169922 0.170573 0.171224 0.171875 0.172526 0.173177 0.173828 0.174479 0.175130 0.175781 0.176432 0.177083 0.177734 0.178385 0.179036 0.179688 0.180339 0.180990 0.181641 0.182292 0.182943 0.183594 0.184245 0.184896 0.185547 0.186198 0.186849 0.187500 0.188151 0.188802 0.189453 0.190104 0.190755 0.191406 0.192057 0.192708 0.193359 0.194010 0.194661 0.195312 0.195964 0.196615 0.197266 0.197917 0.198568 0.199219 0.199870 0.200521 0.201172 0.201823 0.202474 0.203125 0.203776 0.204427 0.205078 0.205729 0.206380 0.207031 0.207682 0.208333 0.208984 0.209635 0.210286 0.210938 0.211589 0.212240 0.212891 0.213542 0.214193 0.214844 0.215495 0.216146 0.216797 0.217448 0.218099 0.218750 0.219401 0.220052 0.220703 0.221354 0.222005 0.222656 0.223307 0.223958 0.224609 0.225260 0.225911 0.226562 0.227214 0.227865 0.228516 0.229167 0.229818 0.230469 0.231120 0.231771 0.232422 0.233073 0.233724 0.234375 0.235026 0.235677
       0.33754        0.33754        0.33754        0.33754        0.33754        0.33754        0.33754        0.33754        0.33754        0.33754        0.33754        0.33754        0.33754        0.33754        0.33754        0.33754        0.33754        0.33754        0.33754        0.33754        0.33754        0.33754        0.33754        0.33754        0.33754        0.33754        0.33754        0.33754        0.33754        0.33754        0.33754        0.33754        0.33754        0.33754        0.33754        0.33754        0.33754        0.33754        0.33754        0.33754        0.33754        0.33754        0.33754        0.33754        0.33754        0.33754        0.33754        0.33754        0.33754        0.33754        0.33754        0.69450        0.85935        0.53407        0.10393       -0.03293       -0.39650       -0.18349       -0.28900       -0.11357       -0.05709       -0.11069       -0.05434       -0.17573       -0.21068       -0.22365       -0.31244       -0.32390       -0.45223       -0.36554       -0.43351       -0.42810       -0.40147       -0.42337       -0.46664       -0.51839       -0.56275       -0.56648       -0.53950       -0.36844       -0.34124       -0.30252       -0.28188       -0.19059       -0.17941        0.05246        0.13014        0.16098        0.25568        0.37891        0.45533        0.52005        0.58920        0.58716        0.57680        0.69613        0.80507        0.70988        0.74060        0.62850        0.56751        0.48257        0.42558        0.50922        0.39226        0.25344        0.10791        0.09683        0.07454       -0.02709        0.02339        0.03688       -0.00747        0.01875        0.01418        0.23656        0.26746        0.29332        0.42955        0.45093        0.41046        0.58315        0.62566        0.65109        0.73159        0.67965        0.64984        0.66671        0.56385        0.46750        0.41833        0.29974        0.25029        0.17340        0.13131        0.05323        0.05082        0.05534        0.09185        0.14929        0.23608        0.28511        0.40817        0.45858        0.48345        0.57770        0.60962        0.63792        0.62032        0.56187        0.45708        0.46963        0.37594        0.26276        0.20297        0.15723        0.16182        0.14540        0.14089        0.16835        0.30346        0.31569        0.39203        0.43120        0.42884        0.49133        0.55706        0.55279        0.49369        0.45365        0.40661        0.35852        0.32937        0.29521        0.24424        0.23733        0.23132        0.24309        0.21784        0.30292        0.36051        0.38736        0.43964        0.45547        0.47189        0.42429        0.40277        0.40275        0.35975        0.31495        0.27051        0.26249        0.25894        0.22798        0.27747        0.27823        0.34435        0.37520        0.41631        0.47542        0.41392        0.42644        0.43201        0.40590        0.34505        0.32227        0.29179        0.31189        0.26798        0.30910        0.30300        0.32183        0.32997        0.35379        0.31784        0.39705        0.41631        0.37850        0.34529        0.37136        0.31091        0.28908        0.29459        0.31893        0.30066        0.31317        0.33086        0.34363        0.34035        0.36763        0.36895        0.40256        0.37924        0.32986        0.33691        0.29413        0.28126        0.32049        0.31526        0.32486        0.33322        0.33024        0.37306        0.32746        0.32792        0.32875        0.33418        0.29936        0.30783        0.27263        0.29866        0.32083        0.30176        0.32268        0.34446        0.35144        0.28689        0.32335        0.28993        0.30139        0.27985        0.24053        0.29566        0.29678        0.34121        0.33325        0.33233        0.32276        0.34547        0.30658        0.34271        0.31801        0.30599        0.27774        0.32556        0.31171        0.35610        0.32301        0.33361        0.34140        0.29431        0.27433        0.30959        0.24564        0.22367        0.33235        0.31779        0.34838        0.33535        0.35068        0.32164        0.33991        0.34259        0.26253        0.24892        0.30803        0.30245        0.30737        0.32003        0.33874        0.33356        0.29998        0.29139        0.34037        0.31733        0.30021        0.27781        0.32033        0.34666        0.39426        0.33696        0.30071        0.27683        0.30427        0.27690        0.29159        0.26745        0.25285        0.31068        0.33226        0.34337        0.34809        0.31581        0.28384        0.29256        0.26005        0.26536        0.24793        0.31713        0.27868        0.22987        0.31605        0.30898        0.26565        0.28845        0.20913        0.21432        0.25350        0.18716        0.25323        0.31941        0.23689        0.21823        0.31174        0.32206        0.32220        0.31789        0.25622        0.22749        0.18352        0.21535        0.19080        0.21527        0.21934        0.26132        0.31293        0.29031        0.22045        0.11443        0.06293       -0.01576       -0.10286       -0.62053
2.723971 2.695118 2.666422 2.637884 2.609504 2.581281 2.553216 2.525308 2.497559 2.469967 2.442532 2.415255 2.388136 2.361175 2.334371 2.307724 2.281236 2.254905 2.228732 2.202716 2.176858 2.151158 2.125615 2.100230 2.075003 2.049933 2.025021 2.000266 1.975670 1.951230 1.926949 1.902825 1.878859 1.855050 1.831399 1.807906 1.784571 1.761393 1.738372 1.715510 1.692805 1.670257 1.647868 1.625635 1.603561 1.581644 1.559885 1.538284 1.516840 1.495554 1.474425 1.690071 2.106858 1.670251 1.169110 1.035064 0.441479 0.839958 0.559195 0.840792 0.801501 0.811272 0.754093 0.738727 0.588628 0.548430 0.495206 0.428066 0.241744 0.369296 0.201845 0.325281 0.223362 0.200959 0.174089 0.038598 0.017260 0.016072 -0.067171 0.128433 0.226434 0.186922 0.171487 0.329442 0.184276 0.510833 0.615214 0.613776 0.631405 0.869282 0.826022 0.935548 0.915585 1.013893 0.979080 1.071349 1.156253 1.038703 1.145909 0.909568 0.922660 0.787063 0.646641 0.793196 0.697038 0.478102 0.327965 0.249121 0.257689 0.147740 0.122656 0.157197 0.103698 0.127501 0.072347 0.254080 0.359743 0.342747 0.470534 0.545854 0.420023 0.581093 0.720337 0.672930 0.738548 0.701255 0.718055 0.656958 0.597941 0.507982 0.378594 0.277263 0.220521 0.082639 0.120024 -0.087658 -0.044718 -0.060413 -0.072082 -0.019257 0.140124 0.068874 0.242204 0.304653 0.338320 0.394520 0.501705 0.479748 0.479941 0.492469 0.307877 0.292242 0.283822 0.087003 0.043739 -0.066678 -0.009092 -0.059896 -0.089831 -0.085054 0.037043 0.081426 0.122402 0.211458 0.228906 0.243315 0.290005 0.434789 0.391801 0.266575 0.240598 0.220907 0.151473 0.143912 0.113793 0.002833 0.020100 0.065912 -0.000452 0.061114 0.144581 0.147483 0.234217 0.246611 0.282322 0.185814 0.216523 0.145491 0.168048 0.117205 0.049994 -0.006443 0.012873 -0.001810 -0.043087 0.061239 0.024042 0.124644 0.151018 0.191187 0.192497 0.156878 0.159239 0.177900 0.127594 0.058908 0.000870 0.052961 0.025690 -0.018368 0.035255 0.039410 0.057475 0.050921 0.062700 0.074600 0.129815 0.150269 0.055668 0.055992 0.055279 0.015688 -0.024145 0.015454 0.021197 0.005798 0.015413 0.044876 0.058988 0.053559 0.089588 0.061350 0.141684 0.059992 0.027804 0.037954 -0.033805 0.003177 0.042478 0.003265 0.036209 0.050283 0.022183 0.114365 0.031696 0.006544 0.055040 0.004299 0.012933 0.004964 -0.022408 0.027152 0.007738 0.005933 0.055988 0.056004 0.052797 0.033092 0.035718 0.033506 0.024062 -0.014222 -0.024705 0.032033 0.052371 0.082466 0.085781 0.058265 0.085575 0.109516 0.057293 0.115002 0.088489 0.037493 0.037836 0.102560 0.074229 0.117138 0.093697 0.070892 0.132919 0.057796 0.019902 0.096449 -0.027072 -0.004486 0.109987 0.058561 0.150256 0.088898 0.111903 0.048534 0.092264 0.093360 -0.012276 -0.028859 0.060223 0.061862 0.045033 0.045437 0.107540 0.068570 0.001497 0.049311 0.069467 0.056760 0.048322 -0.019249 0.074405 0.081779 0.135219 0.027431 0.013149 -0.021015 0.011935 -0.019887 0.002991 -0.043882 -0.033597 0.011540 0.047668 0.016395 0.037052 -0.008757 -0.036981 -0.043226 -0.029512 -0.071294 -0.063099 -0.005527 0.023319 -0.095263 0.016214 -0.029864 -0.065390 0.006166 -0.130791 -0.077880 -0.079437 -0.180327 -0.035685 0.047853 -0.046583 -0.152114 0.047305 0.075090 -0.032714 0.071181 -0.047192 0.247178 0.148834 0.225473 0.244200 0.247228 0.234090 0.293962 0.301165 0.331207 0.200354 0.206390 0.088559 -0.021476 -0.671647
0.072396 0.072899 0.074407 0.076919 0.080436 0.084957 0.090479 0.097002 0.104523 0.113040 0.122549 0.133045 0.144525 0.156980 0.170404 0.184787 0.200118 0.216384 0.233571 0.251661 0.270634 0.290467 0.311134 0.332605 0.354848 0.377826 0.401496 0.425813 0.450727 0.476181 0.502114 0.528459 0.555143 0.582087 0.609207 0.636410 0.663597 0.690665 0.717500 0.743984 0.769991 0.795389 0.820039 0.843796 0.866508 0.888019 0.908165 0.926781 0.943695 0.958734 0.971720 0.982476 0.990824 0.996586 0.999587 0.999657 0.996628 0.990342 0.980648 0.967406 0.950489 0.929784 0.905194 0.876642 0.844072 0.807452 0.766773 0.722055 0.673351 0.620740 0.564340 0.504301 0.440812 0.374100 0.304431 0.232112 0.157489 0.080949 0.002921 0.076130 0.155700 0.235251 0.314211 0.391979 0.467930 0.541415 0.611773 0.678331 0.740413 0.797349 0.848477 0.893159 0.930784 0.960776 0.982610 0.995816 0.999989 0.994801 0.980009 0.955462 0.921113 0.877023 0.823369 0.760450 0.688691 0.608644 0.520991 0.426540 0.326226 0.221102 0.112335 0.001193 0.110965 0.222706 0.332537 0.438927 0.540325 0.635187 0.721998 0.799300 0.865716 0.919984 0.960975 0.987730 0.999477 0.995664 0.975972 0.940341 0.888982 0.822387 0.741339 0.646909 0.540455 0.423607 0.298252 0.166511 0.030707 0.106671 0.243011 0.375625 0.501803 0.618867 0.724236 0.815481 0.890390 0.947028 0.983792 0.999468 0.993273 0.964899 0.914541 0.842912 0.751258 0.641348 0.515449 0.376302 0.227066 0.071258 0.087324 0.244687 0.396743 0.539416 0.668752 0.781036 0.872905 0.941459 0.984368 0.999958 0.987289 0.946219 0.877438 0.782479 0.663713 0.524305 0.368150 0.199776 0.024230 0.153069 0.326488 0.490362 0.639182 0.767781 0.871531 0.946518 0.989712 0.999101 0.973808 0.914162 0.821731 0.699318 0.550892 0.381498 0.197094 0.004360 0.189526 0.377159 0.551185 0.704591 0.831009 0.924986 0.982247 0.999910 0.976657 0.912843 0.810541 0.673510 0.507095 0.318046 0.114266 0.095498 0.302019 0.495999 0.668485 0.811293 0.917425 0.981428 0.999708 0.970763 0.895323 0.776390 0.619158 0.430832 0.220329 0.002120 0.225444 0.438280 0.629554 0.789063 0.908045 0.979691 0.999567 0.965932 0.879912 0.745529 0.569558 0.361244 0.131842 0.105956 0.338709 0.552986 0.736140 0.877087 0.967002 0.999913 0.973149 0.887593 0.747732 0.561483 0.339803 0.096080 0.154635 0.396545 0.614106 0.793027 0.921250 0.989794 0.993447 0.931208 0.806472 0.626930 0.404141 0.152865 0.109891 0.365998 0.597436 0.787600 0.922505 0.991863 0.989938 0.916076 0.774889 0.576050 0.333699 0.065512 0.208575 0.467804 0.692173 0.864019 0.969432 0.999461 0.950936 0.826867 0.636361 0.394041 0.118986 0.166715 0.439705 0.677274 0.859268 0.969854 0.998959 0.943269 0.806686 0.600154 0.340886 0.050993 0.244338 0.519016 0.748346 0.911304 0.992510 0.983769 0.884991 0.704395 0.457920 0.167932 0.138753 0.433293 0.687534 0.876740 0.982044 0.992423 0.905957 0.730223 0.481753 0.184584 0.131978 0.436211 0.697146 0.887754 0.987809 0.986131 0.881956 0.685237 0.415828 0.101598 0.224390 0.527299 0.774246 0.937939 0.999757 0.951999 0.798960 0.556706 0.251530 0.082806 0.408737 0.689103 0.891404 0.991669 0.977393 0.849244 0.621247 0.319409 0.021126 0.360093 0.656839 0.875214 0.988065 0.980733 0.853098 0.619893 0.309160 0.040988 0.386940 0.685022 0.897013 0.995153 0.965913 0.812016 0.552392 0.220051 0.142032
1.000000 1.000000 1.000000 1.000000 1.000000 1.000000 1.000000 1.000000 1.000000 1.000000 1.000000 1.000000 1.000000 1.000000 1.000000 1.000000 1.000000 1.000000 1.000000 1.000000 1.000000 1.000000 1.000000 1.000000 1.000000 1.000000 1.000000 1.000000 1.000000 1.000000 1.000000 1.000000 1.000000 1.000000 1.000000 1.000000 1.000000 1.000000 1.000000 1.000000 1.000000 1.000000 1.000000 1.000000 1.000000 1.000000 1.000000 1.000000 1.000000 1.000000 1.000000 1.000000 0.920017 0.920017 0.920017 0.912126 0.912126 0.912126 0.912126 0.912126 0.912126 0.912126 0.912126 0.912126 0.912126 0.912126 0.912126 0.912126 0.912126 0.912126 0.912126 0.912126 0.912126 0.912126 0.912126 0.912126 0.912126 0.912126 0.912126 0.912126 0.912126 0.912126 0.912126 0.912126 0.912126 0.912126 0.912126 0.912126 0.912126 0.912126 0.912126 0.912126 0.912126 0.912126 0.912126 0.912126 0.941321 0.942774 0.950937 0.950589 0.949986 0.947888 0.946719 0.946356 0.946248 0.946575 0.947280 0.948244 0.954507 0.955736 0.960187 0.961843 0.962589 0.963230 0.963879 0.963460 0.954738 0.954536 0.953173 0.952586 0.955113 0.954135 0.953324 0.954292 0.954167 0.954937 0.954841 0.954129 0.953025 0.951908 0.950950 0.950524 0.950308 0.951042 0.951460 0.952947 0.956265 0.956842 0.956969 0.957125 0.957225 0.958520 0.957424 0.956940 0.952989 0.953193 0.952768 0.953025 0.956563 0.956522 0.957081 0.957643 0.959229 0.959516 0.952771 0.950945 0.942131 0.939798 0.936163 0.930523 0.926004 0.927777 0.929043 0.929728 0.930179 0.925542 0.925407 0.923102 0.920929 0.923544 0.923043 0.923932 0.925266 0.923773 0.922851 0.922041 0.920160 0.912109 0.899744 0.898765 0.898865 0.903448 0.904649 0.903600 0.906058 0.894325 0.878055 0.861527 0.863435 0.866842 0.857656 0.854956 0.855459 0.856276 0.859802 0.852444 0.849766 0.845655 0.835946 0.828225 0.821755 0.814262 0.817082 0.812266 0.802691 0.800428 0.809717 0.803327 0.817855 0.822688 0.821473 0.820329 0.816797 0.810719 0.787114 0.786029 0.774292 0.753185 0.753654 0.751937 0.750720 0.748083 0.754566 0.744467 0.741773 0.725810 0.725581 0.729381 0.732176 0.730741 0.726188 0.729866 0.734624 0.716680 0.705475 0.693882 0.698156 0.698999 0.703437 0.703675 0.680333 0.647616 0.625399 0.644911 0.650204 0.619152 0.643317 0.656999 0.635676 0.632781 0.623303 0.625377 0.617710 0.621223 0.621168 0.622434 0.625635 0.640700 0.629704 0.625409 0.633556 0.633334 0.645173 0.641642 0.643776 0.614981 0.615090 0.637487 0.641180 0.626404 0.643737 0.631963 0.644811 0.680256 0.679956 0.648960 0.643114 0.623545 0.583381 0.572942 0.568040 0.578628 0.610241 0.596399 0.565327 0.539838 0.544312 0.559166 0.565959 0.568058 0.551999 0.559286 0.550816 0.527792 0.535059 0.546139 0.546282 0.534264 0.520471 0.519430 0.524298 0.545783 0.536610 0.494905 0.512647 0.509717 0.502544 0.446179 0.458235 0.442227 0.430583 0.386847 0.397033 0.407564 0.394729 0.317234 0.297784 0.298102 0.298356 0.296472 0.279841 0.255073 0.246074 0.217485 0.217816 0.205366 0.181854 0.177756 0.161333 0.150853 0.153812 0.120212 0.168238 0.230305 0.231479 0.231479 0.231479 0.231479 0.231479 0.231479 0.223156 0.223156 0.223156 0.223156 0.223156 0.223156 0.223156 0.223156 0.223156 0.246138 0.246138 0.246138 0.246138 0.246138 0.246138 0.246138 0.246138 0.246138 0.246138 0.246138 0.246138 0.246138 0.246138
0.000000 0.000000 0.000000 0.000000 0.000000 0.000000 0.000000 0.000000 0.000000 0.000000 0.000000 0.000000 0.000000 0.000000 0.000000 0.000000 0.000000 0.000000 0.000000 0.000000 0.000000 0.000000 0.000000 0.000000 0.000000 7.000000 4.000000 0.000000 0.000000 0.000000 0.000000 0.000000 0.000000 0.000000 0.000000 0.000000 0.000000 0.000000 0.000000 0.000000 0.000000 0.000000 0.000000 0.000000 0.000000 0.000000 0.000000 0.000000 0.000000 0.000000 0.000000 0.000000 0.180334 0.180334 0.180334 0.199007 0.199007 0.199007 0.199007 0.199007 0.199007 0.199007 0.199007 0.199007 0.199007 0.199007 0.199007 0.199007 0.199007 0.199007 0.199007 0.199007 0.199007 0.199007 0.199007 0.199007 0.199007 0.199007 0.199007 0.199007 0.199007 0.199007 0.199007 0.199007 0.199007 0.199007 0.199007 0.199007 0.199007 0.199007 0.199007 0.199007 0.199007 0.199007 0.199007 0.199007 0.225018 0.225018 0.225018 0.225018 0.225018 0.225018 0.225018 0.225018 0.225018 0.225018 0.225018 0.225018 0.225018 0.225018 0.225018 0.225018 0.225018 0.225018 0.225018 0.225018 0.225018 0.225018 0.225018 0.225018 0.225018 0.225018 0.225018 0.225018 0.225018 0.244339 0.244339 0.244339 0.244339 0.244339 0.244339 0.244339 0.244339 0.244339 0.244339 0.244339 0.244339 0.244339 0.244339 0.244339 0.244339 0.244339 0.244339 0.244339 0.244339 0.244339 0.244339 0.244339 0.251976 0.251976 0.251976 0.251976 0.251976 0.251976 0.251976 0.251976 0.251976 0.251976 0.251976 0.251976 0.251976 0.251976 0.251976 0.251976 0.251976 0.251976 0.251976 0.251976 0.264906 0.264906 0.264906 0.264906 0.264906 0.264906 0.264906 0.264906 0.264906 0.264906 0.264906 0.264906 0.264906 0.264906 0.264906 0.264906 0.264906 0.264906 0.264906 0.264906 0.264906 0.264906 0.264906 0.264906 0.264906 0.264906 0.264906 0.264906 0.264906 0.264906 0.264906 0.264906 0.264906 0.264906 0.264906 0.264906 0.264906 0.264906 0.264906 0.264906 0.264906 0.264906 0.264906 0.264906 0.264906 0.264906 0.264906 0.264906 0.264906 0.264906 0.264906 0.264906 0.264906 0.264906 0.264906 0.264906 0.264906 0.264906 0.264906 0.264906 0.264906 0.264906 0.256074 0.256074 0.256074 0.256074 0.256074 0.256074 0.256074 0.256074 0.256074 0.256074 0.256074 0.256074 0.256074 0.256074 0.269680 0.269680 0.269680 0.269680 0.269680 0.269680 0.269680 0.269680 0.269680 0.269680 0.269680 0.269680 0.264906 0.264906 0.264906 0.264906 0.264906 0.264906 0.264906 0.264906 0.264906 0.264906 0.264906 0.264906 0.269680 0.269680 0.269680 0.269680 0.269680 0.269680 0.269680 0.269680 0.269680 0.269680 0.269680 0.264906 0.264906 0.264906 0.264906 0.264906 0.264906 0.264906 0.264906 0.264906 0.264906 0.264906 0.256074 0.256074 0.256074 0.256074 0.256074 0.256074 0.256074 0.256074 0.256074 0.256074 0.256074 0.264906 0.264906 0.264906 0.264906 0.264906 0.264906 0.264906 0.264906 0.264906 0.264906 0.260378 0.260378 0.260378 0.260378 0.260378 0.260378 0.260378 0.260378 0.260378 0.260378 0.256074 0.256074 0.256074 0.256074 0.256074 0.256074 0.256074 0.256074 0.256074 0.256074 0.260378 0.260378 0.260378 0.260378 0.260378 0.260378 0.260378 0.260378 0.260378 0.256074 0.256074 0.256074 0.256074 0.256074 0.256074 0.256074 0.256074 0.256074 0.251976 0.251976 0.251976 0.251976 0.251976 0.251976 0.251976 0.251976 0.251976 0.251976 0.251976 0.251976 0.251976 0.251976
