# Output from CTFFind version 4.1.9, run on 2019-11-03 19:46:37
# Input file: stack11_bm3d_averaged_1_5.25_0_1000_half.mrc ; Number of micrographs: 1
# Pixel size: 3.000 Angstroms ; acceleration voltage: 300.0 keV ; spherical aberration: 0.00 mm ; amplitude contrast: 0.07
# Box size: 512 pixels ; min. res.: 30.0 Angstroms ; max. res.: 5.0 Angstroms ; min. def.: 5000.0 um; max. def. 50000.0 um; num. frames averaged: 1
# 6 lines per micrograph: #1 - spatial frequency (1/Angstroms); #2 - 1D rotational average of spectrum (assuming no astigmatism); #3 - 1D rotational average of spectrum; #4 - CTF fit; #5 - cross-correlation between spectrum and CTF fit; #6 - 2sigma of expected cross correlation of noise
0.000000 0.000651 0.001302 0.001953 0.002604 0.003255 0.003906 0.004557 0.005208 0.005859 0.006510 0.007161 0.007812 0.008464 0.009115 0.009766 0.010417 0.011068 0.011719 0.012370 0.013021 0.013672 0.014323 0.014974 0.015625 0.016276 0.016927 0.017578 0.018229 0.018880 0.019531 0.020182 0.020833 0.021484 0.022135 0.022786 0.023438 0.024089 0.024740 0.025391 0.026042 0.026693 0.027344 0.027995 0.028646 0.029297 0.029948 0.030599 0.031250 0.031901 0.032552 0.033203 0.033854 0.034505 0.035156 0.035807 0.036458 0.037109 0.037760 0.038411 0.039062 0.039714 0.040365 0.041016 0.041667 0.042318 0.042969 0.043620 0.044271 0.044922 0.045573 0.046224 0.046875 0.047526 0.048177 0.048828 0.049479 0.050130 0.050781 0.051432 0.052083 0.052734 0.053385 0.054036 0.054688 0.055339 0.055990 0.056641 0.057292 0.057943 0.058594 0.059245 0.059896 0.060547 0.061198 0.061849 0.062500 0.063151 0.063802 0.064453 0.065104 0.065755 0.066406 0.067057 0.067708 0.068359 0.069010 0.069661 0.070312 0.070964 0.071615 0.072266 0.072917 0.073568 0.074219 0.074870 0.075521 0.076172 0.076823 0.077474 0.078125 0.078776 0.079427 0.080078 0.080729 0.081380 0.082031 0.082682 0.083333 0.083984 0.084635 0.085286 0.085938 0.086589 0.087240 0.087891 0.088542 0.089193 0.089844 0.090495 0.091146 0.091797 0.092448 0.093099 0.093750 0.094401 0.095052 0.095703 0.096354 0.097005 0.097656 0.098307 0.098958 0.099609 0.100260 0.100911 0.101562 0.102214 0.102865 0.103516 0.104167 0.104818 0.105469 0.106120 0.106771 0.107422 0.108073 0.108724 0.109375 0.110026 0.110677 0.111328 0.111979 0.112630 0.113281 0.113932 0.114583 0.115234 0.115885 0.116536 0.117188 0.117839 0.118490 0.119141 0.119792 0.120443 0.121094 0.121745 0.122396 0.123047 0.123698 0.124349 0.125000 0.125651 0.126302 0.126953 0.127604 0.128255 0.128906 0.129557 0.130208 0.130859 0.131510 0.132161 0.132812 0.133464 0.134115 0.134766 0.135417 0.136068 0.136719 0.137370 0.138021 0.138672 0.139323 0.139974 0.140625 0.141276 0.141927 0.142578 0.143229 0.143880 0.144531 0.145182 0.145833 0.146484 0.147135 0.147786 0.148438 0.149089 0.149740 0.150391 0.151042 0.151693 0.152344 0.152995 0.153646 0.154297 0.154948 0.155599 0.156250 0.156901 0.157552 0.158203 0.158854 0.159505 0.160156 0.160807 0.161458 0.162109 0.162760 0.163411 0.164062 0.164714 0.165365 0.166016 0.166667 0.167318 0.167969 0.168620 0.169271 0.169922 0.170573 0.171224 0.171875 0.172526 0.173177 0.173828 0.174479 0.175130 0.175781 0.176432 0.177083 0.177734 0.178385 0.179036 0.179688 0.180339 0.180990 0.181641 0.182292 0.182943 0.183594 0.184245 0.184896 0.185547 0.186198 0.186849 0.187500 0.188151 0.188802 0.189453 0.190104 0.190755 0.191406 0.192057 0.192708 0.193359 0.194010 0.194661 0.195312 0.195964 0.196615 0.197266 0.197917 0.198568 0.199219 0.199870 0.200521 0.201172 0.201823 0.202474 0.203125 0.203776 0.204427 0.205078 0.205729 0.206380 0.207031 0.207682 0.208333 0.208984 0.209635 0.210286 0.210938 0.211589 0.212240 0.212891 0.213542 0.214193 0.214844 0.215495 0.216146 0.216797 0.217448 0.218099 0.218750 0.219401 0.220052 0.220703 0.221354 0.222005 0.222656 0.223307 0.223958 0.224609 0.225260 0.225911 0.226562 0.227214 0.227865 0.228516 0.229167 0.229818 0.230469 0.231120 0.231771 0.232422 0.233073 0.233724 0.234375 0.235026 0.235677
       0.34043        0.34043        0.34043        0.34043        0.34043        0.34043        0.34043        0.34043        0.34043        0.34043        0.34043        0.34043        0.34043        0.34043        0.34043        0.34043        0.34043        0.34043        0.34043        0.34043        0.34043        0.34043        0.34043        0.34043        0.34043        0.34043        0.34043        0.34043        0.34043        0.34043        0.34043        0.34043        0.34043        0.34043        0.34043        0.34043        0.34043        0.34043        0.34043        0.34043        0.34043        0.34043        0.34043        0.34043        0.34043        0.34043        0.34043        0.34043        0.34043        0.34043        0.34043        0.69660        0.85920        0.53541        0.10438       -0.03121       -0.39268       -0.18225       -0.28776       -0.11364       -0.05582       -0.11092       -0.05370       -0.17258       -0.20883       -0.21907       -0.30968       -0.32179       -0.44925       -0.36361       -0.43123       -0.42483       -0.39838       -0.41745       -0.45920       -0.51495       -0.56152       -0.56045       -0.53421       -0.36390       -0.33564       -0.29778       -0.27752       -0.18873       -0.17591        0.05578        0.13466        0.16672        0.25990        0.38076        0.45657        0.52156        0.59359        0.59126        0.57942        0.69762        0.80619        0.70722        0.74144        0.62550        0.56796        0.48286        0.42846        0.51114        0.39492        0.25963        0.11165        0.10337        0.08128       -0.02223        0.03104        0.04279        0.00034        0.02301        0.02049        0.23690        0.26906        0.29452        0.43179        0.45182        0.41169        0.58984        0.62383        0.64609        0.72918        0.67811        0.64870        0.66405        0.56321        0.46562        0.41913        0.30148        0.25757        0.17752        0.13274        0.05286        0.05707        0.06270        0.09515        0.15258        0.23894        0.29061        0.41280        0.46184        0.48260        0.57264        0.60631        0.63778        0.62036        0.56226        0.45910        0.47180        0.37785        0.26807        0.20676        0.15816        0.16670        0.14879        0.14758        0.17573        0.31136        0.32427        0.39793        0.43723        0.42764        0.48714        0.55981        0.55354        0.49763        0.45555        0.40942        0.36367        0.33425        0.30026        0.25184        0.24123        0.24002        0.24924        0.22148        0.30583        0.36165        0.38671        0.43894        0.45575        0.47106        0.42545        0.40619        0.40262        0.36068        0.32365        0.27230        0.26991        0.26306        0.23550        0.28471        0.28400        0.34676        0.37782        0.42452        0.47685        0.41101        0.42430        0.43227        0.40812        0.34733        0.32447        0.29255        0.31725        0.27024        0.31470        0.30740        0.32570        0.33390        0.35804        0.31801        0.39368        0.41553        0.37899        0.34798        0.37092        0.31420        0.29228        0.30031        0.32038        0.30506        0.31780        0.33716        0.34946        0.34017        0.36762        0.36711        0.41068        0.38384        0.33501        0.34244        0.29651        0.28563        0.32211        0.31663        0.32741        0.33731        0.33458        0.37917        0.32852        0.32913        0.33420        0.33990        0.30237        0.31022        0.27652        0.30110        0.32495        0.30375        0.32491        0.34997        0.35808        0.29225        0.33063        0.29396        0.29985        0.27968        0.24360        0.29992        0.30104        0.34203        0.33666        0.33747        0.32449        0.34812        0.31063        0.34381        0.31404        0.31525        0.28321        0.32974        0.31778        0.36000        0.32370        0.33446        0.34085        0.29385        0.27373        0.30873        0.24703        0.22636        0.33835        0.32072        0.35652        0.34041        0.35713        0.32706        0.33648        0.34459        0.26265        0.25473        0.31223        0.30265        0.30959        0.31968        0.33905        0.33357        0.29577        0.29103        0.34283        0.32045        0.30839        0.28584        0.32216        0.34365        0.39670        0.34826        0.30952        0.27756        0.30304        0.28337        0.29496        0.26968        0.25888        0.31183        0.33255        0.34326        0.35195        0.32353        0.28557        0.29774        0.26592        0.27065        0.25031        0.31301        0.27302        0.23561        0.30558        0.30237        0.26727        0.29237        0.21071        0.21301        0.24893        0.18908        0.26219        0.33426        0.24645        0.22810        0.31522        0.31576        0.32012        0.31676        0.26110        0.23575        0.18753        0.21577        0.19231        0.23828        0.22417        0.27053        0.33584        0.32140        0.23275        0.13266        0.06640       -0.01671       -0.10168       -0.61327
2.756146 2.726885 2.697784 2.668843 2.640062 2.611441 2.582980 2.554680 2.526539 2.498559 2.470739 2.443079 2.415579 2.388240 2.361060 2.334041 2.307182 2.280483 2.253944 2.227565 2.201346 2.175288 2.149390 2.123651 2.098074 2.072656 2.047398 2.022300 1.997363 1.972586 1.947968 1.923511 1.899215 1.875078 1.851101 1.827285 1.803629 1.780133 1.756797 1.733621 1.710605 1.687750 1.665054 1.642519 1.620144 1.597929 1.575874 1.553979 1.532245 1.510671 1.489256 1.705920 2.125761 1.685988 1.177627 1.043337 0.446473 0.844303 0.561948 0.844430 0.807766 0.815631 0.756356 0.745398 0.591878 0.554423 0.498945 0.428646 0.244319 0.369159 0.199947 0.328308 0.222352 0.204104 0.178614 0.038904 0.011834 0.016418 -0.068436 0.130250 0.228792 0.187296 0.175173 0.327776 0.184320 0.514561 0.618950 0.621948 0.638814 0.873920 0.830296 0.939512 0.924493 1.022856 0.989453 1.078054 1.165772 1.039643 1.153274 0.910305 0.925761 0.791223 0.649288 0.799919 0.697740 0.484437 0.330020 0.250496 0.261860 0.147156 0.128068 0.160207 0.105993 0.125774 0.075852 0.252169 0.357259 0.342447 0.473187 0.545332 0.418287 0.587583 0.725329 0.665097 0.727843 0.708532 0.718216 0.654674 0.598528 0.503034 0.375662 0.277997 0.220483 0.085507 0.119243 -0.098006 -0.045759 -0.060716 -0.075639 -0.018903 0.135360 0.070742 0.242298 0.306833 0.338720 0.387048 0.504029 0.468794 0.479376 0.492030 0.305812 0.291723 0.284184 0.086058 0.042595 -0.071944 -0.010719 -0.061511 -0.092951 -0.082114 0.037590 0.087827 0.123015 0.217401 0.227809 0.234466 0.288651 0.437750 0.396551 0.264028 0.240426 0.225249 0.151068 0.147963 0.118268 0.003436 0.021156 0.073588 0.000251 0.059175 0.143573 0.146687 0.230597 0.246631 0.272680 0.194024 0.220437 0.146163 0.162087 0.123149 0.050764 -0.006553 0.016033 -0.000730 -0.038665 0.066304 0.024103 0.123811 0.153181 0.201059 0.186231 0.151863 0.158784 0.178022 0.127738 0.056928 -0.002675 0.050637 0.032240 -0.021368 0.040893 0.037920 0.059934 0.050764 0.063698 0.062711 0.138338 0.143767 0.054936 0.052389 0.053367 0.016843 -0.022973 0.016831 0.019063 0.006725 0.015977 0.051160 0.060551 0.054956 0.081548 0.055987 0.149248 0.060868 0.032848 0.039058 -0.036225 0.004316 0.041145 0.002950 0.033416 0.050541 0.024632 0.117032 0.028346 0.001323 0.056252 0.004182 0.008437 0.003696 -0.025474 0.021629 0.006579 0.001528 0.052028 0.054251 0.057797 0.032702 0.037882 0.027745 0.018428 -0.020922 -0.026941 0.029679 0.050148 0.079725 0.083604 0.058931 0.076234 0.110883 0.054270 0.107890 0.080515 0.043962 0.033466 0.105961 0.070088 0.117251 0.091257 0.062281 0.122135 0.048958 0.011298 0.090338 -0.032587 -0.012311 0.107946 0.052428 0.155146 0.093056 0.101688 0.050362 0.073440 0.092661 -0.019347 -0.029174 0.056314 0.052868 0.042168 0.036591 0.104475 0.053530 -0.000745 0.056046 0.052178 0.053874 0.053330 -0.015813 0.068990 0.068984 0.132070 0.038566 0.020463 -0.026965 -0.005034 -0.014540 -0.001614 -0.051146 -0.032416 0.007684 0.029260 0.025145 0.039255 -0.000455 -0.042755 -0.038184 -0.025774 -0.073625 -0.060356 -0.015365 0.002744 -0.094556 -0.002496 -0.040802 -0.070132 0.000925 -0.139875 -0.086583 -0.094449 -0.198737 -0.038605 0.056106 -0.055243 -0.156902 0.039522 0.045392 -0.044737 0.050001 -0.068839 0.257559 0.157957 0.223281 0.254086 0.285900 0.242653 0.306650 0.327181 0.368522 0.211671 0.245007 0.083658 -0.022759 -0.671132
0.072396 0.072899 0.074407 0.076920 0.080438 0.084960 0.090483 0.097008 0.104531 0.113050 0.122561 0.133060 0.144542 0.157001 0.170428 0.184814 0.200149 0.216420 0.233611 0.251705 0.270682 0.290519 0.311191 0.332668 0.354916 0.377898 0.401573 0.425896 0.450814 0.476273 0.502211 0.528561 0.555249 0.582198 0.609321 0.636528 0.663718 0.690788 0.717625 0.744111 0.770118 0.795516 0.820165 0.843920 0.866629 0.888135 0.908276 0.926885 0.943791 0.958819 0.971794 0.982536 0.990869 0.996615 0.999598 0.999647 0.996596 0.990286 0.980566 0.967296 0.950349 0.929613 0.904990 0.876403 0.843798 0.807140 0.766423 0.721667 0.672923 0.620274 0.563834 0.503757 0.440230 0.373482 0.303779 0.231428 0.156776 0.080211 0.002161 0.076907 0.156490 0.236048 0.315009 0.392771 0.468709 0.542174 0.612503 0.679025 0.741063 0.797945 0.849012 0.893624 0.931169 0.961075 0.982814 0.995918 0.999983 0.994681 0.979769 0.955100 0.920626 0.876410 0.822631 0.759589 0.687711 0.607551 0.519792 0.425246 0.324848 0.219654 0.110833 0.000346 0.112522 0.224261 0.334068 0.440411 0.541739 0.636507 0.723200 0.800362 0.866616 0.920699 0.961488 0.988023 0.999538 0.995480 0.975538 0.939654 0.888043 0.821203 0.739921 0.645273 0.538623 0.421604 0.296111 0.164266 0.028398 0.109002 0.245318 0.377861 0.503919 0.620816 0.725971 0.816957 0.891567 0.947869 0.984266 0.999552 0.992953 0.964167 0.913400 0.841376 0.749351 0.639101 0.512908 0.373520 0.224105 0.068186 0.090430 0.247748 0.399676 0.542140 0.671186 0.783104 0.874538 0.942600 0.984969 0.999984 0.986722 0.945059 0.875700 0.780199 0.660945 0.521118 0.364631 0.196025 0.020362 0.156934 0.330226 0.493847 0.642290 0.770397 0.873552 0.947860 0.990308 0.998911 0.972816 0.912382 0.819207 0.696120 0.547124 0.377282 0.192578 0.000292 0.194141 0.381555 0.555181 0.708024 0.833723 0.926854 0.983172 0.999830 0.975550 0.910729 0.807486 0.669620 0.502520 0.312968 0.108896 0.100928 0.307267 0.500821 0.672649 0.814593 0.919686 0.982519 0.999550 0.969334 0.892663 0.772600 0.614399 0.425318 0.214319 0.008330 0.231546 0.443956 0.634499 0.793001 0.910746 0.980983 0.999350 0.964185 0.876698 0.740991 0.563923 0.354803 0.124943 0.112929 0.345359 0.558917 0.740991 0.880549 0.968839 0.999983 0.971410 0.884114 0.742690 0.555160 0.332567 0.088369 0.162343 0.403757 0.620346 0.797872 0.924354 0.990919 0.992478 0.928169 0.801530 0.620378 0.396402 0.144449 0.118411 0.374025 0.604397 0.792976 0.925881 0.992957 0.988629 0.912415 0.769101 0.568526 0.324976 0.056218 0.217739 0.476131 0.699011 0.868803 0.971756 0.999095 0.947860 0.821279 0.628668 0.384825 0.108977 0.176711 0.448857 0.684807 0.864522 0.972344 0.998424 0.939704 0.800346 0.591542 0.330714 0.040132 0.254935 0.528401 0.755658 0.915845 0.993820 0.981675 0.879630 0.696207 0.447625 0.156463 0.150326 0.443872 0.696092 0.882415 0.984238 0.990865 0.900742 0.721807 0.470922 0.172389 0.144328 0.447469 0.706146 0.893533 0.989719 0.983913 0.875778 0.675689 0.403869 0.088463 0.237307 0.538599 0.782682 0.942542 0.999964 0.947720 0.790603 0.545147 0.238019 0.096768 0.421567 0.699314 0.897781 0.993417 0.974239 0.841485 0.609732 0.305451 0.035901 0.373925 0.668041 0.882390 0.990282 0.977647 0.845015 0.607742 0.294402 0.056533 0.401328 0.696406 0.903897 0.996593 0.961644 0.802511 0.538825 0.204140 0.158218
1.000000 1.000000 1.000000 1.000000 1.000000 1.000000 1.000000 1.000000 1.000000 1.000000 1.000000 1.000000 1.000000 1.000000 1.000000 1.000000 1.000000 1.000000 1.000000 1.000000 1.000000 1.000000 1.000000 1.000000 1.000000 1.000000 1.000000 1.000000 1.000000 1.000000 1.000000 1.000000 1.000000 1.000000 1.000000 1.000000 1.000000 1.000000 1.000000 1.000000 1.000000 1.000000 1.000000 1.000000 1.000000 1.000000 1.000000 1.000000 1.000000 1.000000 1.000000 1.000000 0.920512 0.920512 0.920512 0.912458 0.912458 0.912458 0.912458 0.912458 0.912458 0.912458 0.912458 0.912458 0.912458 0.912458 0.912458 0.912458 0.912458 0.912458 0.912458 0.912458 0.912458 0.912458 0.912458 0.912458 0.912458 0.912458 0.912458 0.912458 0.912458 0.912458 0.912458 0.912458 0.912458 0.912458 0.912458 0.912458 0.912458 0.912458 0.912458 0.912458 0.912458 0.912458 0.912458 0.912458 0.941576 0.943002 0.951212 0.950822 0.950229 0.948179 0.946991 0.946642 0.946542 0.946873 0.947579 0.948540 0.954780 0.956009 0.960434 0.962101 0.962859 0.963520 0.964196 0.963797 0.955202 0.954988 0.953605 0.953043 0.955568 0.954628 0.953848 0.954817 0.954705 0.955361 0.955289 0.954605 0.953531 0.952443 0.951508 0.951096 0.950891 0.951618 0.952033 0.953500 0.956787 0.957372 0.957504 0.957658 0.957762 0.959048 0.958051 0.957474 0.945518 0.945251 0.944108 0.944197 0.947393 0.947402 0.947979 0.948581 0.950296 0.950645 0.946005 0.944993 0.936983 0.934525 0.931670 0.926176 0.921472 0.923349 0.924940 0.925626 0.925989 0.920973 0.920867 0.918731 0.915280 0.917798 0.917758 0.919091 0.920470 0.918861 0.918272 0.917132 0.915495 0.907860 0.895612 0.894479 0.892592 0.897387 0.898108 0.897078 0.900150 0.888817 0.873394 0.851237 0.853620 0.856926 0.847656 0.844180 0.844389 0.845156 0.848925 0.841563 0.839172 0.834560 0.824288 0.817889 0.811881 0.803107 0.802385 0.794179 0.784740 0.781112 0.805745 0.799510 0.809370 0.813909 0.813429 0.811158 0.805469 0.797329 0.773320 0.773038 0.759117 0.735698 0.736235 0.734951 0.734218 0.731522 0.737277 0.727784 0.725582 0.708254 0.706559 0.711244 0.714888 0.712548 0.712131 0.717041 0.721703 0.704422 0.694485 0.684963 0.689896 0.691935 0.692169 0.696101 0.672980 0.650159 0.634296 0.645516 0.653167 0.628581 0.643618 0.657035 0.631769 0.628425 0.618734 0.620979 0.610182 0.613070 0.611667 0.610813 0.616479 0.630619 0.620586 0.618654 0.629204 0.632672 0.644609 0.644146 0.646812 0.613144 0.615146 0.636750 0.641150 0.624792 0.641185 0.629752 0.642485 0.679240 0.672169 0.638228 0.632521 0.619508 0.580633 0.565486 0.560922 0.569782 0.602445 0.598970 0.574575 0.547592 0.551321 0.561383 0.567192 0.567640 0.551453 0.560527 0.549494 0.526275 0.534809 0.542032 0.539792 0.526171 0.511912 0.512390 0.517573 0.531080 0.529288 0.493260 0.513096 0.508510 0.496125 0.426934 0.441321 0.428176 0.417770 0.375145 0.385716 0.394007 0.378519 0.299721 0.284951 0.285809 0.285504 0.273446 0.252868 0.228986 0.220103 0.183021 0.187365 0.172934 0.147116 0.146090 0.129629 0.120224 0.125543 0.096771 0.150373 0.212826 0.214519 0.214519 0.214519 0.214519 0.214519 0.214519 0.198313 0.198313 0.198313 0.198313 0.198313 0.198313 0.198313 0.198313 0.198313 0.221978 0.221978 0.221978 0.221978 0.221978 0.221978 0.221978 0.221978 0.221978 0.221978 0.221978 0.221978 0.221978 0.221978
0.000000 0.000000 0.000000 0.000000 0.000000 0.000000 0.000000 0.000000 0.000000 0.000000 0.000000 0.000000 0.000000 0.000000 0.000000 0.000000 0.000000 0.000000 0.000000 0.000000 0.000000 0.000000 0.000000 0.000000 0.000000 7.000000 4.000000 0.000000 0.000000 0.000000 0.000000 0.000000 0.000000 0.000000 0.000000 0.000000 0.000000 0.000000 0.000000 0.000000 0.000000 0.000000 0.000000 0.000000 0.000000 0.000000 0.000000 0.000000 0.000000 0.000000 0.000000 0.000000 0.180334 0.180334 0.180334 0.199007 0.199007 0.199007 0.199007 0.199007 0.199007 0.199007 0.199007 0.199007 0.199007 0.199007 0.199007 0.199007 0.199007 0.199007 0.199007 0.199007 0.199007 0.199007 0.199007 0.199007 0.199007 0.199007 0.199007 0.199007 0.199007 0.199007 0.199007 0.199007 0.199007 0.199007 0.199007 0.199007 0.199007 0.199007 0.199007 0.199007 0.199007 0.199007 0.199007 0.199007 0.225018 0.225018 0.225018 0.225018 0.225018 0.225018 0.225018 0.225018 0.225018 0.225018 0.225018 0.225018 0.225018 0.225018 0.225018 0.225018 0.225018 0.225018 0.225018 0.225018 0.225018 0.225018 0.225018 0.225018 0.225018 0.225018 0.225018 0.225018 0.225018 0.244339 0.244339 0.244339 0.244339 0.244339 0.244339 0.244339 0.244339 0.244339 0.244339 0.244339 0.244339 0.244339 0.244339 0.244339 0.244339 0.244339 0.244339 0.244339 0.244339 0.244339 0.244339 0.244339 0.251976 0.251976 0.251976 0.251976 0.251976 0.251976 0.251976 0.251976 0.251976 0.251976 0.251976 0.251976 0.251976 0.251976 0.251976 0.251976 0.251976 0.251976 0.251976 0.251976 0.264906 0.264906 0.264906 0.264906 0.264906 0.264906 0.264906 0.264906 0.264906 0.264906 0.264906 0.264906 0.264906 0.264906 0.264906 0.264906 0.264906 0.264906 0.264906 0.264906 0.264906 0.264906 0.264906 0.264906 0.264906 0.264906 0.264906 0.264906 0.264906 0.264906 0.264906 0.264906 0.264906 0.264906 0.264906 0.264906 0.264906 0.264906 0.264906 0.264906 0.264906 0.264906 0.264906 0.264906 0.264906 0.264906 0.264906 0.264906 0.264906 0.264906 0.264906 0.264906 0.264906 0.264906 0.264906 0.264906 0.264906 0.264906 0.264906 0.264906 0.264906 0.264906 0.256074 0.256074 0.256074 0.256074 0.256074 0.256074 0.256074 0.256074 0.256074 0.256074 0.256074 0.256074 0.256074 0.256074 0.269680 0.269680 0.269680 0.269680 0.269680 0.269680 0.269680 0.269680 0.269680 0.269680 0.269680 0.269680 0.264906 0.264906 0.264906 0.264906 0.264906 0.264906 0.264906 0.264906 0.264906 0.264906 0.264906 0.264906 0.269680 0.269680 0.269680 0.269680 0.269680 0.269680 0.269680 0.269680 0.269680 0.269680 0.269680 0.264906 0.264906 0.264906 0.264906 0.264906 0.264906 0.264906 0.264906 0.264906 0.264906 0.264906 0.256074 0.256074 0.256074 0.256074 0.256074 0.256074 0.256074 0.256074 0.256074 0.256074 0.256074 0.264906 0.264906 0.264906 0.264906 0.264906 0.264906 0.264906 0.264906 0.264906 0.264906 0.260378 0.260378 0.260378 0.260378 0.260378 0.260378 0.260378 0.260378 0.260378 0.260378 0.256074 0.256074 0.256074 0.256074 0.256074 0.256074 0.256074 0.256074 0.256074 0.256074 0.260378 0.260378 0.260378 0.260378 0.260378 0.260378 0.260378 0.260378 0.260378 0.256074 0.256074 0.256074 0.256074 0.256074 0.256074 0.256074 0.256074 0.256074 0.251976 0.251976 0.251976 0.251976 0.251976 0.251976 0.251976 0.251976 0.251976 0.251976 0.251976 0.251976 0.251976 0.251976
