# Output from CTFFind version 4.1.9, run on 2019-11-03 19:00:10
# Input file: stack1_bm3d_averaged_1_2.25_0_50_half.mrc ; Number of micrographs: 1
# Pixel size: 3.000 Angstroms ; acceleration voltage: 300.0 keV ; spherical aberration: 0.00 mm ; amplitude contrast: 0.07
# Box size: 512 pixels ; min. res.: 30.0 Angstroms ; max. res.: 5.0 Angstroms ; min. def.: 5000.0 um; max. def. 50000.0 um; num. frames averaged: 1
# 6 lines per micrograph: #1 - spatial frequency (1/Angstroms); #2 - 1D rotational average of spectrum (assuming no astigmatism); #3 - 1D rotational average of spectrum; #4 - CTF fit; #5 - cross-correlation between spectrum and CTF fit; #6 - 2sigma of expected cross correlation of noise
0.000000 0.000651 0.001302 0.001953 0.002604 0.003255 0.003906 0.004557 0.005208 0.005859 0.006510 0.007161 0.007812 0.008464 0.009115 0.009766 0.010417 0.011068 0.011719 0.012370 0.013021 0.013672 0.014323 0.014974 0.015625 0.016276 0.016927 0.017578 0.018229 0.018880 0.019531 0.020182 0.020833 0.021484 0.022135 0.022786 0.023438 0.024089 0.024740 0.025391 0.026042 0.026693 0.027344 0.027995 0.028646 0.029297 0.029948 0.030599 0.031250 0.031901 0.032552 0.033203 0.033854 0.034505 0.035156 0.035807 0.036458 0.037109 0.037760 0.038411 0.039062 0.039714 0.040365 0.041016 0.041667 0.042318 0.042969 0.043620 0.044271 0.044922 0.045573 0.046224 0.046875 0.047526 0.048177 0.048828 0.049479 0.050130 0.050781 0.051432 0.052083 0.052734 0.053385 0.054036 0.054688 0.055339 0.055990 0.056641 0.057292 0.057943 0.058594 0.059245 0.059896 0.060547 0.061198 0.061849 0.062500 0.063151 0.063802 0.064453 0.065104 0.065755 0.066406 0.067057 0.067708 0.068359 0.069010 0.069661 0.070312 0.070964 0.071615 0.072266 0.072917 0.073568 0.074219 0.074870 0.075521 0.076172 0.076823 0.077474 0.078125 0.078776 0.079427 0.080078 0.080729 0.081380 0.082031 0.082682 0.083333 0.083984 0.084635 0.085286 0.085938 0.086589 0.087240 0.087891 0.088542 0.089193 0.089844 0.090495 0.091146 0.091797 0.092448 0.093099 0.093750 0.094401 0.095052 0.095703 0.096354 0.097005 0.097656 0.098307 0.098958 0.099609 0.100260 0.100911 0.101562 0.102214 0.102865 0.103516 0.104167 0.104818 0.105469 0.106120 0.106771 0.107422 0.108073 0.108724 0.109375 0.110026 0.110677 0.111328 0.111979 0.112630 0.113281 0.113932 0.114583 0.115234 0.115885 0.116536 0.117188 0.117839 0.118490 0.119141 0.119792 0.120443 0.121094 0.121745 0.122396 0.123047 0.123698 0.124349 0.125000 0.125651 0.126302 0.126953 0.127604 0.128255 0.128906 0.129557 0.130208 0.130859 0.131510 0.132161 0.132812 0.133464 0.134115 0.134766 0.135417 0.136068 0.136719 0.137370 0.138021 0.138672 0.139323 0.139974 0.140625 0.141276 0.141927 0.142578 0.143229 0.143880 0.144531 0.145182 0.145833 0.146484 0.147135 0.147786 0.148438 0.149089 0.149740 0.150391 0.151042 0.151693 0.152344 0.152995 0.153646 0.154297 0.154948 0.155599 0.156250 0.156901 0.157552 0.158203 0.158854 0.159505 0.160156 0.160807 0.161458 0.162109 0.162760 0.163411 0.164062 0.164714 0.165365 0.166016 0.166667 0.167318 0.167969 0.168620 0.169271 0.169922 0.170573 0.171224 0.171875 0.172526 0.173177 0.173828 0.174479 0.175130 0.175781 0.176432 0.177083 0.177734 0.178385 0.179036 0.179688 0.180339 0.180990 0.181641 0.182292 0.182943 0.183594 0.184245 0.184896 0.185547 0.186198 0.186849 0.187500 0.188151 0.188802 0.189453 0.190104 0.190755 0.191406 0.192057 0.192708 0.193359 0.194010 0.194661 0.195312 0.195964 0.196615 0.197266 0.197917 0.198568 0.199219 0.199870 0.200521 0.201172 0.201823 0.202474 0.203125 0.203776 0.204427 0.205078 0.205729 0.206380 0.207031 0.207682 0.208333 0.208984 0.209635 0.210286 0.210938 0.211589 0.212240 0.212891 0.213542 0.214193 0.214844 0.215495 0.216146 0.216797 0.217448 0.218099 0.218750 0.219401 0.220052 0.220703 0.221354 0.222005 0.222656 0.223307 0.223958 0.224609 0.225260 0.225911 0.226562 0.227214 0.227865 0.228516 0.229167 0.229818 0.230469 0.231120 0.231771 0.232422 0.233073 0.233724 0.234375 0.235026 0.235677
       0.33947        0.33947        0.33947        0.33947        0.33947        0.33947        0.33947        0.33947        0.33947        0.33947        0.33947        0.33947        0.33947        0.33947        0.33947        0.33947        0.33947        0.33947        0.33947        0.33947        0.33947        0.33947        0.33947        0.33947        0.33947        0.33947        0.33947        0.33947        0.33947        0.33947        0.33947        0.33947        0.33947        0.33947        0.33947        0.33947        0.33947        0.33947        0.33947        0.33947        0.33947        0.33947        0.33947        0.33947        0.33947        0.33947        0.33947        0.33947        0.33947        0.33947        0.33947        0.49935        0.71587        0.43451        0.20828       -0.05376       -0.24204       -0.06178       -0.10163       -0.05943        0.00584       -0.13599       -0.08706       -0.04839       -0.02077       -0.13533       -0.17668       -0.30443       -0.46332       -0.56747       -0.49856       -0.44444       -0.37339       -0.57073       -0.43727       -0.58517       -0.48772       -0.47824       -0.38452       -0.35461       -0.31415       -0.23911       -0.15351       -0.12891        0.01324       -0.00617        0.13424        0.19421        0.32697        0.43261        0.49259        0.55770        0.56585        0.58572        0.68475        0.64013        0.67837        0.60177        0.55389        0.63640        0.49745        0.43297        0.40207        0.31493        0.26483        0.28786        0.26983        0.09951        0.07504       -0.00643        0.00957        0.05080       -0.00672        0.08153        0.13169        0.21615        0.29578        0.29572        0.42208        0.58155        0.55963        0.57471        0.65758        0.67500        0.62598        0.68130        0.64538        0.56467        0.57441        0.41569        0.34378        0.26360        0.17013        0.09927        0.14488        0.11242        0.12125        0.12605        0.21228        0.21943        0.31684        0.35148        0.42368        0.50627        0.53249        0.55188        0.55923        0.60264        0.53194        0.46861        0.47458        0.33996        0.26316        0.26369        0.24069        0.15493        0.15030        0.17632        0.22231        0.25720        0.36075        0.40197        0.41820        0.45559        0.46232        0.49961        0.45494        0.48724        0.44548        0.38582        0.36088        0.35394        0.33633        0.30024        0.19646        0.19697        0.21986        0.29226        0.28440        0.37023        0.40111        0.36399        0.40790        0.46140        0.45252        0.44932        0.45144        0.37934        0.35172        0.29222        0.25974        0.28826        0.27113        0.31329        0.32374        0.35194        0.34328        0.39969        0.41122        0.44854        0.39675        0.45622        0.39478        0.35304        0.30820        0.29076        0.29613        0.27108        0.26988        0.33447        0.34369        0.34510        0.36029        0.36043        0.35913        0.43862        0.39966        0.36849        0.35258        0.30173        0.29705        0.32888        0.33769        0.32826        0.29025        0.32588        0.34729        0.38628        0.34594        0.33724        0.34151        0.35767        0.33435        0.29697        0.32462        0.31692        0.34954        0.34026        0.34005        0.37334        0.31925        0.32706        0.33889        0.31407        0.29516        0.27336        0.26339        0.31791        0.34172        0.35624        0.28913        0.31207        0.34941        0.30742        0.32262        0.28582        0.29078        0.29405        0.28492        0.29340        0.34613        0.33313        0.34627        0.33151        0.34079        0.33860        0.32190        0.33262        0.31891        0.25806        0.26356        0.33475        0.29511        0.30723        0.34990        0.32867        0.34262        0.34625        0.32179        0.28479        0.27505        0.28188        0.35198        0.35685        0.34506        0.31083        0.31184        0.31134        0.31083        0.28289        0.31526        0.31732        0.34388        0.32790        0.28255        0.27995        0.34074        0.32687        0.32689        0.29185        0.29110        0.33319        0.38595        0.32862        0.31716        0.33362        0.30114        0.31205        0.29545        0.30166        0.31879        0.24632        0.29484        0.31974        0.31930        0.32367        0.28124        0.27567        0.22973        0.22879        0.28967        0.30800        0.28665        0.27491        0.28235        0.35843        0.29148        0.21968        0.28396        0.26504        0.25235        0.27813        0.39066        0.27687        0.29290        0.29183        0.23847        0.29760        0.28446        0.23897        0.19293        0.26956        0.24229        0.22776        0.28548        0.26628        0.38403        0.36926        0.27572        0.24965        0.20916        0.28191        0.31576        0.22274        0.14372        0.19009        0.27572        0.24536        0.23964        0.13723        0.03100       -0.51830       -0.81134
2.603127 2.575943 2.548903 2.522010 2.495261 2.468658 2.442201 2.415889 2.389722 2.363701 2.337825 2.312095 2.286510 2.261071 2.235777 2.210628 2.185625 2.160768 2.136056 2.111489 2.087068 2.062792 2.038661 2.014677 1.990837 1.967143 1.943595 1.920192 1.896934 1.873822 1.850855 1.828034 1.805358 1.782828 1.760443 1.738203 1.716109 1.694160 1.672357 1.650700 1.629187 1.607821 1.586599 1.565523 1.544593 1.523808 1.503168 1.482674 1.462326 1.442122 1.422065 1.472936 1.786760 1.486327 1.168861 0.935061 0.544798 0.886183 0.657014 0.841921 0.892325 0.597669 0.689414 0.766707 0.771399 0.620331 0.568959 0.397550 0.107689 0.053675 0.062649 0.084169 0.299422 -0.053444 0.063647 -0.081090 0.004926 -0.021501 0.089990 0.080916 0.143660 0.181595 0.285226 0.266549 0.458068 0.372783 0.559748 0.556392 0.770515 0.802586 0.887887 0.985012 0.943517 0.973492 1.064380 0.968690 1.113827 0.930523 0.866067 0.966540 0.808333 0.733285 0.649077 0.554874 0.501279 0.461825 0.513476 0.268384 0.192799 0.156569 0.029853 0.233165 0.006744 0.125572 0.221075 0.262073 0.322471 0.360769 0.462318 0.570023 0.695958 0.539633 0.703262 0.848468 0.612755 0.742721 0.680205 0.624286 0.527147 0.493960 0.299094 0.227041 0.104046 -0.001151 0.011607 0.034294 -0.041164 -0.034765 0.095991 0.051545 0.124461 0.221367 0.244919 0.370217 0.398804 0.418275 0.461633 0.452561 0.452895 0.313424 0.340557 0.234733 0.088269 0.063897 0.042472 -0.039525 -0.077279 -0.071699 0.015102 -0.041889 0.101852 0.181780 0.177276 0.242747 0.251804 0.254645 0.332128 0.238305 0.272853 0.208539 0.152242 0.111350 0.133263 0.066004 0.018332 -0.113986 -0.030163 0.026250 0.059025 0.024805 0.158879 0.118518 0.133361 0.191046 0.284107 0.181880 0.229860 0.118984 0.159540 0.048637 -0.009366 0.007664 0.005489 0.006940 0.030685 0.077479 0.063047 0.079510 0.155687 0.162242 0.135281 0.096936 0.190793 0.065156 0.035959 -0.017122 -0.024248 -0.026532 -0.051664 -0.032368 0.050947 0.053652 0.025801 0.056561 0.077427 0.078950 0.181038 0.070142 0.080794 0.055424 -0.036281 0.029874 0.034345 0.036632 0.033737 0.006141 0.036425 0.056299 0.080213 0.042871 0.053122 0.025418 0.079940 0.023909 -0.008296 0.040282 0.008122 0.090276 0.053238 0.053300 0.088372 0.020487 0.034298 0.048239 0.027104 -0.003639 -0.017937 -0.024995 0.034781 0.069503 0.085766 -0.004584 0.064527 0.088574 0.009899 0.071187 0.024412 0.035101 0.029404 0.036177 0.052448 0.108311 0.058065 0.111024 0.068182 0.127804 0.068278 0.098378 0.095958 0.023431 -0.008821 0.021583 0.079715 0.049289 0.050645 0.108297 0.004505 0.093118 0.054237 0.024891 0.020129 -0.051724 0.019054 0.105021 0.070578 0.061291 0.031612 -0.002548 0.030205 0.030064 -0.029379 0.057957 0.031786 0.083081 0.047236 -0.044904 -0.001556 0.045782 0.032817 -0.010311 -0.010856 -0.020486 0.064276 0.091383 0.007859 -0.018340 0.055651 -0.031600 -0.005162 -0.028323 -0.014243 0.005110 -0.097870 0.011214 -0.007711 0.032586 -0.005578 -0.016757 -0.013745 -0.067271 -0.029814 -0.018069 0.053907 -0.020175 0.020258 0.000241 0.123527 -0.012750 -0.067359 0.013840 -0.015295 0.015157 0.000335 0.178860 -0.030776 0.017021 0.098881 -0.049798 0.041074 0.054659 -0.047076 -0.117538 0.018938 0.018972 -0.037705 0.017084 -0.007613 0.194845 0.113552 0.051227 -0.035496 -0.044403 -0.001011 0.091722 0.255192 0.166819 0.235492 0.301547 0.279536 0.284258 0.097455 0.241091 -0.470028
0.072396 0.072910 0.074450 0.077017 0.080610 0.085227 0.090869 0.097532 0.105215 0.113915 0.123628 0.134349 0.146074 0.158795 0.172504 0.187191 0.202845 0.219452 0.236996 0.255459 0.274819 0.295052 0.316132 0.338025 0.360698 0.384110 0.408218 0.432973 0.458321 0.484203 0.510554 0.537302 0.564371 0.591676 0.619128 0.646628 0.674074 0.701354 0.728349 0.754934 0.780976 0.806335 0.830866 0.854416 0.876825 0.897928 0.917557 0.935536 0.951687 0.965829 0.977780 0.987354 0.994369 0.998643 0.999996 0.998254 0.993251 0.984826 0.972832 0.957130 0.937598 0.914131 0.886642 0.855065 0.819358 0.779504 0.735515 0.687435 0.635338 0.579334 0.519569 0.456228 0.389536 0.319758 0.247201 0.172214 0.095189 0.016560 0.063199 0.143576 0.224018 0.303941 0.382729 0.459737 0.534300 0.605736 0.673350 0.736445 0.794328 0.846315 0.891746 0.929987 0.960445 0.982575 0.995892 0.999978 0.994496 0.979196 0.953927 0.918645 0.873420 0.818443 0.754033 0.680639 0.598847 0.509373 0.413069 0.310916 0.204021 0.093603 0.019012 0.132406 0.245086 0.355502 0.462065 0.563176 0.657244 0.742716 0.818105 0.882018 0.933186 0.970491 0.992996 0.999970 0.990918 0.965594 0.924029 0.866542 0.793746 0.706560 0.606204 0.494188 0.372308 0.242613 0.107384 0.030899 0.169605 0.305996 0.437278 0.560661 0.673422 0.772966 0.856890 0.923052 0.969628 0.995172 0.998673 0.979592 0.937904 0.874123 0.789311 0.685081 0.563580 0.427462 0.279836 0.124212 0.035579 0.195470 0.351259 0.498723 0.633728 0.752356 0.851023 0.926596 0.976508 0.998858 0.992491 0.957073 0.893128 0.802065 0.686169 0.548563 0.393145 0.224495 0.047753 0.131532 0.307561 0.474479 0.626571 0.758460 0.865316 0.943036 0.988431 0.999364 0.974880 0.915280 0.822158 0.698394 0.548091 0.376468 0.189695 0.005308 0.201116 0.390078 0.564614 0.717526 0.842309 0.933442 0.986657 0.999165 0.969825 0.899251 0.789853 0.645786 0.472836 0.278211 0.070268 0.141829 0.348503 0.540195 0.707809 0.843167 0.939418 0.991425 0.996061 0.952437 0.862015 0.728617 0.558302 0.359141 0.140856 0.085620 0.308680 0.516635 0.698325 0.843746 0.944617 0.994889 0.991153 0.932903 0.822660 0.665919 0.470934 0.248315 0.010504 0.228915 0.455968 0.657116 0.820074 0.934598 0.993157 0.991485 0.928937 0.808634 0.637379 0.425331 0.185456 0.067238 0.316598 0.546369 0.741253 0.887954 0.976127 0.999157 0.954717 0.845045 0.676911 0.461279 0.212652 0.051867 0.313714 0.554149 0.755625 0.903088 0.985149 0.995024 0.931170 0.797533 0.603391 0.362798 0.093624 0.183723 0.447833 0.677923 0.855524 0.965982 0.999756 0.953300 0.829511 0.637661 0.392782 0.114569 0.174146 0.449256 0.687366 0.867826 0.974569 0.997620 0.934107 0.788691 0.573341 0.306438 0.011289 0.285857 0.558121 0.780440 0.931912 0.997833 0.971219 0.853636 0.655263 0.394112 0.094505 0.215147 0.504979 0.746578 0.915795 0.995230 0.976131 0.859456 0.656002 0.385533 0.074960 0.244255 0.539267 0.779214 0.938508 0.999646 0.955241 0.809036 0.575748 0.279716 0.047535 0.370580 0.653913 0.865869 0.982241 0.989147 0.884819 0.680063 0.397286 0.068188 0.269727 0.577356 0.818558 0.964445 0.996959 0.911245 0.716498 0.435157 0.100457 0.247394 0.565992 0.815914 0.965671 0.995775 0.901437 0.693461 0.397196 0.049587 0.305320 0.621919 0.858908 0.984780 0.982135 0.850246 0.605500 0.279524 0.084718 0.438535 0.733974 0.930349 0.999995
1.000000 1.000000 1.000000 1.000000 1.000000 1.000000 1.000000 1.000000 1.000000 1.000000 1.000000 1.000000 1.000000 1.000000 1.000000 1.000000 1.000000 1.000000 1.000000 1.000000 1.000000 1.000000 1.000000 1.000000 1.000000 1.000000 1.000000 1.000000 1.000000 1.000000 1.000000 1.000000 1.000000 1.000000 1.000000 1.000000 1.000000 1.000000 1.000000 1.000000 1.000000 1.000000 1.000000 1.000000 1.000000 1.000000 1.000000 1.000000 1.000000 1.000000 1.000000 1.000000 0.916619 0.916619 0.905901 0.905901 0.905901 0.905901 0.905901 0.905901 0.905901 0.905901 0.905901 0.905901 0.905901 0.905901 0.905901 0.905901 0.905901 0.905901 0.905901 0.905901 0.905901 0.905901 0.905901 0.905901 0.905901 0.905901 0.905901 0.905901 0.905901 0.905901 0.905901 0.905901 0.905901 0.905901 0.905901 0.905901 0.905901 0.905901 0.905901 0.905901 0.905901 0.905901 0.905901 0.902058 0.904899 0.907083 0.905303 0.910147 0.910241 0.907894 0.907512 0.907102 0.907372 0.908355 0.918951 0.933596 0.941185 0.942607 0.946038 0.953052 0.955211 0.954911 0.961099 0.965813 0.964336 0.963850 0.964600 0.966315 0.968636 0.967123 0.967040 0.969514 0.970315 0.968567 0.966578 0.965909 0.964273 0.963360 0.963084 0.963413 0.963731 0.964231 0.963929 0.963781 0.963923 0.963944 0.962170 0.962353 0.964692 0.965899 0.965672 0.964207 0.961649 0.962769 0.965838 0.962545 0.962565 0.962113 0.962516 0.942591 0.933926 0.934113 0.928106 0.926934 0.922914 0.921248 0.919716 0.920462 0.923573 0.925150 0.920847 0.911959 0.903138 0.883453 0.906083 0.900231 0.879587 0.858058 0.857096 0.858153 0.856067 0.849756 0.842070 0.837528 0.834673 0.836286 0.840246 0.845311 0.843988 0.836117 0.834195 0.827004 0.804236 0.783621 0.769773 0.770213 0.767657 0.768803 0.770864 0.766912 0.774574 0.764163 0.757768 0.751176 0.740405 0.717101 0.699854 0.704979 0.713291 0.719070 0.715651 0.699398 0.658570 0.659721 0.683749 0.680975 0.682976 0.663196 0.657960 0.664880 0.670700 0.652118 0.647627 0.648068 0.648311 0.656307 0.663146 0.666257 0.644366 0.618710 0.608405 0.582559 0.594450 0.614674 0.579235 0.573728 0.553715 0.548018 0.553807 0.558358 0.554968 0.530792 0.521139 0.515136 0.501519 0.504976 0.504600 0.507635 0.503414 0.524718 0.537114 0.564244 0.565154 0.555152 0.555664 0.553975 0.544052 0.521862 0.528538 0.528650 0.532010 0.555759 0.568303 0.554076 0.551052 0.542158 0.543710 0.515971 0.515998 0.538612 0.530986 0.472536 0.451704 0.455605 0.404806 0.399384 0.351515 0.349002 0.349714 0.338902 0.313143 0.297993 0.286208 0.208167 0.165979 0.152521 0.165835 0.162251 0.193979 0.181667 0.164564 0.184103 0.223915 0.202706 0.193621 0.207686 0.195282 0.152176 0.128712 0.129697 0.083677 0.092744 0.073122 0.068435 0.056869 0.036051 0.035577 -0.038253 -0.087621 -0.081679 -0.064914 -0.042811 -0.048252 -0.041381 -0.081459 -0.078978 -0.051027 -0.047383 -0.059261 -0.090092 -0.058331 -0.044289 -0.043179 -0.078132 -0.098320 -0.101164 -0.108782 -0.106395 -0.097009 -0.076727 -0.017504 -0.012174 -0.011584 -0.013346 -0.033950 -0.042868 -0.032000 0.001310 0.009830 -0.015025 0.002252 -0.007179 -0.047986 -0.047986 -0.058063 -0.058063 -0.058063 -0.058063 -0.058063 -0.058063 -0.058063 -0.058063 -0.058063 -0.069960 -0.069960 -0.069960 -0.069960 -0.069960 -0.069960 -0.069960 -0.069960 -0.069960 -0.069960 -0.069960 -0.069960 -0.069960 -0.069960 -0.069960 -0.069960 -0.069960 -0.069960
0.000000 0.000000 0.000000 0.000000 0.000000 0.000000 0.000000 0.000000 0.000000 0.000000 0.000000 0.000000 0.000000 0.000000 0.000000 0.000000 0.000000 0.000000 0.000000 0.000000 0.000000 0.000000 0.000000 0.000000 0.000000 0.000000 0.000000 0.000000 0.000000 0.000000 0.000000 0.000000 0.000000 0.000000 0.000000 0.000000 0.000000 0.000000 0.000000 0.000000 0.000000 0.000000 0.000000 0.000000 0.000000 0.000000 0.000000 0.000000 0.000000 0.000000 0.000000 0.000000 0.181818 0.181818 0.199007 0.199007 0.199007 0.199007 0.199007 0.199007 0.199007 0.199007 0.199007 0.199007 0.199007 0.199007 0.199007 0.199007 0.199007 0.199007 0.199007 0.199007 0.199007 0.199007 0.199007 0.199007 0.199007 0.199007 0.199007 0.199007 0.199007 0.199007 0.199007 0.199007 0.199007 0.199007 0.199007 0.199007 0.199007 0.199007 0.199007 0.199007 0.199007 0.199007 0.199007 0.230940 0.230940 0.230940 0.230940 0.230940 0.230940 0.230940 0.230940 0.230940 0.230940 0.230940 0.230940 0.230940 0.230940 0.230940 0.230940 0.230940 0.230940 0.230940 0.230940 0.230940 0.230940 0.230940 0.230940 0.230940 0.230940 0.230940 0.230940 0.244339 0.244339 0.244339 0.244339 0.244339 0.244339 0.244339 0.244339 0.244339 0.244339 0.244339 0.244339 0.244339 0.244339 0.244339 0.244339 0.244339 0.244339 0.244339 0.244339 0.244339 0.244339 0.244339 0.251976 0.251976 0.251976 0.251976 0.251976 0.251976 0.251976 0.251976 0.251976 0.251976 0.251976 0.251976 0.251976 0.251976 0.251976 0.251976 0.251976 0.251976 0.251976 0.251976 0.264906 0.264906 0.264906 0.264906 0.264906 0.264906 0.264906 0.264906 0.264906 0.264906 0.264906 0.264906 0.264906 0.264906 0.264906 0.264906 0.264906 0.264906 0.264906 0.264906 0.264906 0.264906 0.264906 0.264906 0.264906 0.264906 0.264906 0.264906 0.264906 0.264906 0.264906 0.264906 0.264906 0.264906 0.264906 0.264906 0.264906 0.264906 0.264906 0.264906 0.264906 0.264906 0.264906 0.264906 0.264906 0.264906 0.264906 0.264906 0.264906 0.264906 0.264906 0.264906 0.264906 0.264906 0.264906 0.264906 0.264906 0.264906 0.264906 0.264906 0.264906 0.264906 0.264906 0.264906 0.264906 0.264906 0.264906 0.264906 0.264906 0.264906 0.264906 0.264906 0.264906 0.264906 0.264906 0.269680 0.269680 0.269680 0.269680 0.269680 0.269680 0.269680 0.269680 0.269680 0.269680 0.269680 0.269680 0.264906 0.264906 0.264906 0.264906 0.264906 0.264906 0.264906 0.264906 0.264906 0.264906 0.264906 0.264906 0.269680 0.269680 0.269680 0.269680 0.269680 0.269680 0.269680 0.269680 0.269680 0.269680 0.269680 0.264906 0.264906 0.264906 0.264906 0.264906 0.264906 0.264906 0.264906 0.264906 0.264906 0.264906 0.256074 0.256074 0.256074 0.256074 0.256074 0.256074 0.256074 0.256074 0.256074 0.256074 0.256074 0.264906 0.264906 0.264906 0.264906 0.264906 0.264906 0.264906 0.264906 0.264906 0.264906 0.260378 0.260378 0.260378 0.260378 0.260378 0.260378 0.260378 0.260378 0.260378 0.260378 0.264906 0.264906 0.264906 0.264906 0.264906 0.264906 0.264906 0.264906 0.264906 0.260378 0.260378 0.260378 0.260378 0.260378 0.260378 0.260378 0.260378 0.260378 0.256074 0.256074 0.256074 0.256074 0.256074 0.256074 0.256074 0.256074 0.256074 0.251976 0.251976 0.251976 0.251976 0.251976 0.251976 0.251976 0.251976 0.251976 0.251976 0.251976 0.251976 0.251976 0.251976 0.251976 0.251976 0.251976 0.251976
