# Output from CTFFind version 4.1.9, run on 2019-11-02 17:43:14
# Input file: stack6_bm3d_averaged_1_1.0_0_50_half.mrc ; Number of micrographs: 1
# Pixel size: 3.000 Angstroms ; acceleration voltage: 300.0 keV ; spherical aberration: 0.00 mm ; amplitude contrast: 0.07
# Box size: 512 pixels ; min. res.: 30.0 Angstroms ; max. res.: 5.0 Angstroms ; min. def.: 5000.0 um; max. def. 50000.0 um; num. frames averaged: 1
# 6 lines per micrograph: #1 - spatial frequency (1/Angstroms); #2 - 1D rotational average of spectrum (assuming no astigmatism); #3 - 1D rotational average of spectrum; #4 - CTF fit; #5 - cross-correlation between spectrum and CTF fit; #6 - 2sigma of expected cross correlation of noise
0.000000 0.000651 0.001302 0.001953 0.002604 0.003255 0.003906 0.004557 0.005208 0.005859 0.006510 0.007161 0.007812 0.008464 0.009115 0.009766 0.010417 0.011068 0.011719 0.012370 0.013021 0.013672 0.014323 0.014974 0.015625 0.016276 0.016927 0.017578 0.018229 0.018880 0.019531 0.020182 0.020833 0.021484 0.022135 0.022786 0.023438 0.024089 0.024740 0.025391 0.026042 0.026693 0.027344 0.027995 0.028646 0.029297 0.029948 0.030599 0.031250 0.031901 0.032552 0.033203 0.033854 0.034505 0.035156 0.035807 0.036458 0.037109 0.037760 0.038411 0.039062 0.039714 0.040365 0.041016 0.041667 0.042318 0.042969 0.043620 0.044271 0.044922 0.045573 0.046224 0.046875 0.047526 0.048177 0.048828 0.049479 0.050130 0.050781 0.051432 0.052083 0.052734 0.053385 0.054036 0.054688 0.055339 0.055990 0.056641 0.057292 0.057943 0.058594 0.059245 0.059896 0.060547 0.061198 0.061849 0.062500 0.063151 0.063802 0.064453 0.065104 0.065755 0.066406 0.067057 0.067708 0.068359 0.069010 0.069661 0.070312 0.070964 0.071615 0.072266 0.072917 0.073568 0.074219 0.074870 0.075521 0.076172 0.076823 0.077474 0.078125 0.078776 0.079427 0.080078 0.080729 0.081380 0.082031 0.082682 0.083333 0.083984 0.084635 0.085286 0.085938 0.086589 0.087240 0.087891 0.088542 0.089193 0.089844 0.090495 0.091146 0.091797 0.092448 0.093099 0.093750 0.094401 0.095052 0.095703 0.096354 0.097005 0.097656 0.098307 0.098958 0.099609 0.100260 0.100911 0.101562 0.102214 0.102865 0.103516 0.104167 0.104818 0.105469 0.106120 0.106771 0.107422 0.108073 0.108724 0.109375 0.110026 0.110677 0.111328 0.111979 0.112630 0.113281 0.113932 0.114583 0.115234 0.115885 0.116536 0.117188 0.117839 0.118490 0.119141 0.119792 0.120443 0.121094 0.121745 0.122396 0.123047 0.123698 0.124349 0.125000 0.125651 0.126302 0.126953 0.127604 0.128255 0.128906 0.129557 0.130208 0.130859 0.131510 0.132161 0.132812 0.133464 0.134115 0.134766 0.135417 0.136068 0.136719 0.137370 0.138021 0.138672 0.139323 0.139974 0.140625 0.141276 0.141927 0.142578 0.143229 0.143880 0.144531 0.145182 0.145833 0.146484 0.147135 0.147786 0.148438 0.149089 0.149740 0.150391 0.151042 0.151693 0.152344 0.152995 0.153646 0.154297 0.154948 0.155599 0.156250 0.156901 0.157552 0.158203 0.158854 0.159505 0.160156 0.160807 0.161458 0.162109 0.162760 0.163411 0.164062 0.164714 0.165365 0.166016 0.166667 0.167318 0.167969 0.168620 0.169271 0.169922 0.170573 0.171224 0.171875 0.172526 0.173177 0.173828 0.174479 0.175130 0.175781 0.176432 0.177083 0.177734 0.178385 0.179036 0.179688 0.180339 0.180990 0.181641 0.182292 0.182943 0.183594 0.184245 0.184896 0.185547 0.186198 0.186849 0.187500 0.188151 0.188802 0.189453 0.190104 0.190755 0.191406 0.192057 0.192708 0.193359 0.194010 0.194661 0.195312 0.195964 0.196615 0.197266 0.197917 0.198568 0.199219 0.199870 0.200521 0.201172 0.201823 0.202474 0.203125 0.203776 0.204427 0.205078 0.205729 0.206380 0.207031 0.207682 0.208333 0.208984 0.209635 0.210286 0.210938 0.211589 0.212240 0.212891 0.213542 0.214193 0.214844 0.215495 0.216146 0.216797 0.217448 0.218099 0.218750 0.219401 0.220052 0.220703 0.221354 0.222005 0.222656 0.223307 0.223958 0.224609 0.225260 0.225911 0.226562 0.227214 0.227865 0.228516 0.229167 0.229818 0.230469 0.231120 0.231771 0.232422 0.233073 0.233724 0.234375 0.235026 0.235677
       0.31241        0.31241        0.31241        0.31241        0.31241        0.31241        0.31241        0.31241        0.31241        0.31241        0.31241        0.31241        0.31241        0.31241        0.31241        0.31241        0.31241        0.31241        0.31241        0.31241        0.31241        0.31241        0.31241        0.31241        0.31241        0.31241        0.31241        0.31241        0.31241        0.31241        0.31241        0.31241        0.31241        0.31241        0.31241        0.31241        0.31241        0.31241        0.31241        0.31241        0.31241        0.31241        0.31241        0.31241        0.31241        0.31241        0.31241        0.31241        0.31241        0.31241        0.31241        0.63164        0.81996        0.41759        0.31484        0.18482       -0.10384        0.11005       -0.00382        0.03245        0.12133        0.33820        0.42321        0.40942        0.22993       -0.01349        0.04931        0.06801       -0.17328       -0.18250       -0.09053       -0.10442       -0.29696       -0.19804       -0.29872       -0.24993       -0.28717       -0.40733       -0.47330       -0.48741       -0.43714       -0.34265       -0.44163       -0.36796       -0.41116       -0.35735       -0.28128       -0.20897       -0.19501       -0.14378       -0.09747        0.03925        0.07429        0.25221        0.27271        0.35935        0.40681        0.53247        0.60091        0.61839        0.74754        0.70612        0.74709        0.65860        0.66430        0.69204        0.63456        0.61608        0.60635        0.42836        0.40643        0.35403        0.30895        0.22490        0.13003        0.06024        0.05930        0.00114       -0.08017       -0.03114       -0.03167       -0.07215        0.06830        0.16430        0.25215        0.32240        0.33890        0.42846        0.54851        0.60378        0.55301        0.66945        0.57763        0.55242        0.59868        0.65696        0.53840        0.44835        0.41131        0.37795        0.24432        0.21598        0.12870        0.11632        0.05290        0.04488        0.10413        0.17313        0.14424        0.18076        0.22083        0.24380        0.32760        0.46456        0.49942        0.50300        0.50792        0.58070        0.57019        0.52547        0.43845        0.39343        0.36505        0.27450        0.25065        0.20460        0.20209        0.19291        0.17228        0.16626        0.13696        0.19883        0.24924        0.33385        0.38650        0.41196        0.45943        0.54428        0.48264        0.50014        0.42327        0.39486        0.38239        0.36369        0.29389        0.24667        0.18865        0.23625        0.21251        0.18351        0.22508        0.22795        0.23047        0.29920        0.39649        0.39764        0.38039        0.39930        0.46300        0.49287        0.42471        0.34861        0.32608        0.27476        0.27007        0.25532        0.21501        0.28186        0.29678        0.29884        0.31791        0.31605        0.35276        0.37310        0.37670        0.37927        0.35029        0.31427        0.32852        0.32386        0.30078        0.27955        0.27523        0.22070        0.27445        0.28032        0.29610        0.31523        0.34203        0.38085        0.34285        0.30970        0.36577        0.35511        0.25834        0.29228        0.30628        0.24478        0.20386        0.25253        0.27744        0.28151        0.29769        0.31477        0.34832        0.33642        0.36718        0.32508        0.32258        0.30928        0.30529        0.27068        0.25202        0.25943        0.25842        0.28205        0.30931        0.31034        0.30015        0.30350        0.32520        0.26579        0.29829        0.26767        0.25611        0.27746        0.26609        0.26521        0.26172        0.30520        0.29600        0.32738        0.28885        0.26535        0.30669        0.32204        0.33828        0.31915        0.28928        0.24937        0.25366        0.26327        0.26314        0.31774        0.31156        0.33196        0.31795        0.31515        0.23768        0.27298        0.20491        0.21837        0.25456        0.25645        0.26457        0.28434        0.30434        0.29995        0.36189        0.30892        0.25615        0.24395        0.23462        0.28350        0.32089        0.31060        0.27197        0.27364        0.26625        0.33074        0.29157        0.26040        0.26372        0.26990        0.27742        0.25006        0.26679        0.31053        0.29433        0.24258        0.24949        0.28290        0.31651        0.26783        0.26669        0.25068        0.27078        0.29314        0.36422        0.27238        0.27519        0.27260        0.24019        0.23091        0.18359        0.23838        0.23347        0.23459        0.17697        0.20157        0.22626        0.20308        0.23312        0.21468        0.23766        0.24207        0.21940        0.16323        0.17899        0.20639        0.25572        0.11080        0.06265        0.20960        0.14516        0.12047        0.24844        0.17055        0.23818        0.22405        0.01403       -0.50493       -1.02327
2.763060 2.736093 2.709265 2.682575 2.656023 2.629609 2.603334 2.577197 2.551198 2.525337 2.499614 2.474030 2.448584 2.423276 2.398107 2.373075 2.348182 2.323427 2.298810 2.274332 2.249992 2.225790 2.201726 2.177800 2.154013 2.130364 2.106853 2.083480 2.060246 2.037150 2.014191 1.991372 1.968690 1.946147 1.923742 1.901475 1.879346 1.857356 1.835504 1.813790 1.792214 1.770777 1.749477 1.728316 1.707294 1.686409 1.665663 1.645054 1.624585 1.604253 1.584059 1.866113 2.219323 1.654173 1.705560 1.347998 0.915798 1.168524 0.997294 1.048264 1.009443 1.459169 1.485369 1.500973 1.264552 0.919568 0.805609 0.989095 0.685757 0.482733 0.571308 0.666777 0.413370 0.468950 0.326008 0.380516 0.242849 0.147021 -0.024920 0.001479 0.004125 0.083936 0.039018 0.079209 -0.040977 0.032401 0.111396 0.213401 0.272041 0.205760 0.311580 0.550646 0.432189 0.719111 0.775352 0.843449 0.905306 1.104370 1.150125 1.163275 1.307503 1.228881 1.352956 1.191723 1.095046 1.284006 1.112398 1.033719 1.114248 0.860231 0.738309 0.671926 0.648253 0.456154 0.389074 0.265510 0.234973 0.101156 0.009528 0.092351 0.037765 -0.053339 0.125042 0.254905 0.322905 0.453271 0.491372 0.552939 0.710463 0.829062 0.671287 0.958601 0.775373 0.692085 0.763072 0.814351 0.726210 0.623099 0.435051 0.515714 0.290470 0.185592 0.154074 0.018433 -0.012246 -0.102837 -0.020215 0.063320 0.078738 -0.026209 0.252248 0.100443 0.233769 0.381785 0.440873 0.552261 0.419384 0.556069 0.638968 0.503477 0.411273 0.358707 0.331729 0.154988 0.159450 0.010053 0.102202 0.023945 0.000004 -0.017645 -0.091020 0.013897 0.042389 0.102663 0.287945 0.225526 0.357368 0.364811 0.475029 0.383129 0.401535 0.326974 0.228734 0.310454 0.182724 0.154734 0.002692 0.042650 0.085421 -0.034128 0.007466 0.033607 0.063891 0.067719 0.219987 0.312633 0.241167 0.223197 0.386424 0.403451 0.351401 0.242040 0.176023 0.154386 0.095159 0.079811 0.044342 0.023082 0.139704 0.072965 0.184255 0.105231 0.154108 0.233357 0.213882 0.239641 0.208095 0.196480 0.104820 0.166315 0.142735 0.100856 0.106514 0.006715 0.048411 0.099841 0.055991 0.138595 0.122449 0.200410 0.219843 0.152510 0.121615 0.222356 0.092227 0.068196 0.078442 0.064075 -0.000726 -0.037425 0.042876 0.074309 0.045705 0.113871 0.116486 0.144134 0.146728 0.185021 0.104120 0.099960 0.109906 0.099321 0.025461 0.023331 0.055281 0.000488 0.083935 0.120837 0.088496 0.074327 0.082790 0.111059 0.017653 0.099728 0.031092 0.013198 0.083093 0.013519 0.022812 0.040583 0.085705 0.047726 0.118746 0.057104 -0.007633 0.105206 0.084483 0.090456 0.082454 0.006152 -0.024796 -0.026385 0.035843 -0.013401 0.079368 0.047560 0.115477 0.054117 0.104306 -0.058817 0.005635 -0.097371 -0.010395 -0.052652 0.008259 -0.000247 0.024036 0.069291 0.032756 0.113265 0.002462 -0.035588 -0.059898 -0.077054 0.041725 0.062226 0.037509 -0.014377 -0.024478 -0.019866 0.058802 -0.019267 -0.067268 -0.032689 -0.050673 -0.012873 -0.057618 -0.033562 0.021730 -0.010821 -0.068007 -0.020404 0.029863 0.006776 -0.004749 -0.019615 -0.043085 0.053307 0.056995 0.140116 0.005192 0.018771 0.044547 0.006640 -0.039080 -0.056227 0.030481 0.020243 0.021452 -0.056622 -0.030929 0.064915 -0.058900 0.124571 0.011586 0.121602 0.041774 0.102072 -0.080149 0.042291 -0.002000 0.198954 -0.037948 0.013981 0.287545 0.178665 0.163527 0.456393 0.185352 0.311711 0.332210 0.022241 -1.393944
0.072396 0.072835 0.074151 0.076343 0.079413 0.083358 0.088177 0.093871 0.100437 0.107873 0.116176 0.125344 0.135373 0.146258 0.157994 0.170575 0.183993 0.198238 0.213301 0.229170 0.245831 0.263269 0.281464 0.300399 0.320049 0.340389 0.361392 0.383025 0.405255 0.428043 0.451347 0.475121 0.499316 0.523876 0.548744 0.573857 0.599145 0.624536 0.649953 0.675311 0.700523 0.725495 0.750128 0.774319 0.797959 0.820933 0.843122 0.864404 0.884651 0.903731 0.921507 0.937844 0.952597 0.965626 0.976785 0.985928 0.992911 0.997590 0.999822 0.999469 0.996396 0.990474 0.981580 0.969600 0.954428 0.935970 0.914144 0.888882 0.860131 0.827856 0.792039 0.752685 0.709819 0.663488 0.613765 0.560751 0.504569 0.445376 0.383355 0.318720 0.251715 0.182614 0.111725 0.039382 0.034047 0.108166 0.182554 0.256759 0.330310 0.402709 0.473445 0.541988 0.607797 0.670324 0.729018 0.783332 0.832723 0.876666 0.914653 0.946202 0.970863 0.988228 0.997933 0.999666 0.993177 0.978280 0.954864 0.922892 0.882414 0.833567 0.776580 0.711776 0.639579 0.560506 0.475175 0.384301 0.288690 0.189238 0.086924 0.017196 0.122003 0.226320 0.328928 0.428577 0.524005 0.613950 0.697171 0.772464 0.838682 0.894757 0.939714 0.972696 0.992981 0.999998 0.993347 0.972811 0.938372 0.890219 0.828757 0.754609 0.668623 0.571862 0.465600 0.351311 0.230654 0.105453 0.022328 0.150615 0.277249 0.400028 0.516746 0.625229 0.723378 0.809218 0.880936 0.936927 0.975834 0.996588 0.998438 0.980986 0.944209 0.888475 0.814552 0.723614 0.617226 0.497331 0.366224 0.226513 0.081076 0.066995 0.214457 0.357982 0.494235 0.619953 0.732027 0.827579 0.904048 0.959267 0.991526 0.999643 0.983006 0.941621 0.876126 0.787809 0.678588 0.550994 0.408117 0.253550 0.091298 0.074309 0.238731 0.397345 0.545564 0.678987 0.793527 0.885543 0.951975 0.990447 0.999374 0.978035 0.926626 0.846289 0.739107 0.608069 0.457010 0.290504 0.113752 0.067585 0.247550 0.420090 0.579259 0.719424 0.835479 0.923043 0.978634 0.999830 0.985392 0.935344 0.851018 0.735043 0.591292 0.424772 0.241471 0.048156 0.147870 0.339026 0.517759 0.676836 0.809653 0.910523 0.974932 0.999766 0.983486 0.926238 0.829896 0.698041 0.535851 0.349927 0.148045 0.061152 0.268517 0.464786 0.641010 0.788959 0.901531 0.973106 0.999864 0.980004 0.913898 0.804128 0.655429 0.474515 0.269811 0.051077 0.171030 0.385481 0.581413 0.748687 0.878433 0.963544 0.999093 0.982653 0.914491 0.797630 0.637758 0.442992 0.223500 0.009008 0.241874 0.462193 0.657515 0.816569 0.929941 0.990650 0.994627 0.941023 0.832338 0.674366 0.475931 0.248425 0.005212 0.239174 0.469849 0.672514 0.834356 0.944874 0.996602 0.985663 0.912101 0.779971 0.597176 0.375055 0.127706 0.128864 0.377766 0.602332 0.787251 0.919630 0.989937 0.992740 0.927169 0.797095 0.610962 0.381298 0.123924 0.143097 0.400723 0.630267 0.814792 0.940373 0.997201 0.980408 0.890540 0.733637 0.520904 0.267964 0.006232 0.280794 0.534479 0.747333 0.902297 0.986611 0.992932 0.920032 0.773039 0.563148 0.306854 0.024698 0.260333 0.524656 0.746067 0.905620 0.989307 0.989348 0.904994 0.742732 0.515885 0.243583 0.050780 0.341528 0.602924 0.811471 0.948048 0.999747 0.961154 0.835003 0.632084 0.370419 0.073737 0.230638 0.514263 0.750253 0.915849 0.994687 0.978485 0.868005 0.673161 0.412233 0.110226 0.203450 0.497827 0.743430 0.915261
1.000000 1.000000 1.000000 1.000000 1.000000 1.000000 1.000000 1.000000 1.000000 1.000000 1.000000 1.000000 1.000000 1.000000 1.000000 1.000000 1.000000 1.000000 1.000000 1.000000 1.000000 1.000000 1.000000 1.000000 1.000000 1.000000 1.000000 1.000000 1.000000 1.000000 1.000000 1.000000 1.000000 1.000000 1.000000 1.000000 1.000000 1.000000 1.000000 1.000000 1.000000 1.000000 1.000000 1.000000 1.000000 1.000000 1.000000 1.000000 1.000000 1.000000 1.000000 1.000000 0.831341 0.831341 0.831341 0.831341 0.831341 0.831341 0.831341 0.814135 0.814135 0.814135 0.814135 0.814135 0.814135 0.814135 0.814135 0.814135 0.814135 0.814135 0.814135 0.814135 0.814135 0.814135 0.814135 0.814135 0.814135 0.814135 0.814135 0.814135 0.814135 0.814135 0.814135 0.814135 0.814135 0.814135 0.814135 0.814135 0.814135 0.814135 0.814135 0.814135 0.814135 0.814135 0.814135 0.814135 0.814135 0.814135 0.814135 0.814135 0.814135 0.814135 0.814135 0.950764 0.951604 0.948997 0.948060 0.946526 0.942907 0.938853 0.938311 0.940722 0.940967 0.941445 0.943576 0.944159 0.945775 0.947392 0.948200 0.949675 0.957724 0.961380 0.960971 0.961283 0.952527 0.959306 0.958192 0.955684 0.956307 0.956511 0.957149 0.957068 0.956936 0.956573 0.955066 0.955676 0.955469 0.954743 0.953747 0.951684 0.951579 0.951185 0.951342 0.952292 0.952832 0.953601 0.954124 0.953405 0.953549 0.953554 0.953463 0.949182 0.949157 0.941660 0.941876 0.942717 0.942217 0.941230 0.939719 0.939799 0.939740 0.939748 0.939684 0.940072 0.923414 0.923243 0.923490 0.923004 0.915973 0.905915 0.899976 0.895547 0.896983 0.901319 0.905800 0.906282 0.903468 0.902301 0.886777 0.883365 0.870443 0.866607 0.855641 0.865490 0.866892 0.867732 0.857472 0.857167 0.855189 0.853440 0.846072 0.850770 0.850659 0.846841 0.842189 0.841077 0.838560 0.843071 0.851430 0.852730 0.849141 0.851028 0.837840 0.829829 0.828700 0.829350 0.836175 0.847839 0.847576 0.846262 0.840859 0.837392 0.832255 0.830195 0.829902 0.831222 0.830631 0.833441 0.828351 0.839493 0.829464 0.821860 0.826947 0.834323 0.835189 0.834475 0.836274 0.833831 0.837485 0.821237 0.813947 0.815670 0.764021 0.767547 0.759194 0.755205 0.725545 0.727922 0.721192 0.722788 0.717423 0.710942 0.722241 0.722473 0.677881 0.685394 0.678679 0.661832 0.634912 0.646598 0.663427 0.673981 0.672285 0.667205 0.654580 0.648901 0.660861 0.662979 0.667658 0.654688 0.649747 0.637078 0.643046 0.625217 0.630815 0.626700 0.626758 0.629177 0.626839 0.606548 0.615427 0.607778 0.596655 0.590857 0.569034 0.530223 0.515395 0.505023 0.480114 0.465290 0.481943 0.477124 0.459626 0.446362 0.431979 0.422318 0.427608 0.426073 0.430877 0.431914 0.430057 0.384727 0.399623 0.393370 0.388766 0.375252 0.395271 0.383489 0.344426 0.322010 0.293435 0.310710 0.320536 0.319370 0.299938 0.291383 0.302743 0.258849 0.260343 0.259759 0.282048 0.236399 0.177458 0.205383 0.208147 0.208512 0.201930 0.156166 0.181446 0.156717 0.169344 0.177989 0.120119 0.088056 0.075359 0.055903 0.064592 0.090304 0.098820 0.084041 0.065675 -0.039404 -0.003396 0.024393 0.024393 0.024393 0.024393 0.024393 0.024393 0.024393 0.024393 0.024393 0.024393 0.024393 -0.041442 -0.041442 -0.041442 -0.041442 -0.041442 -0.041442 -0.041442 -0.041442 -0.041442 -0.041442 -0.041442 -0.041442 -0.041442 -0.041442 -0.041442 -0.041442 -0.041442 -0.041442 -0.041442
0.000000 0.000000 0.000000 0.000000 0.000000 0.000000 0.000000 0.000000 0.000000 0.000000 0.000000 0.000000 0.000000 0.000000 0.000000 0.000000 0.000000 0.000000 2.000000 0.000000 0.000000 0.000000 0.000000 0.000000 0.000000 0.000000 0.000000 0.000000 0.000000 0.000000 0.000000 0.000000 0.000000 0.000000 0.000000 0.000000 0.000000 0.000000 0.000000 0.000000 0.000000 0.000000 0.000000 0.000000 0.000000 0.000000 0.000000 0.000000 0.000000 0.000000 0.000000 0.000000 0.173422 0.173422 0.173422 0.173422 0.173422 0.173422 0.173422 0.191565 0.191565 0.191565 0.191565 0.191565 0.191565 0.191565 0.191565 0.191565 0.191565 0.191565 0.191565 0.191565 0.191565 0.191565 0.191565 0.191565 0.191565 0.191565 0.191565 0.191565 0.191565 0.191565 0.191565 0.191565 0.191565 0.191565 0.191565 0.191565 0.191565 0.191565 0.191565 0.191565 0.191565 0.191565 0.191565 0.191565 0.191565 0.191565 0.191565 0.191565 0.191565 0.191565 0.191565 0.219529 0.219529 0.219529 0.219529 0.219529 0.219529 0.219529 0.219529 0.219529 0.219529 0.219529 0.219529 0.219529 0.219529 0.219529 0.219529 0.219529 0.219529 0.219529 0.219529 0.219529 0.219529 0.219529 0.219529 0.219529 0.219529 0.219529 0.219529 0.219529 0.219529 0.219529 0.237356 0.237356 0.237356 0.237356 0.237356 0.237356 0.237356 0.237356 0.237356 0.237356 0.237356 0.237356 0.237356 0.237356 0.237356 0.237356 0.237356 0.237356 0.237356 0.237356 0.237356 0.237356 0.237356 0.237356 0.244339 0.244339 0.244339 0.244339 0.244339 0.244339 0.244339 0.244339 0.244339 0.244339 0.244339 0.244339 0.244339 0.244339 0.244339 0.244339 0.244339 0.244339 0.244339 0.244339 0.244339 0.248069 0.248069 0.248069 0.248069 0.248069 0.248069 0.248069 0.248069 0.248069 0.248069 0.248069 0.248069 0.248069 0.248069 0.248069 0.248069 0.248069 0.248069 0.248069 0.248069 0.248069 0.248069 0.248069 0.248069 0.248069 0.248069 0.248069 0.248069 0.248069 0.248069 0.248069 0.248069 0.248069 0.248069 0.248069 0.248069 0.248069 0.256074 0.256074 0.256074 0.256074 0.256074 0.256074 0.256074 0.256074 0.256074 0.256074 0.256074 0.256074 0.256074 0.256074 0.256074 0.256074 0.256074 0.256074 0.256074 0.256074 0.256074 0.256074 0.256074 0.256074 0.256074 0.256074 0.256074 0.256074 0.256074 0.256074 0.256074 0.256074 0.256074 0.256074 0.256074 0.256074 0.256074 0.256074 0.256074 0.256074 0.256074 0.256074 0.256074 0.256074 0.256074 0.260378 0.260378 0.260378 0.260378 0.260378 0.260378 0.260378 0.260378 0.260378 0.260378 0.260378 0.260378 0.260378 0.256074 0.256074 0.256074 0.256074 0.256074 0.256074 0.256074 0.256074 0.256074 0.256074 0.256074 0.256074 0.256074 0.260378 0.260378 0.260378 0.260378 0.260378 0.260378 0.260378 0.260378 0.260378 0.260378 0.260378 0.260378 0.251976 0.251976 0.251976 0.251976 0.251976 0.251976 0.251976 0.251976 0.251976 0.251976 0.251976 0.251976 0.256074 0.256074 0.256074 0.256074 0.256074 0.256074 0.256074 0.256074 0.256074 0.256074 0.256074 0.251976 0.251976 0.251976 0.251976 0.251976 0.251976 0.251976 0.251976 0.251976 0.251976 0.251976 0.248069 0.248069 0.248069 0.248069 0.248069 0.248069 0.248069 0.248069 0.248069 0.248069 0.248069 0.256074 0.256074 0.256074 0.256074 0.256074 0.256074 0.256074 0.256074 0.256074 0.256074 0.256074 0.256074 0.256074 0.256074 0.256074 0.256074 0.256074 0.256074 0.256074
