# Output from CTFFind version 4.1.9, run on 2019-11-03 19:01:40
# Input file: stack11_bm3d_averaged_1_2.75_0_50_half.mrc ; Number of micrographs: 1
# Pixel size: 3.000 Angstroms ; acceleration voltage: 300.0 keV ; spherical aberration: 0.00 mm ; amplitude contrast: 0.07
# Box size: 512 pixels ; min. res.: 30.0 Angstroms ; max. res.: 5.0 Angstroms ; min. def.: 5000.0 um; max. def. 50000.0 um; num. frames averaged: 1
# 6 lines per micrograph: #1 - spatial frequency (1/Angstroms); #2 - 1D rotational average of spectrum (assuming no astigmatism); #3 - 1D rotational average of spectrum; #4 - CTF fit; #5 - cross-correlation between spectrum and CTF fit; #6 - 2sigma of expected cross correlation of noise
0.000000 0.000651 0.001302 0.001953 0.002604 0.003255 0.003906 0.004557 0.005208 0.005859 0.006510 0.007161 0.007812 0.008464 0.009115 0.009766 0.010417 0.011068 0.011719 0.012370 0.013021 0.013672 0.014323 0.014974 0.015625 0.016276 0.016927 0.017578 0.018229 0.018880 0.019531 0.020182 0.020833 0.021484 0.022135 0.022786 0.023438 0.024089 0.024740 0.025391 0.026042 0.026693 0.027344 0.027995 0.028646 0.029297 0.029948 0.030599 0.031250 0.031901 0.032552 0.033203 0.033854 0.034505 0.035156 0.035807 0.036458 0.037109 0.037760 0.038411 0.039062 0.039714 0.040365 0.041016 0.041667 0.042318 0.042969 0.043620 0.044271 0.044922 0.045573 0.046224 0.046875 0.047526 0.048177 0.048828 0.049479 0.050130 0.050781 0.051432 0.052083 0.052734 0.053385 0.054036 0.054688 0.055339 0.055990 0.056641 0.057292 0.057943 0.058594 0.059245 0.059896 0.060547 0.061198 0.061849 0.062500 0.063151 0.063802 0.064453 0.065104 0.065755 0.066406 0.067057 0.067708 0.068359 0.069010 0.069661 0.070312 0.070964 0.071615 0.072266 0.072917 0.073568 0.074219 0.074870 0.075521 0.076172 0.076823 0.077474 0.078125 0.078776 0.079427 0.080078 0.080729 0.081380 0.082031 0.082682 0.083333 0.083984 0.084635 0.085286 0.085938 0.086589 0.087240 0.087891 0.088542 0.089193 0.089844 0.090495 0.091146 0.091797 0.092448 0.093099 0.093750 0.094401 0.095052 0.095703 0.096354 0.097005 0.097656 0.098307 0.098958 0.099609 0.100260 0.100911 0.101562 0.102214 0.102865 0.103516 0.104167 0.104818 0.105469 0.106120 0.106771 0.107422 0.108073 0.108724 0.109375 0.110026 0.110677 0.111328 0.111979 0.112630 0.113281 0.113932 0.114583 0.115234 0.115885 0.116536 0.117188 0.117839 0.118490 0.119141 0.119792 0.120443 0.121094 0.121745 0.122396 0.123047 0.123698 0.124349 0.125000 0.125651 0.126302 0.126953 0.127604 0.128255 0.128906 0.129557 0.130208 0.130859 0.131510 0.132161 0.132812 0.133464 0.134115 0.134766 0.135417 0.136068 0.136719 0.137370 0.138021 0.138672 0.139323 0.139974 0.140625 0.141276 0.141927 0.142578 0.143229 0.143880 0.144531 0.145182 0.145833 0.146484 0.147135 0.147786 0.148438 0.149089 0.149740 0.150391 0.151042 0.151693 0.152344 0.152995 0.153646 0.154297 0.154948 0.155599 0.156250 0.156901 0.157552 0.158203 0.158854 0.159505 0.160156 0.160807 0.161458 0.162109 0.162760 0.163411 0.164062 0.164714 0.165365 0.166016 0.166667 0.167318 0.167969 0.168620 0.169271 0.169922 0.170573 0.171224 0.171875 0.172526 0.173177 0.173828 0.174479 0.175130 0.175781 0.176432 0.177083 0.177734 0.178385 0.179036 0.179688 0.180339 0.180990 0.181641 0.182292 0.182943 0.183594 0.184245 0.184896 0.185547 0.186198 0.186849 0.187500 0.188151 0.188802 0.189453 0.190104 0.190755 0.191406 0.192057 0.192708 0.193359 0.194010 0.194661 0.195312 0.195964 0.196615 0.197266 0.197917 0.198568 0.199219 0.199870 0.200521 0.201172 0.201823 0.202474 0.203125 0.203776 0.204427 0.205078 0.205729 0.206380 0.207031 0.207682 0.208333 0.208984 0.209635 0.210286 0.210938 0.211589 0.212240 0.212891 0.213542 0.214193 0.214844 0.215495 0.216146 0.216797 0.217448 0.218099 0.218750 0.219401 0.220052 0.220703 0.221354 0.222005 0.222656 0.223307 0.223958 0.224609 0.225260 0.225911 0.226562 0.227214 0.227865 0.228516 0.229167 0.229818 0.230469 0.231120 0.231771 0.232422 0.233073 0.233724 0.234375 0.235026 0.235677
       0.32268        0.32268        0.32268        0.32268        0.32268        0.32268        0.32268        0.32268        0.32268        0.32268        0.32268        0.32268        0.32268        0.32268        0.32268        0.32268        0.32268        0.32268        0.32268        0.32268        0.32268        0.32268        0.32268        0.32268        0.32268        0.32268        0.32268        0.32268        0.32268        0.32268        0.32268        0.32268        0.32268        0.32268        0.32268        0.32268        0.32268        0.32268        0.32268        0.32268        0.32268        0.32268        0.32268        0.32268        0.32268        0.32268        0.32268        0.32268        0.32268        0.32268        0.32268        0.68303        0.86082        0.52657        0.09523       -0.05075       -0.41506       -0.19646       -0.29587       -0.11436       -0.06771       -0.11624       -0.06296       -0.19494       -0.22402       -0.24293       -0.32501       -0.33405       -0.47156       -0.37651       -0.45183       -0.44138       -0.41487       -0.44999       -0.50707       -0.54452       -0.57620       -0.60071       -0.56283       -0.39533       -0.36796       -0.32111       -0.30019       -0.20273       -0.19611        0.02902        0.10061        0.13083        0.23688        0.36951        0.44453        0.51063        0.56733        0.56521        0.56528        0.69011        0.80411        0.72050        0.73199        0.64257        0.56574        0.48085        0.41485        0.49961        0.38383        0.22688        0.08595        0.06528        0.04017       -0.05072       -0.01209        0.00902       -0.04417       -0.00029       -0.00908        0.22348        0.25566        0.28540        0.42392        0.44923        0.40585        0.55849        0.62065        0.67234        0.74131        0.68239        0.64813        0.68083        0.56823        0.47910        0.41542        0.29299        0.21724        0.15969        0.11309        0.04521        0.02201        0.02002        0.07789        0.13094        0.21473        0.27275        0.39516        0.43685        0.48893        0.59374        0.62094        0.63361        0.62157        0.55661        0.44903        0.45877        0.36041        0.23741        0.18402        0.14912        0.13464        0.13371        0.10524        0.13335        0.26432        0.27789        0.35964        0.38896        0.43656        0.50797        0.54119        0.54727        0.47697        0.44250        0.38954        0.34768        0.30952        0.26678        0.21585        0.20778        0.19036        0.21252        0.19419        0.28546        0.34499        0.37426        0.43303        0.45065        0.47451        0.42065        0.38908        0.40698        0.36422        0.28224        0.26042        0.22620        0.22951        0.20156        0.24193        0.24593        0.32939        0.36694        0.38331        0.47049        0.42613        0.43083        0.43166        0.40120        0.34235        0.31562        0.28213        0.27836        0.24941        0.28520        0.28194        0.30682        0.31344        0.33361        0.32132        0.40360        0.41523        0.37771        0.34622        0.36803        0.28929        0.28458        0.26721        0.29367        0.27301        0.28776        0.30275        0.31786        0.33997        0.36463        0.36845        0.36421        0.36085        0.30406        0.32415        0.27865        0.25119        0.30871        0.29940        0.31046        0.31172        0.32049        0.34455        0.32326        0.32055        0.29569        0.30792        0.27898        0.29047        0.26118        0.29057        0.29503        0.28450        0.30817        0.32375        0.33029        0.26969        0.30577        0.27409        0.28207        0.26354        0.22479        0.28203        0.28636        0.33716        0.31465        0.31383        0.31811        0.32121        0.28033        0.31538        0.32723        0.27489        0.26594        0.31018        0.29357        0.33897        0.32671        0.32738        0.32586        0.29096        0.27468        0.29175        0.24754        0.22138        0.29555        0.31352        0.30686        0.29736        0.31319        0.28614        0.33618        0.32769        0.25573        0.23149        0.29237        0.30161        0.28048        0.30866        0.33107        0.33444        0.30948        0.30006        0.33247        0.30920        0.27866        0.26058        0.30619        0.34928        0.37793        0.28763        0.27314        0.27040        0.29908        0.24262        0.28267        0.25683        0.24905        0.32110        0.32308        0.33577        0.31176        0.27125        0.25493        0.25398        0.24600        0.22407        0.23551        0.31661        0.29278        0.21885        0.32475        0.32293        0.25702        0.25618        0.19833        0.18694        0.24541        0.19521        0.22931        0.24180        0.22254        0.19467        0.27237        0.34322        0.33485        0.34006        0.24025        0.20068        0.17861        0.24144        0.24328        0.14614        0.17675        0.23962        0.17184        0.18586        0.14656        0.10886        0.18263        0.06005       -0.10603       -0.57875
2.643425 2.615659 2.588043 2.560579 2.533265 2.506103 2.479092 2.452231 2.425522 2.398964 2.372557 2.346301 2.320195 2.294241 2.268438 2.242786 2.217285 2.191935 2.166736 2.141689 2.116792 2.092046 2.067451 2.043008 2.018715 1.994573 1.970583 1.946743 1.923055 1.899517 1.876131 1.852896 1.829811 1.806878 1.784096 1.761464 1.738984 1.716655 1.694477 1.672450 1.650574 1.628849 1.607275 1.585852 1.564580 1.543459 1.522489 1.501671 1.481003 1.460486 1.440121 1.655911 2.070657 1.642123 1.149418 1.009567 0.428429 0.826473 0.558270 0.840517 0.786721 0.801919 0.751875 0.722472 0.576054 0.533787 0.487310 0.435160 0.225058 0.375952 0.203714 0.316108 0.229942 0.191208 0.152189 0.020350 0.033878 -0.001705 -0.061762 0.117215 0.212248 0.188709 0.163437 0.334341 0.189251 0.497350 0.599335 0.584009 0.611443 0.870764 0.817785 0.936500 0.896867 0.992321 0.955433 1.066945 1.151555 1.057830 1.133719 0.926772 0.927272 0.785233 0.653720 0.783331 0.706287 0.472647 0.317528 0.246485 0.241046 0.145157 0.105589 0.144483 0.091521 0.138508 0.061625 0.260200 0.373822 0.346989 0.476669 0.559339 0.443353 0.570828 0.706578 0.713429 0.756476 0.718639 0.726289 0.686078 0.612852 0.540181 0.404441 0.283355 0.219858 0.082580 0.122937 -0.060410 -0.040715 -0.068261 -0.053351 -0.017587 0.148426 0.071219 0.267561 0.295782 0.346429 0.435679 0.514876 0.507487 0.502266 0.503898 0.322045 0.307331 0.281430 0.094177 0.044280 -0.038259 -0.017541 -0.046141 -0.082058 -0.093951 0.022173 0.067007 0.121152 0.177020 0.229464 0.293758 0.318547 0.411701 0.395459 0.274256 0.237904 0.220117 0.173577 0.121199 0.097144 0.007147 0.009819 0.034500 -0.011797 0.068748 0.151204 0.139743 0.244377 0.249197 0.299887 0.214837 0.212639 0.154258 0.208074 0.112739 0.043279 0.004534 -0.007777 -0.008290 -0.042423 0.035502 0.018796 0.143793 0.141239 0.176783 0.226013 0.182429 0.179633 0.192509 0.142458 0.077261 0.033703 0.060673 -0.003629 -0.001975 0.025788 0.050905 0.059171 0.063137 0.071521 0.110728 0.135056 0.174775 0.076731 0.081823 0.067549 0.011650 -0.008509 0.010242 0.009044 0.010184 0.009227 0.030707 0.059834 0.073327 0.117571 0.059020 0.122941 0.062102 0.021257 0.052700 -0.033670 -0.005248 0.050033 0.002704 0.051091 0.047269 0.033719 0.097939 0.052005 0.026295 0.039880 0.011708 0.021168 0.009247 -0.013372 0.049300 -0.000028 0.020092 0.061769 0.055765 0.052916 0.035635 0.042137 0.030679 0.019623 -0.014550 -0.016823 0.034936 0.057383 0.089948 0.075829 0.064564 0.097315 0.077566 0.047781 0.100358 0.102006 0.020670 0.042237 0.084898 0.071616 0.108038 0.106537 0.069235 0.136800 0.073540 0.031859 0.082292 -0.011180 0.014054 0.089676 0.086124 0.082582 0.068705 0.064597 0.031904 0.123200 0.071756 -0.012539 -0.030117 0.050783 0.075971 0.021751 0.047402 0.101872 0.093589 0.042401 0.053179 0.079632 0.058504 0.032186 -0.025784 0.071727 0.112778 0.119009 -0.006598 0.001516 -0.012572 0.056163 -0.060600 0.027162 -0.028100 -0.028807 0.049243 0.050142 0.042290 0.010938 -0.031103 -0.031002 -0.066019 -0.021149 -0.072210 -0.069363 0.032274 0.079020 -0.074994 0.069676 0.021632 -0.048772 0.024660 -0.104127 -0.080566 -0.024258 -0.083793 -0.010541 -0.021170 0.009582 -0.084153 0.041703 0.186184 0.009688 0.171117 0.017680 0.212084 0.175623 0.264019 0.276362 0.144321 0.178943 0.288004 0.146400 0.204724 0.137912 0.145161 0.269539 0.061080 -0.611586
0.072396 0.072899 0.074407 0.076919 0.080436 0.084957 0.090479 0.097002 0.104523 0.113040 0.122549 0.133046 0.144525 0.156981 0.170404 0.184788 0.200119 0.216385 0.233572 0.251662 0.270635 0.290468 0.311135 0.332607 0.354850 0.377828 0.401498 0.425815 0.450729 0.476183 0.502116 0.528461 0.555146 0.582090 0.609210 0.636413 0.663600 0.690668 0.717503 0.743987 0.769994 0.795392 0.820042 0.843799 0.866511 0.888022 0.908168 0.926784 0.943698 0.958736 0.971722 0.982477 0.990825 0.996587 0.999588 0.999656 0.996627 0.990341 0.980646 0.967404 0.950486 0.929779 0.905189 0.876636 0.844065 0.807444 0.766764 0.722046 0.673340 0.620728 0.564327 0.504287 0.440797 0.374084 0.304415 0.232094 0.157471 0.080931 0.002902 0.076149 0.155720 0.235271 0.314231 0.391999 0.467949 0.541434 0.611791 0.678348 0.740429 0.797364 0.848491 0.893171 0.930793 0.960783 0.982615 0.995818 0.999989 0.994798 0.980003 0.955453 0.921101 0.877007 0.823350 0.760429 0.688667 0.608617 0.520961 0.426507 0.326191 0.221066 0.112297 0.001155 0.111004 0.222745 0.332576 0.438965 0.540361 0.635220 0.722029 0.799327 0.865739 0.920002 0.960988 0.987737 0.999479 0.995659 0.975961 0.940324 0.888958 0.822357 0.741304 0.646869 0.540410 0.423557 0.298199 0.166455 0.030649 0.106730 0.243069 0.375681 0.501856 0.618916 0.724280 0.815519 0.890420 0.947049 0.983804 0.999470 0.993265 0.964881 0.914512 0.842874 0.751211 0.641291 0.515385 0.376232 0.226991 0.071181 0.087402 0.244764 0.396818 0.539485 0.668814 0.781088 0.872945 0.941488 0.984384 0.999958 0.987275 0.946190 0.877394 0.782421 0.663643 0.524225 0.368061 0.199682 0.024133 0.153166 0.326581 0.490450 0.639261 0.767847 0.871582 0.946552 0.989727 0.999097 0.973783 0.914117 0.821668 0.699237 0.550798 0.381392 0.196980 0.004244 0.189642 0.377270 0.551286 0.704678 0.831078 0.925034 0.982271 0.999909 0.976630 0.912791 0.810464 0.673412 0.506980 0.317918 0.114131 0.095634 0.302152 0.496122 0.668590 0.811377 0.917482 0.981455 0.999704 0.970727 0.895256 0.776295 0.619039 0.430693 0.220179 0.002276 0.225596 0.438424 0.629679 0.789162 0.908114 0.979723 0.999562 0.965888 0.879832 0.745414 0.569417 0.361083 0.131668 0.106131 0.338878 0.553135 0.736262 0.877175 0.967048 0.999916 0.973106 0.887506 0.747605 0.561323 0.339620 0.095886 0.154829 0.396727 0.614262 0.793150 0.921328 0.989823 0.993424 0.931131 0.806350 0.626766 0.403946 0.152654 0.110108 0.366200 0.597613 0.787737 0.922590 0.991892 0.989907 0.915986 0.774744 0.575859 0.333480 0.065276 0.208806 0.468013 0.692347 0.864140 0.969492 0.999453 0.950859 0.826727 0.636170 0.393809 0.118733 0.166967 0.439935 0.677464 0.859401 0.969918 0.998946 0.943181 0.806526 0.599940 0.340628 0.050719 0.244608 0.519250 0.748530 0.911421 0.992544 0.983717 0.884858 0.704189 0.457659 0.167643 0.139044 0.433557 0.687753 0.876885 0.982101 0.992385 0.905828 0.730012 0.481478 0.184276 0.132288 0.436492 0.697373 0.887902 0.987858 0.986077 0.881803 0.684999 0.415530 0.101268 0.224717 0.527584 0.774461 0.938057 0.999765 0.951894 0.798751 0.556418 0.251190 0.083156 0.409061 0.689360 0.891568 0.991716 0.977317 0.849050 0.620960 0.319059 0.021499 0.360445 0.657124 0.875396 0.988124 0.980657 0.852897 0.619588 0.308786 0.041380 0.387306 0.685311 0.897188 0.995193 0.965809 0.811775 0.552055 0.219649 0.142439
1.000000 1.000000 1.000000 1.000000 1.000000 1.000000 1.000000 1.000000 1.000000 1.000000 1.000000 1.000000 1.000000 1.000000 1.000000 1.000000 1.000000 1.000000 1.000000 1.000000 1.000000 1.000000 1.000000 1.000000 1.000000 1.000000 1.000000 1.000000 1.000000 1.000000 1.000000 1.000000 1.000000 1.000000 1.000000 1.000000 1.000000 1.000000 1.000000 1.000000 1.000000 1.000000 1.000000 1.000000 1.000000 1.000000 1.000000 1.000000 1.000000 1.000000 1.000000 1.000000 0.919986 0.919986 0.919986 0.914617 0.914617 0.914617 0.914617 0.914617 0.914617 0.914617 0.914617 0.914617 0.914617 0.914617 0.914617 0.914617 0.914617 0.914617 0.914617 0.914617 0.914617 0.914617 0.914617 0.914617 0.914617 0.914617 0.914617 0.914617 0.914617 0.914617 0.914617 0.914617 0.914617 0.914617 0.914617 0.914617 0.914617 0.914617 0.914617 0.914617 0.914617 0.914617 0.914617 0.914617 0.942257 0.943683 0.951768 0.951619 0.951070 0.948945 0.947875 0.947420 0.947314 0.947636 0.948330 0.949279 0.958038 0.959206 0.961990 0.962873 0.963616 0.964261 0.964919 0.965533 0.956731 0.955615 0.954269 0.950278 0.952983 0.952209 0.952112 0.953073 0.952946 0.953864 0.954195 0.953476 0.952360 0.951370 0.950407 0.949832 0.949614 0.950352 0.950776 0.952272 0.955598 0.956179 0.956308 0.956463 0.956563 0.957858 0.956785 0.956305 0.952339 0.952527 0.952081 0.949869 0.955836 0.953233 0.953662 0.954237 0.955863 0.956174 0.951550 0.947791 0.938525 0.937463 0.932242 0.924916 0.921541 0.923513 0.925701 0.926641 0.926854 0.920990 0.921212 0.916781 0.912931 0.915915 0.913515 0.912506 0.914045 0.911968 0.909903 0.909118 0.905984 0.897682 0.890225 0.890111 0.894550 0.899093 0.900597 0.899238 0.897424 0.885042 0.866472 0.866002 0.862773 0.866877 0.860083 0.859630 0.860275 0.860021 0.863639 0.861958 0.862413 0.858090 0.844245 0.828643 0.818711 0.822090 0.828650 0.828123 0.819386 0.821968 0.834853 0.819816 0.832839 0.842397 0.830994 0.831148 0.830407 0.826451 0.813218 0.812470 0.811944 0.804132 0.804150 0.803689 0.800141 0.793477 0.799261 0.781105 0.771998 0.763665 0.766775 0.770979 0.771968 0.769344 0.770890 0.776536 0.779828 0.765311 0.753786 0.741387 0.747394 0.752000 0.757702 0.750242 0.733838 0.703801 0.650897 0.669829 0.714987 0.654338 0.676128 0.679755 0.665879 0.664568 0.655718 0.650876 0.633243 0.636846 0.645230 0.657556 0.666012 0.687452 0.675104 0.664616 0.669356 0.657696 0.654917 0.641116 0.646337 0.624197 0.620695 0.650393 0.651231 0.644163 0.651289 0.632323 0.629818 0.653333 0.662117 0.655920 0.651260 0.628020 0.588064 0.588986 0.591615 0.607566 0.633894 0.606066 0.581870 0.568642 0.565724 0.585298 0.573275 0.573758 0.578339 0.586640 0.570566 0.542424 0.546474 0.570664 0.570262 0.557865 0.528064 0.524596 0.536182 0.577779 0.567185 0.530426 0.543495 0.539023 0.539733 0.499921 0.510906 0.483556 0.471235 0.416986 0.407757 0.417627 0.406532 0.379310 0.352287 0.350403 0.356152 0.362533 0.354881 0.336571 0.312249 0.336516 0.343986 0.331201 0.270533 0.256009 0.239953 0.231101 0.232472 0.197006 0.219558 0.273296 0.274832 0.274832 0.274832 0.274832 0.274832 0.274832 0.289035 0.289035 0.289035 0.289035 0.289035 0.289035 0.289035 0.289035 0.289035 0.306954 0.306954 0.306954 0.306954 0.306954 0.306954 0.306954 0.306954 0.306954 0.306954 0.306954 0.306954 0.306954 0.306954
0.000000 0.000000 0.000000 0.000000 0.000000 0.000000 0.000000 0.000000 0.000000 0.000000 0.000000 0.000000 0.000000 0.000000 0.000000 0.000000 0.000000 0.000000 0.000000 0.000000 0.000000 0.000000 0.000000 0.000000 0.000000 0.000000 0.000000 0.000000 0.000000 0.000000 0.000000 0.000000 0.000000 0.000000 0.000000 0.000000 0.000000 0.000000 0.000000 0.000000 0.000000 0.000000 0.000000 0.000000 0.000000 0.000000 0.000000 0.000000 0.000000 0.000000 0.000000 0.000000 0.180334 0.180334 0.180334 0.199007 0.199007 0.199007 0.199007 0.199007 0.199007 0.199007 0.199007 0.199007 0.199007 0.199007 0.199007 0.199007 0.199007 0.199007 0.199007 0.199007 0.199007 0.199007 0.199007 0.199007 0.199007 0.199007 0.199007 0.199007 0.199007 0.199007 0.199007 0.199007 0.199007 0.199007 0.199007 0.199007 0.199007 0.199007 0.199007 0.199007 0.199007 0.199007 0.199007 0.199007 0.225018 0.225018 0.225018 0.225018 0.225018 0.225018 0.225018 0.225018 0.225018 0.225018 0.225018 0.225018 0.225018 0.225018 0.225018 0.225018 0.225018 0.225018 0.225018 0.225018 0.225018 0.225018 0.225018 0.225018 0.225018 0.225018 0.225018 0.225018 0.225018 0.244339 0.244339 0.244339 0.244339 0.244339 0.244339 0.244339 0.244339 0.244339 0.244339 0.244339 0.244339 0.244339 0.244339 0.244339 0.244339 0.244339 0.244339 0.244339 0.244339 0.244339 0.244339 0.244339 0.251976 0.251976 0.251976 0.251976 0.251976 0.251976 0.251976 0.251976 0.251976 0.251976 0.251976 0.251976 0.251976 0.251976 0.251976 0.251976 0.251976 0.251976 0.251976 0.251976 0.264906 0.264906 0.264906 0.264906 0.264906 0.264906 0.264906 0.264906 0.264906 0.264906 0.264906 0.264906 0.264906 0.264906 0.264906 0.264906 0.264906 0.264906 0.264906 0.264906 0.264906 0.264906 0.264906 0.264906 0.264906 0.264906 0.264906 0.264906 0.264906 0.264906 0.264906 0.264906 0.264906 0.264906 0.264906 0.264906 0.264906 0.264906 0.264906 0.264906 0.264906 0.264906 0.264906 0.264906 0.264906 0.264906 0.264906 0.264906 0.264906 0.264906 0.264906 0.264906 0.264906 0.264906 0.264906 0.264906 0.264906 0.264906 0.264906 0.264906 0.264906 0.264906 0.256074 0.256074 0.256074 0.256074 0.256074 0.256074 0.256074 0.256074 0.256074 0.256074 0.256074 0.256074 0.256074 0.256074 0.269680 0.269680 0.269680 0.269680 0.269680 0.269680 0.269680 0.269680 0.269680 0.269680 0.269680 0.269680 0.264906 0.264906 0.264906 0.264906 0.264906 0.264906 0.264906 0.264906 0.264906 0.264906 0.264906 0.264906 0.269680 0.269680 0.269680 0.269680 0.269680 0.269680 0.269680 0.269680 0.269680 0.269680 0.269680 0.264906 0.264906 0.264906 0.264906 0.264906 0.264906 0.264906 0.264906 0.264906 0.264906 0.264906 0.256074 0.256074 0.256074 0.256074 0.256074 0.256074 0.256074 0.256074 0.256074 0.256074 0.256074 0.264906 0.264906 0.264906 0.264906 0.264906 0.264906 0.264906 0.264906 0.264906 0.264906 0.260378 0.260378 0.260378 0.260378 0.260378 0.260378 0.260378 0.260378 0.260378 0.260378 0.256074 0.256074 0.256074 0.256074 0.256074 0.256074 0.256074 0.256074 0.256074 0.256074 0.260378 0.260378 0.260378 0.260378 0.260378 0.260378 0.260378 0.260378 0.260378 0.256074 0.256074 0.256074 0.256074 0.256074 0.256074 0.256074 0.256074 0.256074 0.251976 0.251976 0.251976 0.251976 0.251976 0.251976 0.251976 0.251976 0.251976 0.251976 0.251976 0.251976 0.251976 0.251976
