# Output from CTFFind version 4.1.9, run on 2019-11-03 19:01:37
# Input file: stack11_bm3d_averaged_1_3.25_0_3000_half.mrc ; Number of micrographs: 1
# Pixel size: 3.000 Angstroms ; acceleration voltage: 300.0 keV ; spherical aberration: 0.00 mm ; amplitude contrast: 0.07
# Box size: 512 pixels ; min. res.: 30.0 Angstroms ; max. res.: 5.0 Angstroms ; min. def.: 5000.0 um; max. def. 50000.0 um; num. frames averaged: 1
# 6 lines per micrograph: #1 - spatial frequency (1/Angstroms); #2 - 1D rotational average of spectrum (assuming no astigmatism); #3 - 1D rotational average of spectrum; #4 - CTF fit; #5 - cross-correlation between spectrum and CTF fit; #6 - 2sigma of expected cross correlation of noise
0.000000 0.000651 0.001302 0.001953 0.002604 0.003255 0.003906 0.004557 0.005208 0.005859 0.006510 0.007161 0.007812 0.008464 0.009115 0.009766 0.010417 0.011068 0.011719 0.012370 0.013021 0.013672 0.014323 0.014974 0.015625 0.016276 0.016927 0.017578 0.018229 0.018880 0.019531 0.020182 0.020833 0.021484 0.022135 0.022786 0.023438 0.024089 0.024740 0.025391 0.026042 0.026693 0.027344 0.027995 0.028646 0.029297 0.029948 0.030599 0.031250 0.031901 0.032552 0.033203 0.033854 0.034505 0.035156 0.035807 0.036458 0.037109 0.037760 0.038411 0.039062 0.039714 0.040365 0.041016 0.041667 0.042318 0.042969 0.043620 0.044271 0.044922 0.045573 0.046224 0.046875 0.047526 0.048177 0.048828 0.049479 0.050130 0.050781 0.051432 0.052083 0.052734 0.053385 0.054036 0.054688 0.055339 0.055990 0.056641 0.057292 0.057943 0.058594 0.059245 0.059896 0.060547 0.061198 0.061849 0.062500 0.063151 0.063802 0.064453 0.065104 0.065755 0.066406 0.067057 0.067708 0.068359 0.069010 0.069661 0.070312 0.070964 0.071615 0.072266 0.072917 0.073568 0.074219 0.074870 0.075521 0.076172 0.076823 0.077474 0.078125 0.078776 0.079427 0.080078 0.080729 0.081380 0.082031 0.082682 0.083333 0.083984 0.084635 0.085286 0.085938 0.086589 0.087240 0.087891 0.088542 0.089193 0.089844 0.090495 0.091146 0.091797 0.092448 0.093099 0.093750 0.094401 0.095052 0.095703 0.096354 0.097005 0.097656 0.098307 0.098958 0.099609 0.100260 0.100911 0.101562 0.102214 0.102865 0.103516 0.104167 0.104818 0.105469 0.106120 0.106771 0.107422 0.108073 0.108724 0.109375 0.110026 0.110677 0.111328 0.111979 0.112630 0.113281 0.113932 0.114583 0.115234 0.115885 0.116536 0.117188 0.117839 0.118490 0.119141 0.119792 0.120443 0.121094 0.121745 0.122396 0.123047 0.123698 0.124349 0.125000 0.125651 0.126302 0.126953 0.127604 0.128255 0.128906 0.129557 0.130208 0.130859 0.131510 0.132161 0.132812 0.133464 0.134115 0.134766 0.135417 0.136068 0.136719 0.137370 0.138021 0.138672 0.139323 0.139974 0.140625 0.141276 0.141927 0.142578 0.143229 0.143880 0.144531 0.145182 0.145833 0.146484 0.147135 0.147786 0.148438 0.149089 0.149740 0.150391 0.151042 0.151693 0.152344 0.152995 0.153646 0.154297 0.154948 0.155599 0.156250 0.156901 0.157552 0.158203 0.158854 0.159505 0.160156 0.160807 0.161458 0.162109 0.162760 0.163411 0.164062 0.164714 0.165365 0.166016 0.166667 0.167318 0.167969 0.168620 0.169271 0.169922 0.170573 0.171224 0.171875 0.172526 0.173177 0.173828 0.174479 0.175130 0.175781 0.176432 0.177083 0.177734 0.178385 0.179036 0.179688 0.180339 0.180990 0.181641 0.182292 0.182943 0.183594 0.184245 0.184896 0.185547 0.186198 0.186849 0.187500 0.188151 0.188802 0.189453 0.190104 0.190755 0.191406 0.192057 0.192708 0.193359 0.194010 0.194661 0.195312 0.195964 0.196615 0.197266 0.197917 0.198568 0.199219 0.199870 0.200521 0.201172 0.201823 0.202474 0.203125 0.203776 0.204427 0.205078 0.205729 0.206380 0.207031 0.207682 0.208333 0.208984 0.209635 0.210286 0.210938 0.211589 0.212240 0.212891 0.213542 0.214193 0.214844 0.215495 0.216146 0.216797 0.217448 0.218099 0.218750 0.219401 0.220052 0.220703 0.221354 0.222005 0.222656 0.223307 0.223958 0.224609 0.225260 0.225911 0.226562 0.227214 0.227865 0.228516 0.229167 0.229818 0.230469 0.231120 0.231771 0.232422 0.233073 0.233724 0.234375 0.235026 0.235677
       0.32327        0.32327        0.32327        0.32327        0.32327        0.32327        0.32327        0.32327        0.32327        0.32327        0.32327        0.32327        0.32327        0.32327        0.32327        0.32327        0.32327        0.32327        0.32327        0.32327        0.32327        0.32327        0.32327        0.32327        0.32327        0.32327        0.32327        0.32327        0.32327        0.32327        0.32327        0.32327        0.32327        0.32327        0.32327        0.32327        0.32327        0.32327        0.32327        0.32327        0.32327        0.32327        0.32327        0.32327        0.32327        0.32327        0.32327        0.32327        0.32327        0.32327        0.32327        0.68582        0.86227        0.52564        0.09591       -0.04873       -0.41854       -0.19518       -0.29579       -0.11562       -0.06723       -0.11431       -0.06372       -0.19782       -0.22485       -0.24333       -0.32583       -0.33457       -0.47252       -0.37637       -0.45216       -0.44441       -0.41512       -0.45016       -0.50717       -0.54350       -0.57711       -0.59857       -0.56301       -0.39475       -0.36751       -0.32428       -0.30485       -0.20321       -0.19383        0.03144        0.09775        0.13160        0.23822        0.37435        0.44721        0.51099        0.56524        0.56340        0.56885        0.69188        0.80655        0.72499        0.73382        0.64775        0.56956        0.48373        0.41144        0.50022        0.38435        0.22228        0.08624        0.06455        0.03707       -0.05115       -0.01342        0.00806       -0.04373       -0.00322       -0.01279        0.22692        0.25819        0.28692        0.41921        0.44582        0.40462        0.55530        0.62633        0.67397        0.74676        0.68525        0.65162        0.68055        0.57058        0.48080        0.41639        0.28969        0.21714        0.16130        0.11748        0.04713        0.02411        0.02198        0.07920        0.13300        0.21621        0.27172        0.39632        0.43527        0.49115        0.59309        0.62311        0.62876        0.62275        0.55606        0.44822        0.45981        0.36013        0.23668        0.18873        0.14921        0.13479        0.13594        0.10500        0.13275        0.26036        0.27875        0.36026        0.38610        0.43717        0.50561        0.54255        0.54662        0.47619        0.44282        0.39022        0.34883        0.30813        0.26794        0.21983        0.20966        0.18915        0.21518        0.19677        0.28744        0.34464        0.37778        0.43140        0.45717        0.47757        0.42008        0.38786        0.40808        0.36361        0.28203        0.26275        0.22878        0.23169        0.20399        0.23992        0.24412        0.33003        0.37161        0.38596        0.47083        0.42658        0.43418        0.43125        0.39941        0.34353        0.31988        0.28553        0.27483        0.25193        0.28195        0.28518        0.31130        0.31341        0.33195        0.31978        0.40517        0.41809        0.37980        0.34579        0.36817        0.28764        0.28260        0.26979        0.29548        0.27465        0.28828        0.30093        0.31761        0.34196        0.36437        0.37210        0.36530        0.36073        0.30347        0.32725        0.27724        0.25044        0.30201        0.29810        0.31554        0.31180        0.31950        0.34149        0.32024        0.32079        0.29676        0.30684        0.27943        0.29295        0.26493        0.29301        0.29383        0.28550        0.30721        0.31924        0.32614        0.27380        0.30678        0.27852        0.28276        0.26701        0.22343        0.28114        0.28459        0.34024        0.31288        0.31874        0.31645        0.32027        0.28261        0.31516        0.32713        0.27390        0.26344        0.30408        0.29008        0.34190        0.33192        0.33715        0.33406        0.29275        0.27624        0.29246        0.24402        0.22200        0.29664        0.31437        0.30805        0.29339        0.30752        0.28553        0.33993        0.33605        0.26073        0.23419        0.28661        0.31432        0.28902        0.31491        0.33195        0.32878        0.30577        0.30101        0.33670        0.30743        0.27458        0.25374        0.30685        0.35048        0.37899        0.28816        0.26647        0.26448        0.29633        0.23329        0.28923        0.25853        0.25162        0.32538        0.33259        0.34771        0.31606        0.25803        0.25535        0.26401        0.25057        0.22981        0.23633        0.30740        0.29602        0.21972        0.32444        0.32291        0.25504        0.26345        0.20229        0.18917        0.23928        0.19623        0.21976        0.23346        0.22385        0.18655        0.26624        0.36184        0.32712        0.34214        0.24123        0.19675        0.18097        0.24819        0.25493        0.13921        0.20907        0.24768        0.15251        0.18113        0.13813        0.11527        0.17370        0.11430       -0.10065       -0.61362
2.520118 2.493833 2.467691 2.441691 2.415834 2.390118 2.364546 2.339115 2.313827 2.288680 2.263677 2.238815 2.214096 2.189519 2.165085 2.140792 2.116642 2.092635 2.068769 2.045046 2.021465 1.998027 1.974730 1.951576 1.928565 1.905695 1.882968 1.860383 1.837941 1.815641 1.793483 1.771467 1.749594 1.727863 1.706274 1.684828 1.663523 1.642361 1.621342 1.600465 1.579730 1.559137 1.538687 1.518378 1.498213 1.478189 1.458308 1.438569 1.418972 1.399518 1.380206 1.591892 1.991805 1.572853 1.100131 0.969325 0.398182 0.791904 0.528924 0.802962 0.751440 0.767793 0.720302 0.687594 0.548417 0.506933 0.464556 0.413454 0.210355 0.356871 0.191666 0.297722 0.217333 0.178416 0.143769 0.017239 0.025770 -0.001209 -0.062111 0.109400 0.204137 0.177617 0.149516 0.320708 0.182781 0.482200 0.576072 0.561941 0.591263 0.846169 0.794384 0.905187 0.865107 0.956391 0.925274 0.908705 1.206926 1.056157 1.104991 0.902516 0.901762 0.765741 0.629010 0.757919 0.688158 0.454976 0.307742 0.242166 0.232474 0.143463 0.102936 0.141469 0.094505 0.136069 0.058058 0.256199 0.367129 0.347139 0.457005 0.542226 0.430960 0.553889 0.690962 0.702329 0.741013 0.705765 0.699828 0.668814 0.598347 0.530872 0.400756 0.274090 0.218149 0.083281 0.128906 -0.047421 -0.031988 -0.057276 -0.044858 -0.009264 0.151784 0.072035 0.270444 0.291632 0.341294 0.424599 0.507103 0.481008 0.509635 0.494103 0.323810 0.307775 0.284189 0.098309 0.056032 -0.023792 -0.007159 -0.032411 -0.067977 -0.081120 0.030116 0.068907 0.133506 0.177181 0.230282 0.294487 0.312438 0.409258 0.386387 0.286110 0.238267 0.226235 0.175956 0.125320 0.107262 0.021982 0.018223 0.043147 0.004010 0.075479 0.156303 0.146237 0.246917 0.248666 0.306411 0.198774 0.216062 0.155193 0.207287 0.116933 0.046632 0.014976 0.001934 -0.002726 -0.033338 0.037287 0.025331 0.142442 0.149404 0.169316 0.250510 0.180277 0.174575 0.176934 0.133426 0.071923 0.033676 0.053344 -0.010800 -0.005676 0.018040 0.049346 0.055776 0.053109 0.065828 0.060096 0.159364 0.156116 0.077554 0.083852 0.063871 0.008490 -0.004891 0.013476 0.014031 0.012420 0.011238 0.031274 0.060856 0.074599 0.137341 0.058806 0.125196 0.064378 0.025016 0.058163 -0.026300 -0.002667 0.046502 0.011140 0.058382 0.053873 0.036459 0.084559 0.063799 0.038047 0.049338 0.020058 0.034936 0.021956 0.000462 0.059439 0.005236 0.032212 0.062737 0.067011 0.039296 0.049567 0.043830 0.037447 0.022280 -0.005796 -0.015510 0.033072 0.058993 0.094474 0.067511 0.079312 0.073027 0.083337 0.038052 0.093071 0.092550 0.014847 0.029469 0.073217 0.064771 0.093759 0.090771 0.142999 0.096823 0.064349 0.021663 0.073438 -0.024554 0.007100 0.077941 0.074833 0.071243 0.051152 0.052993 0.015688 0.117772 0.069458 -0.022329 -0.036747 0.036273 0.080340 0.024531 0.028085 0.085968 0.078966 0.024214 0.049102 0.074385 0.040437 0.020819 -0.031745 0.055930 0.101855 0.093358 -0.008396 -0.022571 -0.024816 0.044630 -0.080327 0.033913 -0.041283 -0.022751 0.039972 0.075486 0.012489 -0.002613 -0.054796 -0.037241 -0.064117 -0.027941 -0.082566 -0.075837 0.028906 0.036597 -0.076145 0.061850 0.013747 -0.050843 0.031162 -0.096324 -0.074805 -0.040522 -0.048934 -0.026685 -0.012744 -0.000820 -0.073002 0.037525 0.209922 0.006439 0.158053 0.044218 0.195938 0.175588 0.274478 0.256919 0.118659 0.205212 0.283852 0.106037 0.207049 0.130282 0.129702 0.231838 0.114734 -0.626567
0.072396 0.072898 0.074404 0.076914 0.080428 0.084943 0.090460 0.096975 0.104489 0.112996 0.122495 0.132981 0.144448 0.156890 0.170300 0.184667 0.199983 0.216232 0.233401 0.251472 0.270426 0.290239 0.310885 0.332336 0.354558 0.377513 0.401162 0.425457 0.450349 0.475782 0.501693 0.528018 0.554683 0.581609 0.608712 0.635899 0.663074 0.690130 0.716956 0.743435 0.769439 0.794839 0.819494 0.843260 0.865986 0.887515 0.907687 0.926333 0.943283 0.958364 0.971400 0.982213 0.990625 0.996459 0.999541 0.999698 0.996766 0.990584 0.981002 0.967881 0.951091 0.930521 0.906074 0.877671 0.845256 0.808795 0.768280 0.723730 0.675194 0.622753 0.566522 0.506649 0.443322 0.376767 0.307246 0.235064 0.160567 0.084140 0.006206 0.072769 0.152286 0.231807 0.310763 0.388555 0.464560 0.538131 0.608609 0.675322 0.737596 0.794760 0.846155 0.891140 0.929103 0.959470 0.981713 0.995358 1.000000 0.995306 0.981027 0.957010 0.923201 0.879656 0.826544 0.764157 0.692914 0.613357 0.526159 0.432122 0.332172 0.227353 0.118824 0.007845 0.104232 0.215980 0.325912 0.432500 0.534198 0.629462 0.716776 0.794682 0.861799 0.916857 0.958721 0.986421 0.999175 0.996413 0.977804 0.943268 0.892998 0.827465 0.747432 0.653947 0.548346 0.432239 0.307491 0.176205 0.040687 0.096590 0.233024 0.365937 0.492621 0.610400 0.716686 0.809042 0.885239 0.943322 0.981664 0.999020 0.994573 0.967978 0.919386 0.849472 0.759433 0.650993 0.526378 0.388288 0.239842 0.084525 0.073889 0.231430 0.384018 0.527580 0.658151 0.771998 0.865728 0.936402 0.981639 0.999705 0.989596 0.951095 0.884815 0.792211 0.675575 0.537996 0.383298 0.215948 0.040944 0.136333 0.310273 0.475214 0.625633 0.756329 0.862623 0.940530 0.986931 0.999714 0.977885 0.921651 0.832455 0.712972 0.567054 0.399630 0.216566 0.024469 0.169536 0.358068 0.533761 0.689570 0.819050 0.916651 0.977967 0.999964 0.981152 0.921701 0.823494 0.690106 0.526707 0.339892 0.137439 0.071997 0.279238 0.474987 0.650243 0.796731 0.907307 0.976335 1.000000 0.976551 0.906456 0.792448 0.639464 0.454476 0.246202 0.024727 0.198972 0.413552 0.607892 0.771669 0.895933 0.973622 1.000000 0.972986 0.893346 0.764740 0.593604 0.388882 0.161587 0.075756 0.309781 0.527031 0.714739 0.861596 0.958464 0.998985 0.980044 0.902052 0.769022 0.588429 0.370839 0.129339 0.121214 0.365097 0.586690 0.771505 0.907145 0.984182 0.996868 0.943611 0.827196 0.654728 0.437250 0.189098 0.072989 0.330996 0.566845 0.763678 0.907089 0.986229 0.994680 0.931041 0.799162 0.607999 0.371077 0.105599 0.168775 0.431336 0.661914 0.842426 0.958354 0.999958 0.963176 0.850083 0.668884 0.433401 0.162095 0.123329 0.399625 0.643895 0.835508 0.957885 1.000000 0.957458 0.833026 0.636572 0.384370 0.097844 0.198213 0.477733 0.715697 0.890378 0.985404 0.991366 0.906836 0.738697 0.501686 0.217207 0.088534 0.386889 0.649458 0.850794 0.970939 0.997483 0.926946 0.765320 0.527694 0.236947 0.078370 0.386770 0.656986 0.861138 0.977697 0.993834 0.906946 0.725154 0.466679 0.158133 0.168138 0.477395 0.736202 0.916082 0.996735 0.968429 0.833312 0.605412 0.309333 0.022307 0.352386 0.643401 0.861773 0.981775 0.988678 0.880696 0.669460 0.378916 0.042748 0.299443 0.606764 0.841939 0.975889 0.991450 0.885715 0.670676 0.372038 0.026274 0.323715 0.633904 0.864693 0.986037 0.981499 0.850627 0.609318 0.288083 0.071704
1.000000 1.000000 1.000000 1.000000 1.000000 1.000000 1.000000 1.000000 1.000000 1.000000 1.000000 1.000000 1.000000 1.000000 1.000000 1.000000 1.000000 1.000000 1.000000 1.000000 1.000000 1.000000 1.000000 1.000000 1.000000 1.000000 1.000000 1.000000 1.000000 1.000000 1.000000 1.000000 1.000000 1.000000 1.000000 1.000000 1.000000 1.000000 1.000000 1.000000 1.000000 1.000000 1.000000 1.000000 1.000000 1.000000 1.000000 1.000000 1.000000 1.000000 1.000000 1.000000 0.929081 0.929081 0.929081 0.916697 0.916697 0.916697 0.916697 0.916697 0.916697 0.916697 0.916697 0.916697 0.916697 0.916697 0.916697 0.916697 0.916697 0.916697 0.916697 0.916697 0.916697 0.916697 0.916697 0.916697 0.916697 0.916697 0.916697 0.916697 0.916697 0.916697 0.916697 0.916697 0.916697 0.916697 0.916697 0.916697 0.916697 0.916697 0.916697 0.916697 0.916697 0.916697 0.916697 0.916697 0.916697 0.950005 0.949411 0.950078 0.950976 0.951072 0.950714 0.948630 0.948008 0.947960 0.957060 0.957978 0.961106 0.962448 0.963658 0.965100 0.966495 0.967799 0.967124 0.965974 0.963868 0.962076 0.963580 0.960843 0.962868 0.965133 0.965837 0.966164 0.966872 0.965753 0.966201 0.965977 0.965355 0.964730 0.964047 0.963645 0.963455 0.963806 0.964111 0.964983 0.967380 0.968216 0.968424 0.968395 0.968335 0.969340 0.970232 0.971827 0.967812 0.968944 0.968977 0.966760 0.973787 0.970611 0.971263 0.971748 0.973065 0.973260 0.965423 0.961374 0.950869 0.949688 0.943822 0.934988 0.930985 0.932392 0.934580 0.935841 0.936121 0.931137 0.931298 0.927994 0.925569 0.928973 0.927084 0.925155 0.926620 0.927695 0.928079 0.926928 0.925680 0.920419 0.915002 0.914105 0.917254 0.920740 0.922481 0.923099 0.919792 0.885241 0.887090 0.893767 0.884423 0.876389 0.872198 0.869114 0.874060 0.875885 0.879279 0.878357 0.867576 0.852446 0.839747 0.834053 0.835141 0.827033 0.834458 0.828716 0.827231 0.819700 0.831808 0.821327 0.834219 0.844642 0.837870 0.838367 0.837185 0.831704 0.817041 0.817407 0.820626 0.818287 0.818935 0.807246 0.804434 0.793546 0.788540 0.786465 0.797125 0.778394 0.766135 0.754333 0.749837 0.750884 0.767528 0.769629 0.774247 0.762874 0.754156 0.740667 0.745305 0.752145 0.758294 0.752137 0.733704 0.703276 0.652905 0.669154 0.712237 0.651579 0.670916 0.676199 0.659792 0.659119 0.650232 0.647249 0.646642 0.644669 0.649180 0.657598 0.668858 0.686670 0.678848 0.668215 0.676263 0.658887 0.654125 0.634997 0.639782 0.620038 0.612024 0.635699 0.614004 0.610889 0.603411 0.615758 0.637054 0.613705 0.611087 0.610948 0.603444 0.605902 0.606648 0.597450 0.601111 0.605880 0.596791 0.610645 0.623870 0.606188 0.586047 0.573376 0.546076 0.535707 0.569141 0.568590 0.550878 0.512687 0.514427 0.534581 0.537410 0.533135 0.500547 0.499921 0.502764 0.548492 0.536504 0.493894 0.511469 0.508486 0.510486 0.448781 0.442528 0.425711 0.410986 0.360086 0.350267 0.354299 0.340390 0.322867 0.288107 0.288245 0.292030 0.308454 0.304855 0.295822 0.286438 0.305237 0.299355 0.283815 0.224586 0.206985 0.193497 0.180288 0.183204 0.148780 0.170651 0.240835 0.243290 0.243290 0.243290 0.243290 0.243290 0.243290 0.253437 0.253437 0.253437 0.253437 0.253437 0.253437 0.253437 0.253437 0.253437 0.267705 0.267705 0.267705 0.267705 0.267705 0.267705 0.267705 0.267705 0.267705 0.267705 0.267705 0.267705 0.267705 0.267705
0.000000 0.000000 0.000000 0.000000 0.000000 0.000000 0.000000 0.000000 0.000000 0.000000 0.000000 0.000000 0.000000 0.000000 0.000000 0.000000 0.000000 0.000000 0.000000 0.000000 0.000000 0.000000 0.000000 0.000000 0.000000 7.000000 4.000000 0.000000 0.000000 0.000000 0.000000 0.000000 0.000000 0.000000 0.000000 0.000000 0.000000 0.000000 0.000000 0.000000 0.000000 0.000000 0.000000 0.000000 0.000000 0.000000 0.000000 0.000000 0.000000 0.000000 0.000000 0.000000 0.180334 0.180334 0.180334 0.197066 0.197066 0.197066 0.197066 0.197066 0.197066 0.197066 0.197066 0.197066 0.197066 0.197066 0.197066 0.197066 0.197066 0.197066 0.197066 0.197066 0.197066 0.197066 0.197066 0.197066 0.197066 0.197066 0.197066 0.197066 0.197066 0.197066 0.197066 0.197066 0.197066 0.197066 0.197066 0.197066 0.197066 0.197066 0.197066 0.197066 0.197066 0.197066 0.197066 0.197066 0.197066 0.230940 0.230940 0.230940 0.230940 0.230940 0.230940 0.230940 0.230940 0.230940 0.230940 0.230940 0.230940 0.230940 0.230940 0.230940 0.230940 0.230940 0.230940 0.230940 0.230940 0.230940 0.230940 0.230940 0.230940 0.230940 0.230940 0.230940 0.230940 0.244339 0.244339 0.244339 0.244339 0.244339 0.244339 0.244339 0.244339 0.244339 0.244339 0.244339 0.244339 0.244339 0.244339 0.244339 0.244339 0.244339 0.244339 0.244339 0.244339 0.244339 0.244339 0.244339 0.251976 0.251976 0.251976 0.251976 0.251976 0.251976 0.251976 0.251976 0.251976 0.251976 0.251976 0.251976 0.251976 0.251976 0.251976 0.251976 0.251976 0.251976 0.251976 0.251976 0.264906 0.264906 0.264906 0.264906 0.264906 0.264906 0.264906 0.264906 0.264906 0.264906 0.264906 0.264906 0.264906 0.264906 0.264906 0.264906 0.264906 0.256074 0.256074 0.256074 0.256074 0.256074 0.256074 0.256074 0.256074 0.256074 0.256074 0.256074 0.256074 0.256074 0.256074 0.256074 0.256074 0.256074 0.264906 0.264906 0.264906 0.264906 0.264906 0.264906 0.264906 0.264906 0.264906 0.264906 0.264906 0.264906 0.264906 0.264906 0.264906 0.274721 0.274721 0.274721 0.274721 0.274721 0.274721 0.274721 0.274721 0.274721 0.274721 0.274721 0.274721 0.274721 0.256074 0.256074 0.256074 0.256074 0.256074 0.256074 0.256074 0.256074 0.256074 0.256074 0.256074 0.256074 0.256074 0.256074 0.269680 0.269680 0.269680 0.269680 0.269680 0.269680 0.269680 0.269680 0.269680 0.269680 0.269680 0.269680 0.264906 0.264906 0.264906 0.264906 0.264906 0.264906 0.264906 0.264906 0.264906 0.264906 0.264906 0.264906 0.260378 0.260378 0.260378 0.260378 0.260378 0.260378 0.260378 0.260378 0.260378 0.260378 0.260378 0.260378 0.274721 0.274721 0.274721 0.274721 0.274721 0.274721 0.274721 0.274721 0.274721 0.274721 0.256074 0.256074 0.256074 0.256074 0.256074 0.256074 0.256074 0.256074 0.256074 0.256074 0.256074 0.264906 0.264906 0.264906 0.264906 0.264906 0.264906 0.264906 0.264906 0.264906 0.264906 0.260378 0.260378 0.260378 0.260378 0.260378 0.260378 0.260378 0.260378 0.260378 0.260378 0.256074 0.256074 0.256074 0.256074 0.256074 0.256074 0.256074 0.256074 0.256074 0.256074 0.260378 0.260378 0.260378 0.260378 0.260378 0.260378 0.260378 0.260378 0.260378 0.256074 0.256074 0.256074 0.256074 0.256074 0.256074 0.256074 0.256074 0.256074 0.251976 0.251976 0.251976 0.251976 0.251976 0.251976 0.251976 0.251976 0.251976 0.251976 0.251976 0.251976 0.251976 0.251976
