# Output from CTFFind version 4.1.9, run on 2019-11-03 20:07:14
# Input file: stack11_bm3d_averaged_1_5.5_0_1250_half.mrc ; Number of micrographs: 1
# Pixel size: 3.000 Angstroms ; acceleration voltage: 300.0 keV ; spherical aberration: 0.00 mm ; amplitude contrast: 0.07
# Box size: 512 pixels ; min. res.: 30.0 Angstroms ; max. res.: 5.0 Angstroms ; min. def.: 5000.0 um; max. def. 50000.0 um; num. frames averaged: 1
# 6 lines per micrograph: #1 - spatial frequency (1/Angstroms); #2 - 1D rotational average of spectrum (assuming no astigmatism); #3 - 1D rotational average of spectrum; #4 - CTF fit; #5 - cross-correlation between spectrum and CTF fit; #6 - 2sigma of expected cross correlation of noise
0.000000 0.000651 0.001302 0.001953 0.002604 0.003255 0.003906 0.004557 0.005208 0.005859 0.006510 0.007161 0.007812 0.008464 0.009115 0.009766 0.010417 0.011068 0.011719 0.012370 0.013021 0.013672 0.014323 0.014974 0.015625 0.016276 0.016927 0.017578 0.018229 0.018880 0.019531 0.020182 0.020833 0.021484 0.022135 0.022786 0.023438 0.024089 0.024740 0.025391 0.026042 0.026693 0.027344 0.027995 0.028646 0.029297 0.029948 0.030599 0.031250 0.031901 0.032552 0.033203 0.033854 0.034505 0.035156 0.035807 0.036458 0.037109 0.037760 0.038411 0.039062 0.039714 0.040365 0.041016 0.041667 0.042318 0.042969 0.043620 0.044271 0.044922 0.045573 0.046224 0.046875 0.047526 0.048177 0.048828 0.049479 0.050130 0.050781 0.051432 0.052083 0.052734 0.053385 0.054036 0.054688 0.055339 0.055990 0.056641 0.057292 0.057943 0.058594 0.059245 0.059896 0.060547 0.061198 0.061849 0.062500 0.063151 0.063802 0.064453 0.065104 0.065755 0.066406 0.067057 0.067708 0.068359 0.069010 0.069661 0.070312 0.070964 0.071615 0.072266 0.072917 0.073568 0.074219 0.074870 0.075521 0.076172 0.076823 0.077474 0.078125 0.078776 0.079427 0.080078 0.080729 0.081380 0.082031 0.082682 0.083333 0.083984 0.084635 0.085286 0.085938 0.086589 0.087240 0.087891 0.088542 0.089193 0.089844 0.090495 0.091146 0.091797 0.092448 0.093099 0.093750 0.094401 0.095052 0.095703 0.096354 0.097005 0.097656 0.098307 0.098958 0.099609 0.100260 0.100911 0.101562 0.102214 0.102865 0.103516 0.104167 0.104818 0.105469 0.106120 0.106771 0.107422 0.108073 0.108724 0.109375 0.110026 0.110677 0.111328 0.111979 0.112630 0.113281 0.113932 0.114583 0.115234 0.115885 0.116536 0.117188 0.117839 0.118490 0.119141 0.119792 0.120443 0.121094 0.121745 0.122396 0.123047 0.123698 0.124349 0.125000 0.125651 0.126302 0.126953 0.127604 0.128255 0.128906 0.129557 0.130208 0.130859 0.131510 0.132161 0.132812 0.133464 0.134115 0.134766 0.135417 0.136068 0.136719 0.137370 0.138021 0.138672 0.139323 0.139974 0.140625 0.141276 0.141927 0.142578 0.143229 0.143880 0.144531 0.145182 0.145833 0.146484 0.147135 0.147786 0.148438 0.149089 0.149740 0.150391 0.151042 0.151693 0.152344 0.152995 0.153646 0.154297 0.154948 0.155599 0.156250 0.156901 0.157552 0.158203 0.158854 0.159505 0.160156 0.160807 0.161458 0.162109 0.162760 0.163411 0.164062 0.164714 0.165365 0.166016 0.166667 0.167318 0.167969 0.168620 0.169271 0.169922 0.170573 0.171224 0.171875 0.172526 0.173177 0.173828 0.174479 0.175130 0.175781 0.176432 0.177083 0.177734 0.178385 0.179036 0.179688 0.180339 0.180990 0.181641 0.182292 0.182943 0.183594 0.184245 0.184896 0.185547 0.186198 0.186849 0.187500 0.188151 0.188802 0.189453 0.190104 0.190755 0.191406 0.192057 0.192708 0.193359 0.194010 0.194661 0.195312 0.195964 0.196615 0.197266 0.197917 0.198568 0.199219 0.199870 0.200521 0.201172 0.201823 0.202474 0.203125 0.203776 0.204427 0.205078 0.205729 0.206380 0.207031 0.207682 0.208333 0.208984 0.209635 0.210286 0.210938 0.211589 0.212240 0.212891 0.213542 0.214193 0.214844 0.215495 0.216146 0.216797 0.217448 0.218099 0.218750 0.219401 0.220052 0.220703 0.221354 0.222005 0.222656 0.223307 0.223958 0.224609 0.225260 0.225911 0.226562 0.227214 0.227865 0.228516 0.229167 0.229818 0.230469 0.231120 0.231771 0.232422 0.233073 0.233724 0.234375 0.235026 0.235677
       0.34192        0.34192        0.34192        0.34192        0.34192        0.34192        0.34192        0.34192        0.34192        0.34192        0.34192        0.34192        0.34192        0.34192        0.34192        0.34192        0.34192        0.34192        0.34192        0.34192        0.34192        0.34192        0.34192        0.34192        0.34192        0.34192        0.34192        0.34192        0.34192        0.34192        0.34192        0.34192        0.34192        0.34192        0.34192        0.34192        0.34192        0.34192        0.34192        0.34192        0.34192        0.34192        0.34192        0.34192        0.34192        0.34192        0.34192        0.34192        0.34192        0.34192        0.34192        0.69757        0.85888        0.53669        0.10514       -0.02989       -0.39035       -0.18118       -0.28742       -0.11367       -0.05541       -0.11115       -0.05341       -0.17003       -0.20668       -0.21718       -0.30855       -0.32020       -0.44732       -0.36290       -0.42930       -0.42330       -0.39706       -0.41487       -0.45580       -0.51254       -0.56061       -0.55727       -0.53137       -0.36130       -0.33233       -0.29550       -0.27569       -0.18712       -0.17362        0.05763        0.13706        0.16893        0.26180        0.38144        0.45752        0.52247        0.59636        0.59385        0.58087        0.69834        0.80581        0.70623        0.74244        0.62363        0.56852        0.48313        0.42993        0.51176        0.39590        0.26357        0.11322        0.10595        0.08486       -0.01992        0.03522        0.04594        0.00333        0.02438        0.02387        0.23746        0.27005        0.29531        0.43361        0.45329        0.41352        0.59294        0.62301        0.64376        0.72809        0.67802        0.64799        0.66190        0.56240        0.46480        0.41947        0.30258        0.26157        0.17981        0.13379        0.05261        0.05916        0.06609        0.09679        0.15465        0.24090        0.29284        0.41524        0.46328        0.48248        0.57154        0.60589        0.63801        0.61882        0.56150        0.45984        0.47311        0.37892        0.27151        0.20899        0.15743        0.16804        0.15050        0.15160        0.17982        0.31517        0.32846        0.39997        0.44073        0.42789        0.48559        0.56160        0.55420        0.49996        0.45679        0.41087        0.36615        0.33658        0.30338        0.25536        0.24361        0.24495        0.25164        0.22274        0.30711        0.36312        0.38629        0.43958        0.45609        0.47037        0.42584        0.40794        0.40158        0.36098        0.32755        0.27337        0.27364        0.26539        0.23827        0.28850        0.28657        0.34809        0.37949        0.42758        0.47690        0.41010        0.42421        0.43317        0.40980        0.34833        0.32548        0.29372        0.32034        0.27159        0.31764        0.31023        0.32773        0.33633        0.36052        0.31756        0.39316        0.41549        0.38023        0.34889        0.37115        0.31558        0.29276        0.30304        0.32026        0.30660        0.31893        0.33935        0.35097        0.33989        0.36706        0.36683        0.41481        0.38615        0.33636        0.34422        0.29802        0.28894        0.32377        0.31849        0.32864        0.33936        0.33705        0.38245        0.33000        0.32997        0.33608        0.34245        0.30303        0.31196        0.27910        0.30224        0.32701        0.30507        0.32730        0.35275        0.36124        0.29461        0.33397        0.29585        0.29931        0.27987        0.24514        0.30231        0.30293        0.34271        0.33731        0.34003        0.32499        0.34869        0.31236        0.34539        0.31263        0.31816        0.28529        0.33156        0.32097        0.36323        0.32546        0.33551        0.34137        0.29398        0.27455        0.30984        0.24914        0.22770        0.34005        0.32099        0.36072        0.34323        0.35859        0.32895        0.33632        0.34646        0.26327        0.25788        0.31460        0.30206        0.31029        0.32025        0.34047        0.33232        0.29492        0.29184        0.34379        0.32065        0.31250        0.28815        0.32154        0.34173        0.39607        0.35348        0.31303        0.27872        0.30283        0.28608        0.29802        0.27184        0.26233        0.31285        0.33191        0.34460        0.35324        0.32662        0.28857        0.29997        0.26747        0.27337        0.25287        0.31295        0.26956        0.23834        0.30216        0.29749        0.26546        0.29460        0.21373        0.21477        0.24809        0.19045        0.26487        0.33915        0.24908        0.23259        0.31570        0.31231        0.31921        0.31615        0.26219        0.24263        0.19031        0.21227        0.19390        0.24991        0.23133        0.27672        0.34660        0.33812        0.24331        0.14543        0.07822       -0.01227       -0.10363       -0.62001
2.769220 2.739781 2.710504 2.681387 2.652432 2.623639 2.595006 2.566535 2.538225 2.510076 2.482089 2.454262 2.426597 2.399094 2.371751 2.344570 2.317550 2.290692 2.263994 2.237458 2.211083 2.184870 2.158818 2.132927 2.107197 2.081629 2.056221 2.030975 2.005891 1.980967 1.956205 1.931604 1.907165 1.882886 1.858769 1.834814 1.811019 1.787386 1.763914 1.740603 1.717454 1.694466 1.671639 1.648973 1.626469 1.604126 1.581944 1.559923 1.538064 1.516366 1.494829 1.711616 2.131862 1.692171 1.181201 1.046472 0.449310 0.846208 0.562584 0.844969 0.809754 0.816527 0.756648 0.748550 0.594648 0.556826 0.499657 0.429128 0.245928 0.367966 0.200723 0.328933 0.221505 0.205622 0.179800 0.040410 0.009314 0.017525 -0.069068 0.131585 0.230386 0.188207 0.175569 0.327263 0.184398 0.516370 0.620419 0.624305 0.641405 0.874187 0.831532 0.940301 0.928325 1.026520 0.992427 1.079705 1.164891 1.042503 1.156071 0.908554 0.926334 0.791784 0.649879 0.801621 0.696405 0.487193 0.330766 0.249742 0.263605 0.146984 0.130086 0.161868 0.106254 0.123464 0.077524 0.251368 0.355020 0.341409 0.474355 0.545451 0.418254 0.589758 0.726188 0.660009 0.726205 0.707819 0.717199 0.651216 0.596991 0.499541 0.373523 0.276975 0.220945 0.087201 0.118354 -0.103314 -0.046664 -0.062222 -0.077014 -0.019064 0.133409 0.070870 0.241792 0.307083 0.338003 0.384492 0.501942 0.463098 0.478728 0.489500 0.303199 0.290573 0.283914 0.085164 0.043226 -0.076140 -0.013859 -0.062247 -0.094501 -0.080189 0.037813 0.089968 0.122995 0.218716 0.227645 0.230822 0.280058 0.445983 0.397982 0.263958 0.239342 0.227303 0.149589 0.149906 0.120510 0.002930 0.022464 0.077150 -0.000627 0.057508 0.143691 0.145999 0.228219 0.246511 0.265165 0.200394 0.222311 0.145680 0.157512 0.125755 0.050040 -0.006449 0.017979 -0.000769 -0.037705 0.068853 0.023727 0.123049 0.154707 0.203149 0.189483 0.139047 0.157408 0.178424 0.128617 0.055288 -0.004161 0.050304 0.035289 -0.022914 0.044555 0.037601 0.060226 0.051760 0.064264 0.055951 0.145739 0.138361 0.055361 0.050291 0.054436 0.013852 -0.023394 0.017189 0.016975 0.005889 0.014660 0.053259 0.058908 0.055923 0.071182 0.056710 0.151700 0.059494 0.033501 0.037707 -0.037024 0.005104 0.040872 0.002547 0.031029 0.050607 0.025384 0.126844 0.024038 -0.004301 0.058733 0.003401 0.005078 0.004157 -0.026314 0.018233 0.005420 0.000265 0.050908 0.052274 0.060471 0.032711 0.038867 0.024467 0.015830 -0.023884 -0.028465 0.029439 0.048448 0.078638 0.081060 0.056705 0.073233 0.109087 0.052277 0.104738 0.076070 0.044160 0.030082 0.105845 0.068588 0.118766 0.087644 0.062399 0.116734 0.043982 0.008811 0.088429 -0.033557 -0.016885 0.104844 0.048952 0.156936 0.095706 0.090460 0.052777 0.066796 0.091564 -0.021999 -0.028881 0.054603 0.046819 0.039419 0.033701 0.105726 0.047380 -0.003034 0.055107 0.049061 0.051769 0.055064 -0.016409 0.064857 0.063044 0.125611 0.049438 0.021299 -0.028446 -0.012778 -0.011441 -0.001092 -0.052719 -0.030844 0.007592 0.024765 0.026596 0.042865 0.001119 -0.041085 -0.035666 -0.025125 -0.072268 -0.057764 -0.015142 -0.025761 -0.083769 -0.008717 -0.048302 -0.074828 -0.000467 -0.139800 -0.088429 -0.098170 -0.183374 -0.058920 0.057945 -0.060767 -0.156388 0.034269 0.032387 -0.050065 0.041263 -0.079290 0.265559 0.163797 0.217722 0.260628 0.302832 0.251732 0.313825 0.335895 0.388523 0.223120 0.263654 0.097039 -0.017939 -0.681106
0.072396 0.072899 0.074407 0.076921 0.080439 0.084961 0.090486 0.097011 0.104536 0.113056 0.122568 0.133069 0.144553 0.157013 0.170442 0.184831 0.200168 0.216441 0.233634 0.251731 0.270711 0.290551 0.311225 0.332705 0.354956 0.377941 0.401619 0.425945 0.450866 0.476328 0.502269 0.528621 0.555313 0.582264 0.609389 0.636598 0.663790 0.690862 0.717700 0.744186 0.770194 0.795592 0.820240 0.843994 0.866701 0.888204 0.908342 0.926947 0.943847 0.958870 0.971837 0.982572 0.990896 0.996632 0.999604 0.999641 0.996577 0.990252 0.980517 0.967230 0.950266 0.929510 0.904868 0.876261 0.843634 0.806954 0.766215 0.721436 0.672669 0.619996 0.563533 0.503433 0.439884 0.373114 0.303391 0.231021 0.156352 0.079771 0.001708 0.077370 0.156960 0.236522 0.315483 0.393243 0.469172 0.542625 0.612939 0.679439 0.741450 0.798301 0.849331 0.893901 0.931399 0.961253 0.982935 0.995978 0.999978 0.994608 0.979626 0.954884 0.920335 0.876044 0.822190 0.759075 0.687126 0.606899 0.519078 0.424474 0.324027 0.218791 0.109938 0.001263 0.113450 0.225187 0.334979 0.441294 0.542580 0.637292 0.723916 0.800993 0.867150 0.921124 0.961792 0.988196 0.999572 0.995369 0.975278 0.939242 0.887482 0.820495 0.739074 0.644297 0.537530 0.420410 0.294833 0.162928 0.027022 0.110390 0.246691 0.379192 0.505178 0.621975 0.727002 0.817834 0.892264 0.948366 0.984546 0.999599 0.992758 0.963728 0.912717 0.840458 0.748211 0.637760 0.511392 0.371861 0.222338 0.066356 0.092280 0.249571 0.401423 0.543760 0.672633 0.784332 0.875508 0.943275 0.985321 0.999993 0.986379 0.944362 0.874659 0.778836 0.659290 0.519215 0.362531 0.193790 0.018056 0.159238 0.332452 0.495919 0.644137 0.771949 0.874750 0.948651 0.990655 0.998789 0.972217 0.911314 0.817695 0.694209 0.544872 0.374765 0.189884 0.003065 0.196886 0.384170 0.557559 0.710060 0.835331 0.927957 0.983712 0.999770 0.974878 0.909458 0.805653 0.667293 0.499786 0.309935 0.105693 0.104161 0.310389 0.503688 0.675121 0.816548 0.921020 0.983154 0.999439 0.968466 0.891063 0.770328 0.611552 0.422025 0.210735 0.012032 0.235177 0.447329 0.637432 0.795332 0.912337 0.981733 0.999201 0.963124 0.874763 0.738271 0.560552 0.350957 0.120828 0.117082 0.349312 0.562437 0.743864 0.882590 0.969910 0.999999 0.970349 0.882017 0.739667 0.551377 0.328246 0.083770 0.166931 0.408044 0.624049 0.800735 0.926175 0.991558 0.991869 0.926328 0.798557 0.616454 0.391777 0.139430 0.123481 0.378793 0.608522 0.796149 0.927857 0.993572 0.987811 0.910197 0.765623 0.564021 0.319761 0.050679 0.223191 0.481075 0.703053 0.871619 0.973098 0.998832 0.945985 0.817913 0.624052 0.379318 0.103007 0.182659 0.454289 0.689261 0.867608 0.973777 0.998053 0.937531 0.796525 0.586378 0.324638 0.033660 0.261237 0.533963 0.759971 0.918497 0.994542 0.980367 0.876380 0.691286 0.441464 0.149621 0.157213 0.450147 0.701144 0.885736 0.985478 0.989869 0.897571 0.716740 0.464435 0.165110 0.151681 0.454147 0.711455 0.896909 0.990780 0.982514 0.872026 0.669943 0.396710 0.080629 0.244985 0.545290 0.787640 0.945203 1.000000 0.945087 0.785554 0.538208 0.229949 0.105080 0.429173 0.705331 0.901495 0.994360 0.972262 0.836777 0.602809 0.297099 0.044702 0.382125 0.674645 0.886571 0.991496 0.975701 0.840104 0.600434 0.285574 0.065793 0.409854 0.703107 0.907892 0.997330 0.958984 0.796752 0.530676 0.194630 0.167838
1.000000 1.000000 1.000000 1.000000 1.000000 1.000000 1.000000 1.000000 1.000000 1.000000 1.000000 1.000000 1.000000 1.000000 1.000000 1.000000 1.000000 1.000000 1.000000 1.000000 1.000000 1.000000 1.000000 1.000000 1.000000 1.000000 1.000000 1.000000 1.000000 1.000000 1.000000 1.000000 1.000000 1.000000 1.000000 1.000000 1.000000 1.000000 1.000000 1.000000 1.000000 1.000000 1.000000 1.000000 1.000000 1.000000 1.000000 1.000000 1.000000 1.000000 1.000000 1.000000 0.918913 0.918913 0.918913 0.912422 0.912422 0.912422 0.912422 0.912422 0.912422 0.912422 0.912422 0.912422 0.912422 0.912422 0.912422 0.912422 0.912422 0.912422 0.912422 0.912422 0.912422 0.912422 0.912422 0.912422 0.912422 0.912422 0.912422 0.912422 0.912422 0.912422 0.912422 0.912422 0.912422 0.912422 0.912422 0.912422 0.912422 0.912422 0.912422 0.912422 0.912422 0.912422 0.912422 0.912422 0.941416 0.942835 0.951077 0.950664 0.950074 0.948046 0.946843 0.946498 0.946402 0.946737 0.947447 0.948412 0.954643 0.955878 0.960290 0.961967 0.962144 0.963869 0.964563 0.964179 0.955662 0.955442 0.954049 0.953502 0.956028 0.955112 0.954352 0.955323 0.955220 0.955620 0.955601 0.954932 0.953876 0.952806 0.951886 0.951483 0.951283 0.952007 0.952419 0.953873 0.957141 0.957732 0.957866 0.956237 0.955065 0.956344 0.955502 0.954893 0.942973 0.942567 0.941297 0.941333 0.944417 0.944456 0.945040 0.945657 0.947420 0.947788 0.944712 0.944168 0.936816 0.934384 0.932029 0.926711 0.922088 0.923887 0.925534 0.926094 0.926333 0.921256 0.921228 0.919380 0.915399 0.917889 0.918183 0.919500 0.920850 0.916339 0.915288 0.914291 0.912540 0.904433 0.892184 0.891123 0.888555 0.893486 0.894005 0.892842 0.895602 0.884122 0.868195 0.841788 0.844234 0.847720 0.838497 0.834462 0.834645 0.835365 0.839449 0.832247 0.830139 0.825144 0.814177 0.807975 0.801225 0.791774 0.792307 0.784212 0.774455 0.770362 0.794768 0.788742 0.799164 0.803692 0.803341 0.800718 0.794014 0.785268 0.760777 0.760860 0.742592 0.715463 0.716215 0.714834 0.714580 0.712653 0.718514 0.709303 0.707804 0.689916 0.687201 0.692545 0.696734 0.694533 0.694463 0.699521 0.705086 0.686083 0.674943 0.665699 0.671785 0.672154 0.671558 0.678219 0.655632 0.637321 0.624171 0.632526 0.641517 0.618955 0.630366 0.643972 0.619954 0.616427 0.606906 0.609074 0.598463 0.600991 0.599010 0.597896 0.604036 0.618944 0.609660 0.610403 0.620697 0.626040 0.637985 0.640132 0.642651 0.605362 0.608703 0.629949 0.634580 0.615899 0.631627 0.620230 0.636871 0.676537 0.666930 0.633228 0.626811 0.614416 0.576759 0.559949 0.555295 0.563357 0.596718 0.602027 0.579863 0.552578 0.555547 0.562845 0.567062 0.566941 0.551180 0.559737 0.547739 0.524584 0.534182 0.541033 0.539745 0.525365 0.512616 0.513692 0.514583 0.528829 0.524593 0.494459 0.513364 0.509522 0.497845 0.425343 0.439047 0.426907 0.416633 0.367563 0.377925 0.386208 0.372180 0.295978 0.284072 0.285004 0.283896 0.265585 0.245990 0.222820 0.210040 0.166783 0.172053 0.156652 0.130598 0.133955 0.118478 0.109536 0.114499 0.086067 0.141489 0.204747 0.206455 0.206455 0.206455 0.206455 0.206455 0.206455 0.187988 0.187988 0.187988 0.187988 0.187988 0.187988 0.187988 0.187988 0.187988 0.213821 0.213821 0.213821 0.213821 0.213821 0.213821 0.213821 0.213821 0.213821 0.213821 0.213821 0.213821 0.213821 0.213821
0.000000 0.000000 0.000000 0.000000 0.000000 0.000000 0.000000 0.000000 0.000000 0.000000 0.000000 0.000000 0.000000 0.000000 0.000000 0.000000 0.000000 0.000000 0.000000 0.000000 0.000000 0.000000 0.000000 0.000000 0.000000 0.000000 0.000000 0.000000 0.000000 0.000000 0.000000 0.000000 0.000000 0.000000 0.000000 0.000000 0.000000 0.000000 0.000000 0.000000 0.000000 0.000000 0.000000 0.000000 0.000000 0.000000 0.000000 0.000000 0.000000 0.000000 0.000000 0.000000 0.180334 0.180334 0.180334 0.199007 0.199007 0.199007 0.199007 0.199007 0.199007 0.199007 0.199007 0.199007 0.199007 0.199007 0.199007 0.199007 0.199007 0.199007 0.199007 0.199007 0.199007 0.199007 0.199007 0.199007 0.199007 0.199007 0.199007 0.199007 0.199007 0.199007 0.199007 0.199007 0.199007 0.199007 0.199007 0.199007 0.199007 0.199007 0.199007 0.199007 0.199007 0.199007 0.199007 0.199007 0.225018 0.225018 0.225018 0.225018 0.225018 0.225018 0.225018 0.225018 0.225018 0.225018 0.225018 0.225018 0.225018 0.225018 0.225018 0.225018 0.225018 0.225018 0.225018 0.225018 0.225018 0.225018 0.225018 0.225018 0.225018 0.225018 0.225018 0.225018 0.225018 0.244339 0.244339 0.244339 0.244339 0.244339 0.244339 0.244339 0.244339 0.244339 0.244339 0.244339 0.244339 0.244339 0.244339 0.244339 0.244339 0.244339 0.244339 0.244339 0.244339 0.244339 0.244339 0.244339 0.251976 0.251976 0.251976 0.251976 0.251976 0.251976 0.251976 0.251976 0.251976 0.251976 0.251976 0.251976 0.251976 0.251976 0.251976 0.251976 0.251976 0.251976 0.251976 0.251976 0.264906 0.264906 0.264906 0.264906 0.264906 0.264906 0.264906 0.264906 0.264906 0.264906 0.264906 0.264906 0.264906 0.264906 0.264906 0.264906 0.264906 0.264906 0.264906 0.264906 0.264906 0.264906 0.264906 0.264906 0.264906 0.264906 0.264906 0.264906 0.264906 0.264906 0.264906 0.264906 0.264906 0.264906 0.264906 0.264906 0.264906 0.264906 0.264906 0.264906 0.264906 0.264906 0.264906 0.264906 0.264906 0.264906 0.264906 0.264906 0.264906 0.264906 0.264906 0.264906 0.264906 0.264906 0.264906 0.264906 0.264906 0.264906 0.264906 0.264906 0.264906 0.264906 0.256074 0.256074 0.256074 0.256074 0.256074 0.256074 0.256074 0.256074 0.256074 0.256074 0.256074 0.256074 0.256074 0.256074 0.269680 0.269680 0.269680 0.269680 0.269680 0.269680 0.269680 0.269680 0.269680 0.269680 0.269680 0.269680 0.264906 0.264906 0.264906 0.264906 0.264906 0.264906 0.264906 0.264906 0.264906 0.264906 0.264906 0.264906 0.269680 0.269680 0.269680 0.269680 0.269680 0.269680 0.269680 0.269680 0.269680 0.269680 0.269680 0.264906 0.264906 0.264906 0.264906 0.264906 0.264906 0.264906 0.264906 0.264906 0.264906 0.264906 0.256074 0.256074 0.256074 0.256074 0.256074 0.256074 0.256074 0.256074 0.256074 0.256074 0.256074 0.264906 0.264906 0.264906 0.264906 0.264906 0.264906 0.264906 0.264906 0.264906 0.264906 0.260378 0.260378 0.260378 0.260378 0.260378 0.260378 0.260378 0.260378 0.260378 0.260378 0.256074 0.256074 0.256074 0.256074 0.256074 0.256074 0.256074 0.256074 0.256074 0.256074 0.260378 0.260378 0.260378 0.260378 0.260378 0.260378 0.260378 0.260378 0.260378 0.256074 0.256074 0.256074 0.256074 0.256074 0.256074 0.256074 0.256074 0.256074 0.251976 0.251976 0.251976 0.251976 0.251976 0.251976 0.251976 0.251976 0.251976 0.251976 0.251976 0.251976 0.251976 0.251976
