# Output from CTFFind version 4.1.9, run on 2019-11-03 20:09:27
# Input file: stack1_bm3d_averaged_1_10_0_2500_half.mrc ; Number of micrographs: 1
# Pixel size: 3.000 Angstroms ; acceleration voltage: 300.0 keV ; spherical aberration: 0.00 mm ; amplitude contrast: 0.07
# Box size: 512 pixels ; min. res.: 30.0 Angstroms ; max. res.: 5.0 Angstroms ; min. def.: 5000.0 um; max. def. 50000.0 um; num. frames averaged: 1
# 6 lines per micrograph: #1 - spatial frequency (1/Angstroms); #2 - 1D rotational average of spectrum (assuming no astigmatism); #3 - 1D rotational average of spectrum; #4 - CTF fit; #5 - cross-correlation between spectrum and CTF fit; #6 - 2sigma of expected cross correlation of noise
0.000000 0.000651 0.001302 0.001953 0.002604 0.003255 0.003906 0.004557 0.005208 0.005859 0.006510 0.007161 0.007812 0.008464 0.009115 0.009766 0.010417 0.011068 0.011719 0.012370 0.013021 0.013672 0.014323 0.014974 0.015625 0.016276 0.016927 0.017578 0.018229 0.018880 0.019531 0.020182 0.020833 0.021484 0.022135 0.022786 0.023438 0.024089 0.024740 0.025391 0.026042 0.026693 0.027344 0.027995 0.028646 0.029297 0.029948 0.030599 0.031250 0.031901 0.032552 0.033203 0.033854 0.034505 0.035156 0.035807 0.036458 0.037109 0.037760 0.038411 0.039062 0.039714 0.040365 0.041016 0.041667 0.042318 0.042969 0.043620 0.044271 0.044922 0.045573 0.046224 0.046875 0.047526 0.048177 0.048828 0.049479 0.050130 0.050781 0.051432 0.052083 0.052734 0.053385 0.054036 0.054688 0.055339 0.055990 0.056641 0.057292 0.057943 0.058594 0.059245 0.059896 0.060547 0.061198 0.061849 0.062500 0.063151 0.063802 0.064453 0.065104 0.065755 0.066406 0.067057 0.067708 0.068359 0.069010 0.069661 0.070312 0.070964 0.071615 0.072266 0.072917 0.073568 0.074219 0.074870 0.075521 0.076172 0.076823 0.077474 0.078125 0.078776 0.079427 0.080078 0.080729 0.081380 0.082031 0.082682 0.083333 0.083984 0.084635 0.085286 0.085938 0.086589 0.087240 0.087891 0.088542 0.089193 0.089844 0.090495 0.091146 0.091797 0.092448 0.093099 0.093750 0.094401 0.095052 0.095703 0.096354 0.097005 0.097656 0.098307 0.098958 0.099609 0.100260 0.100911 0.101562 0.102214 0.102865 0.103516 0.104167 0.104818 0.105469 0.106120 0.106771 0.107422 0.108073 0.108724 0.109375 0.110026 0.110677 0.111328 0.111979 0.112630 0.113281 0.113932 0.114583 0.115234 0.115885 0.116536 0.117188 0.117839 0.118490 0.119141 0.119792 0.120443 0.121094 0.121745 0.122396 0.123047 0.123698 0.124349 0.125000 0.125651 0.126302 0.126953 0.127604 0.128255 0.128906 0.129557 0.130208 0.130859 0.131510 0.132161 0.132812 0.133464 0.134115 0.134766 0.135417 0.136068 0.136719 0.137370 0.138021 0.138672 0.139323 0.139974 0.140625 0.141276 0.141927 0.142578 0.143229 0.143880 0.144531 0.145182 0.145833 0.146484 0.147135 0.147786 0.148438 0.149089 0.149740 0.150391 0.151042 0.151693 0.152344 0.152995 0.153646 0.154297 0.154948 0.155599 0.156250 0.156901 0.157552 0.158203 0.158854 0.159505 0.160156 0.160807 0.161458 0.162109 0.162760 0.163411 0.164062 0.164714 0.165365 0.166016 0.166667 0.167318 0.167969 0.168620 0.169271 0.169922 0.170573 0.171224 0.171875 0.172526 0.173177 0.173828 0.174479 0.175130 0.175781 0.176432 0.177083 0.177734 0.178385 0.179036 0.179688 0.180339 0.180990 0.181641 0.182292 0.182943 0.183594 0.184245 0.184896 0.185547 0.186198 0.186849 0.187500 0.188151 0.188802 0.189453 0.190104 0.190755 0.191406 0.192057 0.192708 0.193359 0.194010 0.194661 0.195312 0.195964 0.196615 0.197266 0.197917 0.198568 0.199219 0.199870 0.200521 0.201172 0.201823 0.202474 0.203125 0.203776 0.204427 0.205078 0.205729 0.206380 0.207031 0.207682 0.208333 0.208984 0.209635 0.210286 0.210938 0.211589 0.212240 0.212891 0.213542 0.214193 0.214844 0.215495 0.216146 0.216797 0.217448 0.218099 0.218750 0.219401 0.220052 0.220703 0.221354 0.222005 0.222656 0.223307 0.223958 0.224609 0.225260 0.225911 0.226562 0.227214 0.227865 0.228516 0.229167 0.229818 0.230469 0.231120 0.231771 0.232422 0.233073 0.233724 0.234375 0.235026 0.235677
       0.34972        0.34972        0.34972        0.34972        0.34972        0.34972        0.34972        0.34972        0.34972        0.34972        0.34972        0.34972        0.34972        0.34972        0.34972        0.34972        0.34972        0.34972        0.34972        0.34972        0.34972        0.34972        0.34972        0.34972        0.34972        0.34972        0.34972        0.34972        0.34972        0.34972        0.34972        0.34972        0.34972        0.34972        0.34972        0.34972        0.34972        0.34972        0.34972        0.34972        0.34972        0.34972        0.34972        0.34972        0.34972        0.34972        0.34972        0.34972        0.34972        0.34972        0.34972        0.31550        0.42020        0.21562        0.06885        0.01447       -0.24423       -0.10793       -0.11915       -0.20420        0.01115       -0.12993       -0.01224       -0.04644       -0.03024       -0.09653       -0.15493       -0.20923       -0.23676       -0.33965       -0.27158       -0.18348       -0.17919       -0.27737       -0.19431       -0.23125       -0.20174       -0.22739       -0.08764       -0.11121       -0.14749        0.00021        0.07222        0.01130        0.06732        0.07417        0.27971        0.26476        0.34585        0.36610        0.36657        0.40089        0.47706        0.52020        0.51847        0.49138        0.49967        0.52029        0.48933        0.49512        0.41665        0.41808        0.41137        0.37224        0.31340        0.32464        0.32337        0.21279        0.21181        0.15874        0.18164        0.17318        0.16646        0.17321        0.27008        0.34421        0.33404        0.28351        0.41613        0.48511        0.40282        0.49632        0.57680        0.51168        0.50413        0.58439        0.59193        0.43285        0.48482        0.42423        0.35828        0.32797        0.28906        0.26688        0.20804        0.21084        0.19603        0.22515        0.25528        0.28313        0.34509        0.32606        0.40918        0.40763        0.45569        0.51131        0.46065        0.47717        0.42812        0.43678        0.41029        0.35195        0.31249        0.32213        0.32007        0.25680        0.25871        0.26218        0.27020        0.28443        0.32304        0.42948        0.48566        0.42945        0.46325        0.46420        0.42035        0.45946        0.44785        0.41452        0.36721        0.37755        0.35475        0.32742        0.31042        0.29873        0.28117        0.30253        0.32014        0.34135        0.40314        0.37874        0.38343        0.39407        0.37029        0.42758        0.40602        0.36154        0.33348        0.34293        0.32216        0.29343        0.32385        0.33536        0.34236        0.34466        0.32775        0.41178        0.40132        0.40796        0.42662        0.45385        0.39948        0.37290        0.35197        0.34816        0.29695        0.28553        0.33170        0.39669        0.39949        0.35572        0.36589        0.40608        0.39492        0.45816        0.37235        0.39332        0.34847        0.31561        0.30873        0.30936        0.34909        0.35675        0.37465        0.37833        0.33215        0.42489        0.34066        0.34863        0.35883        0.39966        0.37390        0.30095        0.32183        0.27783        0.34386        0.32905        0.34255        0.34810        0.32511        0.36148        0.32866        0.35749        0.34944        0.31753        0.29128        0.31512        0.36048        0.30973        0.30355        0.33327        0.32351        0.33528        0.33655        0.31160        0.30333        0.28418        0.32330        0.33353        0.34357        0.29083        0.30943        0.34613        0.32537        0.30618        0.38792        0.34917        0.29922        0.32590        0.33890        0.32809        0.34186        0.30563        0.33629        0.27574        0.32690        0.38697        0.36366        0.30114        0.33647        0.33024        0.32867        0.34552        0.33936        0.30507        0.28526        0.29473        0.29847        0.36132        0.37118        0.32127        0.35945        0.31631        0.29075        0.27838        0.32829        0.36968        0.30939        0.27401        0.31671        0.35608        0.28448        0.31100        0.31828        0.28953        0.31736        0.33097        0.30354        0.33773        0.31568        0.31598        0.33697        0.35340        0.26521        0.30911        0.37839        0.32319        0.24416        0.29976        0.29536        0.31793        0.27739        0.21691        0.23999        0.32637        0.39651        0.32993        0.27196        0.21071        0.29012        0.29382        0.27098        0.32944        0.31313        0.27375        0.27055        0.26841        0.25879        0.34716        0.23450        0.31244        0.28421        0.26950        0.27048        0.34382        0.22895        0.27704        0.18594        0.30738        0.22480        0.27038        0.22988        0.31819        0.24415        0.28291        0.33971        0.33198        0.21186       -0.13822       -0.20836       -0.59390       -0.65299
2.763015 2.735467 2.708065 2.680808 2.653697 2.626732 2.599912 2.573238 2.546710 2.520328 2.494091 2.468000 2.442054 2.416254 2.390600 2.365091 2.339729 2.314512 2.289440 2.264515 2.239734 2.215100 2.190612 2.166268 2.142071 2.118020 2.094114 2.070353 2.046739 2.023270 1.999947 1.976769 1.953738 1.930851 1.908111 1.885516 1.863067 1.840764 1.818606 1.796594 1.774728 1.753007 1.731432 1.710003 1.688719 1.667581 1.646589 1.625743 1.605042 1.584487 1.564077 1.392921 1.759989 1.365151 0.844666 0.669903 -0.274119 0.432976 0.026905 0.146801 0.530193 0.180120 0.354305 0.347209 0.303476 0.281251 -0.049708 -0.107102 -0.240862 -0.479207 -0.457575 -0.241749 0.037859 -0.513963 -0.238432 -0.384393 -0.124091 -0.480238 -0.052577 -0.186589 -0.205050 0.039647 0.360540 0.095155 0.189249 0.174758 0.842201 0.596238 0.844914 0.982034 0.757314 1.070024 0.973640 1.369436 1.218856 1.094030 1.172608 1.218451 1.161779 1.010928 1.023436 0.879763 0.825860 0.736089 0.771870 0.485919 0.628859 0.426440 0.232533 0.222443 0.120374 0.152029 0.157385 0.072009 0.260252 0.557286 0.460670 0.454564 0.592982 0.760248 0.742164 0.545111 1.114027 0.946863 0.870809 0.959273 1.066320 0.816234 0.563892 0.798005 0.346964 0.455380 0.196339 0.232939 0.055028 0.017645 -0.034988 0.009497 0.160734 0.035908 0.208245 0.413849 0.302334 0.479704 0.483439 0.621055 0.675224 0.582558 0.521306 0.403909 0.449030 0.351596 0.189251 0.178941 0.143527 0.105169 0.084917 -0.073308 -0.024956 0.093753 0.017694 0.300401 0.540065 0.521988 0.365118 0.568441 0.478372 0.440691 0.509356 0.471715 0.315184 0.284600 0.351305 0.101975 0.161081 0.037713 0.163230 0.022293 0.193707 0.102675 0.341023 0.172137 0.277274 0.344802 0.185596 0.449744 0.216961 0.262748 0.157381 0.142152 0.114790 0.069135 0.028471 0.097253 0.160257 0.088186 0.100757 0.156684 0.368873 0.220107 0.294179 0.490575 0.205846 0.339773 0.088388 0.153992 0.099874 -0.080245 0.017070 0.101951 0.323466 0.184738 0.106160 0.228712 0.192857 0.376080 0.305869 0.202093 0.254100 0.031413 0.010762 0.034436 0.073872 0.123410 0.209175 0.184154 0.119497 0.081957 0.299753 0.015031 0.153774 0.148423 0.251934 0.074076 0.040354 -0.021997 -0.034175 0.124423 0.059062 0.124712 0.044962 0.075978 0.106003 0.000575 0.118995 0.079352 -0.077422 -0.016190 -0.037569 0.162711 -0.091272 0.001269 0.042503 -0.034720 0.028172 0.036654 -0.057627 -0.059728 -0.110539 0.040784 0.025176 0.075174 -0.103894 -0.037263 0.040572 0.006413 -0.065519 0.118321 -0.000497 -0.100695 -0.043307 0.079161 0.001865 -0.060942 -0.079396 0.070344 -0.237256 0.045394 0.166151 0.038511 -0.049592 0.039100 -0.043225 0.037495 0.062603 0.028532 -0.038292 -0.207384 -0.000525 -0.077873 0.123654 0.057091 -0.013548 0.131614 -0.058222 -0.081945 -0.101961 -0.011654 0.088546 -0.033592 -0.135665 0.073587 0.126944 -0.001718 -0.022326 0.035317 -0.045422 0.013863 0.036077 0.149051 0.075997 0.135039 0.089395 0.195916 0.153755 -0.029323 0.098639 0.199810 0.097105 -0.138160 0.164776 -0.064965 0.179728 -0.086464 -0.162033 -0.136635 0.224326 0.257776 0.091567 -0.248864 -0.305327 -0.035196 -0.208221 -0.158948 0.114759 0.048852 -0.130823 -0.038453 -0.187212 -0.053792 0.211926 -0.206287 0.207562 0.120027 0.176138 0.101656 0.417839 0.124737 0.521761 0.233054 0.509790 0.483835 0.435001 0.448814 0.809469 0.563230 0.709430 0.914812 0.687322 0.990026 -0.843445 -0.503918 -1.626995
0.072396 0.072904 0.074428 0.076967 0.080520 0.085088 0.090668 0.097258 0.104858 0.113463 0.123071 0.133677 0.145275 0.157859 0.171420 0.185951 0.201438 0.217869 0.235229 0.253500 0.272660 0.292687 0.313554 0.335230 0.357681 0.380869 0.404752 0.429282 0.454407 0.480069 0.506205 0.532746 0.559618 0.586738 0.614021 0.641370 0.668685 0.695857 0.722773 0.749309 0.775337 0.800720 0.825317 0.848979 0.871550 0.892869 0.912771 0.931085 0.947638 0.962250 0.974743 0.984935 0.992647 0.997697 0.999910 0.999113 0.995138 0.987827 0.977028 0.962605 0.944431 0.922397 0.896410 0.866400 0.832317 0.794134 0.751855 0.705509 0.655160 0.600901 0.542863 0.481214 0.416159 0.347944 0.276854 0.203216 0.127399 0.049811 0.029097 0.108836 0.188880 0.268668 0.347606 0.425072 0.500421 0.572988 0.642095 0.707056 0.767187 0.821810 0.870263 0.911907 0.946140 0.972401 0.990180 0.999032 0.998582 0.988540 0.968704 0.938974 0.899357 0.849975 0.791074 0.723022 0.646321 0.561603 0.469630 0.371295 0.267614 0.159723 0.048867 0.063614 0.176292 0.287675 0.396220 0.500358 0.598516 0.689140 0.770722 0.841830 0.901132 0.947428 0.979677 0.997023 0.998819 0.984657 0.954380 0.908106 0.846236 0.769467 0.678789 0.575488 0.461131 0.337556 0.206848 0.071305 0.066590 0.204216 0.338859 0.467769 0.588210 0.697528 0.793207 0.872937 0.934675 0.976702 0.997683 0.996712 0.973359 0.927702 0.860344 0.772433 0.665648 0.542191 0.404749 0.256451 0.100803 0.058385 0.217088 0.371162 0.516457 0.648929 0.764755 0.860457 0.933010 0.979954 0.999488 0.990552 0.952892 0.887096 0.794620 0.677774 0.539683 0.384228 0.215949 0.039928 0.138361 0.313209 0.478855 0.629686 0.760426 0.866329 0.943375 0.988430 0.999400 0.975340 0.916534 0.824535 0.702151 0.553389 0.383354 0.198085 0.004364 0.190522 0.379052 0.553755 0.707520 0.833888 0.927349 0.983599 0.999762 0.974563 0.908441 0.803585 0.663910 0.494930 0.303587 0.097980 0.112957 0.319833 0.513215 0.684062 0.824165 0.926557 0.985889 0.998737 0.963836 0.882212 0.757203 0.594368 0.401288 0.187235 0.037241 0.260810 0.471943 0.659492 0.813307 0.924796 0.987451 0.997253 0.952980 0.856350 0.712027 0.527439 0.312445 0.078850 0.160228 0.391071 0.600147 0.774923 0.904634 0.980983 0.998718 0.956038 0.854806 0.700543 0.502182 0.271608 0.022986 0.228081 0.465516 0.673808 0.839031 0.949821 0.998204 0.980214 0.896282 0.751328 0.554541 0.318866 0.060199 0.203646 0.454148 0.673378 0.845305 0.957014 0.999715 0.969512 0.867814 0.701372 0.481918 0.225387 0.049159 0.320936 0.568985 0.773817 0.918962 0.992353 0.987405 0.903670 0.747039 0.529414 0.267896 0.016514 0.300539 0.560520 0.774417 0.923684 0.994965 0.981348 0.883136 0.707980 0.470403 0.190664 0.106884 0.395885 0.650312 0.846818 0.966948 0.998933 0.938949 0.791653 0.569941 0.293937 0.010769 0.315417 0.590794 0.810034 0.951290 1.000000 0.950479 0.806694 0.582073 0.298385 0.016297 0.330290 0.611489 0.830661 0.964531 0.998361 0.927674 0.758958 0.509212 0.204358 0.123360 0.438719 0.707313 0.899325 0.992926 0.976857 0.851924 0.631154 0.338585 0.006767 0.326786 0.623791 0.849631 0.977445 0.991439 0.888970 0.681138 0.391740 0.054678 0.289904 0.600380 0.838674 0.975002 0.991712 0.885715 0.669169 0.368253 0.020149 0.331457 0.641816 0.870835 0.988342 0.978192 0.840648 0.592672 0.266004 0.096753 0.447591 0.739447
1.000000 1.000000 1.000000 1.000000 1.000000 1.000000 1.000000 1.000000 1.000000 1.000000 1.000000 1.000000 1.000000 1.000000 1.000000 1.000000 1.000000 1.000000 1.000000 1.000000 1.000000 1.000000 1.000000 1.000000 1.000000 1.000000 1.000000 1.000000 1.000000 1.000000 1.000000 1.000000 1.000000 1.000000 1.000000 1.000000 1.000000 1.000000 1.000000 1.000000 1.000000 1.000000 1.000000 1.000000 1.000000 1.000000 1.000000 1.000000 1.000000 1.000000 1.000000 1.000000 0.792182 0.792182 0.792182 0.752890 0.752890 0.752890 0.752890 0.752890 0.752890 0.752890 0.752890 0.752890 0.752890 0.752890 0.752890 0.752890 0.752890 0.752890 0.752890 0.752890 0.752890 0.752890 0.752890 0.752890 0.752890 0.752890 0.752890 0.752890 0.752890 0.752890 0.752890 0.752890 0.752890 0.752890 0.752890 0.752890 0.752890 0.752890 0.752890 0.752890 0.752890 0.752890 0.752890 0.752890 0.803618 0.812594 0.817319 0.825601 0.827426 0.825868 0.823411 0.822256 0.822716 0.823404 0.830767 0.852335 0.863662 0.866381 0.878358 0.882180 0.885512 0.884464 0.907619 0.906580 0.955529 0.954614 0.954367 0.955223 0.962128 0.963056 0.962098 0.960390 0.965649 0.966368 0.964842 0.962284 0.961526 0.958935 0.958489 0.955686 0.955739 0.956169 0.955124 0.955624 0.955597 0.955279 0.953060 0.950695 0.948452 0.947662 0.950731 0.937641 0.934564 0.925209 0.921350 0.930444 0.925712 0.922687 0.921319 0.922780 0.915463 0.881936 0.881892 0.862291 0.854961 0.840920 0.834103 0.833287 0.838196 0.846645 0.850717 0.852980 0.845368 0.832993 0.817477 0.826227 0.810151 0.796126 0.800912 0.787815 0.781317 0.782396 0.769607 0.764876 0.753293 0.748148 0.746170 0.756257 0.760494 0.761918 0.754995 0.754298 0.740895 0.730070 0.707812 0.707827 0.716286 0.710865 0.712559 0.708385 0.709782 0.716807 0.713796 0.705605 0.692722 0.684832 0.671311 0.644835 0.656060 0.629047 0.624594 0.627187 0.600966 0.629319 0.628412 0.670407 0.684188 0.687181 0.683147 0.677506 0.655823 0.671601 0.672193 0.662070 0.663381 0.665398 0.662756 0.660002 0.652231 0.552743 0.545544 0.544008 0.545629 0.533180 0.548585 0.549897 0.538630 0.526672 0.508730 0.468286 0.409116 0.345617 0.350917 0.347455 0.328405 0.318986 0.313393 0.344881 0.350252 0.354429 0.303805 0.268571 0.263247 0.236254 0.226449 0.192582 0.203169 0.231412 0.224362 0.195335 0.162283 0.153834 0.131823 0.138178 0.139736 0.108094 0.138855 0.102108 0.095056 0.067222 0.086234 0.072502 0.024877 -0.070667 -0.036318 -0.037788 -0.002726 -0.006820 -0.029212 0.013462 -0.006226 -0.037320 -0.041046 -0.064206 -0.103627 -0.047739 -0.049074 -0.069813 -0.069386 -0.048641 -0.034274 -0.041413 -0.058329 -0.073295 -0.092903 -0.068624 -0.055363 -0.000178 -0.001943 0.000915 -0.043261 -0.034623 -0.036758 -0.074886 -0.048603 0.006112 0.021596 0.050505 0.083184 0.079812 0.058596 0.056198 0.067124 0.117860 0.078222 0.049230 0.026723 0.011272 0.012339 0.018779 0.034901 0.019824 0.030062 0.031359 0.025692 0.076645 0.054630 0.069488 0.081231 0.068528 0.080884 0.075867 0.123091 0.084565 0.058542 0.055324 0.062063 0.044262 0.076439 0.131579 0.150893 0.122397 0.119826 0.119826 0.119826 0.119826 0.121545 0.121545 0.121545 0.121545 0.121545 0.121545 0.121545 0.121545 0.121545 0.096692 0.096692 0.096692 0.096692 0.096692 0.096692 0.096692 0.096692 0.096692 0.096692 0.096692 0.096692 0.096692 0.096692 0.096692 0.096692
0.000000 0.000000 0.000000 0.000000 0.000000 0.000000 0.000000 0.000000 0.000000 0.000000 0.000000 0.000000 0.000000 0.000000 0.000000 0.000000 0.000000 0.000000 0.000000 0.000000 0.000000 0.000000 0.000000 0.000000 0.000000 0.000000 0.000000 0.000000 0.000000 0.000000 0.000000 0.000000 0.000000 0.000000 0.000000 0.000000 0.000000 0.000000 0.000000 0.000000 0.000000 0.000000 0.000000 0.000000 0.000000 0.000000 0.000000 0.000000 0.000000 0.000000 0.000000 0.000000 0.180334 0.180334 0.180334 0.199007 0.199007 0.199007 0.199007 0.199007 0.199007 0.199007 0.199007 0.199007 0.199007 0.199007 0.199007 0.199007 0.199007 0.199007 0.199007 0.199007 0.199007 0.199007 0.199007 0.199007 0.199007 0.199007 0.199007 0.199007 0.199007 0.199007 0.199007 0.199007 0.199007 0.199007 0.199007 0.199007 0.199007 0.199007 0.199007 0.199007 0.199007 0.199007 0.199007 0.199007 0.230940 0.230940 0.230940 0.230940 0.230940 0.230940 0.230940 0.230940 0.230940 0.230940 0.230940 0.230940 0.230940 0.230940 0.230940 0.230940 0.230940 0.230940 0.230940 0.230940 0.230940 0.230940 0.230940 0.230940 0.230940 0.230940 0.230940 0.230940 0.244339 0.244339 0.244339 0.244339 0.244339 0.244339 0.244339 0.244339 0.244339 0.244339 0.244339 0.244339 0.244339 0.244339 0.244339 0.244339 0.244339 0.244339 0.244339 0.244339 0.244339 0.244339 0.244339 0.251976 0.251976 0.251976 0.251976 0.251976 0.251976 0.251976 0.251976 0.251976 0.251976 0.251976 0.251976 0.251976 0.251976 0.251976 0.251976 0.251976 0.251976 0.251976 0.251976 0.264906 0.264906 0.264906 0.264906 0.264906 0.264906 0.264906 0.264906 0.264906 0.264906 0.264906 0.264906 0.264906 0.264906 0.264906 0.264906 0.264906 0.264906 0.264906 0.264906 0.264906 0.264906 0.264906 0.264906 0.264906 0.264906 0.264906 0.264906 0.264906 0.264906 0.264906 0.264906 0.264906 0.264906 0.264906 0.264906 0.264906 0.264906 0.264906 0.264906 0.264906 0.264906 0.264906 0.264906 0.264906 0.264906 0.264906 0.264906 0.264906 0.264906 0.264906 0.264906 0.264906 0.264906 0.264906 0.264906 0.264906 0.264906 0.264906 0.264906 0.264906 0.264906 0.264906 0.264906 0.264906 0.264906 0.264906 0.264906 0.264906 0.264906 0.264906 0.264906 0.264906 0.264906 0.264906 0.260378 0.260378 0.260378 0.260378 0.260378 0.260378 0.260378 0.260378 0.260378 0.260378 0.260378 0.260378 0.260378 0.264906 0.264906 0.264906 0.264906 0.264906 0.264906 0.264906 0.264906 0.264906 0.264906 0.264906 0.264906 0.269680 0.269680 0.269680 0.269680 0.269680 0.269680 0.269680 0.269680 0.269680 0.269680 0.269680 0.264906 0.264906 0.264906 0.264906 0.264906 0.264906 0.264906 0.264906 0.264906 0.264906 0.264906 0.269680 0.269680 0.269680 0.269680 0.269680 0.269680 0.269680 0.269680 0.269680 0.269680 0.264906 0.264906 0.264906 0.264906 0.264906 0.264906 0.264906 0.264906 0.264906 0.264906 0.260378 0.260378 0.260378 0.260378 0.260378 0.260378 0.260378 0.260378 0.260378 0.260378 0.256074 0.256074 0.256074 0.256074 0.256074 0.256074 0.256074 0.256074 0.256074 0.256074 0.260378 0.260378 0.260378 0.260378 0.260378 0.260378 0.260378 0.260378 0.260378 0.256074 0.256074 0.256074 0.256074 0.256074 0.256074 0.256074 0.256074 0.256074 0.251976 0.251976 0.251976 0.251976 0.251976 0.251976 0.251976 0.251976 0.251976 0.251976 0.251976 0.251976 0.251976 0.251976 0.251976 0.251976
