# Output from CTFFind version 4.1.9, run on 2019-11-03 20:02:30
# Input file: stack6_bm3d_averaged_1_10_0_50_half.mrc ; Number of micrographs: 1
# Pixel size: 3.000 Angstroms ; acceleration voltage: 300.0 keV ; spherical aberration: 0.00 mm ; amplitude contrast: 0.07
# Box size: 512 pixels ; min. res.: 30.0 Angstroms ; max. res.: 5.0 Angstroms ; min. def.: 5000.0 um; max. def. 50000.0 um; num. frames averaged: 1
# 6 lines per micrograph: #1 - spatial frequency (1/Angstroms); #2 - 1D rotational average of spectrum (assuming no astigmatism); #3 - 1D rotational average of spectrum; #4 - CTF fit; #5 - cross-correlation between spectrum and CTF fit; #6 - 2sigma of expected cross correlation of noise
0.000000 0.000651 0.001302 0.001953 0.002604 0.003255 0.003906 0.004557 0.005208 0.005859 0.006510 0.007161 0.007812 0.008464 0.009115 0.009766 0.010417 0.011068 0.011719 0.012370 0.013021 0.013672 0.014323 0.014974 0.015625 0.016276 0.016927 0.017578 0.018229 0.018880 0.019531 0.020182 0.020833 0.021484 0.022135 0.022786 0.023438 0.024089 0.024740 0.025391 0.026042 0.026693 0.027344 0.027995 0.028646 0.029297 0.029948 0.030599 0.031250 0.031901 0.032552 0.033203 0.033854 0.034505 0.035156 0.035807 0.036458 0.037109 0.037760 0.038411 0.039062 0.039714 0.040365 0.041016 0.041667 0.042318 0.042969 0.043620 0.044271 0.044922 0.045573 0.046224 0.046875 0.047526 0.048177 0.048828 0.049479 0.050130 0.050781 0.051432 0.052083 0.052734 0.053385 0.054036 0.054688 0.055339 0.055990 0.056641 0.057292 0.057943 0.058594 0.059245 0.059896 0.060547 0.061198 0.061849 0.062500 0.063151 0.063802 0.064453 0.065104 0.065755 0.066406 0.067057 0.067708 0.068359 0.069010 0.069661 0.070312 0.070964 0.071615 0.072266 0.072917 0.073568 0.074219 0.074870 0.075521 0.076172 0.076823 0.077474 0.078125 0.078776 0.079427 0.080078 0.080729 0.081380 0.082031 0.082682 0.083333 0.083984 0.084635 0.085286 0.085938 0.086589 0.087240 0.087891 0.088542 0.089193 0.089844 0.090495 0.091146 0.091797 0.092448 0.093099 0.093750 0.094401 0.095052 0.095703 0.096354 0.097005 0.097656 0.098307 0.098958 0.099609 0.100260 0.100911 0.101562 0.102214 0.102865 0.103516 0.104167 0.104818 0.105469 0.106120 0.106771 0.107422 0.108073 0.108724 0.109375 0.110026 0.110677 0.111328 0.111979 0.112630 0.113281 0.113932 0.114583 0.115234 0.115885 0.116536 0.117188 0.117839 0.118490 0.119141 0.119792 0.120443 0.121094 0.121745 0.122396 0.123047 0.123698 0.124349 0.125000 0.125651 0.126302 0.126953 0.127604 0.128255 0.128906 0.129557 0.130208 0.130859 0.131510 0.132161 0.132812 0.133464 0.134115 0.134766 0.135417 0.136068 0.136719 0.137370 0.138021 0.138672 0.139323 0.139974 0.140625 0.141276 0.141927 0.142578 0.143229 0.143880 0.144531 0.145182 0.145833 0.146484 0.147135 0.147786 0.148438 0.149089 0.149740 0.150391 0.151042 0.151693 0.152344 0.152995 0.153646 0.154297 0.154948 0.155599 0.156250 0.156901 0.157552 0.158203 0.158854 0.159505 0.160156 0.160807 0.161458 0.162109 0.162760 0.163411 0.164062 0.164714 0.165365 0.166016 0.166667 0.167318 0.167969 0.168620 0.169271 0.169922 0.170573 0.171224 0.171875 0.172526 0.173177 0.173828 0.174479 0.175130 0.175781 0.176432 0.177083 0.177734 0.178385 0.179036 0.179688 0.180339 0.180990 0.181641 0.182292 0.182943 0.183594 0.184245 0.184896 0.185547 0.186198 0.186849 0.187500 0.188151 0.188802 0.189453 0.190104 0.190755 0.191406 0.192057 0.192708 0.193359 0.194010 0.194661 0.195312 0.195964 0.196615 0.197266 0.197917 0.198568 0.199219 0.199870 0.200521 0.201172 0.201823 0.202474 0.203125 0.203776 0.204427 0.205078 0.205729 0.206380 0.207031 0.207682 0.208333 0.208984 0.209635 0.210286 0.210938 0.211589 0.212240 0.212891 0.213542 0.214193 0.214844 0.215495 0.216146 0.216797 0.217448 0.218099 0.218750 0.219401 0.220052 0.220703 0.221354 0.222005 0.222656 0.223307 0.223958 0.224609 0.225260 0.225911 0.226562 0.227214 0.227865 0.228516 0.229167 0.229818 0.230469 0.231120 0.231771 0.232422 0.233073 0.233724 0.234375 0.235026 0.235677
       0.34238        0.34238        0.34238        0.34238        0.34238        0.34238        0.34238        0.34238        0.34238        0.34238        0.34238        0.34238        0.34238        0.34238        0.34238        0.34238        0.34238        0.34238        0.34238        0.34238        0.34238        0.34238        0.34238        0.34238        0.34238        0.34238        0.34238        0.34238        0.34238        0.34238        0.34238        0.34238        0.34238        0.34238        0.34238        0.34238        0.34238        0.34238        0.34238        0.34238        0.34238        0.34238        0.34238        0.34238        0.34238        0.34238        0.34238        0.34238        0.34238        0.34238        0.34238        0.58858        0.69391        0.36668        0.16021        0.14327       -0.12112        0.10987        0.04276        0.04431        0.08944        0.30744        0.29175        0.22780        0.13478       -0.04133       -0.00899        0.05497       -0.06863       -0.07710       -0.06510       -0.06317       -0.14683       -0.08695       -0.19744       -0.21588       -0.21970       -0.27426       -0.33806       -0.26255       -0.17566       -0.13250       -0.24531       -0.17823       -0.20530       -0.14392       -0.10085       -0.03782       -0.01667        0.03112        0.09066        0.16399        0.20450        0.24773        0.34987        0.41318        0.36722        0.49945        0.54687        0.55087        0.62256        0.54302        0.57633        0.60997        0.59611        0.56883        0.55891        0.60600        0.53383        0.40547        0.37034        0.38141        0.34041        0.22388        0.23135        0.19208        0.13732        0.12752        0.06424        0.14372        0.11382        0.09453        0.16581        0.21701        0.29453        0.33941        0.38053        0.42060        0.44944        0.47824        0.42569        0.61758        0.55153        0.47649        0.56213        0.50579        0.56728        0.51591        0.40233        0.34311        0.33242        0.29330        0.27929        0.22337        0.21036        0.19928        0.29255        0.27611        0.27822        0.25217        0.27584        0.34710        0.33539        0.45285        0.44646        0.44799        0.42517        0.48874        0.44293        0.41083        0.41633        0.38463        0.33583        0.28262        0.31827        0.28755        0.28286        0.23104        0.23828        0.26825        0.28751        0.29892        0.34601        0.39549        0.42518        0.42615        0.42815        0.51026        0.49256        0.42903        0.37694        0.42048        0.39771        0.33601        0.34742        0.33975        0.29179        0.29284        0.28389        0.27057        0.32746        0.31615        0.33454        0.35685        0.40483        0.43087        0.41457        0.44645        0.40677        0.44618        0.42526        0.36232        0.31154        0.30881        0.30948        0.28581        0.24740        0.31724        0.38970        0.34689        0.31932        0.38006        0.32081        0.36971        0.41703        0.40140        0.37095        0.36866        0.35684        0.36546        0.33276        0.32156        0.29627        0.29369        0.33525        0.34839        0.37505        0.38567        0.40022        0.37814        0.35425        0.33318        0.37086        0.37770        0.35715        0.33585        0.28625        0.29404        0.28601        0.33944        0.33803        0.36318        0.33452        0.35674        0.39825        0.34260        0.35937        0.35979        0.32411        0.32755        0.31065        0.30035        0.29303        0.28032        0.26465        0.28874        0.27971        0.29628        0.26820        0.31377        0.38078        0.27649        0.29984        0.28600        0.28447        0.33326        0.31830        0.31771        0.34059        0.33351        0.34371        0.32647        0.32273        0.32742        0.40504        0.36944        0.30285        0.32704        0.31647        0.36683        0.28621        0.29038        0.32106        0.31447        0.34244        0.38375        0.35039        0.29682        0.23713        0.30213        0.28392        0.27121        0.26867        0.30034        0.33042        0.26718        0.32284        0.34281        0.37927        0.29508        0.33651        0.30956        0.29652        0.29098        0.30018        0.31670        0.27286        0.26944        0.34872        0.35743        0.29315        0.35214        0.31902        0.26256        0.23887        0.21244        0.33835        0.31650        0.36386        0.36404        0.28579        0.23814        0.22770        0.31304        0.28204        0.27570        0.32837        0.30027        0.26067        0.29827        0.30824        0.30121        0.29944        0.29360        0.27778        0.23464        0.28140        0.32419        0.26221        0.21806        0.24051        0.27249        0.26350        0.21574        0.21222        0.27814        0.34557        0.30978        0.23850        0.17656        0.25438        0.18942        0.27414        0.26714        0.17658        0.17152        0.24565        0.22306        0.31772        0.03597       -0.19103       -0.68257       -0.96117
3.499292 3.461647 3.424208 3.386978 3.349954 3.313137 3.276527 3.240124 3.203928 3.167939 3.132158 3.096583 3.061216 3.026055 2.991102 2.956356 2.921816 2.887484 2.853359 2.819441 2.785730 2.752226 2.718929 2.685839 2.652956 2.620280 2.587811 2.555550 2.523495 2.491647 2.460007 2.428573 2.397347 2.366328 2.335515 2.304910 2.274512 2.244321 2.214337 2.184560 2.154990 2.125627 2.096471 2.067522 2.038780 2.010246 1.981918 1.953797 1.925884 1.898177 1.870678 2.226838 2.583850 1.854687 1.576320 1.355295 0.701085 1.158559 0.941475 1.063566 0.854572 1.662003 1.356148 1.375822 1.142588 0.671913 0.556698 0.852179 0.725996 0.378476 0.300830 0.553631 0.308041 0.327909 0.130596 0.008775 -0.021254 -0.021561 -0.367748 -0.141780 -0.009468 0.021194 -0.112758 -0.061872 -0.142252 -0.107382 0.010759 0.165773 0.211238 0.212259 0.350172 0.601839 0.513028 0.641129 0.772441 1.040006 0.759079 1.273441 1.174106 1.249143 1.351809 1.203425 1.129238 1.386294 1.140901 1.244300 1.126645 1.184680 1.151773 0.846818 0.638713 0.623816 0.676707 0.314388 0.338464 0.210051 0.096648 0.017401 -0.162243 0.102775 -0.001773 -0.094467 -0.012029 0.079493 0.209722 0.419681 0.438533 0.516060 0.521092 0.711501 0.424220 0.859188 0.844759 0.620514 0.763154 0.595736 0.759393 0.773040 0.470471 0.235389 0.258794 0.205364 0.020679 0.079956 -0.075329 -0.233323 0.060705 0.081913 0.060409 -0.023066 0.015579 0.134812 0.053964 0.313329 0.420717 0.403845 0.205558 0.491184 0.426298 0.224186 0.417076 0.261841 0.109635 0.106866 0.014437 0.080900 -0.128945 0.078339 -0.185653 -0.075860 -0.069381 0.124603 -0.116351 0.272598 0.246870 0.295222 0.257961 0.323644 0.615900 0.347603 0.282034 0.377300 0.193263 0.378468 0.055705 0.256381 0.049990 0.068723 0.050936 0.044994 0.031331 0.165163 0.049861 0.183245 0.260146 0.304005 0.304074 0.466488 0.333624 0.346195 0.378416 0.294381 0.175446 0.087884 0.094675 0.086721 0.024662 -0.022337 0.210552 0.294826 0.095682 0.169433 0.239465 0.134715 0.292509 0.304671 0.248422 0.185776 0.139335 0.243549 0.118082 0.127855 0.091877 -0.061017 0.071727 0.150720 0.139955 0.228982 0.206567 0.294065 0.112165 0.168162 0.184424 0.251634 0.139234 0.218751 0.117894 0.004758 0.036747 0.007211 0.149193 0.140293 0.204631 0.096179 0.200500 0.223476 0.034155 0.195150 0.095615 0.009233 0.054404 0.020770 -0.021873 -0.031542 -0.114107 -0.030250 -0.016031 -0.124423 -0.017841 -0.072780 0.073043 0.118846 -0.137508 -0.023128 -0.075219 -0.064864 0.066363 0.005011 -0.057407 0.030766 0.088653 0.008673 -0.039622 0.041877 -0.014838 0.282321 -0.003049 -0.119685 0.035646 0.004080 0.073006 -0.160314 -0.065768 0.013433 0.006327 0.075053 0.098376 0.079494 -0.105955 -0.143320 -0.029386 -0.078029 -0.071798 -0.080499 -0.039327 0.055062 -0.203531 0.159869 0.020796 0.174437 -0.033432 0.068009 0.025461 -0.057157 0.059280 0.009109 -0.032772 -0.052028 -0.055693 0.112262 0.179959 -0.138765 0.155032 0.052775 -0.128509 -0.099455 -0.209239 0.175733 -0.001535 0.179091 0.175950 0.036975 -0.174446 -0.170572 0.019678 -0.047055 -0.122111 0.054429 -0.036146 -0.151386 -0.009851 -0.019511 0.095347 -0.015225 -0.072281 -0.000707 -0.251538 0.042742 0.065279 -0.112993 -0.167039 -0.162447 -0.042402 -0.031404 -0.150666 -0.198514 0.064546 0.140329 0.014791 -0.088268 -0.336058 0.077049 -0.202388 0.641984 0.574190 0.302553 0.369717 0.677924 0.539898 0.654525 -0.191519 -0.405251 -2.098115
0.072396 0.072836 0.074156 0.076356 0.079435 0.083393 0.088228 0.093940 0.100526 0.107986 0.116316 0.125513 0.135574 0.146494 0.158267 0.170887 0.184347 0.198637 0.213747 0.229665 0.246377 0.263867 0.282118 0.301109 0.320817 0.341217 0.362279 0.383973 0.406264 0.429113 0.452477 0.476311 0.500564 0.525182 0.550104 0.575268 0.600605 0.626040 0.651496 0.676889 0.702129 0.727122 0.751768 0.775964 0.799599 0.822557 0.844721 0.865964 0.886159 0.905173 0.922869 0.939108 0.953749 0.966646 0.977656 0.986631 0.993426 0.997897 0.999900 0.999297 0.995954 0.989739 0.980532 0.968217 0.952691 0.933859 0.911640 0.885968 0.856792 0.824077 0.787809 0.747994 0.704659 0.657856 0.607660 0.554175 0.497531 0.437887 0.375430 0.310379 0.242984 0.173524 0.102312 0.029688 0.043974 0.118274 0.192782 0.267044 0.340581 0.412893 0.483460 0.551749 0.617217 0.679311 0.737477 0.791167 0.839838 0.882963 0.920035 0.950576 0.974141 0.990323 0.998767 0.999169 0.991286 0.974945 0.950045 0.916565 0.874569 0.824210 0.765734 0.699485 0.625903 0.545527 0.458996 0.367044 0.270500 0.170278 0.067378 0.037127 0.142100 0.246350 0.348645 0.447724 0.542320 0.631166 0.713020 0.786685 0.851021 0.904973 0.947584 0.978019 0.995583 0.999738 0.990118 0.966548 0.929054 0.877871 0.813455 0.736482 0.647851 0.548678 0.440290 0.324213 0.202151 0.075974 0.052319 0.180618 0.306743 0.428477 0.543605 0.649957 0.745452 0.828139 0.896244 0.948212 0.982747 0.998852 0.995858 0.973458 0.931727 0.871138 0.792566 0.697294 0.586996 0.463719 0.329855 0.188102 0.041414 0.107053 0.254012 0.396109 0.530007 0.652457 0.760394 0.851007 0.921824 0.970791 0.996333 0.997420 0.973613 0.925095 0.852699 0.757902 0.642817 0.510156 0.363182 0.205634 0.041649 0.124349 0.287760 0.443934 0.588309 0.716540 0.824644 0.909135 0.967135 0.996500 0.995900 0.964899 0.903992 0.814632 0.699210 0.561009 0.404137 0.233411 0.054222 0.127617 0.306073 0.475073 0.628724 0.761521 0.868558 0.945718 0.989849 0.998911 0.972087 0.909853 0.814001 0.687617 0.535004 0.361563 0.173606 0.021843 0.217312 0.405167 0.577892 0.728416 0.850404 0.938543 0.988786 0.998570 0.966961 0.894748 0.784461 0.640311 0.468062 0.274825 0.068783 0.141143 0.345669 0.535559 0.702049 0.837260 0.934595 0.989078 0.997641 0.959320 0.875364 0.749238 0.586516 0.394670 0.182752 0.039013 0.259701 0.468228 0.653908 0.807012 0.919298 0.984482 0.998618 0.960376 0.871179 0.735205 0.559229 0.352329 0.125449 0.109162 0.338596 0.549987 0.731253 0.871791 0.963135 0.999490 0.978152 0.899735 0.768221 0.590819 0.377605 0.140986 0.104980 0.345424 0.565537 0.751520 0.891447 0.976066 0.999465 0.959518 0.858120 0.701160 0.498240 0.262129 0.008007 0.247496 0.487377 0.695379 0.857145 0.961203 0.999856 0.969785 0.872389 0.713797 0.504550 0.258950 0.005876 0.271131 0.517684 0.727451 0.884741 0.977478 0.998172 0.944589 0.820035 0.633233 0.397774 0.131195 0.146300 0.413330 0.649001 0.834550 0.954877 0.999824 0.965105 0.852772 0.671190 0.434489 0.161539 0.125523 0.403044 0.647815 0.839012 0.960027 0.999961 0.954678 0.827306 0.628119 0.373784 0.086051 0.210079 0.488483 0.724236 0.895869 0.987375 0.989771 0.902069 0.731521 0.493126 0.208389 0.096558 0.393308 0.653823 0.853104 0.971640 0.997386 0.927078 0.766729 0.531216 0.242999 0.069943 0.376802 0.646942 0.852984 0.973636
1.000000 1.000000 1.000000 1.000000 1.000000 1.000000 1.000000 1.000000 1.000000 1.000000 1.000000 1.000000 1.000000 1.000000 1.000000 1.000000 1.000000 1.000000 1.000000 1.000000 1.000000 1.000000 1.000000 1.000000 1.000000 1.000000 1.000000 1.000000 1.000000 1.000000 1.000000 1.000000 1.000000 1.000000 1.000000 1.000000 1.000000 1.000000 1.000000 1.000000 1.000000 1.000000 1.000000 1.000000 1.000000 1.000000 1.000000 1.000000 1.000000 1.000000 1.000000 1.000000 0.749140 0.749140 0.749140 0.749140 0.749140 0.749140 0.749140 0.748773 0.748773 0.748773 0.748773 0.748773 0.748773 0.748773 0.748773 0.748773 0.748773 0.748773 0.748773 0.748773 0.748773 0.748773 0.748773 0.748773 0.748773 0.748773 0.748773 0.748773 0.748773 0.748773 0.748773 0.748773 0.748773 0.748773 0.748773 0.748773 0.748773 0.748773 0.748773 0.748773 0.748773 0.748773 0.748773 0.748773 0.748773 0.748773 0.748773 0.748773 0.748773 0.748773 0.748773 0.900135 0.901181 0.903867 0.896051 0.889328 0.888181 0.883434 0.880542 0.882415 0.881911 0.882982 0.884557 0.888387 0.895793 0.905320 0.908421 0.915835 0.919786 0.919735 0.924448 0.924435 0.929426 0.926341 0.923328 0.913555 0.917020 0.915889 0.914125 0.912176 0.905324 0.916717 0.914653 0.911574 0.902129 0.896767 0.895166 0.895865 0.893681 0.894747 0.894903 0.894119 0.892020 0.892715 0.887738 0.885361 0.871503 0.869591 0.865739 0.862805 0.860164 0.857392 0.855314 0.846246 0.844764 0.841198 0.834232 0.834062 0.834022 0.834713 0.835604 0.836529 0.839274 0.832464 0.827429 0.826335 0.821893 0.814851 0.806115 0.805727 0.809239 0.817507 0.824704 0.822762 0.820745 0.810890 0.798102 0.795835 0.800292 0.776566 0.778969 0.784677 0.787539 0.784842 0.780423 0.776686 0.773901 0.769693 0.762211 0.770814 0.768312 0.760375 0.757089 0.756905 0.758832 0.768177 0.768854 0.759012 0.745071 0.741391 0.745262 0.751392 0.755979 0.748243 0.748735 0.753167 0.758419 0.763289 0.748847 0.743740 0.735604 0.728898 0.737585 0.758435 0.748243 0.754530 0.758250 0.751298 0.750740 0.743813 0.753853 0.755849 0.763256 0.763430 0.756517 0.710071 0.685178 0.644297 0.646528 0.649583 0.607020 0.607500 0.608184 0.607730 0.552746 0.513689 0.493679 0.491251 0.496049 0.500241 0.493258 0.481924 0.479556 0.477211 0.456802 0.442849 0.440589 0.444574 0.433821 0.444210 0.445473 0.442561 0.400444 0.409376 0.427943 0.437545 0.425677 0.414223 0.417681 0.403789 0.407927 0.402970 0.395333 0.349938 0.368584 0.360245 0.379438 0.340184 0.318971 0.291455 0.327719 0.317419 0.272744 0.300518 0.259327 0.257469 0.261389 0.247406 0.221632 0.239018 0.260059 0.219245 0.224361 0.222002 0.264493 0.255717 0.270718 0.289579 0.276228 0.263948 0.281179 0.263823 0.256555 0.228738 0.224593 0.218804 0.219224 0.272115 0.260962 0.261023 0.272605 0.293720 0.300985 0.312058 0.313125 0.311678 0.323893 0.293024 0.241360 0.248447 0.241164 0.247736 0.217982 0.174282 0.153676 0.159867 0.141046 0.134607 0.103499 0.099316 0.099741 0.108560 0.087566 0.093306 0.057815 0.059620 0.038446 0.065491 0.084393 0.088785 0.018913 0.018913 0.018913 0.018913 0.018913 0.018913 0.018913 0.018913 0.018913 0.018913 0.018913 -0.014595 -0.014595 -0.014595 -0.014595 -0.014595 -0.014595 -0.014595 -0.014595 -0.014595 -0.014595 -0.014595 -0.014595 -0.014595 -0.014595 -0.014595 -0.014595 -0.014595 -0.014595 -0.014595 -0.014595
0.000000 0.000000 0.000000 0.000000 0.000000 0.000000 0.000000 0.000000 0.000000 0.000000 0.000000 0.000000 0.000000 0.000000 0.000000 0.000000 0.000000 0.000000 0.000000 0.000000 0.000000 0.000000 0.000000 0.000000 0.000000 0.000000 0.000000 0.000000 0.000000 0.000000 0.000000 0.000000 0.000000 0.000000 0.000000 0.000000 0.000000 0.000000 0.000000 0.000000 0.000000 0.000000 0.000000 0.000000 0.000000 0.000000 0.000000 0.000000 0.000000 0.000000 0.000000 0.000000 0.173422 0.173422 0.173422 0.173422 0.173422 0.173422 0.173422 0.191565 0.191565 0.191565 0.191565 0.191565 0.191565 0.191565 0.191565 0.191565 0.191565 0.191565 0.191565 0.191565 0.191565 0.191565 0.191565 0.191565 0.191565 0.191565 0.191565 0.191565 0.191565 0.191565 0.191565 0.191565 0.191565 0.191565 0.191565 0.191565 0.191565 0.191565 0.191565 0.191565 0.191565 0.191565 0.191565 0.191565 0.191565 0.191565 0.191565 0.191565 0.191565 0.191565 0.191565 0.222222 0.222222 0.222222 0.222222 0.222222 0.222222 0.222222 0.222222 0.222222 0.222222 0.222222 0.222222 0.222222 0.222222 0.222222 0.222222 0.222222 0.222222 0.222222 0.222222 0.222222 0.222222 0.222222 0.222222 0.222222 0.222222 0.222222 0.222222 0.222222 0.222222 0.234082 0.234082 0.234082 0.234082 0.234082 0.234082 0.234082 0.234082 0.234082 0.234082 0.234082 0.234082 0.234082 0.234082 0.234082 0.234082 0.234082 0.234082 0.234082 0.234082 0.234082 0.234082 0.234082 0.234082 0.234082 0.244339 0.244339 0.244339 0.244339 0.244339 0.244339 0.244339 0.244339 0.244339 0.244339 0.244339 0.244339 0.244339 0.244339 0.244339 0.244339 0.244339 0.244339 0.244339 0.244339 0.244339 0.248069 0.248069 0.248069 0.248069 0.248069 0.248069 0.248069 0.248069 0.248069 0.248069 0.248069 0.248069 0.248069 0.248069 0.248069 0.248069 0.248069 0.248069 0.248069 0.256074 0.256074 0.256074 0.256074 0.256074 0.256074 0.256074 0.256074 0.256074 0.256074 0.256074 0.256074 0.256074 0.256074 0.256074 0.256074 0.256074 0.256074 0.256074 0.256074 0.256074 0.256074 0.256074 0.256074 0.256074 0.256074 0.256074 0.256074 0.256074 0.256074 0.256074 0.256074 0.256074 0.256074 0.256074 0.256074 0.256074 0.256074 0.256074 0.256074 0.256074 0.256074 0.256074 0.256074 0.256074 0.256074 0.256074 0.256074 0.256074 0.256074 0.256074 0.256074 0.256074 0.256074 0.256074 0.256074 0.256074 0.256074 0.256074 0.256074 0.256074 0.256074 0.251976 0.251976 0.251976 0.251976 0.251976 0.251976 0.251976 0.251976 0.251976 0.251976 0.251976 0.251976 0.251976 0.251976 0.264906 0.264906 0.264906 0.264906 0.264906 0.264906 0.264906 0.264906 0.264906 0.264906 0.264906 0.264906 0.248069 0.248069 0.248069 0.248069 0.248069 0.248069 0.248069 0.248069 0.248069 0.248069 0.248069 0.248069 0.248069 0.264906 0.264906 0.264906 0.264906 0.264906 0.264906 0.264906 0.264906 0.264906 0.264906 0.264906 0.248069 0.248069 0.248069 0.248069 0.248069 0.248069 0.248069 0.248069 0.248069 0.248069 0.248069 0.248069 0.264906 0.264906 0.264906 0.264906 0.264906 0.264906 0.264906 0.264906 0.264906 0.264906 0.248069 0.248069 0.248069 0.248069 0.248069 0.248069 0.248069 0.248069 0.248069 0.248069 0.248069 0.256074 0.256074 0.256074 0.256074 0.256074 0.256074 0.256074 0.256074 0.256074 0.256074 0.256074 0.256074 0.256074 0.256074 0.256074 0.256074 0.256074 0.256074 0.256074 0.256074
