# Output from CTFFind version 4.1.9, run on 2019-11-03 20:05:52
# Input file: stack1_bm3d_averaged_1_5.5_0_1000_half.mrc ; Number of micrographs: 1
# Pixel size: 3.000 Angstroms ; acceleration voltage: 300.0 keV ; spherical aberration: 0.00 mm ; amplitude contrast: 0.07
# Box size: 512 pixels ; min. res.: 30.0 Angstroms ; max. res.: 5.0 Angstroms ; min. def.: 5000.0 um; max. def. 50000.0 um; num. frames averaged: 1
# 6 lines per micrograph: #1 - spatial frequency (1/Angstroms); #2 - 1D rotational average of spectrum (assuming no astigmatism); #3 - 1D rotational average of spectrum; #4 - CTF fit; #5 - cross-correlation between spectrum and CTF fit; #6 - 2sigma of expected cross correlation of noise
0.000000 0.000651 0.001302 0.001953 0.002604 0.003255 0.003906 0.004557 0.005208 0.005859 0.006510 0.007161 0.007812 0.008464 0.009115 0.009766 0.010417 0.011068 0.011719 0.012370 0.013021 0.013672 0.014323 0.014974 0.015625 0.016276 0.016927 0.017578 0.018229 0.018880 0.019531 0.020182 0.020833 0.021484 0.022135 0.022786 0.023438 0.024089 0.024740 0.025391 0.026042 0.026693 0.027344 0.027995 0.028646 0.029297 0.029948 0.030599 0.031250 0.031901 0.032552 0.033203 0.033854 0.034505 0.035156 0.035807 0.036458 0.037109 0.037760 0.038411 0.039062 0.039714 0.040365 0.041016 0.041667 0.042318 0.042969 0.043620 0.044271 0.044922 0.045573 0.046224 0.046875 0.047526 0.048177 0.048828 0.049479 0.050130 0.050781 0.051432 0.052083 0.052734 0.053385 0.054036 0.054688 0.055339 0.055990 0.056641 0.057292 0.057943 0.058594 0.059245 0.059896 0.060547 0.061198 0.061849 0.062500 0.063151 0.063802 0.064453 0.065104 0.065755 0.066406 0.067057 0.067708 0.068359 0.069010 0.069661 0.070312 0.070964 0.071615 0.072266 0.072917 0.073568 0.074219 0.074870 0.075521 0.076172 0.076823 0.077474 0.078125 0.078776 0.079427 0.080078 0.080729 0.081380 0.082031 0.082682 0.083333 0.083984 0.084635 0.085286 0.085938 0.086589 0.087240 0.087891 0.088542 0.089193 0.089844 0.090495 0.091146 0.091797 0.092448 0.093099 0.093750 0.094401 0.095052 0.095703 0.096354 0.097005 0.097656 0.098307 0.098958 0.099609 0.100260 0.100911 0.101562 0.102214 0.102865 0.103516 0.104167 0.104818 0.105469 0.106120 0.106771 0.107422 0.108073 0.108724 0.109375 0.110026 0.110677 0.111328 0.111979 0.112630 0.113281 0.113932 0.114583 0.115234 0.115885 0.116536 0.117188 0.117839 0.118490 0.119141 0.119792 0.120443 0.121094 0.121745 0.122396 0.123047 0.123698 0.124349 0.125000 0.125651 0.126302 0.126953 0.127604 0.128255 0.128906 0.129557 0.130208 0.130859 0.131510 0.132161 0.132812 0.133464 0.134115 0.134766 0.135417 0.136068 0.136719 0.137370 0.138021 0.138672 0.139323 0.139974 0.140625 0.141276 0.141927 0.142578 0.143229 0.143880 0.144531 0.145182 0.145833 0.146484 0.147135 0.147786 0.148438 0.149089 0.149740 0.150391 0.151042 0.151693 0.152344 0.152995 0.153646 0.154297 0.154948 0.155599 0.156250 0.156901 0.157552 0.158203 0.158854 0.159505 0.160156 0.160807 0.161458 0.162109 0.162760 0.163411 0.164062 0.164714 0.165365 0.166016 0.166667 0.167318 0.167969 0.168620 0.169271 0.169922 0.170573 0.171224 0.171875 0.172526 0.173177 0.173828 0.174479 0.175130 0.175781 0.176432 0.177083 0.177734 0.178385 0.179036 0.179688 0.180339 0.180990 0.181641 0.182292 0.182943 0.183594 0.184245 0.184896 0.185547 0.186198 0.186849 0.187500 0.188151 0.188802 0.189453 0.190104 0.190755 0.191406 0.192057 0.192708 0.193359 0.194010 0.194661 0.195312 0.195964 0.196615 0.197266 0.197917 0.198568 0.199219 0.199870 0.200521 0.201172 0.201823 0.202474 0.203125 0.203776 0.204427 0.205078 0.205729 0.206380 0.207031 0.207682 0.208333 0.208984 0.209635 0.210286 0.210938 0.211589 0.212240 0.212891 0.213542 0.214193 0.214844 0.215495 0.216146 0.216797 0.217448 0.218099 0.218750 0.219401 0.220052 0.220703 0.221354 0.222005 0.222656 0.223307 0.223958 0.224609 0.225260 0.225911 0.226562 0.227214 0.227865 0.228516 0.229167 0.229818 0.230469 0.231120 0.231771 0.232422 0.233073 0.233724 0.234375 0.235026 0.235677
       0.34878        0.34878        0.34878        0.34878        0.34878        0.34878        0.34878        0.34878        0.34878        0.34878        0.34878        0.34878        0.34878        0.34878        0.34878        0.34878        0.34878        0.34878        0.34878        0.34878        0.34878        0.34878        0.34878        0.34878        0.34878        0.34878        0.34878        0.34878        0.34878        0.34878        0.34878        0.34878        0.34878        0.34878        0.34878        0.34878        0.34879        0.34878        0.34878        0.34878        0.34878        0.34878        0.34878        0.34878        0.34878        0.34878        0.34878        0.34878        0.34878        0.34878        0.34878        0.39224        0.57241        0.26552        0.11269       -0.01425       -0.27317       -0.10361       -0.17691       -0.21387        0.01511       -0.13636       -0.10719       -0.05933       -0.04064       -0.13125       -0.15869       -0.29078       -0.38363       -0.49332       -0.43137       -0.33076       -0.26466       -0.37847       -0.29156       -0.38312       -0.32692       -0.36938       -0.18971       -0.18737       -0.24769       -0.07875       -0.02947       -0.04501        0.08141        0.02834        0.20485        0.22684        0.33644        0.36285        0.43672        0.47198        0.53160        0.59620        0.64979        0.55537        0.51573        0.50595        0.47630        0.56155        0.47333        0.41745        0.40578        0.33383        0.28748        0.30970        0.32870        0.22612        0.19512        0.09943        0.13210        0.13860        0.16654        0.13173        0.20101        0.24862        0.30246        0.29857        0.33863        0.46202        0.41084        0.48313        0.62910        0.61464        0.54725        0.54889        0.58076        0.42329        0.48293        0.37103        0.31367        0.29082        0.25412        0.25406        0.18712        0.17329        0.14372        0.21772        0.25278        0.27940        0.34602        0.31981        0.41098        0.46893        0.46718        0.45238        0.48601        0.54470        0.48948        0.46808        0.41957        0.34580        0.33774        0.27525        0.30270        0.23711        0.22206        0.28380        0.23889        0.26223        0.32475        0.42123        0.41753        0.43971        0.41794        0.49827        0.49468        0.46859        0.44387        0.38700        0.38172        0.40148        0.39814        0.32990        0.28124        0.31593        0.29269        0.29543        0.29639        0.33736        0.36725        0.39039        0.45321        0.48740        0.39639        0.43335        0.42771        0.38517        0.31833        0.36577        0.32177        0.31431        0.33509        0.27837        0.25440        0.31792        0.33617        0.42753        0.42101        0.40380        0.39771        0.40101        0.36733        0.36800        0.31943        0.32043        0.33642        0.30821        0.30535        0.33887        0.35188        0.34595        0.35284        0.39366        0.38857        0.45574        0.40053        0.34248        0.36047        0.35093        0.33362        0.32802        0.33731        0.37915        0.33947        0.35689        0.34887        0.42017        0.37767        0.35601        0.36681        0.37587        0.36492        0.33746        0.33122        0.30870        0.33980        0.33092        0.30966        0.32282        0.35394        0.35496        0.34080        0.33595        0.30379        0.30181        0.28252        0.31984        0.32400        0.35291        0.33164        0.33335        0.37120        0.33255        0.33559        0.32420        0.29213        0.34142        0.31353        0.32056        0.33020        0.32209        0.31718        0.30064        0.34071        0.36810        0.33421        0.32342        0.31263        0.32883        0.29836        0.34883        0.32175        0.27505        0.32776        0.30107        0.34567        0.34256        0.38603        0.32449        0.31716        0.26657        0.33161        0.37088        0.34572        0.31222        0.32230        0.32342        0.32298        0.29959        0.31667        0.30921        0.30876        0.28736        0.29351        0.31251        0.29555        0.29905        0.31273        0.26116        0.31658        0.34693        0.36406        0.34528        0.31245        0.32019        0.27802        0.30511        0.29639        0.32051        0.33765        0.28026        0.27105        0.32332        0.34774        0.33637        0.28181        0.27741        0.32190        0.28793        0.30788        0.34849        0.34601        0.28707        0.25691        0.31017        0.33488        0.28439        0.24282        0.26529        0.26398        0.30715        0.34743        0.29805        0.34440        0.28390        0.26996        0.30522        0.29136        0.22045        0.26265        0.30507        0.25404        0.21649        0.23838        0.29383        0.41542        0.30357        0.24812        0.17826        0.24108        0.25909        0.26090        0.36945        0.21068        0.14210        0.27763        0.32589        0.29163        0.18379        0.03849       -0.59336       -1.08331
2.551145 2.526044 2.501071 2.476226 2.451508 2.426917 2.402455 2.378120 2.353913 2.329833 2.305881 2.282057 2.258361 2.234792 2.211351 2.188037 2.164852 2.141793 2.118863 2.096060 2.073385 2.050838 2.028418 2.006126 1.983962 1.961926 1.940017 1.918235 1.896582 1.875056 1.853658 1.832387 1.811244 1.790229 1.769342 1.748582 1.727950 1.707445 1.687069 1.666820 1.646698 1.626704 1.606838 1.587100 1.567489 1.548006 1.528651 1.509424 1.490324 1.471351 1.452507 1.403609 1.892078 1.431937 0.933929 0.775038 -0.022359 0.618190 0.143558 0.325149 0.649504 0.391366 0.280127 0.510461 0.438210 0.355483 0.228514 0.003305 -0.244903 -0.429035 -0.410728 -0.347148 0.137947 -0.403310 -0.172300 -0.323193 -0.231491 -0.400466 -0.033284 -0.068315 -0.181959 0.069252 0.244343 0.091956 0.348911 0.249599 0.634401 0.508176 0.826043 0.776370 0.889894 1.117991 0.995108 1.266027 1.319015 1.105961 1.058500 1.023917 0.985789 1.011867 0.985645 0.820134 0.709383 0.655033 0.565290 0.502610 0.576167 0.404069 0.330294 0.142297 0.093981 0.152780 0.198192 0.112763 0.161429 0.300407 0.385225 0.396824 0.484334 0.516604 0.665495 0.471956 0.901269 1.001888 0.825818 0.731361 0.868485 0.589569 0.559074 0.533721 0.271610 0.297044 0.113271 0.242494 0.010462 0.029455 -0.066589 -0.049628 0.189712 0.085564 0.207675 0.266985 0.310842 0.438828 0.499794 0.461585 0.428207 0.583088 0.517264 0.404973 0.381459 0.242266 0.204878 0.100190 0.028353 0.044059 -0.110956 0.030745 0.040089 -0.072959 -0.016799 0.197223 0.361714 0.248290 0.347083 0.190879 0.549892 0.374437 0.332902 0.324885 0.187208 0.135860 0.367232 0.056221 0.069525 -0.004943 0.083548 -0.018938 0.087000 -0.010014 0.177612 0.029014 0.254192 0.357383 0.273032 0.196862 0.223906 0.183659 0.075750 0.089502 0.087410 -0.018453 0.008444 0.056360 -0.140924 -0.096890 0.001533 0.099705 0.288792 0.154261 0.183660 0.131691 0.180027 0.089729 0.093115 -0.031544 0.044790 0.028648 -0.030171 0.024965 0.059325 0.084678 0.030008 0.098451 0.117798 0.183021 0.308385 0.042331 0.062938 0.076985 0.010859 0.033017 -0.000444 0.072839 0.124768 -0.001090 0.054574 0.080326 0.145937 0.080370 0.063544 0.104569 0.056715 0.085462 -0.007497 0.029789 -0.031768 0.023501 -0.000564 -0.010895 -0.012575 0.057836 0.021893 0.013768 -0.021316 -0.086339 -0.041291 -0.108491 -0.018525 -0.011689 0.043777 -0.033647 -0.000311 0.093965 -0.067238 0.013706 -0.072659 -0.094287 0.006390 -0.080433 -0.020509 -0.015682 -0.035961 -0.050479 -0.086381 0.039092 0.020768 0.003451 -0.037770 -0.024476 -0.064967 -0.043968 0.025539 -0.033594 -0.095129 -0.004512 -0.086458 0.055566 0.008507 0.114999 -0.002257 -0.056437 -0.129415 0.036391 0.117185 -0.041978 -0.021202 -0.020818 0.034151 -0.029919 -0.093178 0.000974 -0.022181 -0.041096 -0.077437 -0.083897 -0.000619 -0.058143 -0.011050 -0.132110 -0.128654 0.060093 0.062708 0.110190 0.024439 0.042467 -0.042616 -0.057361 -0.023232 -0.067275 0.027590 0.070102 -0.098266 -0.086487 0.045439 0.061513 0.053566 -0.082529 -0.047463 -0.050072 -0.053413 -0.085124 0.084455 -0.000635 -0.069475 -0.131012 -0.061622 0.024046 -0.075176 -0.152691 -0.131054 -0.025884 -0.024324 0.017863 -0.087263 0.059535 0.019129 -0.086396 0.018771 -0.057825 -0.198462 -0.053978 0.046763 -0.091211 -0.086749 -0.069405 0.108919 0.242459 -0.009555 0.051791 -0.270693 0.011902 0.044477 0.002488 0.286903 -0.034818 0.273070 0.609327 0.613221 0.527619 0.284861 0.081864 -2.031370
0.072396 0.072904 0.074427 0.076964 0.080516 0.085081 0.090659 0.097246 0.104842 0.113443 0.123046 0.133647 0.145239 0.157817 0.171372 0.185896 0.201375 0.217799 0.235151 0.253413 0.272564 0.292582 0.313439 0.335106 0.357547 0.380725 0.404598 0.429118 0.454233 0.479885 0.506011 0.532543 0.559406 0.586519 0.613793 0.641136 0.668445 0.695613 0.722524 0.749058 0.775085 0.800470 0.825069 0.848735 0.871313 0.892642 0.912556 0.930885 0.947454 0.962087 0.974604 0.984823 0.992565 0.997650 0.999900 0.999144 0.995215 0.987952 0.977207 0.962839 0.944725 0.922754 0.896834 0.866893 0.832882 0.794773 0.752570 0.706301 0.656029 0.601848 0.543888 0.482314 0.417333 0.349188 0.278164 0.204588 0.128825 0.051286 0.027582 0.107291 0.187315 0.267094 0.346035 0.423518 0.498899 0.571512 0.640682 0.705722 0.765949 0.820684 0.869267 0.911059 0.945456 0.971896 0.989870 0.998930 0.998702 0.988891 0.969295 0.939811 0.900443 0.851311 0.792656 0.724845 0.648375 0.563873 0.472099 0.373941 0.270412 0.162644 0.051876 0.060551 0.173216 0.284627 0.393245 0.497504 0.595828 0.686665 0.768507 0.839921 0.899571 0.946255 0.978927 0.996725 0.998998 0.985329 0.955553 0.909781 0.848404 0.772107 0.681874 0.578978 0.464977 0.341700 0.211221 0.075832 0.061993 0.199637 0.334393 0.463510 0.584256 0.693971 0.790138 0.870441 0.932826 0.975565 0.997307 0.997133 0.974596 0.929752 0.863187 0.776027 0.669931 0.547081 0.410144 0.262230 0.106831 0.052256 0.211014 0.365308 0.510987 0.644003 0.760527 0.857066 0.930578 0.978580 0.999245 0.991481 0.955000 0.890357 0.798970 0.683111 0.545871 0.391099 0.223306 0.047548 0.130716 0.305789 0.471913 0.623467 0.755160 0.862224 0.940606 0.987131 0.999657 0.977186 0.919946 0.829431 0.708391 0.560778 0.391643 0.206983 0.013546 0.181407 0.370362 0.545844 0.700725 0.828514 0.923651 0.981772 0.999930 0.976769 0.912642 0.809653 0.671625 0.503997 0.313640 0.108595 0.102243 0.309506 0.503757 0.675932 0.817774 0.922247 0.983915 0.999249 0.966868 0.887673 0.764881 0.603932 0.412300 0.199170 0.024971 0.248833 0.460889 0.649961 0.805839 0.919837 0.985323 0.998136 0.956889 0.863138 0.721375 0.538878 0.325371 0.092553 0.146520 0.378156 0.588802 0.765852 0.898427 0.978073 0.999350 0.960247 0.862408 0.711133 0.515158 0.286200 0.038296 0.213019 0.451684 0.662130 0.830319 0.944714 0.997112 0.983290 0.903402 0.762081 0.568261 0.334657 0.076997 0.187006 0.438849 0.660543 0.835905 0.951795 0.999140 0.973710 0.876564 0.714105 0.497744 0.243169 0.030746 0.303301 0.553512 0.761752 0.911314 0.989813 0.990267 0.911802 0.759877 0.545997 0.286924 0.003432 0.281316 0.543654 0.761367 0.915630 0.992682 0.985135 0.892768 0.722717 0.489036 0.211608 0.085454 0.375889 0.633580 0.834930 0.961073 0.999714 0.946424 0.805236 0.588458 0.315714 0.012249 0.293347 0.571820 0.796046 0.943742 0.999736 0.957645 0.820695 0.601615 0.321581 0.008261 0.306863 0.591625 0.816468 0.957577 0.999491 0.936895 0.775418 0.531266 0.229720 0.097375 0.414931 0.688355 0.887363 0.989388 0.982268 0.865812 0.652082 0.364284 0.034379 0.300403 0.601705 0.834468 0.971081 0.994752 0.901712 0.701931 0.418218 0.083740 0.261737 0.576550 0.822161 0.967944 0.995118 0.899313 0.691403 0.396444 0.050814 0.302188 0.617710 0.855071 0.983077 0.984260 0.857414 0.618077 0.296802 0.064580 0.418330 0.717085
1.000000 1.000000 1.000000 1.000000 1.000000 1.000000 1.000000 1.000000 1.000000 1.000000 1.000000 1.000000 1.000000 1.000000 1.000000 1.000000 1.000000 1.000000 1.000000 1.000000 1.000000 1.000000 1.000000 1.000000 1.000000 1.000000 1.000000 1.000000 1.000000 1.000000 1.000000 1.000000 1.000000 1.000000 1.000000 1.000000 1.000000 1.000000 1.000000 1.000000 1.000000 1.000000 1.000000 1.000000 1.000000 1.000000 1.000000 1.000000 1.000000 1.000000 1.000000 1.000000 0.824231 0.824231 0.824231 0.816492 0.816492 0.816492 0.816492 0.816492 0.816492 0.816492 0.816492 0.816492 0.816492 0.816492 0.816492 0.816492 0.816492 0.816492 0.816492 0.816492 0.816492 0.816492 0.816492 0.816492 0.816492 0.816492 0.816492 0.816492 0.816492 0.816492 0.816492 0.816492 0.816492 0.816492 0.816492 0.816492 0.816492 0.816492 0.816492 0.816492 0.816492 0.816492 0.816492 0.816492 0.828194 0.835297 0.836025 0.841657 0.845108 0.843405 0.841370 0.840591 0.840240 0.841242 0.850350 0.875726 0.893162 0.900085 0.913895 0.918250 0.922634 0.924700 0.931584 0.931423 0.963506 0.958384 0.955775 0.956592 0.954372 0.948861 0.947980 0.946492 0.955683 0.949709 0.947396 0.944790 0.943644 0.939120 0.938318 0.938234 0.935279 0.935678 0.935855 0.935800 0.935069 0.933591 0.932746 0.919973 0.919038 0.918572 0.921202 0.895704 0.891421 0.880393 0.880581 0.881890 0.877802 0.876654 0.868880 0.870318 0.871470 0.869834 0.861530 0.857379 0.852978 0.845205 0.842223 0.840382 0.843041 0.840512 0.839392 0.833873 0.821759 0.812938 0.802556 0.794568 0.783250 0.777415 0.780954 0.784684 0.787638 0.783546 0.782136 0.774917 0.769110 0.752272 0.749805 0.749492 0.760372 0.763339 0.763772 0.763940 0.749483 0.734795 0.705308 0.705208 0.705604 0.667514 0.652218 0.654077 0.655804 0.662173 0.676572 0.671926 0.662740 0.637157 0.614354 0.593821 0.606869 0.627644 0.619296 0.623769 0.603469 0.639668 0.641237 0.657324 0.672309 0.678535 0.675730 0.653928 0.617525 0.614323 0.610929 0.605934 0.598843 0.587362 0.589683 0.607084 0.582777 0.577480 0.569457 0.561163 0.563352 0.575038 0.550542 0.553468 0.521692 0.486412 0.459408 0.456410 0.416825 0.388427 0.384385 0.385454 0.362689 0.358975 0.379762 0.397990 0.400314 0.404308 0.399227 0.302011 0.302022 0.295785 0.275839 0.269513 0.294689 0.300229 0.307525 0.290104 0.254763 0.267075 0.229734 0.244791 0.213936 0.188345 0.180691 0.176903 0.196609 0.196844 0.173565 0.160846 0.149738 0.115438 0.143399 0.151691 0.190324 0.176531 0.158129 0.158300 0.123950 0.101006 0.107031 0.075070 0.037958 0.019447 0.008258 0.010342 0.007011 -0.013379 -0.026125 0.006880 -0.010754 0.027078 0.000890 -0.019722 -0.040512 -0.031005 -0.046586 -0.059353 -0.051154 -0.085562 -0.125961 -0.157328 -0.164449 -0.143577 -0.128738 -0.151259 -0.152442 -0.160233 -0.191566 -0.181491 -0.139477 -0.129347 -0.134685 -0.108309 -0.086014 -0.105075 -0.218862 -0.166082 -0.128726 -0.133028 -0.136013 -0.176058 -0.203410 -0.206184 -0.191234 -0.143516 -0.123380 -0.102239 -0.108060 -0.107014 -0.097257 -0.153516 -0.194659 -0.199187 -0.191232 -0.172570 -0.134929 -0.107287 -0.089746 -0.076371 -0.097357 -0.097357 -0.097357 -0.097357 -0.088243 -0.088243 -0.088243 -0.088243 -0.088243 -0.088243 -0.088243 -0.088243 -0.088243 -0.127080 -0.127080 -0.127080 -0.127080 -0.127080 -0.127080 -0.127080 -0.127080 -0.127080 -0.127080 -0.127080 -0.127080 -0.127080 -0.127080 -0.127080 -0.127080
0.000000 0.000000 0.000000 0.000000 0.000000 0.000000 0.000000 0.000000 0.000000 0.000000 0.000000 0.000000 0.000000 0.000000 0.000000 0.000000 0.000000 0.000000 0.000000 0.000000 0.000000 0.000000 0.000000 0.000000 0.000000 0.000000 0.000000 0.000000 0.000000 0.000000 0.000000 0.000000 0.000000 0.000000 0.000000 0.000000 0.000000 0.000000 0.000000 0.000000 0.000000 0.000000 0.000000 0.000000 0.000000 0.000000 0.000000 0.000000 0.000000 0.000000 0.000000 0.000000 0.180334 0.180334 0.180334 0.199007 0.199007 0.199007 0.199007 0.199007 0.199007 0.199007 0.199007 0.199007 0.199007 0.199007 0.199007 0.199007 0.199007 0.199007 0.199007 0.199007 0.199007 0.199007 0.199007 0.199007 0.199007 0.199007 0.199007 0.199007 0.199007 0.199007 0.199007 0.199007 0.199007 0.199007 0.199007 0.199007 0.199007 0.199007 0.199007 0.199007 0.199007 0.199007 0.199007 0.199007 0.230940 0.230940 0.230940 0.230940 0.230940 0.230940 0.230940 0.230940 0.230940 0.230940 0.230940 0.230940 0.230940 0.230940 0.230940 0.230940 0.230940 0.230940 0.230940 0.230940 0.230940 0.230940 0.230940 0.230940 0.230940 0.230940 0.230940 0.230940 0.244339 0.244339 0.244339 0.244339 0.244339 0.244339 0.244339 0.244339 0.244339 0.244339 0.244339 0.244339 0.244339 0.244339 0.244339 0.244339 0.244339 0.244339 0.244339 0.244339 0.244339 0.244339 0.244339 0.251976 0.251976 0.251976 0.251976 0.251976 0.251976 0.251976 0.251976 0.251976 0.251976 0.251976 0.251976 0.251976 0.251976 0.251976 0.251976 0.251976 0.251976 0.251976 0.251976 0.264906 0.264906 0.264906 0.264906 0.264906 0.264906 0.264906 0.264906 0.264906 0.264906 0.264906 0.264906 0.264906 0.264906 0.264906 0.264906 0.264906 0.264906 0.264906 0.264906 0.264906 0.264906 0.264906 0.264906 0.264906 0.264906 0.264906 0.264906 0.264906 0.264906 0.264906 0.264906 0.264906 0.264906 0.264906 0.264906 0.264906 0.264906 0.264906 0.264906 0.264906 0.264906 0.264906 0.264906 0.264906 0.264906 0.264906 0.264906 0.264906 0.264906 0.264906 0.264906 0.264906 0.264906 0.264906 0.264906 0.264906 0.264906 0.264906 0.264906 0.264906 0.264906 0.264906 0.264906 0.264906 0.264906 0.264906 0.264906 0.264906 0.264906 0.264906 0.264906 0.264906 0.264906 0.264906 0.260378 0.260378 0.260378 0.260378 0.260378 0.260378 0.260378 0.260378 0.260378 0.260378 0.260378 0.260378 0.260378 0.264906 0.264906 0.264906 0.264906 0.264906 0.264906 0.264906 0.264906 0.264906 0.264906 0.264906 0.264906 0.269680 0.269680 0.269680 0.269680 0.269680 0.269680 0.269680 0.269680 0.269680 0.269680 0.269680 0.264906 0.264906 0.264906 0.264906 0.264906 0.264906 0.264906 0.264906 0.264906 0.264906 0.264906 0.269680 0.269680 0.269680 0.269680 0.269680 0.269680 0.269680 0.269680 0.269680 0.269680 0.251976 0.251976 0.251976 0.251976 0.251976 0.251976 0.251976 0.251976 0.251976 0.251976 0.251976 0.269680 0.269680 0.269680 0.269680 0.269680 0.269680 0.269680 0.269680 0.269680 0.256074 0.256074 0.256074 0.256074 0.256074 0.256074 0.256074 0.256074 0.256074 0.256074 0.260378 0.260378 0.260378 0.260378 0.260378 0.260378 0.260378 0.260378 0.260378 0.256074 0.256074 0.256074 0.256074 0.256074 0.256074 0.256074 0.256074 0.256074 0.251976 0.251976 0.251976 0.251976 0.251976 0.251976 0.251976 0.251976 0.251976 0.251976 0.251976 0.251976 0.251976 0.251976 0.251976 0.251976
