# Output from CTFFind version 4.1.9, run on 2019-11-02 16:16:58
# Input file: stack6_bm3d_averaged_1_0.7_1.00_250_half.mrc ; Number of micrographs: 1
# Pixel size: 3.000 Angstroms ; acceleration voltage: 300.0 keV ; spherical aberration: 0.00 mm ; amplitude contrast: 0.07
# Box size: 512 pixels ; min. res.: 30.0 Angstroms ; max. res.: 5.0 Angstroms ; min. def.: 5000.0 um; max. def. 50000.0 um; num. frames averaged: 1
# 6 lines per micrograph: #1 - spatial frequency (1/Angstroms); #2 - 1D rotational average of spectrum (assuming no astigmatism); #3 - 1D rotational average of spectrum; #4 - CTF fit; #5 - cross-correlation between spectrum and CTF fit; #6 - 2sigma of expected cross correlation of noise
0.000000 0.000651 0.001302 0.001953 0.002604 0.003255 0.003906 0.004557 0.005208 0.005859 0.006510 0.007161 0.007812 0.008464 0.009115 0.009766 0.010417 0.011068 0.011719 0.012370 0.013021 0.013672 0.014323 0.014974 0.015625 0.016276 0.016927 0.017578 0.018229 0.018880 0.019531 0.020182 0.020833 0.021484 0.022135 0.022786 0.023438 0.024089 0.024740 0.025391 0.026042 0.026693 0.027344 0.027995 0.028646 0.029297 0.029948 0.030599 0.031250 0.031901 0.032552 0.033203 0.033854 0.034505 0.035156 0.035807 0.036458 0.037109 0.037760 0.038411 0.039062 0.039714 0.040365 0.041016 0.041667 0.042318 0.042969 0.043620 0.044271 0.044922 0.045573 0.046224 0.046875 0.047526 0.048177 0.048828 0.049479 0.050130 0.050781 0.051432 0.052083 0.052734 0.053385 0.054036 0.054688 0.055339 0.055990 0.056641 0.057292 0.057943 0.058594 0.059245 0.059896 0.060547 0.061198 0.061849 0.062500 0.063151 0.063802 0.064453 0.065104 0.065755 0.066406 0.067057 0.067708 0.068359 0.069010 0.069661 0.070312 0.070964 0.071615 0.072266 0.072917 0.073568 0.074219 0.074870 0.075521 0.076172 0.076823 0.077474 0.078125 0.078776 0.079427 0.080078 0.080729 0.081380 0.082031 0.082682 0.083333 0.083984 0.084635 0.085286 0.085938 0.086589 0.087240 0.087891 0.088542 0.089193 0.089844 0.090495 0.091146 0.091797 0.092448 0.093099 0.093750 0.094401 0.095052 0.095703 0.096354 0.097005 0.097656 0.098307 0.098958 0.099609 0.100260 0.100911 0.101562 0.102214 0.102865 0.103516 0.104167 0.104818 0.105469 0.106120 0.106771 0.107422 0.108073 0.108724 0.109375 0.110026 0.110677 0.111328 0.111979 0.112630 0.113281 0.113932 0.114583 0.115234 0.115885 0.116536 0.117188 0.117839 0.118490 0.119141 0.119792 0.120443 0.121094 0.121745 0.122396 0.123047 0.123698 0.124349 0.125000 0.125651 0.126302 0.126953 0.127604 0.128255 0.128906 0.129557 0.130208 0.130859 0.131510 0.132161 0.132812 0.133464 0.134115 0.134766 0.135417 0.136068 0.136719 0.137370 0.138021 0.138672 0.139323 0.139974 0.140625 0.141276 0.141927 0.142578 0.143229 0.143880 0.144531 0.145182 0.145833 0.146484 0.147135 0.147786 0.148438 0.149089 0.149740 0.150391 0.151042 0.151693 0.152344 0.152995 0.153646 0.154297 0.154948 0.155599 0.156250 0.156901 0.157552 0.158203 0.158854 0.159505 0.160156 0.160807 0.161458 0.162109 0.162760 0.163411 0.164062 0.164714 0.165365 0.166016 0.166667 0.167318 0.167969 0.168620 0.169271 0.169922 0.170573 0.171224 0.171875 0.172526 0.173177 0.173828 0.174479 0.175130 0.175781 0.176432 0.177083 0.177734 0.178385 0.179036 0.179688 0.180339 0.180990 0.181641 0.182292 0.182943 0.183594 0.184245 0.184896 0.185547 0.186198 0.186849 0.187500 0.188151 0.188802 0.189453 0.190104 0.190755 0.191406 0.192057 0.192708 0.193359 0.194010 0.194661 0.195312 0.195964 0.196615 0.197266 0.197917 0.198568 0.199219 0.199870 0.200521 0.201172 0.201823 0.202474 0.203125 0.203776 0.204427 0.205078 0.205729 0.206380 0.207031 0.207682 0.208333 0.208984 0.209635 0.210286 0.210938 0.211589 0.212240 0.212891 0.213542 0.214193 0.214844 0.215495 0.216146 0.216797 0.217448 0.218099 0.218750 0.219401 0.220052 0.220703 0.221354 0.222005 0.222656 0.223307 0.223958 0.224609 0.225260 0.225911 0.226562 0.227214 0.227865 0.228516 0.229167 0.229818 0.230469 0.231120 0.231771 0.232422 0.233073 0.233724 0.234375 0.235026 0.235677
       0.31204        0.31204        0.31204        0.31204        0.31204        0.31204        0.31204        0.31204        0.31204        0.31204        0.31204        0.31204        0.31204        0.31204        0.31204        0.31204        0.31204        0.31204        0.31204        0.31204        0.31204        0.31204        0.31204        0.31204        0.31204        0.31204        0.31204        0.31204        0.31204        0.31204        0.31204        0.31204        0.31204        0.31204        0.31204        0.31204        0.31204        0.31204        0.31204        0.31204        0.31204        0.31204        0.31204        0.31204        0.31204        0.31204        0.31204        0.31204        0.31204        0.31204        0.31204        0.63208        0.82074        0.41825        0.31343        0.18480       -0.10478        0.10995       -0.00473        0.03242        0.12008        0.33641        0.42164        0.40760        0.22756       -0.01499        0.04820        0.06895       -0.17094       -0.18186       -0.08783       -0.10464       -0.29441       -0.19524       -0.29922       -0.25273       -0.28773       -0.40616       -0.47512       -0.48506       -0.43231       -0.34006       -0.44224       -0.36832       -0.40906       -0.35268       -0.27983       -0.20479       -0.19357       -0.14134       -0.09742        0.03796        0.07766        0.25143        0.27397        0.36071        0.40508        0.52959        0.59843        0.61453        0.74444        0.70415        0.74593        0.65534        0.66468        0.69307        0.63364        0.61535        0.60689        0.43003        0.40458        0.35634        0.31284        0.22226        0.12835        0.05875        0.05915        0.00129       -0.08108       -0.02972       -0.03090       -0.07169        0.06581        0.16279        0.25066        0.32290        0.33657        0.42985        0.55071        0.60273        0.55157        0.67082        0.57471        0.55042        0.59677        0.65527        0.53704        0.45202        0.41127        0.37558        0.24482        0.21496        0.12835        0.11668        0.05323        0.04812        0.10623        0.17403        0.14126        0.17999        0.21999        0.24178        0.32911        0.46534        0.49616        0.50090        0.51126        0.57998        0.56836        0.52321        0.43512        0.39045        0.36603        0.27459        0.24910        0.20590        0.20211        0.19591        0.17553        0.16521        0.13338        0.19805        0.25164        0.33986        0.38628        0.41112        0.46068        0.54023        0.48025        0.49394        0.42247        0.39749        0.38222        0.36327        0.29242        0.24971        0.18860        0.23208        0.21338        0.18557        0.22238        0.22553        0.23422        0.29936        0.40020        0.40147        0.37669        0.39579        0.46128        0.49166        0.42386        0.34884        0.32803        0.27442        0.26679        0.25266        0.21382        0.28376        0.29403        0.29853        0.31776        0.31570        0.35276        0.37163        0.37349        0.37657        0.35281        0.31509        0.33035        0.31958        0.29758        0.27794        0.27457        0.21942        0.27509        0.27669        0.29725        0.31807        0.34490        0.38351        0.34481        0.31391        0.36470        0.35975        0.26168        0.29354        0.30418        0.24423        0.20553        0.25278        0.27421        0.27851        0.29720        0.31194        0.34475        0.33603        0.36617        0.32377        0.32002        0.30931        0.30361        0.27533        0.25286        0.25676        0.25741        0.28028        0.30535        0.30861        0.30420        0.30549        0.32157        0.26356        0.29950        0.26889        0.25955        0.27939        0.26449        0.26363        0.26331        0.30610        0.29128        0.32437        0.28778        0.26672        0.30625        0.31686        0.33504        0.31749        0.28670        0.25028        0.26141        0.26478        0.26289        0.31871        0.31445        0.33490        0.31444        0.31339        0.24204        0.27477        0.20544        0.21841        0.24713        0.25118        0.26245        0.28494        0.30455        0.30023        0.35772        0.30938        0.25848        0.24422        0.23370        0.28459        0.32138        0.30806        0.27016        0.27608        0.26984        0.32925        0.28560        0.25791        0.26617        0.26611        0.28140        0.24726        0.27258        0.31782        0.29338        0.23872        0.24665        0.28803        0.31588        0.26971        0.26452        0.24720        0.26723        0.29477        0.36993        0.27667        0.27431        0.26257        0.24575        0.22488        0.17909        0.24085        0.23441        0.22506        0.17898        0.19719        0.23167        0.21191        0.22977        0.20512        0.24553        0.23484        0.21412        0.16241        0.18297        0.20570        0.25706        0.11695        0.04851        0.19647        0.16994        0.13383        0.25131        0.16099        0.22198        0.22427        0.00401       -0.45774       -0.95816
2.792967 2.765642 2.738457 2.711412 2.684508 2.657743 2.631120 2.604636 2.578292 2.552089 2.526026 2.500103 2.474320 2.448678 2.423175 2.397813 2.372592 2.347510 2.322569 2.297768 2.273107 2.248586 2.224205 2.199965 2.175865 2.151905 2.128086 2.104406 2.080867 2.057468 2.034209 2.011091 1.988112 1.965274 1.942576 1.920019 1.897601 1.875324 1.853187 1.831190 1.809334 1.787618 1.766041 1.744605 1.723310 1.702154 1.681139 1.660264 1.639529 1.618935 1.598480 1.884556 2.241837 1.672772 1.718424 1.357989 0.924376 1.178827 1.003928 1.055818 1.016806 1.470032 1.495074 1.514518 1.270958 0.923545 0.810841 0.996375 0.695928 0.484829 0.577666 0.671766 0.417082 0.474239 0.325546 0.376770 0.241329 0.148697 -0.030239 -0.000122 0.007177 0.084469 0.035772 0.074286 -0.040455 0.032813 0.111361 0.217426 0.277428 0.206397 0.311645 0.549652 0.440068 0.722011 0.779611 0.853017 0.906895 1.113067 1.153110 1.168428 1.314598 1.233154 1.364008 1.194213 1.103920 1.295639 1.120500 1.040706 1.119779 0.869894 0.740302 0.677084 0.658540 0.454606 0.388599 0.260127 0.232933 0.098453 0.003122 0.091020 0.036587 -0.057706 0.121260 0.252671 0.314529 0.457496 0.490760 0.553294 0.719716 0.834467 0.671960 0.964826 0.781658 0.685582 0.766494 0.817653 0.725641 0.629126 0.438727 0.514605 0.287537 0.185676 0.149428 0.013674 -0.013920 -0.106242 -0.019684 0.057463 0.077616 -0.035145 0.252184 0.096912 0.227988 0.384346 0.442770 0.544690 0.424734 0.560689 0.639247 0.503227 0.405638 0.353052 0.329884 0.154371 0.154545 0.008437 0.095147 0.026059 -0.001669 -0.018670 -0.100207 0.006635 0.039212 0.108754 0.291721 0.219010 0.360436 0.366404 0.466121 0.377795 0.397135 0.328850 0.229926 0.306326 0.178906 0.153929 0.000224 0.036933 0.075591 -0.031335 0.000307 0.026344 0.061458 0.069384 0.218891 0.316918 0.241708 0.224038 0.377519 0.405558 0.350362 0.239839 0.177721 0.152066 0.088683 0.078900 0.036693 0.021831 0.138773 0.066755 0.184280 0.103929 0.149615 0.238286 0.210483 0.235994 0.205100 0.199139 0.109603 0.164235 0.135162 0.094799 0.107948 0.005256 0.044601 0.098341 0.053100 0.139480 0.128418 0.209221 0.223331 0.152196 0.126197 0.228760 0.097487 0.074006 0.081636 0.060095 0.002480 -0.036330 0.042835 0.071900 0.040108 0.116564 0.115131 0.141007 0.135484 0.177632 0.104373 0.089534 0.104269 0.094783 0.028300 0.018589 0.045226 -0.004448 0.080498 0.113527 0.084766 0.086354 0.087830 0.109616 0.017183 0.110959 0.036545 0.025633 0.084227 0.018870 0.027810 0.049900 0.091733 0.047850 0.119808 0.071026 -0.000766 0.118771 0.082626 0.104302 0.088065 0.017018 -0.009621 -0.003821 0.045655 0.001291 0.090320 0.076053 0.116810 0.059945 0.123910 -0.035541 0.024602 -0.089159 0.002770 -0.047741 0.014256 0.019825 0.036208 0.086246 0.067518 0.124130 0.015506 -0.014014 -0.045465 -0.064814 0.061048 0.077054 0.052437 -0.001852 -0.001939 -0.002779 0.074343 -0.013543 -0.048377 -0.014299 -0.045336 0.008593 -0.049241 -0.005083 0.045616 0.003093 -0.060323 -0.007928 0.043314 0.008434 0.001996 -0.013900 -0.049845 0.048187 0.067560 0.153527 0.016820 0.018033 0.031856 0.028606 -0.042044 -0.051008 0.044319 0.031777 0.015118 -0.042684 -0.027889 0.088879 -0.038520 0.134755 0.009553 0.144412 0.038555 0.105583 -0.076925 0.056367 0.008278 0.205567 -0.008602 -0.006573 0.270545 0.232117 0.185004 0.450510 0.175761 0.292556 0.358419 0.007679 -1.319691
0.072396 0.072835 0.074150 0.076343 0.079411 0.083356 0.088175 0.093868 0.100432 0.107867 0.116169 0.125335 0.135363 0.146246 0.157980 0.170559 0.183974 0.198218 0.213279 0.229145 0.245803 0.263238 0.281431 0.300362 0.320009 0.340347 0.361347 0.382977 0.405204 0.427988 0.451289 0.475060 0.499252 0.523810 0.548675 0.573784 0.599070 0.624459 0.649874 0.675230 0.700441 0.725412 0.750045 0.774235 0.797875 0.820850 0.843041 0.864325 0.884574 0.903657 0.921438 0.937779 0.952538 0.965573 0.976740 0.985892 0.992884 0.997573 0.999817 0.999477 0.996418 0.990511 0.981633 0.969670 0.954516 0.936077 0.914270 0.889029 0.860300 0.828047 0.792254 0.752924 0.710081 0.663774 0.614076 0.561085 0.504928 0.445758 0.383759 0.319145 0.252160 0.183078 0.112204 0.039877 0.033540 0.107650 0.182032 0.256234 0.329785 0.402189 0.472933 0.541488 0.607314 0.669863 0.728584 0.782929 0.832357 0.876341 0.914374 0.945973 0.970691 0.988116 0.997884 0.999685 0.993267 0.978444 0.955103 0.923208 0.882808 0.834038 0.777127 0.712398 0.640271 0.561265 0.475996 0.385177 0.289615 0.190203 0.087921 0.016179 0.120977 0.225296 0.327918 0.427595 0.523064 0.613064 0.696353 0.771727 0.838041 0.894222 0.939298 0.972409 0.992832 0.999995 0.993494 0.973113 0.938830 0.890832 0.829521 0.755519 0.669670 0.573033 0.466881 0.352686 0.232103 0.106955 0.020798 0.149080 0.275737 0.398566 0.515362 0.623950 0.722231 0.808228 0.880129 0.936323 0.975451 0.996440 0.998536 0.981337 0.944813 0.889328 0.815645 0.724930 0.618744 0.499026 0.368065 0.228464 0.083097 0.064948 0.212428 0.356019 0.492387 0.618265 0.730543 0.826342 0.903095 0.958629 0.991228 0.999702 0.983431 0.942411 0.877271 0.789288 0.680372 0.553043 0.410385 0.255978 0.093825 0.071750 0.236213 0.394938 0.543343 0.677020 0.791879 0.884271 0.951126 0.990059 0.999470 0.978624 0.927702 0.847831 0.741077 0.610416 0.459666 0.293390 0.116779 0.064513 0.244538 0.417242 0.576673 0.717199 0.833701 0.921785 0.977952 0.999764 0.985957 0.936535 0.852805 0.737374 0.594091 0.427946 0.244905 0.051722 0.144305 0.335604 0.514617 0.674107 0.807457 0.908959 0.974079 0.999676 0.984179 0.927700 0.832084 0.700877 0.539225 0.353704 0.152067 0.057057 0.264528 0.461089 0.637776 0.786346 0.899672 0.972104 0.999783 0.980867 0.915682 0.806767 0.658812 0.478493 0.274200 0.055670 0.166462 0.381169 0.577577 0.745534 0.876139 0.962243 0.998874 0.983548 0.916475 0.800617 0.641607 0.447509 0.228449 0.003887 0.236864 0.457577 0.653560 0.813514 0.927974 0.989905 0.995171 0.942846 0.835357 0.678426 0.480805 0.253838 0.010842 0.233662 0.464797 0.668246 0.831150 0.942946 0.996100 0.986644 0.914526 0.783709 0.602012 0.380689 0.133780 0.122744 0.372009 0.597333 0.783354 0.917123 0.989015 0.993492 0.929572 0.801008 0.616134 0.387383 0.130508 0.136484 0.394552 0.624999 0.810824 0.938018 0.996661 0.981753 0.893699 0.738402 0.526935 0.274823 0.000940 0.273859 0.528326 0.742456 0.899102 0.985377 0.993788 0.922942 0.777798 0.569402 0.314110 0.032373 0.252863 0.518022 0.740835 0.902254 0.988121 0.990476 0.908373 0.748105 0.522815 0.251488 0.042583 0.333758 0.596281 0.806560 0.945342 0.999521 0.963465 0.839676 0.638723 0.378438 0.082408 0.222115 0.506699 0.744372 0.912240 0.993726 0.980302 0.872464 0.679867 0.420557 0.119370 0.194380 0.489733 0.737137 0.911429
1.000000 1.000000 1.000000 1.000000 1.000000 1.000000 1.000000 1.000000 1.000000 1.000000 1.000000 1.000000 1.000000 1.000000 1.000000 1.000000 1.000000 1.000000 1.000000 1.000000 1.000000 1.000000 1.000000 1.000000 1.000000 1.000000 1.000000 1.000000 1.000000 1.000000 1.000000 1.000000 1.000000 1.000000 1.000000 1.000000 1.000000 1.000000 1.000000 1.000000 1.000000 1.000000 1.000000 1.000000 1.000000 1.000000 1.000000 1.000000 1.000000 1.000000 1.000000 1.000000 0.832316 0.832316 0.832316 0.832316 0.832316 0.832316 0.832316 0.815264 0.815264 0.815264 0.815264 0.815264 0.815264 0.815264 0.815264 0.815264 0.815264 0.815264 0.815264 0.815264 0.815264 0.815264 0.815264 0.815264 0.815264 0.815264 0.815264 0.815264 0.815264 0.815264 0.815264 0.815264 0.815264 0.815264 0.815264 0.815264 0.815264 0.815264 0.815264 0.815264 0.815264 0.815264 0.815264 0.815264 0.815264 0.815264 0.815264 0.815264 0.815264 0.815264 0.815264 0.952184 0.952964 0.950296 0.949333 0.947853 0.944277 0.940197 0.939679 0.940967 0.941201 0.941665 0.943780 0.944370 0.945983 0.947179 0.947993 0.949477 0.957546 0.961214 0.960793 0.961107 0.952256 0.959028 0.957953 0.955481 0.956132 0.956352 0.957001 0.956915 0.956779 0.956395 0.954899 0.955529 0.955330 0.954600 0.953595 0.951498 0.951401 0.950998 0.951152 0.952106 0.952641 0.953416 0.953942 0.953208 0.953370 0.953373 0.953282 0.948917 0.948901 0.941524 0.941800 0.942679 0.942196 0.941189 0.939675 0.939755 0.939689 0.939686 0.939609 0.940006 0.923592 0.923055 0.923298 0.922711 0.915304 0.905373 0.899116 0.894037 0.895432 0.899846 0.904423 0.904913 0.901845 0.900716 0.885263 0.881904 0.868500 0.865317 0.853645 0.863588 0.864730 0.865722 0.856699 0.856460 0.854857 0.853396 0.845664 0.850290 0.850425 0.846620 0.841888 0.840753 0.839084 0.843419 0.851670 0.852324 0.848963 0.850989 0.838138 0.830502 0.829442 0.830903 0.837488 0.849149 0.849052 0.848065 0.841981 0.838549 0.832868 0.830056 0.829407 0.830675 0.830246 0.832997 0.829914 0.840891 0.830987 0.823116 0.827553 0.834670 0.836757 0.836581 0.838622 0.836465 0.839707 0.829061 0.825284 0.826930 0.774500 0.775659 0.769568 0.768721 0.738752 0.738827 0.731580 0.732284 0.725625 0.717970 0.729472 0.732034 0.677626 0.686187 0.680190 0.663945 0.642334 0.654583 0.671530 0.681046 0.679827 0.673995 0.661319 0.658095 0.669335 0.670387 0.674745 0.664120 0.659271 0.647929 0.653403 0.635611 0.642856 0.639907 0.639628 0.640677 0.638259 0.619605 0.627282 0.618565 0.609745 0.603420 0.577427 0.537464 0.523408 0.514145 0.491659 0.476314 0.493326 0.485079 0.470133 0.459098 0.444141 0.428131 0.434967 0.433549 0.433399 0.428302 0.424176 0.377692 0.394995 0.389608 0.383607 0.371343 0.390801 0.380318 0.349353 0.325917 0.297615 0.315824 0.331403 0.325848 0.304670 0.292652 0.307303 0.272431 0.278317 0.276811 0.296239 0.248326 0.191598 0.216345 0.216811 0.219252 0.209682 0.168284 0.195830 0.170099 0.180782 0.188360 0.134574 0.101182 0.089003 0.066190 0.073439 0.100339 0.111576 0.097971 0.078513 -0.021571 0.012349 0.040201 0.040201 0.040201 0.040201 0.040201 0.040201 0.040201 0.040201 0.040201 0.040201 0.040201 -0.022983 -0.022983 -0.022983 -0.022983 -0.022983 -0.022983 -0.022983 -0.022983 -0.022983 -0.022983 -0.022983 -0.022983 -0.022983 -0.022983 -0.022983 -0.022983 -0.022983 -0.022983 -0.022983
0.000000 0.000000 0.000000 0.000000 0.000000 0.000000 0.000000 0.000000 0.000000 0.000000 0.000000 0.000000 0.000000 0.000000 0.000000 0.000000 0.000000 0.000000 0.000000 0.000000 0.000000 0.000000 0.000000 0.000000 0.000000 7.000000 4.000000 0.000000 0.000000 0.000000 0.000000 0.000000 0.000000 0.000000 0.000000 0.000000 0.000000 0.000000 0.000000 0.000000 0.000000 0.000000 0.000000 0.000000 0.000000 0.000000 0.000000 0.000000 0.000000 0.000000 0.000000 0.000000 0.173422 0.173422 0.173422 0.173422 0.173422 0.173422 0.173422 0.191565 0.191565 0.191565 0.191565 0.191565 0.191565 0.191565 0.191565 0.191565 0.191565 0.191565 0.191565 0.191565 0.191565 0.191565 0.191565 0.191565 0.191565 0.191565 0.191565 0.191565 0.191565 0.191565 0.191565 0.191565 0.191565 0.191565 0.191565 0.191565 0.191565 0.191565 0.191565 0.191565 0.191565 0.191565 0.191565 0.191565 0.191565 0.191565 0.191565 0.191565 0.191565 0.191565 0.191565 0.219529 0.219529 0.219529 0.219529 0.219529 0.219529 0.219529 0.219529 0.219529 0.219529 0.219529 0.219529 0.219529 0.219529 0.219529 0.219529 0.219529 0.219529 0.219529 0.219529 0.219529 0.219529 0.219529 0.219529 0.219529 0.219529 0.219529 0.219529 0.219529 0.219529 0.219529 0.237356 0.237356 0.237356 0.237356 0.237356 0.237356 0.237356 0.237356 0.237356 0.237356 0.237356 0.237356 0.237356 0.237356 0.237356 0.237356 0.237356 0.237356 0.237356 0.237356 0.237356 0.237356 0.237356 0.237356 0.244339 0.244339 0.244339 0.244339 0.244339 0.244339 0.244339 0.244339 0.244339 0.244339 0.244339 0.244339 0.244339 0.244339 0.244339 0.244339 0.244339 0.244339 0.244339 0.244339 0.244339 0.248069 0.248069 0.248069 0.248069 0.248069 0.248069 0.248069 0.248069 0.248069 0.248069 0.248069 0.248069 0.248069 0.248069 0.248069 0.248069 0.248069 0.248069 0.248069 0.248069 0.248069 0.248069 0.248069 0.248069 0.248069 0.248069 0.248069 0.248069 0.248069 0.248069 0.248069 0.248069 0.248069 0.248069 0.248069 0.248069 0.248069 0.256074 0.256074 0.256074 0.256074 0.256074 0.256074 0.256074 0.256074 0.256074 0.256074 0.256074 0.256074 0.256074 0.256074 0.256074 0.256074 0.256074 0.256074 0.256074 0.256074 0.256074 0.256074 0.256074 0.256074 0.256074 0.256074 0.256074 0.256074 0.256074 0.256074 0.256074 0.256074 0.256074 0.256074 0.256074 0.256074 0.256074 0.256074 0.256074 0.256074 0.256074 0.256074 0.256074 0.256074 0.256074 0.260378 0.260378 0.260378 0.260378 0.260378 0.260378 0.260378 0.260378 0.260378 0.260378 0.260378 0.260378 0.260378 0.256074 0.256074 0.256074 0.256074 0.256074 0.256074 0.256074 0.256074 0.256074 0.256074 0.256074 0.256074 0.256074 0.260378 0.260378 0.260378 0.260378 0.260378 0.260378 0.260378 0.260378 0.260378 0.260378 0.260378 0.260378 0.251976 0.251976 0.251976 0.251976 0.251976 0.251976 0.251976 0.251976 0.251976 0.251976 0.251976 0.251976 0.256074 0.256074 0.256074 0.256074 0.256074 0.256074 0.256074 0.256074 0.256074 0.256074 0.256074 0.251976 0.251976 0.251976 0.251976 0.251976 0.251976 0.251976 0.251976 0.251976 0.251976 0.251976 0.248069 0.248069 0.248069 0.248069 0.248069 0.248069 0.248069 0.248069 0.248069 0.248069 0.248069 0.256074 0.256074 0.256074 0.256074 0.256074 0.256074 0.256074 0.256074 0.256074 0.256074 0.256074 0.256074 0.256074 0.256074 0.256074 0.256074 0.256074 0.256074 0.256074
