# Output from CTFFind version 4.1.9, run on 2019-11-02 17:58:25
# Input file: stack1_bm3d_averaged_1_1.75_0_2000_half.mrc ; Number of micrographs: 1
# Pixel size: 3.000 Angstroms ; acceleration voltage: 300.0 keV ; spherical aberration: 0.00 mm ; amplitude contrast: 0.07
# Box size: 512 pixels ; min. res.: 30.0 Angstroms ; max. res.: 5.0 Angstroms ; min. def.: 5000.0 um; max. def. 50000.0 um; num. frames averaged: 1
# 6 lines per micrograph: #1 - spatial frequency (1/Angstroms); #2 - 1D rotational average of spectrum (assuming no astigmatism); #3 - 1D rotational average of spectrum; #4 - CTF fit; #5 - cross-correlation between spectrum and CTF fit; #6 - 2sigma of expected cross correlation of noise
0.000000 0.000651 0.001302 0.001953 0.002604 0.003255 0.003906 0.004557 0.005208 0.005859 0.006510 0.007161 0.007812 0.008464 0.009115 0.009766 0.010417 0.011068 0.011719 0.012370 0.013021 0.013672 0.014323 0.014974 0.015625 0.016276 0.016927 0.017578 0.018229 0.018880 0.019531 0.020182 0.020833 0.021484 0.022135 0.022786 0.023438 0.024089 0.024740 0.025391 0.026042 0.026693 0.027344 0.027995 0.028646 0.029297 0.029948 0.030599 0.031250 0.031901 0.032552 0.033203 0.033854 0.034505 0.035156 0.035807 0.036458 0.037109 0.037760 0.038411 0.039062 0.039714 0.040365 0.041016 0.041667 0.042318 0.042969 0.043620 0.044271 0.044922 0.045573 0.046224 0.046875 0.047526 0.048177 0.048828 0.049479 0.050130 0.050781 0.051432 0.052083 0.052734 0.053385 0.054036 0.054688 0.055339 0.055990 0.056641 0.057292 0.057943 0.058594 0.059245 0.059896 0.060547 0.061198 0.061849 0.062500 0.063151 0.063802 0.064453 0.065104 0.065755 0.066406 0.067057 0.067708 0.068359 0.069010 0.069661 0.070312 0.070964 0.071615 0.072266 0.072917 0.073568 0.074219 0.074870 0.075521 0.076172 0.076823 0.077474 0.078125 0.078776 0.079427 0.080078 0.080729 0.081380 0.082031 0.082682 0.083333 0.083984 0.084635 0.085286 0.085938 0.086589 0.087240 0.087891 0.088542 0.089193 0.089844 0.090495 0.091146 0.091797 0.092448 0.093099 0.093750 0.094401 0.095052 0.095703 0.096354 0.097005 0.097656 0.098307 0.098958 0.099609 0.100260 0.100911 0.101562 0.102214 0.102865 0.103516 0.104167 0.104818 0.105469 0.106120 0.106771 0.107422 0.108073 0.108724 0.109375 0.110026 0.110677 0.111328 0.111979 0.112630 0.113281 0.113932 0.114583 0.115234 0.115885 0.116536 0.117188 0.117839 0.118490 0.119141 0.119792 0.120443 0.121094 0.121745 0.122396 0.123047 0.123698 0.124349 0.125000 0.125651 0.126302 0.126953 0.127604 0.128255 0.128906 0.129557 0.130208 0.130859 0.131510 0.132161 0.132812 0.133464 0.134115 0.134766 0.135417 0.136068 0.136719 0.137370 0.138021 0.138672 0.139323 0.139974 0.140625 0.141276 0.141927 0.142578 0.143229 0.143880 0.144531 0.145182 0.145833 0.146484 0.147135 0.147786 0.148438 0.149089 0.149740 0.150391 0.151042 0.151693 0.152344 0.152995 0.153646 0.154297 0.154948 0.155599 0.156250 0.156901 0.157552 0.158203 0.158854 0.159505 0.160156 0.160807 0.161458 0.162109 0.162760 0.163411 0.164062 0.164714 0.165365 0.166016 0.166667 0.167318 0.167969 0.168620 0.169271 0.169922 0.170573 0.171224 0.171875 0.172526 0.173177 0.173828 0.174479 0.175130 0.175781 0.176432 0.177083 0.177734 0.178385 0.179036 0.179688 0.180339 0.180990 0.181641 0.182292 0.182943 0.183594 0.184245 0.184896 0.185547 0.186198 0.186849 0.187500 0.188151 0.188802 0.189453 0.190104 0.190755 0.191406 0.192057 0.192708 0.193359 0.194010 0.194661 0.195312 0.195964 0.196615 0.197266 0.197917 0.198568 0.199219 0.199870 0.200521 0.201172 0.201823 0.202474 0.203125 0.203776 0.204427 0.205078 0.205729 0.206380 0.207031 0.207682 0.208333 0.208984 0.209635 0.210286 0.210938 0.211589 0.212240 0.212891 0.213542 0.214193 0.214844 0.215495 0.216146 0.216797 0.217448 0.218099 0.218750 0.219401 0.220052 0.220703 0.221354 0.222005 0.222656 0.223307 0.223958 0.224609 0.225260 0.225911 0.226562 0.227214 0.227865 0.228516 0.229167 0.229818 0.230469 0.231120 0.231771 0.232422 0.233073 0.233724 0.234375 0.235026 0.235677
       0.33245        0.33245        0.33245        0.33245        0.33245        0.33245        0.33245        0.33245        0.33245        0.33245        0.33245        0.33245        0.33245        0.33245        0.33245        0.33245        0.33245        0.33245        0.33245        0.33245        0.33245        0.33245        0.33245        0.33245        0.33245        0.33245        0.33245        0.33245        0.33245        0.33245        0.33245        0.33245        0.33245        0.33245        0.33245        0.33245        0.33245        0.33245        0.33245        0.33245        0.33245        0.33245        0.33245        0.33245        0.33245        0.33245        0.33245        0.33245        0.33245        0.33245        0.33245        0.49941        0.71590        0.42373        0.19175       -0.07752       -0.26026       -0.06856       -0.12880       -0.06171       -0.00168       -0.14789       -0.10111       -0.04552        0.00043       -0.15260       -0.22301       -0.34032       -0.46640       -0.57019       -0.52355       -0.45670       -0.37339       -0.55586       -0.45237       -0.62231       -0.50649       -0.47470       -0.39544       -0.37971       -0.33745       -0.24432       -0.16549       -0.14217        0.02869       -0.01602        0.11680        0.17013        0.30743        0.41441        0.46625        0.49737        0.54184        0.55007        0.69472        0.64586        0.67998        0.58760        0.55668        0.65116        0.52560        0.43283        0.39356        0.31356        0.23344        0.26387        0.25294        0.09995        0.08373       -0.00038       -0.00940        0.03181       -0.01048        0.06992        0.08824        0.22801        0.28326        0.30123        0.39106        0.56498        0.54138        0.57531        0.66825        0.69021        0.62866        0.63846        0.63701        0.54234        0.56891        0.39215        0.35172        0.26502        0.18545        0.07521        0.14302        0.11411        0.10061        0.11403        0.20439        0.19746        0.31308        0.35201        0.41135        0.49177        0.56899        0.54598        0.55708        0.60610        0.53854        0.46599        0.48111        0.32287        0.24938        0.25409        0.24446        0.14180        0.14472        0.15178        0.22384        0.25401        0.33361        0.37487        0.39775        0.45968        0.44693        0.47616        0.44360        0.47411        0.44491        0.39765        0.37031        0.36452        0.32415        0.28857        0.20831        0.20963        0.22665        0.26974        0.25991        0.34437        0.37579        0.35340        0.41039        0.45675        0.44667        0.42607        0.43802        0.35701        0.33346        0.28198        0.25770        0.28833        0.26141        0.29244        0.30140        0.34427        0.33202        0.40269        0.39441        0.42421        0.40686        0.43973        0.40642        0.36936        0.28276        0.28832        0.29625        0.27769        0.26049        0.33468        0.36772        0.33436        0.35964        0.36803        0.34806        0.40684        0.39886        0.36191        0.34311        0.30765        0.31179        0.31810        0.30781        0.30221        0.28780        0.33821        0.35707        0.37236        0.33766        0.33137        0.33313        0.35109        0.31018        0.28257        0.30894        0.32122        0.32747        0.32344        0.33481        0.35586        0.33245        0.32083        0.33710        0.30253        0.25886        0.24794        0.26558        0.30314        0.32130        0.35616        0.29654        0.30586        0.32938        0.29350        0.32309        0.29740        0.27964        0.28459        0.29163        0.30459        0.34508        0.31592        0.32570        0.32333        0.33164        0.33701        0.31594        0.32161        0.32168        0.27232        0.29315        0.30973        0.28510        0.32251        0.32584        0.33617        0.31719        0.35038        0.33347        0.28052        0.24121        0.27258        0.33423        0.36046        0.35257        0.31840        0.29401        0.29977        0.31601        0.25543        0.28869        0.29965        0.31795        0.29294        0.29611        0.26710        0.33173        0.33719        0.33671        0.31812        0.29962        0.30483        0.39134        0.34004        0.32203        0.30991        0.30829        0.28846        0.29637        0.29184        0.29648        0.22903        0.27060        0.30035        0.31323        0.29858        0.27723        0.28070        0.23473        0.23211        0.27893        0.31575        0.30334        0.31283        0.29073        0.33375        0.24902        0.22138        0.28960        0.24857        0.27207        0.27766        0.35400        0.26852        0.29181        0.27450        0.22949        0.26269        0.25840        0.23092        0.17104        0.22347        0.23114        0.24578        0.30367        0.27505        0.33760        0.31594        0.28059        0.26960        0.21498        0.25079        0.26555        0.21676        0.15307        0.20948        0.24143        0.20540        0.30517        0.25612        0.06393       -0.41654       -0.92380
2.688382 2.660002 2.631776 2.603702 2.575782 2.548014 2.520399 2.492936 2.465627 2.438470 2.411466 2.384615 2.357917 2.331371 2.304979 2.278739 2.252652 2.226718 2.200936 2.175308 2.149832 2.124509 2.099339 2.074321 2.049457 2.024745 2.000186 1.975780 1.951527 1.927426 1.903479 1.879684 1.856042 1.832553 1.809216 1.786033 1.763002 1.740124 1.717399 1.694827 1.672407 1.650140 1.628026 1.606065 1.584257 1.562601 1.541099 1.519749 1.498552 1.477508 1.456616 1.523361 1.828949 1.508853 1.195948 0.941589 0.542686 0.911384 0.640175 0.861764 0.922542 0.592806 0.695043 0.785037 0.826512 0.621613 0.533953 0.354916 0.097469 0.065336 0.037691 0.063813 0.298342 -0.042198 0.071533 -0.134575 -0.024323 -0.015179 0.068705 0.069510 0.102644 0.181052 0.279864 0.244882 0.476952 0.396018 0.545657 0.531689 0.774376 0.791439 0.882604 0.932950 0.935736 0.954569 1.122764 0.945203 1.147829 0.946810 0.855340 1.018039 0.848726 0.764974 0.636370 0.589945 0.461706 0.423175 0.510611 0.263388 0.203069 0.163176 0.009934 0.203242 -0.008645 0.120912 0.170289 0.254869 0.340590 0.348734 0.441106 0.548943 0.678155 0.539852 0.742958 0.857301 0.637073 0.709334 0.680099 0.586037 0.539761 0.461139 0.312183 0.217140 0.125104 -0.033137 -0.012700 0.051256 -0.078675 -0.052961 0.062241 0.044782 0.106698 0.218589 0.242566 0.317616 0.439945 0.449662 0.450463 0.466077 0.462354 0.336404 0.339003 0.249716 0.052038 0.065814 0.020783 -0.037510 -0.097358 -0.086102 -0.016237 -0.032707 0.087362 0.136234 0.140077 0.262630 0.230192 0.244558 0.280925 0.242786 0.242468 0.218203 0.149884 0.120461 0.120741 0.029739 0.016899 -0.108279 -0.037240 0.009411 -0.001724 0.019059 0.105522 0.079961 0.126236 0.211402 0.273965 0.173927 0.200532 0.112972 0.139277 0.029283 -0.033101 0.022604 -0.014584 0.010906 0.000124 0.044830 0.076849 0.066053 0.166403 0.104992 0.183338 0.091095 0.174579 0.109065 0.015302 -0.040019 -0.010183 -0.019623 -0.049334 -0.046670 0.086172 0.070651 -0.001043 0.108416 0.089215 0.074390 0.158966 0.087117 0.090968 0.069835 -0.005052 0.048145 0.013450 0.023064 0.025268 0.016582 0.064169 0.075475 0.081853 0.050363 0.057668 0.031781 0.083922 0.002805 -0.002885 0.036113 0.032429 0.062208 0.051842 0.068548 0.062846 0.060245 0.031059 0.047078 0.000823 -0.048382 -0.034278 -0.015080 0.021537 0.038862 0.113309 -0.011206 0.057187 0.047511 0.004613 0.071870 0.025708 0.002207 0.029549 0.043666 0.038111 0.091978 0.037173 0.073657 0.074423 0.094974 0.067423 0.080059 0.093857 0.052378 -0.007633 0.063159 0.047903 0.038439 0.088102 0.081654 0.040468 0.066280 0.102649 0.035722 0.016893 -0.066569 0.002537 0.118863 0.096233 0.082556 0.044854 0.006436 0.060898 0.042757 -0.048529 0.048549 0.037796 0.063204 0.048275 -0.011766 -0.005510 0.083233 0.039768 0.031552 0.044289 -0.033407 0.063673 0.117403 0.031824 0.007189 0.009773 0.022280 -0.036986 -0.018272 -0.019089 -0.036754 -0.102810 -0.034764 -0.023118 0.011326 -0.032808 -0.066622 0.016242 -0.078110 -0.033644 -0.065569 0.061439 0.013695 0.038765 0.000190 0.059517 -0.051671 -0.059581 0.019164 -0.051779 0.014260 -0.010404 0.134461 -0.069289 0.024123 0.017181 -0.059996 -0.002423 -0.009678 -0.038861 -0.155334 -0.028257 -0.035846 -0.021835 0.021214 -0.003792 0.126135 0.057630 0.033301 0.011932 -0.041162 -0.018798 -0.009706 0.262211 0.185912 0.259237 0.250991 0.285509 0.326111 0.267663 0.077832 -1.086480
0.072396 0.072910 0.074453 0.077023 0.080621 0.085246 0.090895 0.097568 0.105262 0.113974 0.123701 0.134437 0.146179 0.158917 0.172645 0.187353 0.203029 0.219659 0.237227 0.255715 0.275101 0.295362 0.316468 0.338390 0.361092 0.384533 0.408671 0.433455 0.458832 0.484743 0.511121 0.537896 0.564991 0.592320 0.619793 0.647314 0.674777 0.702070 0.729075 0.755665 0.781708 0.807064 0.831586 0.855120 0.877507 0.898581 0.918173 0.936107 0.952205 0.966285 0.978163 0.987655 0.994578 0.998748 0.999987 0.998121 0.992981 0.984410 0.972257 0.956387 0.936676 0.913021 0.885334 0.853551 0.817631 0.777558 0.733346 0.685039 0.632714 0.576483 0.516494 0.452933 0.386030 0.316050 0.243305 0.168147 0.090970 0.012210 0.067654 0.148106 0.228592 0.308524 0.387282 0.464220 0.538670 0.609945 0.677352 0.740191 0.797767 0.849397 0.894419 0.932203 0.962156 0.983735 0.996458 0.999912 0.993765 0.977772 0.951789 0.915780 0.869823 0.814119 0.748996 0.674916 0.592472 0.502394 0.405546 0.302921 0.195635 0.084920 0.027888 0.141362 0.253999 0.364243 0.470501 0.571168 0.664653 0.749404 0.823937 0.886867 0.936931 0.973025 0.994227 0.999823 0.989337 0.962549 0.919513 0.860574 0.786377 0.697867 0.596295 0.483202 0.360412 0.230001 0.094276 0.044262 0.182964 0.319078 0.449802 0.572344 0.683984 0.782138 0.864424 0.928720 0.973237 0.996568 0.997745 0.976282 0.932208 0.866095 0.779067 0.672798 0.549496 0.411871 0.263087 0.106701 0.053418 0.213175 0.368349 0.514714 0.648146 0.764748 0.860976 0.933751 0.980571 0.999613 0.989816 0.950941 0.883622 0.789374 0.670591 0.530499 0.373094 0.203043 0.025552 0.153773 0.329106 0.494587 0.644518 0.773571 0.876986 0.950761 0.991825 0.998187 0.969047 0.904877 0.807444 0.679801 0.526217 0.352059 0.163623 0.032072 0.227537 0.415097 0.587188 0.736679 0.857165 0.943277 0.990932 0.997557 0.962252 0.885890 0.771138 0.622407 0.445712 0.248465 0.039177 0.172876 0.378078 0.566885 0.730294 0.860277 0.950209 0.995225 0.992519 0.941555 0.844161 0.704522 0.529039 0.326082 0.105614 0.121263 0.342868 0.547525 0.724199 0.863097 0.956250 0.997995 0.985371 0.918359 0.799977 0.636207 0.435735 0.209541 0.029670 0.268162 0.491948 0.687615 0.843145 0.948682 0.997205 0.985037 0.912174 0.782393 0.603121 0.385071 0.141652 0.111820 0.359070 0.583894 0.771246 0.908259 0.985184 0.996129 0.939570 0.818581 0.640746 0.417756 0.164691 0.100943 0.360407 0.595047 0.787645 0.923712 0.992638 0.988572 0.910997 0.764899 0.560544 0.312831 0.040261 0.236404 0.495688 0.717092 0.882734 0.978839 0.996960 0.934794 0.796525 0.592650 0.339259 0.056853 0.231279 0.500951 0.729121 0.895879 0.986256 0.991634 0.910663 0.749558 0.521721 0.246736 0.051254 0.345617 0.609590 0.818748 0.953287 0.999999 0.953649 0.817657 0.603984 0.332189 0.027718 0.280396 0.562303 0.790217 0.941208 0.999592 0.958662 0.821561 0.601195 0.319135 0.003603 0.313275 0.598728 0.822742 0.961265 0.998890 0.930683 0.762937 0.512750 0.206396 0.123318 0.440528 0.710192 0.902004 0.993872 0.974588 0.845322 0.619752 0.322767 0.012150 0.346638 0.641808 0.862783 0.982914 0.987092 0.873801 0.655573 0.357780 0.015802 0.329065 0.634576 0.862726 0.984561 0.983971 0.859982 0.627185 0.314187 0.039757 0.389566 0.690072 0.901857 0.996536 0.960705 0.798009 0.528981 0.188648 0.177908 0.521437 0.795145 0.961107 0.995683
1.000000 1.000000 1.000000 1.000000 1.000000 1.000000 1.000000 1.000000 1.000000 1.000000 1.000000 1.000000 1.000000 1.000000 1.000000 1.000000 1.000000 1.000000 1.000000 1.000000 1.000000 1.000000 1.000000 1.000000 1.000000 1.000000 1.000000 1.000000 1.000000 1.000000 1.000000 1.000000 1.000000 1.000000 1.000000 1.000000 1.000000 1.000000 1.000000 1.000000 1.000000 1.000000 1.000000 1.000000 1.000000 1.000000 1.000000 1.000000 1.000000 1.000000 1.000000 1.000000 0.916251 0.916251 0.904904 0.904904 0.904904 0.904904 0.904904 0.904904 0.904904 0.904904 0.904904 0.904904 0.904904 0.904904 0.904904 0.904904 0.904904 0.904904 0.904904 0.904904 0.904904 0.904904 0.904904 0.904904 0.904904 0.904904 0.904904 0.904904 0.904904 0.904904 0.904904 0.904904 0.904904 0.904904 0.904904 0.904904 0.904904 0.904904 0.904904 0.904904 0.904904 0.904904 0.904904 0.902782 0.907683 0.909828 0.908353 0.911833 0.911884 0.909790 0.909279 0.908951 0.909301 0.910702 0.921173 0.932148 0.943124 0.943657 0.948853 0.953058 0.955544 0.956318 0.957912 0.968060 0.965416 0.964961 0.965661 0.967118 0.969225 0.968040 0.967500 0.970005 0.970673 0.969142 0.966767 0.966112 0.965474 0.965563 0.965203 0.965082 0.964949 0.965477 0.965714 0.965361 0.965512 0.965572 0.964223 0.963911 0.966531 0.967787 0.967694 0.966475 0.961040 0.964483 0.965104 0.964581 0.964598 0.964290 0.964613 0.948478 0.945147 0.945066 0.940186 0.939077 0.935784 0.934346 0.933335 0.934336 0.934013 0.934598 0.931616 0.918668 0.905510 0.891151 0.912313 0.900810 0.886221 0.863304 0.864143 0.857109 0.857593 0.851169 0.843296 0.838531 0.835840 0.838078 0.839493 0.844188 0.841025 0.826581 0.830552 0.825902 0.791320 0.779718 0.767810 0.763930 0.761102 0.762257 0.759595 0.753843 0.762514 0.752993 0.751095 0.740650 0.721593 0.691205 0.680197 0.690999 0.699262 0.706923 0.703062 0.687708 0.640213 0.653745 0.681382 0.675062 0.675615 0.670894 0.664903 0.673916 0.671049 0.667812 0.662971 0.662434 0.661977 0.670468 0.676059 0.666873 0.660809 0.649288 0.639197 0.620188 0.632664 0.634836 0.607408 0.600998 0.596087 0.590147 0.586627 0.571768 0.573324 0.551839 0.535426 0.533891 0.535136 0.539192 0.548003 0.547044 0.525481 0.546990 0.538673 0.570627 0.539913 0.537057 0.538180 0.548789 0.530248 0.523424 0.515884 0.516792 0.527755 0.557002 0.588299 0.579665 0.569124 0.562020 0.572961 0.557140 0.566626 0.596072 0.574458 0.509954 0.467534 0.464506 0.431428 0.420612 0.407403 0.389188 0.399617 0.386934 0.379625 0.366263 0.354621 0.309899 0.275566 0.257072 0.236693 0.251453 0.269892 0.264782 0.272105 0.319226 0.361913 0.367341 0.359768 0.318366 0.309999 0.268071 0.265940 0.288264 0.248906 0.253818 0.248732 0.227077 0.210649 0.172123 0.211472 0.123167 0.115369 0.116476 0.142052 0.135403 0.137757 0.136282 0.099939 0.116388 0.112877 0.084291 0.070054 0.083956 0.066031 0.044194 0.050463 0.056275 0.038727 0.009534 0.010416 -0.001104 0.000768 -0.013951 -0.011032 0.029083 0.058023 0.047957 0.050923 0.040282 0.043520 0.028474 0.019882 -0.002225 -0.013236 -0.059143 -0.085458 -0.085458 -0.075138 -0.075138 -0.075138 -0.075138 -0.075138 -0.075138 -0.075138 -0.075138 -0.075138 -0.076687 -0.076687 -0.076687 -0.076687 -0.076687 -0.076687 -0.076687 -0.076687 -0.076687 -0.058560 -0.058560 -0.058560 -0.058560 -0.058560 -0.058560 -0.058560 -0.058560 -0.058560
0.000000 0.000000 0.000000 0.000000 0.000000 0.000000 0.000000 0.000000 0.000000 0.000000 0.000000 0.000000 0.000000 0.000000 0.000000 0.000000 0.000000 0.000000 0.000000 0.000000 0.000000 0.000000 0.000000 0.000000 0.000000 0.000000 0.000000 0.000000 0.000000 0.000000 0.000000 0.000000 0.000000 0.000000 0.000000 0.000000 0.000000 0.000000 0.000000 0.000000 0.000000 0.000000 0.000000 0.000000 0.000000 0.000000 0.000000 0.000000 0.000000 0.000000 0.000000 0.000000 0.181818 0.181818 0.199007 0.199007 0.199007 0.199007 0.199007 0.199007 0.199007 0.199007 0.199007 0.199007 0.199007 0.199007 0.199007 0.199007 0.199007 0.199007 0.199007 0.199007 0.199007 0.199007 0.199007 0.199007 0.199007 0.199007 0.199007 0.199007 0.199007 0.199007 0.199007 0.199007 0.199007 0.199007 0.199007 0.199007 0.199007 0.199007 0.199007 0.199007 0.199007 0.199007 0.199007 0.230940 0.230940 0.230940 0.230940 0.230940 0.230940 0.230940 0.230940 0.230940 0.230940 0.230940 0.230940 0.230940 0.230940 0.230940 0.230940 0.230940 0.230940 0.230940 0.230940 0.230940 0.230940 0.230940 0.230940 0.230940 0.230940 0.230940 0.230940 0.244339 0.244339 0.244339 0.244339 0.244339 0.244339 0.244339 0.244339 0.244339 0.244339 0.244339 0.244339 0.244339 0.244339 0.244339 0.244339 0.244339 0.244339 0.244339 0.244339 0.244339 0.244339 0.244339 0.251976 0.251976 0.251976 0.251976 0.251976 0.251976 0.251976 0.251976 0.251976 0.251976 0.251976 0.251976 0.251976 0.251976 0.251976 0.251976 0.251976 0.251976 0.251976 0.251976 0.264906 0.264906 0.264906 0.264906 0.264906 0.264906 0.264906 0.264906 0.264906 0.264906 0.264906 0.264906 0.264906 0.264906 0.264906 0.264906 0.264906 0.264906 0.264906 0.264906 0.264906 0.264906 0.264906 0.264906 0.264906 0.264906 0.264906 0.264906 0.264906 0.264906 0.264906 0.264906 0.264906 0.264906 0.264906 0.264906 0.264906 0.264906 0.264906 0.264906 0.264906 0.264906 0.264906 0.264906 0.264906 0.264906 0.264906 0.264906 0.264906 0.264906 0.264906 0.264906 0.264906 0.264906 0.264906 0.264906 0.264906 0.264906 0.264906 0.264906 0.264906 0.264906 0.264906 0.264906 0.264906 0.264906 0.264906 0.264906 0.264906 0.264906 0.264906 0.264906 0.264906 0.264906 0.264906 0.269680 0.269680 0.269680 0.269680 0.269680 0.269680 0.269680 0.269680 0.269680 0.269680 0.269680 0.269680 0.264906 0.264906 0.264906 0.264906 0.264906 0.264906 0.264906 0.264906 0.264906 0.264906 0.264906 0.264906 0.269680 0.269680 0.269680 0.269680 0.269680 0.269680 0.269680 0.269680 0.269680 0.269680 0.269680 0.264906 0.264906 0.264906 0.264906 0.264906 0.264906 0.264906 0.264906 0.264906 0.264906 0.264906 0.256074 0.256074 0.256074 0.256074 0.256074 0.256074 0.256074 0.256074 0.256074 0.256074 0.256074 0.264906 0.264906 0.264906 0.264906 0.264906 0.264906 0.264906 0.264906 0.264906 0.264906 0.269680 0.269680 0.269680 0.269680 0.269680 0.269680 0.269680 0.269680 0.269680 0.256074 0.256074 0.256074 0.256074 0.256074 0.256074 0.256074 0.256074 0.256074 0.256074 0.260378 0.260378 0.260378 0.260378 0.260378 0.260378 0.260378 0.260378 0.260378 0.256074 0.256074 0.256074 0.256074 0.256074 0.256074 0.256074 0.256074 0.256074 0.251976 0.251976 0.251976 0.251976 0.251976 0.251976 0.251976 0.251976 0.251976 0.264906 0.264906 0.264906 0.264906 0.264906 0.264906 0.264906 0.264906 0.264906
