# Output from CTFFind version 4.1.9, run on 2019-11-02 17:48:48
# Input file: stack16_bm3d_averaged_1_1.0_0_2000_half.mrc ; Number of micrographs: 1
# Pixel size: 3.000 Angstroms ; acceleration voltage: 300.0 keV ; spherical aberration: 0.00 mm ; amplitude contrast: 0.07
# Box size: 512 pixels ; min. res.: 30.0 Angstroms ; max. res.: 5.0 Angstroms ; min. def.: 5000.0 um; max. def. 50000.0 um; num. frames averaged: 1
# 6 lines per micrograph: #1 - spatial frequency (1/Angstroms); #2 - 1D rotational average of spectrum (assuming no astigmatism); #3 - 1D rotational average of spectrum; #4 - CTF fit; #5 - cross-correlation between spectrum and CTF fit; #6 - 2sigma of expected cross correlation of noise
0.000000 0.000651 0.001302 0.001953 0.002604 0.003255 0.003906 0.004557 0.005208 0.005859 0.006510 0.007161 0.007812 0.008464 0.009115 0.009766 0.010417 0.011068 0.011719 0.012370 0.013021 0.013672 0.014323 0.014974 0.015625 0.016276 0.016927 0.017578 0.018229 0.018880 0.019531 0.020182 0.020833 0.021484 0.022135 0.022786 0.023438 0.024089 0.024740 0.025391 0.026042 0.026693 0.027344 0.027995 0.028646 0.029297 0.029948 0.030599 0.031250 0.031901 0.032552 0.033203 0.033854 0.034505 0.035156 0.035807 0.036458 0.037109 0.037760 0.038411 0.039062 0.039714 0.040365 0.041016 0.041667 0.042318 0.042969 0.043620 0.044271 0.044922 0.045573 0.046224 0.046875 0.047526 0.048177 0.048828 0.049479 0.050130 0.050781 0.051432 0.052083 0.052734 0.053385 0.054036 0.054688 0.055339 0.055990 0.056641 0.057292 0.057943 0.058594 0.059245 0.059896 0.060547 0.061198 0.061849 0.062500 0.063151 0.063802 0.064453 0.065104 0.065755 0.066406 0.067057 0.067708 0.068359 0.069010 0.069661 0.070312 0.070964 0.071615 0.072266 0.072917 0.073568 0.074219 0.074870 0.075521 0.076172 0.076823 0.077474 0.078125 0.078776 0.079427 0.080078 0.080729 0.081380 0.082031 0.082682 0.083333 0.083984 0.084635 0.085286 0.085938 0.086589 0.087240 0.087891 0.088542 0.089193 0.089844 0.090495 0.091146 0.091797 0.092448 0.093099 0.093750 0.094401 0.095052 0.095703 0.096354 0.097005 0.097656 0.098307 0.098958 0.099609 0.100260 0.100911 0.101562 0.102214 0.102865 0.103516 0.104167 0.104818 0.105469 0.106120 0.106771 0.107422 0.108073 0.108724 0.109375 0.110026 0.110677 0.111328 0.111979 0.112630 0.113281 0.113932 0.114583 0.115234 0.115885 0.116536 0.117188 0.117839 0.118490 0.119141 0.119792 0.120443 0.121094 0.121745 0.122396 0.123047 0.123698 0.124349 0.125000 0.125651 0.126302 0.126953 0.127604 0.128255 0.128906 0.129557 0.130208 0.130859 0.131510 0.132161 0.132812 0.133464 0.134115 0.134766 0.135417 0.136068 0.136719 0.137370 0.138021 0.138672 0.139323 0.139974 0.140625 0.141276 0.141927 0.142578 0.143229 0.143880 0.144531 0.145182 0.145833 0.146484 0.147135 0.147786 0.148438 0.149089 0.149740 0.150391 0.151042 0.151693 0.152344 0.152995 0.153646 0.154297 0.154948 0.155599 0.156250 0.156901 0.157552 0.158203 0.158854 0.159505 0.160156 0.160807 0.161458 0.162109 0.162760 0.163411 0.164062 0.164714 0.165365 0.166016 0.166667 0.167318 0.167969 0.168620 0.169271 0.169922 0.170573 0.171224 0.171875 0.172526 0.173177 0.173828 0.174479 0.175130 0.175781 0.176432 0.177083 0.177734 0.178385 0.179036 0.179688 0.180339 0.180990 0.181641 0.182292 0.182943 0.183594 0.184245 0.184896 0.185547 0.186198 0.186849 0.187500 0.188151 0.188802 0.189453 0.190104 0.190755 0.191406 0.192057 0.192708 0.193359 0.194010 0.194661 0.195312 0.195964 0.196615 0.197266 0.197917 0.198568 0.199219 0.199870 0.200521 0.201172 0.201823 0.202474 0.203125 0.203776 0.204427 0.205078 0.205729 0.206380 0.207031 0.207682 0.208333 0.208984 0.209635 0.210286 0.210938 0.211589 0.212240 0.212891 0.213542 0.214193 0.214844 0.215495 0.216146 0.216797 0.217448 0.218099 0.218750 0.219401 0.220052 0.220703 0.221354 0.222005 0.222656 0.223307 0.223958 0.224609 0.225260 0.225911 0.226562 0.227214 0.227865 0.228516 0.229167 0.229818 0.230469 0.231120 0.231771 0.232422 0.233073 0.233724 0.234375 0.235026 0.235677
       0.34351        0.34351        0.34351        0.34351        0.34351        0.34351        0.34351        0.34351        0.34351        0.34351        0.34351        0.34351        0.34351        0.34351        0.34351        0.34351        0.34351        0.34351        0.34351        0.34351        0.34351        0.34351        0.34351        0.34351        0.34351        0.34351        0.34351        0.34351        0.34351        0.34351        0.34351        0.34351        0.34351        0.34351        0.34351        0.34351        0.34351        0.34351        0.34351        0.34351        0.34351        0.34351        0.34351        0.34351        0.34351        0.34351        0.34351        0.34351        0.34351        0.34351        0.34351        0.48959        0.70359        0.45631       -0.10930       -0.41396       -0.57095       -0.66019       -0.74500       -0.76106       -0.86941       -0.91396       -0.76073       -0.92509       -0.87180       -1.02499       -1.09564       -0.98903       -0.96107       -0.88386       -0.86108       -0.75055       -0.64136       -0.49989       -0.42254       -0.21859       -0.11865       -0.02413        0.20292        0.24359        0.30940        0.38606        0.43900        0.51668        0.58167        0.59778        0.59271        0.50186        0.54708        0.48566        0.39167        0.32638        0.20776        0.17384        0.10160       -0.06204       -0.11324       -0.09158        0.01022       -0.01763        0.01062        0.02925        0.20968        0.21893        0.39004        0.45796        0.56274        0.70301        0.76313        0.72955        0.70828        0.70572        0.58587        0.54366        0.40035        0.27500        0.19501        0.14466        0.06679        0.02389        0.02384        0.06185        0.07992        0.27471        0.41824        0.50450        0.58758        0.63929        0.70607        0.66092        0.65200        0.67296        0.61055        0.48093        0.28449        0.23438        0.20468        0.13075        0.04724        0.09322        0.12019        0.25049        0.34159        0.41551        0.50266        0.54129        0.66325        0.60965        0.55495        0.50799        0.36482        0.20838        0.21063        0.15360        0.11575        0.11982        0.21358        0.25544        0.36269        0.44440        0.43982        0.56639        0.51285        0.44812        0.45421        0.38473        0.32364        0.27671        0.21797        0.23641        0.21175        0.21151        0.32462        0.45051        0.48902        0.48121        0.55200        0.49703        0.45671        0.39718        0.29319        0.22519        0.23325        0.24591        0.26701        0.27109        0.32627        0.44268        0.49905        0.48799        0.45872        0.41931        0.38820        0.36259        0.25058        0.22910        0.24818        0.29457        0.35450        0.36454        0.39463        0.40878        0.44463        0.37234        0.34787        0.31412        0.30576        0.26692        0.25961        0.31253        0.34743        0.41671        0.41823        0.39815        0.39436        0.40690        0.34914        0.28702        0.29209        0.27697        0.31079        0.36012        0.36630        0.41550        0.36107        0.36605        0.38946        0.34464        0.31376        0.28204        0.29488        0.33967        0.33209        0.32574        0.37619        0.39587        0.33609        0.35315        0.29697        0.30865        0.28992        0.28146        0.30218        0.33065        0.38388        0.36724        0.34878        0.32986        0.28732        0.27741        0.29793        0.28321        0.31437        0.37049        0.39510        0.33731        0.31770        0.31247        0.29867        0.28554        0.27893        0.29959        0.34160        0.33572        0.34605        0.31975        0.34666        0.32366        0.28930        0.31385        0.32146        0.33277        0.33483        0.31811        0.31515        0.30602        0.33112        0.31680        0.33803        0.39197        0.33903        0.36145        0.32115        0.31239        0.28865        0.31108        0.28987        0.31062        0.31996        0.35334        0.36461        0.31512        0.31987        0.31275        0.29719        0.29387        0.28931        0.33384        0.34034        0.35857        0.33942        0.32523        0.25893        0.26761        0.31263        0.35259        0.31597        0.29840        0.28652        0.28957        0.32640        0.30810        0.30471        0.33341        0.34265        0.31611        0.24516        0.28703        0.28616        0.28772        0.31996        0.32446        0.34961        0.34137        0.28103        0.26700        0.29466        0.26585        0.29082        0.27490        0.24711        0.26489        0.24987        0.27751        0.28085        0.27633        0.26852        0.31569        0.32825        0.31629        0.29161        0.30694        0.24567        0.27376        0.25612        0.33171        0.34499        0.23325        0.25914        0.28187        0.24905        0.24654        0.30203        0.23125        0.14129        0.17052        0.24170        0.27295        0.23191        0.14787        0.03431       -0.40508       -0.75828
3.048590 3.010700 2.973053 2.935649 2.898489 2.861572 2.824898 2.788468 2.752282 2.716338 2.680639 2.645182 2.609969 2.575000 2.540274 2.505791 2.471552 2.437556 2.403804 2.370295 2.337030 2.304008 2.271229 2.238694 2.206402 2.174354 2.142549 2.110988 2.079670 2.048595 2.017764 1.987176 1.956832 1.926731 1.896873 1.867259 1.837889 1.808762 1.779878 1.751238 1.722841 1.694687 1.666777 1.639111 1.611688 1.584508 1.557572 1.530879 1.504429 1.478223 1.452261 1.508766 1.697477 1.609551 0.966412 0.680496 0.476438 0.432174 0.321047 0.265883 0.200274 0.022281 0.196287 0.081577 -0.005818 -0.059079 -0.196031 -0.150239 -0.089391 -0.091272 -0.096145 0.010754 0.032323 0.232829 0.150975 0.364309 0.444432 0.474860 0.713573 0.698284 0.708023 0.836822 0.819953 0.851158 0.920846 0.892030 0.937814 0.750302 0.834516 0.838061 0.619584 0.608088 0.456955 0.437404 0.384235 0.208340 0.118732 0.100119 0.205993 0.144977 0.193214 0.111361 0.311815 0.287034 0.455808 0.414469 0.579203 0.643893 0.764987 0.702609 0.653402 0.668768 0.532501 0.503732 0.368410 0.293624 0.118302 0.146644 0.001198 -0.011959 -0.037914 -0.028750 -0.000859 0.035618 0.274626 0.330101 0.385237 0.394139 0.468107 0.519727 0.467271 0.505028 0.399344 0.388706 0.154167 0.066463 0.071932 -0.001813 -0.122602 -0.042043 -0.111184 0.016555 0.136321 0.155879 0.252943 0.257433 0.382893 0.460262 0.353567 0.387141 0.282044 0.125680 0.047803 0.051655 0.014520 0.002778 0.005298 0.107596 0.130738 0.265236 0.236750 0.304064 0.369855 0.239142 0.242956 0.218804 0.131598 0.081348 0.052880 0.025077 0.039892 -0.013687 0.029055 0.185389 0.218883 0.253967 0.279706 0.231646 0.238352 0.149297 0.105776 -0.023772 -0.014711 -0.006510 0.017728 0.007337 0.027872 0.105250 0.186319 0.202603 0.217858 0.138121 0.146358 0.079700 0.057062 -0.056982 -0.013222 -0.006018 0.054078 0.065660 0.079554 0.155268 0.087455 0.163672 0.068093 0.052698 0.045651 0.027885 0.001939 0.010147 0.055460 0.084477 0.132523 0.140871 0.069354 0.129992 0.098738 0.016357 0.007475 0.005182 -0.004929 0.057028 0.059711 0.097922 0.098100 0.068229 0.068875 0.080782 0.032098 0.011739 -0.010337 0.009908 0.059877 0.025842 0.038503 0.078700 0.085759 0.055362 0.033035 0.007178 0.014277 -0.005864 -0.014099 0.014443 0.051391 0.100870 0.061648 0.059046 0.039636 -0.013622 -0.001092 0.014210 0.010322 0.026302 0.104716 0.060540 0.020535 0.043370 0.002853 0.025446 -0.010596 -0.005614 0.022514 0.063759 0.030359 0.045171 0.029872 0.051877 0.024551 -0.005712 0.025063 0.041452 0.037204 0.034086 0.022285 0.002072 -0.006546 0.028656 0.011573 0.045674 0.078226 0.045487 0.024970 0.016747 -0.000899 -0.004076 0.008466 0.001968 0.013494 -0.000637 0.083363 0.057209 0.032672 0.042225 0.001664 0.014159 0.011410 -0.003658 0.050726 0.068122 0.089200 0.054950 0.052705 -0.023285 0.017882 0.037720 0.074588 0.040995 0.036840 0.010131 0.005371 0.056597 0.048790 0.035800 0.060227 0.075304 0.060481 -0.020364 0.017619 0.046646 0.023221 0.041384 0.079347 0.079823 0.068888 0.015693 0.004515 0.015434 -0.003165 0.020267 -0.017790 -0.028863 -0.013658 -0.045302 -0.003940 -0.006907 0.004272 -0.072440 0.000346 0.013865 0.000217 -0.034699 0.026596 -0.094227 -0.019339 -0.042321 0.029209 0.065858 -0.104389 -0.016801 0.042040 0.012878 -0.040415 0.046132 0.030471 -0.007334 -0.041776 0.066717 0.236016 0.206594 0.109082 0.032870 -0.663539
0.072396 0.073046 0.074995 0.078243 0.082788 0.088630 0.095766 0.104192 0.113906 0.124902 0.137173 0.150711 0.165507 0.181546 0.198815 0.217294 0.236961 0.257791 0.279753 0.302812 0.326926 0.352049 0.378128 0.405101 0.432901 0.461452 0.490668 0.520455 0.550710 0.581319 0.612157 0.643090 0.673970 0.704639 0.734930 0.764661 0.793641 0.821666 0.848523 0.873989 0.897831 0.919807 0.939668 0.957162 0.972027 0.984004 0.992830 0.998246 0.999996 0.997833 0.991517 0.980825 0.965550 0.945505 0.920530 0.890491 0.855290 0.814864 0.769191 0.718297 0.662257 0.601197 0.535303 0.464821 0.390059 0.311390 0.229255 0.144162 0.056687 0.032529 0.122779 0.213296 0.303257 0.391786 0.477967 0.560847 0.639449 0.712782 0.779856 0.839692 0.891344 0.933906 0.966539 0.988482 0.999070 0.997758 0.984134 0.957935 0.919069 0.867622 0.803877 0.728321 0.641651 0.544780 0.438834 0.325152 0.205271 0.080918 0.046015 0.173489 0.299353 0.421375 0.537281 0.644801 0.741711 0.825888 0.895359 0.948352 0.983352 0.999145 0.994872 0.970067 0.924693 0.859170 0.774397 0.671754 0.553102 0.420766 0.277503 0.126454 0.028904 0.184844 0.337464 0.482786 0.616860 0.735879 0.836292 0.914919 0.969070 0.996645 0.996235 0.967200 0.909728 0.824878 0.714594 0.581683 0.429778 0.263255 0.087128 0.093084 0.271529 0.442195 0.599128 0.736636 0.849510 0.933241 0.984220 0.999916 0.979024 0.921579 0.829011 0.704163 0.551238 0.375696 0.184089 0.016160 0.217028 0.410207 0.587442 0.740902 0.863533 0.949411 0.994064 0.994730 0.950565 0.862766 0.734600 0.571338 0.380089 0.169523 0.050483 0.269292 0.476011 0.660039 0.811627 0.922419 0.985949 0.998070 0.957263 0.864828 0.724927 0.544462 0.332792 0.101299 0.137183 0.369073 0.580798 0.759607 0.894366 0.976293 0.999587 0.961897 0.864594 0.712830 0.515340 0.284016 0.033248 0.220937 0.461874 0.673360 0.840757 0.952067 0.998832 0.976866 0.886687 0.733649 0.527726 0.282943 0.016500 0.252405 0.503920 0.719028 0.881002 0.976775 0.998064 0.942181 0.812421 0.618007 0.373531 0.097961 0.186774 0.457496 0.691656 0.869251 0.974593 0.997782 0.935747 0.792717 0.580085 0.315617 0.022079 0.274670 0.547926 0.772529 0.927271 0.996944 0.973974 0.859353 0.662803 0.402094 0.101570 0.210037 0.502317 0.746136 0.916606 0.995705 0.974311 0.853395 0.644206 0.367389 0.051093 0.271810 0.567086 0.802789 0.952777 0.999734 0.937311 0.771139 0.518519 0.206803 0.129445 0.452196 0.724250 0.913568 0.997151 0.964002 0.816735 0.571632 0.257038 0.089765 0.426870 0.712796 0.911628 0.997654 0.958860 0.798799 0.536544 0.204613 0.154874 0.495464 0.772357 0.948359 0.999032 0.916286 0.709877 0.406512 0.046627 0.320873 0.645174 0.880611 0.993228 0.965857 0.800976 0.520818 0.164644 0.216593 0.567399 0.835843 0.981337 0.980965 0.833348 0.559349 0.199413 0.192181 0.555386 0.833589 0.982535 0.977574 0.818020 0.527790 0.152141 0.249177 0.611297 0.874725 0.995255 0.951622 0.749557 0.421418 0.021319 0.383576 0.724257 0.941667 0.997140 0.879561 0.607919 0.228592 0.192274 0.580135 0.865229 0.995282 0.945344 0.722922 0.367289 0.057104 0.472097 0.800125 0.978826 0.973142 0.782554 0.441895 0.015365 0.415317 0.766418 0.968594 0.980799 0.799016 0.457770 0.024014 0.415742 0.772543 0.973076 0.974994 0.776257 0.416341 0.031171 0.473330 0.817047 0.988767 0.950554 0.708884 0.314092 0.149647 0.582034
1.000000 1.000000 1.000000 1.000000 1.000000 1.000000 1.000000 1.000000 1.000000 1.000000 1.000000 1.000000 1.000000 1.000000 1.000000 1.000000 1.000000 1.000000 1.000000 1.000000 1.000000 1.000000 1.000000 1.000000 1.000000 1.000000 1.000000 1.000000 1.000000 1.000000 1.000000 1.000000 1.000000 1.000000 1.000000 1.000000 1.000000 1.000000 1.000000 1.000000 1.000000 1.000000 1.000000 1.000000 1.000000 1.000000 1.000000 1.000000 1.000000 1.000000 1.000000 1.000000 0.933182 0.933182 0.933182 0.933182 0.933182 0.933182 0.933182 0.933182 0.933182 0.933182 0.933182 0.933182 0.933182 0.933182 0.933182 0.933182 0.933182 0.933182 0.933182 0.933182 0.933182 0.933182 0.933182 0.933182 0.933182 0.933182 0.933182 0.933182 0.933182 0.933182 0.933182 0.933182 0.933182 0.922464 0.923950 0.926917 0.927986 0.927945 0.927490 0.927176 0.927396 0.929112 0.931432 0.948036 0.950217 0.950788 0.952074 0.952314 0.954829 0.953082 0.952936 0.963482 0.962312 0.963032 0.956118 0.957681 0.956783 0.955865 0.956360 0.956591 0.954675 0.952544 0.950869 0.950240 0.949870 0.951635 0.952109 0.952081 0.953546 0.953518 0.953247 0.949917 0.948471 0.949937 0.951956 0.951098 0.956804 0.956640 0.964684 0.965487 0.964094 0.963992 0.964190 0.964386 0.954587 0.948140 0.942724 0.930984 0.921739 0.919716 0.922617 0.924440 0.923345 0.918825 0.917762 0.915087 0.910143 0.909297 0.909174 0.910743 0.907280 0.903784 0.887457 0.887107 0.889551 0.888856 0.886660 0.878397 0.873759 0.874412 0.877555 0.875041 0.871643 0.887538 0.882753 0.887755 0.890788 0.893908 0.897759 0.893856 0.892948 0.889314 0.885726 0.880810 0.882348 0.871357 0.874157 0.869041 0.859948 0.852942 0.855905 0.865036 0.872835 0.880725 0.879745 0.879707 0.878930 0.870950 0.872105 0.863891 0.864932 0.870281 0.876246 0.872537 0.869706 0.874070 0.872300 0.873966 0.876320 0.872638 0.870909 0.861825 0.861946 0.864660 0.881343 0.881819 0.870569 0.862847 0.852322 0.859388 0.862384 0.861659 0.863521 0.853856 0.855111 0.844311 0.833427 0.834765 0.839494 0.835446 0.837752 0.835667 0.839284 0.841427 0.839561 0.834332 0.832905 0.838061 0.812728 0.819494 0.822347 0.817715 0.821896 0.813618 0.807568 0.802130 0.801785 0.796454 0.807173 0.805707 0.772583 0.762156 0.769817 0.754808 0.746038 0.741529 0.742285 0.713875 0.691087 0.661545 0.656979 0.645033 0.644196 0.645589 0.638849 0.619795 0.606675 0.600888 0.617374 0.619800 0.590259 0.590796 0.585471 0.580593 0.575489 0.574766 0.575534 0.580171 0.584644 0.550774 0.544849 0.550617 0.523398 0.523878 0.522131 0.511734 0.482318 0.487535 0.483496 0.502836 0.539863 0.495793 0.490395 0.502272 0.515691 0.527273 0.526224 0.512790 0.496221 0.506306 0.482881 0.464809 0.480787 0.488591 0.480575 0.493929 0.485593 0.514421 0.507353 0.491722 0.520375 0.534561 0.531935 0.526074 0.540164 0.528844 0.532031 0.517374 0.474998 0.484209 0.469321 0.413276 0.405591 0.422598 0.408503 0.406443 0.379641 0.382887 0.355805 0.323559 0.331512 0.325900 0.288906 0.254758 0.258114 0.259965 0.229474 0.200128 0.222062 0.172208 0.165525 0.185403 0.194010 0.179989 0.182655 0.204621 0.204621 0.204621 0.204621 0.204621 0.204621 0.204621 0.204621 0.204621 0.204621 0.204621 0.204621 0.204621 0.204621 0.229950 0.229950 0.229950 0.229950 0.229950 0.229950 0.229950 0.229950 0.229950 0.229950 0.229950 0.229950
0.000000 0.000000 0.000000 0.000000 0.000000 0.000000 0.000000 0.000000 0.000000 0.000000 0.000000 0.000000 0.000000 0.000000 0.000000 0.000000 0.000000 0.000000 0.000000 0.000000 0.000000 0.000000 0.000000 0.000000 0.000000 0.000000 0.000000 0.000000 0.000000 0.000000 0.000000 0.000000 0.000000 0.000000 0.000000 0.000000 0.000000 0.000000 0.000000 0.000000 0.000000 0.000000 0.000000 0.000000 0.000000 0.000000 0.000000 0.000000 0.000000 0.000000 0.000000 0.000000 0.209657 0.209657 0.209657 0.209657 0.209657 0.209657 0.209657 0.209657 0.209657 0.209657 0.209657 0.209657 0.209657 0.209657 0.209657 0.209657 0.209657 0.209657 0.209657 0.209657 0.209657 0.209657 0.209657 0.209657 0.209657 0.209657 0.209657 0.209657 0.209657 0.209657 0.209657 0.209657 0.209657 0.244339 0.244339 0.244339 0.244339 0.244339 0.244339 0.244339 0.244339 0.244339 0.244339 0.244339 0.244339 0.244339 0.244339 0.244339 0.244339 0.244339 0.244339 0.244339 0.244339 0.244339 0.244339 0.244339 0.244339 0.244339 0.260378 0.260378 0.260378 0.260378 0.260378 0.260378 0.260378 0.260378 0.260378 0.260378 0.260378 0.260378 0.260378 0.260378 0.260378 0.260378 0.260378 0.260378 0.260378 0.260378 0.269680 0.269680 0.269680 0.269680 0.269680 0.269680 0.269680 0.269680 0.269680 0.269680 0.269680 0.269680 0.269680 0.269680 0.269680 0.269680 0.269680 0.269680 0.269680 0.269680 0.269680 0.269680 0.269680 0.269680 0.269680 0.269680 0.269680 0.269680 0.269680 0.269680 0.269680 0.269680 0.269680 0.280056 0.280056 0.280056 0.280056 0.280056 0.280056 0.280056 0.280056 0.280056 0.280056 0.280056 0.280056 0.280056 0.280056 0.280056 0.280056 0.280056 0.280056 0.280056 0.280056 0.280056 0.280056 0.280056 0.280056 0.280056 0.280056 0.280056 0.274721 0.274721 0.274721 0.274721 0.274721 0.274721 0.274721 0.274721 0.274721 0.274721 0.274721 0.274721 0.274721 0.285714 0.285714 0.285714 0.285714 0.285714 0.285714 0.285714 0.285714 0.285714 0.285714 0.285714 0.280056 0.280056 0.280056 0.280056 0.280056 0.280056 0.280056 0.280056 0.280056 0.280056 0.280056 0.274721 0.274721 0.274721 0.274721 0.274721 0.274721 0.274721 0.274721 0.274721 0.274721 0.274721 0.280056 0.280056 0.280056 0.280056 0.280056 0.280056 0.280056 0.280056 0.280056 0.280056 0.285714 0.285714 0.285714 0.285714 0.285714 0.285714 0.285714 0.285714 0.285714 0.269680 0.269680 0.269680 0.269680 0.269680 0.269680 0.269680 0.269680 0.269680 0.269680 0.274721 0.274721 0.274721 0.274721 0.274721 0.274721 0.274721 0.274721 0.274721 0.285714 0.285714 0.285714 0.285714 0.285714 0.285714 0.285714 0.285714 0.264906 0.264906 0.264906 0.264906 0.264906 0.264906 0.264906 0.264906 0.264906 0.274721 0.274721 0.274721 0.274721 0.274721 0.274721 0.274721 0.274721 0.269680 0.269680 0.269680 0.269680 0.269680 0.269680 0.269680 0.269680 0.269680 0.269680 0.269680 0.269680 0.269680 0.269680 0.269680 0.269680 0.280056 0.280056 0.280056 0.280056 0.280056 0.280056 0.280056 0.260378 0.260378 0.260378 0.260378 0.260378 0.260378 0.260378 0.260378 0.269680 0.269680 0.269680 0.269680 0.269680 0.269680 0.269680 0.264906 0.264906 0.264906 0.264906 0.264906 0.264906 0.264906 0.264906 0.264906 0.264906 0.264906 0.264906 0.264906 0.264906 0.260378 0.260378 0.260378 0.260378 0.260378 0.260378 0.260378 0.260378 0.260378 0.260378 0.260378 0.260378
