# Output from CTFFind version 4.1.9, run on 2019-11-02 17:50:19
# Input file: stack11_bm3d_averaged_1_1.0_0_3000_half.mrc ; Number of micrographs: 1
# Pixel size: 3.000 Angstroms ; acceleration voltage: 300.0 keV ; spherical aberration: 0.00 mm ; amplitude contrast: 0.07
# Box size: 512 pixels ; min. res.: 30.0 Angstroms ; max. res.: 5.0 Angstroms ; min. def.: 5000.0 um; max. def. 50000.0 um; num. frames averaged: 1
# 6 lines per micrograph: #1 - spatial frequency (1/Angstroms); #2 - 1D rotational average of spectrum (assuming no astigmatism); #3 - 1D rotational average of spectrum; #4 - CTF fit; #5 - cross-correlation between spectrum and CTF fit; #6 - 2sigma of expected cross correlation of noise
0.000000 0.000651 0.001302 0.001953 0.002604 0.003255 0.003906 0.004557 0.005208 0.005859 0.006510 0.007161 0.007812 0.008464 0.009115 0.009766 0.010417 0.011068 0.011719 0.012370 0.013021 0.013672 0.014323 0.014974 0.015625 0.016276 0.016927 0.017578 0.018229 0.018880 0.019531 0.020182 0.020833 0.021484 0.022135 0.022786 0.023438 0.024089 0.024740 0.025391 0.026042 0.026693 0.027344 0.027995 0.028646 0.029297 0.029948 0.030599 0.031250 0.031901 0.032552 0.033203 0.033854 0.034505 0.035156 0.035807 0.036458 0.037109 0.037760 0.038411 0.039062 0.039714 0.040365 0.041016 0.041667 0.042318 0.042969 0.043620 0.044271 0.044922 0.045573 0.046224 0.046875 0.047526 0.048177 0.048828 0.049479 0.050130 0.050781 0.051432 0.052083 0.052734 0.053385 0.054036 0.054688 0.055339 0.055990 0.056641 0.057292 0.057943 0.058594 0.059245 0.059896 0.060547 0.061198 0.061849 0.062500 0.063151 0.063802 0.064453 0.065104 0.065755 0.066406 0.067057 0.067708 0.068359 0.069010 0.069661 0.070312 0.070964 0.071615 0.072266 0.072917 0.073568 0.074219 0.074870 0.075521 0.076172 0.076823 0.077474 0.078125 0.078776 0.079427 0.080078 0.080729 0.081380 0.082031 0.082682 0.083333 0.083984 0.084635 0.085286 0.085938 0.086589 0.087240 0.087891 0.088542 0.089193 0.089844 0.090495 0.091146 0.091797 0.092448 0.093099 0.093750 0.094401 0.095052 0.095703 0.096354 0.097005 0.097656 0.098307 0.098958 0.099609 0.100260 0.100911 0.101562 0.102214 0.102865 0.103516 0.104167 0.104818 0.105469 0.106120 0.106771 0.107422 0.108073 0.108724 0.109375 0.110026 0.110677 0.111328 0.111979 0.112630 0.113281 0.113932 0.114583 0.115234 0.115885 0.116536 0.117188 0.117839 0.118490 0.119141 0.119792 0.120443 0.121094 0.121745 0.122396 0.123047 0.123698 0.124349 0.125000 0.125651 0.126302 0.126953 0.127604 0.128255 0.128906 0.129557 0.130208 0.130859 0.131510 0.132161 0.132812 0.133464 0.134115 0.134766 0.135417 0.136068 0.136719 0.137370 0.138021 0.138672 0.139323 0.139974 0.140625 0.141276 0.141927 0.142578 0.143229 0.143880 0.144531 0.145182 0.145833 0.146484 0.147135 0.147786 0.148438 0.149089 0.149740 0.150391 0.151042 0.151693 0.152344 0.152995 0.153646 0.154297 0.154948 0.155599 0.156250 0.156901 0.157552 0.158203 0.158854 0.159505 0.160156 0.160807 0.161458 0.162109 0.162760 0.163411 0.164062 0.164714 0.165365 0.166016 0.166667 0.167318 0.167969 0.168620 0.169271 0.169922 0.170573 0.171224 0.171875 0.172526 0.173177 0.173828 0.174479 0.175130 0.175781 0.176432 0.177083 0.177734 0.178385 0.179036 0.179688 0.180339 0.180990 0.181641 0.182292 0.182943 0.183594 0.184245 0.184896 0.185547 0.186198 0.186849 0.187500 0.188151 0.188802 0.189453 0.190104 0.190755 0.191406 0.192057 0.192708 0.193359 0.194010 0.194661 0.195312 0.195964 0.196615 0.197266 0.197917 0.198568 0.199219 0.199870 0.200521 0.201172 0.201823 0.202474 0.203125 0.203776 0.204427 0.205078 0.205729 0.206380 0.207031 0.207682 0.208333 0.208984 0.209635 0.210286 0.210938 0.211589 0.212240 0.212891 0.213542 0.214193 0.214844 0.215495 0.216146 0.216797 0.217448 0.218099 0.218750 0.219401 0.220052 0.220703 0.221354 0.222005 0.222656 0.223307 0.223958 0.224609 0.225260 0.225911 0.226562 0.227214 0.227865 0.228516 0.229167 0.229818 0.230469 0.231120 0.231771 0.232422 0.233073 0.233724 0.234375 0.235026 0.235677
       0.31629        0.31629        0.31629        0.31629        0.31629        0.31629        0.31629        0.31629        0.31629        0.31629        0.31629        0.31629        0.31629        0.31629        0.31629        0.31629        0.31629        0.31629        0.31629        0.31629        0.31629        0.31629        0.31629        0.31629        0.31629        0.31629        0.31629        0.31629        0.31629        0.31629        0.31629        0.31629        0.31629        0.31629        0.31629        0.31629        0.31629        0.31629        0.31629        0.31629        0.31629        0.31629        0.31629        0.31629        0.31629        0.31629        0.31629        0.31629        0.31629        0.31629        0.31629        0.68455        0.87237        0.52101        0.08483       -0.06896       -0.42912       -0.20794       -0.29696       -0.11878       -0.07954       -0.11893       -0.07115       -0.21134       -0.23966       -0.26139       -0.33225       -0.33924       -0.49558       -0.38603       -0.46904       -0.45342       -0.42354       -0.47252       -0.55089       -0.56687       -0.59023       -0.62933       -0.58140       -0.41819       -0.37944       -0.33169       -0.31916       -0.21475       -0.19971        0.01949        0.06566        0.10093        0.22219        0.37100        0.44227        0.51752        0.55907        0.55310        0.57288        0.69842        0.81531        0.74806        0.73404        0.67505        0.58222        0.48687        0.40549        0.49235        0.37062        0.19739        0.07622        0.04292        0.00433       -0.06068       -0.04250       -0.02869       -0.07590       -0.00702       -0.02339        0.20956        0.24792        0.29164        0.42867        0.46575        0.40314        0.53052        0.63210        0.70437        0.76874        0.69126        0.66321        0.70155        0.58838        0.50639        0.41825        0.28929        0.18540        0.15754        0.10929        0.03472        0.01152       -0.00168        0.07534        0.13283        0.20152        0.28298        0.40344        0.41524        0.51074        0.60152        0.63661        0.61133        0.63163        0.55192        0.44427        0.44038        0.35029        0.22777        0.18521        0.14969        0.10224        0.11867        0.06410        0.09879        0.21805        0.26330        0.33818        0.34491        0.45293        0.51220        0.53741        0.55057        0.46716        0.42578        0.39297        0.37806        0.30882        0.24934        0.20040        0.18290        0.16110        0.19177        0.17632        0.26725        0.33293        0.36313        0.42073        0.46312        0.47734        0.44540        0.39210        0.41085        0.37650        0.29183        0.27561        0.22857        0.21211        0.19257        0.20967        0.22906        0.32792        0.37247        0.36663        0.45724        0.43794        0.44071        0.42983        0.39447        0.34109        0.32925        0.27916        0.23330        0.23465        0.26720        0.27006        0.29806        0.29625        0.33949        0.32997        0.40943        0.41541        0.37356        0.34240        0.36241        0.28099        0.27875        0.26326        0.27586        0.25842        0.28166        0.29482        0.31702        0.35180        0.35702        0.35885        0.33194        0.35009        0.28760        0.32522        0.26753        0.24907        0.28117        0.28119        0.30557        0.31532        0.33045        0.32322        0.31123        0.31725        0.28698        0.28357        0.25795        0.28230        0.27215        0.31166        0.28208        0.25894        0.30736        0.31040        0.31338        0.29159        0.29808        0.29344        0.24265        0.23957        0.22026        0.27494        0.26968        0.30544        0.31593        0.32163        0.31318        0.30172        0.27767        0.28343        0.33204        0.27286        0.26749        0.29368        0.29558        0.34228        0.34036        0.36217        0.33061        0.31152        0.28104        0.26431        0.26212        0.22468        0.26323        0.30025        0.29681        0.27683        0.29433        0.27045        0.32292        0.33648        0.25010        0.21679        0.26601        0.33834        0.27983        0.31368        0.32757        0.32767        0.29660        0.32020        0.34421        0.29494        0.29392        0.26066        0.27374        0.34796        0.35107        0.25720        0.26969        0.25375        0.27377        0.22631        0.29126        0.22242        0.25088        0.32613        0.31699        0.34729        0.30093        0.23363        0.23667        0.24400        0.24420        0.17765        0.21621        0.25819        0.28758        0.28056        0.30213        0.28856        0.27711        0.28458        0.21019        0.18234        0.18624        0.23262        0.19701        0.22395        0.23390        0.20879        0.25185        0.33234        0.29128        0.30497        0.21705        0.27009        0.23236        0.28313        0.30240        0.14806        0.21390        0.22057        0.13842        0.23845        0.11960        0.17506        0.20538        0.15549       -0.12609       -0.66517
2.527843 2.501742 2.475781 2.449960 2.424280 2.398740 2.373341 2.348082 2.322963 2.297985 2.273148 2.248451 2.223894 2.199478 2.175203 2.151067 2.127073 2.103218 2.079504 2.055931 2.032498 2.009205 1.986053 1.963042 1.940171 1.917440 1.894850 1.872400 1.850091 1.827922 1.805893 1.784005 1.762258 1.740651 1.719184 1.697858 1.676672 1.655627 1.634722 1.613958 1.593334 1.572850 1.552507 1.532305 1.512243 1.492321 1.472540 1.452899 1.433399 1.414039 1.394820 1.617694 2.023029 1.595177 1.109206 0.968866 0.404261 0.796632 0.547534 0.820603 0.757243 0.773797 0.738331 0.697242 0.547737 0.499258 0.474266 0.435734 0.192928 0.368989 0.194835 0.296148 0.229497 0.172960 0.121694 -0.004536 0.037332 -0.021137 -0.059225 0.098766 0.202887 0.193024 0.149023 0.327410 0.196004 0.497131 0.569359 0.543239 0.587826 0.875792 0.806777 0.945399 0.888096 0.972517 0.939950 1.080607 1.141668 1.082668 1.125886 0.958247 0.944499 0.788394 0.653464 0.770677 0.705213 0.460739 0.310279 0.257124 0.212864 0.153864 0.093651 0.130293 0.069867 0.162167 0.055414 0.267336 0.382948 0.367875 0.483028 0.590670 0.475378 0.546461 0.706090 0.759792 0.786410 0.741937 0.744398 0.726947 0.635233 0.581371 0.438549 0.293472 0.216224 0.087148 0.143283 -0.034160 -0.019488 -0.072239 -0.027098 0.017628 0.151884 0.101464 0.314539 0.285803 0.375387 0.461420 0.534130 0.526290 0.532438 0.519369 0.348033 0.320567 0.291021 0.116511 0.062285 0.017336 -0.021943 -0.027935 -0.077037 -0.085546 -0.004130 0.067945 0.153152 0.147223 0.241732 0.347224 0.320048 0.432317 0.410038 0.296775 0.247996 0.269580 0.228795 0.114931 0.088622 0.033015 0.016943 0.022756 -0.002452 0.072198 0.161242 0.156624 0.238505 0.265335 0.319188 0.270217 0.228364 0.195452 0.219218 0.162286 0.056173 0.061259 -0.002559 -0.002184 -0.023345 0.021343 0.024183 0.178492 0.130792 0.193444 0.240348 0.197162 0.191669 0.193029 0.129210 0.100094 0.060747 0.040581 -0.047976 0.001653 0.014042 0.046762 0.039426 0.068074 0.092865 0.109504 0.140583 0.181386 0.074684 0.093406 0.069044 -0.001843 0.001752 0.009218 -0.013613 0.014911 0.004856 0.031891 0.070715 0.088051 0.095255 0.050102 0.092787 0.052783 0.012825 0.061632 -0.037258 -0.015893 0.017387 -0.000781 0.047353 0.055543 0.042363 0.057369 0.043167 0.045085 0.015819 -0.005915 0.000316 0.017670 -0.011694 0.066559 -0.018836 0.004437 0.051802 0.041756 0.033510 0.045781 0.038492 0.017855 -0.026071 -0.041864 -0.018658 0.015112 0.017177 0.057165 0.060081 0.055009 0.086398 0.061517 0.026749 0.066293 0.088783 0.021612 0.028154 0.060050 0.059345 0.105775 0.115420 0.119894 0.113727 0.066709 0.050199 0.035625 0.011178 -0.001410 0.048406 0.083174 0.052239 0.035358 0.036379 0.026728 0.089661 0.074784 -0.044504 -0.050403 0.032380 0.097567 0.016044 0.035950 0.071153 0.085308 0.020210 0.057719 0.088987 0.030840 0.041137 -0.028975 0.008627 0.107036 0.067477 -0.058595 -0.017878 -0.052678 0.002640 -0.102764 0.032857 -0.113642 -0.037755 0.043146 0.021206 0.033499 -0.046018 -0.073148 -0.097821 -0.080423 -0.068998 -0.139405 -0.099889 -0.042226 0.000686 -0.032818 0.029915 -0.028311 -0.046969 0.051027 -0.114028 -0.095373 -0.101825 -0.010017 -0.068978 -0.022888 -0.013886 0.007420 0.014797 0.169697 -0.015230 0.137904 -0.009685 0.276931 0.241146 0.324496 0.275260 0.113952 0.216630 0.260762 0.060213 0.262305 0.125845 0.152908 0.260783 0.158605 -0.685048
0.072396 0.072898 0.074405 0.076916 0.080431 0.084948 0.090467 0.096986 0.104502 0.113014 0.122516 0.133006 0.144478 0.156926 0.170341 0.184715 0.200036 0.216293 0.233469 0.251547 0.270509 0.290329 0.310984 0.332443 0.354673 0.377637 0.401295 0.425599 0.450499 0.475940 0.501860 0.528193 0.554866 0.581799 0.608909 0.636102 0.663282 0.690342 0.717172 0.743653 0.769659 0.795057 0.819711 0.843473 0.866194 0.887716 0.907877 0.926511 0.943447 0.958511 0.971528 0.982318 0.990704 0.996510 0.999560 0.999682 0.996711 0.990488 0.980862 0.967693 0.950853 0.930229 0.905725 0.877263 0.844786 0.808262 0.767681 0.723065 0.674462 0.621954 0.565655 0.505716 0.442325 0.375707 0.306127 0.233891 0.159344 0.082872 0.004901 0.074105 0.153643 0.233176 0.312134 0.389917 0.465900 0.539438 0.609868 0.676520 0.738718 0.795791 0.847080 0.891945 0.929773 0.959992 0.982072 0.995543 0.999998 0.995108 0.980626 0.956398 0.922375 0.878612 0.825285 0.762687 0.691238 0.611486 0.524107 0.429905 0.329810 0.224870 0.116245 0.005202 0.106909 0.218655 0.328547 0.435057 0.536637 0.631741 0.718857 0.796523 0.863362 0.918107 0.959625 0.986949 0.999303 0.996124 0.977084 0.942114 0.891410 0.825455 0.745017 0.651157 0.545215 0.428813 0.303823 0.172355 0.036721 0.100599 0.236997 0.369793 0.496277 0.613774 0.719698 0.811613 0.887300 0.944810 0.982525 0.999214 0.994073 0.966771 0.917476 0.846879 0.756198 0.647172 0.522045 0.383532 0.234769 0.079254 0.079231 0.236705 0.389085 0.532297 0.662380 0.775609 0.868602 0.938437 0.982750 0.999833 0.988707 0.949184 0.881908 0.788366 0.670881 0.532571 0.377289 0.209527 0.034302 0.142989 0.316728 0.481253 0.631041 0.760910 0.866197 0.942947 0.988076 0.999511 0.976305 0.918713 0.828228 0.707576 0.560655 0.392441 0.208836 0.016477 0.177491 0.365674 0.540715 0.695577 0.823848 0.920015 0.979723 1.000000 0.979422 0.918235 0.818395 0.683552 0.518945 0.331230 0.128236 0.081344 0.288313 0.483372 0.657541 0.802577 0.911396 0.978432 0.999959 0.974325 0.902102 0.786128 0.631444 0.445115 0.235939 0.014058 0.209512 0.423419 0.616559 0.778655 0.900832 0.976128 0.999925 0.970278 0.888096 0.757182 0.584108 0.377937 0.149781 0.087770 0.321315 0.537409 0.723330 0.867855 0.961973 0.999475 0.977425 0.896417 0.760657 0.577793 0.358551 0.116136 0.134516 0.377649 0.597673 0.780172 0.912884 0.986558 0.995658 0.938823 0.819087 0.643779 0.424158 0.174725 0.087670 0.344966 0.579104 0.773321 0.913377 0.988644 0.992974 0.925261 0.789660 0.595413 0.356291 0.089681 0.184630 0.445922 0.674078 0.851185 0.962958 0.999972 0.958516 0.841039 0.656103 0.417851 0.144994 0.140605 0.415651 0.657319 0.845156 0.962877 0.999833 0.952056 0.822766 0.622255 0.367182 0.079241 0.216606 0.494275 0.728874 0.898946 0.988508 0.988629 0.898415 0.725276 0.484436 0.197679 0.108528 0.405459 0.664803 0.861381 0.975668 0.995797 0.918907 0.751621 0.509607 0.216208 0.099712 0.406565 0.673188 0.872032 0.982075 0.991139 0.897349 0.709557 0.446636 0.135712 0.190572 0.497429 0.751629 0.925148 0.998350 0.962302 0.820004 0.586303 0.286479 0.046378 0.374953 0.661866 0.873950 0.986162 0.984651 0.868604 0.650605 0.355435 0.017366 0.323710 0.626983 0.855600 0.981232 0.987701 0.873208 0.650835 0.347230 0.000460 0.349041 0.654588 0.878032 0.990222 0.975864 0.835763 0.587035 0.261191 0.099722
1.000000 1.000000 1.000000 1.000000 1.000000 1.000000 1.000000 1.000000 1.000000 1.000000 1.000000 1.000000 1.000000 1.000000 1.000000 1.000000 1.000000 1.000000 1.000000 1.000000 1.000000 1.000000 1.000000 1.000000 1.000000 1.000000 1.000000 1.000000 1.000000 1.000000 1.000000 1.000000 1.000000 1.000000 1.000000 1.000000 1.000000 1.000000 1.000000 1.000000 1.000000 1.000000 1.000000 1.000000 1.000000 1.000000 1.000000 1.000000 1.000000 1.000000 1.000000 1.000000 0.935075 0.935075 0.935075 0.924174 0.924174 0.924174 0.924174 0.924174 0.924174 0.924174 0.924174 0.924174 0.924174 0.924174 0.924174 0.924174 0.924174 0.924174 0.924174 0.924174 0.924174 0.924174 0.924174 0.924174 0.924174 0.924174 0.924174 0.924174 0.924174 0.924174 0.924174 0.924174 0.924174 0.924174 0.924174 0.924174 0.924174 0.924174 0.924174 0.924174 0.924174 0.924174 0.924174 0.924174 0.949816 0.951044 0.958894 0.958717 0.958201 0.956059 0.955161 0.954011 0.953566 0.953836 0.954441 0.955276 0.967116 0.968129 0.969674 0.970539 0.971358 0.972172 0.972231 0.973329 0.972794 0.972288 0.971632 0.971311 0.971978 0.972830 0.973292 0.973771 0.972421 0.975957 0.976118 0.975955 0.975492 0.974240 0.972410 0.972085 0.971836 0.971842 0.972242 0.973466 0.976580 0.975961 0.975649 0.975807 0.975908 0.976059 0.976400 0.977066 0.973169 0.971805 0.970241 0.968067 0.972458 0.969499 0.969302 0.970661 0.970999 0.971366 0.970156 0.965905 0.959925 0.959209 0.956930 0.947957 0.946970 0.947365 0.949529 0.949915 0.948329 0.941267 0.941833 0.935209 0.937339 0.940673 0.934940 0.935312 0.936373 0.936008 0.935353 0.934858 0.932027 0.929704 0.928351 0.927900 0.930661 0.930131 0.931478 0.932035 0.927895 0.922149 0.915145 0.902586 0.899307 0.899865 0.887485 0.888997 0.888093 0.883469 0.886757 0.885687 0.886677 0.883484 0.868852 0.853293 0.847684 0.852216 0.856901 0.856289 0.852693 0.845838 0.857122 0.829485 0.841536 0.850940 0.846495 0.846644 0.844852 0.843333 0.837922 0.839629 0.841452 0.842562 0.839981 0.837640 0.837819 0.815227 0.814798 0.755934 0.738241 0.729084 0.734008 0.741657 0.743802 0.742432 0.750151 0.754822 0.749527 0.734281 0.727868 0.723097 0.727607 0.723559 0.726505 0.708108 0.680192 0.675184 0.648676 0.666703 0.676688 0.641825 0.666783 0.677509 0.677282 0.676379 0.670174 0.667881 0.662285 0.663865 0.668352 0.680404 0.697764 0.720843 0.715174 0.705945 0.700231 0.680659 0.673048 0.665552 0.685956 0.663700 0.659943 0.679582 0.678464 0.661699 0.638058 0.626111 0.620406 0.617587 0.626548 0.612521 0.607011 0.600306 0.581053 0.575147 0.608292 0.623624 0.645066 0.615507 0.604063 0.591482 0.574536 0.585750 0.524255 0.524602 0.544307 0.552104 0.530598 0.516419 0.527276 0.530901 0.530811 0.521309 0.512085 0.500061 0.515690 0.549968 0.536371 0.517862 0.520264 0.519684 0.513236 0.420798 0.415799 0.391159 0.357962 0.301304 0.286791 0.279065 0.262452 0.244281 0.206536 0.203947 0.213637 0.216234 0.229856 0.231631 0.216157 0.227800 0.223825 0.210276 0.147716 0.137243 0.130513 0.119394 0.117260 0.090665 0.116040 0.189514 0.191920 0.191920 0.191920 0.191920 0.191920 0.191920 0.198630 0.198630 0.198630 0.198630 0.198630 0.198630 0.198630 0.198630 0.198630 0.212275 0.212275 0.212275 0.212275 0.212275 0.212275 0.212275 0.212275 0.212275 0.212275 0.212275 0.212275 0.212275 0.212275
0.000000 0.000000 0.000000 0.000000 0.000000 0.000000 0.000000 0.000000 0.000000 0.000000 0.000000 0.000000 0.000000 0.000000 0.000000 0.000000 0.000000 0.000000 0.000000 0.000000 0.000000 0.000000 0.000000 0.000000 0.000000 0.000000 0.000000 0.000000 0.000000 0.000000 0.000000 0.000000 0.000000 0.000000 0.000000 0.000000 0.000000 0.000000 0.000000 0.000000 0.000000 0.000000 0.000000 0.000000 0.000000 0.000000 0.000000 0.000000 0.000000 0.000000 0.000000 0.000000 0.180334 0.180334 0.180334 0.199007 0.199007 0.199007 0.199007 0.199007 0.199007 0.199007 0.199007 0.199007 0.199007 0.199007 0.199007 0.199007 0.199007 0.199007 0.199007 0.199007 0.199007 0.199007 0.199007 0.199007 0.199007 0.199007 0.199007 0.199007 0.199007 0.199007 0.199007 0.199007 0.199007 0.199007 0.199007 0.199007 0.199007 0.199007 0.199007 0.199007 0.199007 0.199007 0.199007 0.199007 0.225018 0.225018 0.225018 0.225018 0.225018 0.225018 0.225018 0.225018 0.225018 0.225018 0.225018 0.225018 0.225018 0.225018 0.225018 0.225018 0.225018 0.225018 0.225018 0.225018 0.225018 0.225018 0.225018 0.225018 0.225018 0.225018 0.225018 0.225018 0.225018 0.244339 0.244339 0.244339 0.244339 0.244339 0.244339 0.244339 0.244339 0.244339 0.244339 0.244339 0.244339 0.244339 0.244339 0.244339 0.244339 0.244339 0.244339 0.244339 0.244339 0.244339 0.244339 0.244339 0.251976 0.251976 0.251976 0.251976 0.251976 0.251976 0.251976 0.251976 0.251976 0.251976 0.251976 0.251976 0.251976 0.251976 0.251976 0.251976 0.251976 0.251976 0.251976 0.251976 0.264906 0.264906 0.264906 0.264906 0.264906 0.264906 0.264906 0.264906 0.264906 0.264906 0.264906 0.264906 0.264906 0.264906 0.264906 0.264906 0.264906 0.264906 0.264906 0.264906 0.264906 0.264906 0.264906 0.264906 0.264906 0.264906 0.264906 0.264906 0.264906 0.264906 0.264906 0.264906 0.264906 0.264906 0.264906 0.264906 0.264906 0.264906 0.264906 0.264906 0.264906 0.264906 0.264906 0.264906 0.264906 0.264906 0.264906 0.264906 0.264906 0.264906 0.264906 0.264906 0.264906 0.264906 0.264906 0.264906 0.264906 0.264906 0.264906 0.264906 0.264906 0.264906 0.256074 0.256074 0.256074 0.256074 0.256074 0.256074 0.256074 0.256074 0.256074 0.256074 0.256074 0.256074 0.256074 0.256074 0.269680 0.269680 0.269680 0.269680 0.269680 0.269680 0.269680 0.269680 0.269680 0.269680 0.269680 0.269680 0.264906 0.264906 0.264906 0.264906 0.264906 0.264906 0.264906 0.264906 0.264906 0.264906 0.264906 0.264906 0.269680 0.269680 0.269680 0.269680 0.269680 0.269680 0.269680 0.269680 0.269680 0.269680 0.269680 0.264906 0.264906 0.264906 0.264906 0.264906 0.264906 0.264906 0.264906 0.264906 0.264906 0.264906 0.256074 0.256074 0.256074 0.256074 0.256074 0.256074 0.256074 0.256074 0.256074 0.256074 0.256074 0.264906 0.264906 0.264906 0.264906 0.264906 0.264906 0.264906 0.264906 0.264906 0.264906 0.260378 0.260378 0.260378 0.260378 0.260378 0.260378 0.260378 0.260378 0.260378 0.260378 0.256074 0.256074 0.256074 0.256074 0.256074 0.256074 0.256074 0.256074 0.256074 0.256074 0.260378 0.260378 0.260378 0.260378 0.260378 0.260378 0.260378 0.260378 0.260378 0.256074 0.256074 0.256074 0.256074 0.256074 0.256074 0.256074 0.256074 0.256074 0.251976 0.251976 0.251976 0.251976 0.251976 0.251976 0.251976 0.251976 0.251976 0.251976 0.251976 0.251976 0.251976 0.251976
