# Output from CTFFind version 4.1.9, run on 2019-11-03 19:02:24
# Input file: stack16_bm3d_averaged_1_2.25_0_750_half.mrc ; Number of micrographs: 1
# Pixel size: 3.000 Angstroms ; acceleration voltage: 300.0 keV ; spherical aberration: 0.00 mm ; amplitude contrast: 0.07
# Box size: 512 pixels ; min. res.: 30.0 Angstroms ; max. res.: 5.0 Angstroms ; min. def.: 5000.0 um; max. def. 50000.0 um; num. frames averaged: 1
# 6 lines per micrograph: #1 - spatial frequency (1/Angstroms); #2 - 1D rotational average of spectrum (assuming no astigmatism); #3 - 1D rotational average of spectrum; #4 - CTF fit; #5 - cross-correlation between spectrum and CTF fit; #6 - 2sigma of expected cross correlation of noise
0.000000 0.000651 0.001302 0.001953 0.002604 0.003255 0.003906 0.004557 0.005208 0.005859 0.006510 0.007161 0.007812 0.008464 0.009115 0.009766 0.010417 0.011068 0.011719 0.012370 0.013021 0.013672 0.014323 0.014974 0.015625 0.016276 0.016927 0.017578 0.018229 0.018880 0.019531 0.020182 0.020833 0.021484 0.022135 0.022786 0.023438 0.024089 0.024740 0.025391 0.026042 0.026693 0.027344 0.027995 0.028646 0.029297 0.029948 0.030599 0.031250 0.031901 0.032552 0.033203 0.033854 0.034505 0.035156 0.035807 0.036458 0.037109 0.037760 0.038411 0.039062 0.039714 0.040365 0.041016 0.041667 0.042318 0.042969 0.043620 0.044271 0.044922 0.045573 0.046224 0.046875 0.047526 0.048177 0.048828 0.049479 0.050130 0.050781 0.051432 0.052083 0.052734 0.053385 0.054036 0.054688 0.055339 0.055990 0.056641 0.057292 0.057943 0.058594 0.059245 0.059896 0.060547 0.061198 0.061849 0.062500 0.063151 0.063802 0.064453 0.065104 0.065755 0.066406 0.067057 0.067708 0.068359 0.069010 0.069661 0.070312 0.070964 0.071615 0.072266 0.072917 0.073568 0.074219 0.074870 0.075521 0.076172 0.076823 0.077474 0.078125 0.078776 0.079427 0.080078 0.080729 0.081380 0.082031 0.082682 0.083333 0.083984 0.084635 0.085286 0.085938 0.086589 0.087240 0.087891 0.088542 0.089193 0.089844 0.090495 0.091146 0.091797 0.092448 0.093099 0.093750 0.094401 0.095052 0.095703 0.096354 0.097005 0.097656 0.098307 0.098958 0.099609 0.100260 0.100911 0.101562 0.102214 0.102865 0.103516 0.104167 0.104818 0.105469 0.106120 0.106771 0.107422 0.108073 0.108724 0.109375 0.110026 0.110677 0.111328 0.111979 0.112630 0.113281 0.113932 0.114583 0.115234 0.115885 0.116536 0.117188 0.117839 0.118490 0.119141 0.119792 0.120443 0.121094 0.121745 0.122396 0.123047 0.123698 0.124349 0.125000 0.125651 0.126302 0.126953 0.127604 0.128255 0.128906 0.129557 0.130208 0.130859 0.131510 0.132161 0.132812 0.133464 0.134115 0.134766 0.135417 0.136068 0.136719 0.137370 0.138021 0.138672 0.139323 0.139974 0.140625 0.141276 0.141927 0.142578 0.143229 0.143880 0.144531 0.145182 0.145833 0.146484 0.147135 0.147786 0.148438 0.149089 0.149740 0.150391 0.151042 0.151693 0.152344 0.152995 0.153646 0.154297 0.154948 0.155599 0.156250 0.156901 0.157552 0.158203 0.158854 0.159505 0.160156 0.160807 0.161458 0.162109 0.162760 0.163411 0.164062 0.164714 0.165365 0.166016 0.166667 0.167318 0.167969 0.168620 0.169271 0.169922 0.170573 0.171224 0.171875 0.172526 0.173177 0.173828 0.174479 0.175130 0.175781 0.176432 0.177083 0.177734 0.178385 0.179036 0.179688 0.180339 0.180990 0.181641 0.182292 0.182943 0.183594 0.184245 0.184896 0.185547 0.186198 0.186849 0.187500 0.188151 0.188802 0.189453 0.190104 0.190755 0.191406 0.192057 0.192708 0.193359 0.194010 0.194661 0.195312 0.195964 0.196615 0.197266 0.197917 0.198568 0.199219 0.199870 0.200521 0.201172 0.201823 0.202474 0.203125 0.203776 0.204427 0.205078 0.205729 0.206380 0.207031 0.207682 0.208333 0.208984 0.209635 0.210286 0.210938 0.211589 0.212240 0.212891 0.213542 0.214193 0.214844 0.215495 0.216146 0.216797 0.217448 0.218099 0.218750 0.219401 0.220052 0.220703 0.221354 0.222005 0.222656 0.223307 0.223958 0.224609 0.225260 0.225911 0.226562 0.227214 0.227865 0.228516 0.229167 0.229818 0.230469 0.231120 0.231771 0.232422 0.233073 0.233724 0.234375 0.235026 0.235677
       0.34648        0.34648        0.34648        0.34648        0.34647        0.34647        0.34648        0.34648        0.34647        0.34648        0.34648        0.34648        0.34648        0.34648        0.34648        0.34647        0.34648        0.34647        0.34648        0.34647        0.34647        0.34647        0.34647        0.34648        0.34647        0.34648        0.34648        0.34648        0.34647        0.34647        0.34647        0.34647        0.34648        0.34648        0.34648        0.34648        0.34648        0.34647        0.34648        0.34647        0.34648        0.34647        0.34648        0.34648        0.34647        0.34648        0.34648        0.34648        0.34648        0.34648        0.34647        0.48451        0.68489        0.45511       -0.11532       -0.41012       -0.56606       -0.65743       -0.73346       -0.75027       -0.86954       -0.91669       -0.74931       -0.92314       -0.87090       -1.02268       -1.09270       -0.97944       -0.94761       -0.87117       -0.82656       -0.73182       -0.62834       -0.49240       -0.41781       -0.21962       -0.10588       -0.01782        0.19605        0.23976        0.30979        0.38216        0.42973        0.50804        0.57929        0.60537        0.58223        0.50164        0.55369        0.48886        0.40487        0.33567        0.20209        0.17637        0.09793       -0.03842       -0.10526       -0.07289        0.02790       -0.01084        0.03715        0.03223        0.19582        0.21775        0.39536        0.45994        0.57010        0.70309        0.77064        0.74328        0.69310        0.67536        0.58273        0.52088        0.38748        0.28921        0.19935        0.17011        0.08135        0.04275        0.02273        0.06164        0.09212        0.28791        0.40733        0.50652        0.58397        0.63194        0.70037        0.65565        0.65971        0.66291        0.59788        0.49488        0.30092        0.25963        0.21703        0.12621        0.04820        0.10392        0.11303        0.26051        0.36329        0.42284        0.50963        0.55730        0.64476        0.59492        0.54632        0.51684        0.36821        0.20480        0.22671        0.17056        0.14669        0.14090        0.22036        0.26029        0.35485        0.44121        0.43074        0.53179        0.51480        0.47486        0.46981        0.38179        0.32985        0.25889        0.20650        0.22571        0.21296        0.21717        0.30958        0.44913        0.47081        0.48664        0.55435        0.50627        0.44563        0.40221        0.31154        0.24731        0.24310        0.23847        0.26461        0.29297        0.33611        0.43546        0.50401        0.50368        0.46360        0.39196        0.37047        0.35597        0.23800        0.22988        0.26152        0.29984        0.36348        0.36379        0.40514        0.44014        0.45435        0.38367        0.35634        0.31964        0.33144        0.28237        0.26859        0.29852        0.35040        0.40737        0.42441        0.39975        0.38410        0.40807        0.36142        0.30229        0.30567        0.30813        0.31181        0.36874        0.38563        0.41483        0.34638        0.36704        0.38944        0.35650        0.31592        0.28216        0.29036        0.33516        0.34240        0.33750        0.35064        0.39179        0.34824        0.36197        0.30316        0.30539        0.27563        0.28288        0.30358        0.33467        0.38909        0.36486        0.35547        0.31275        0.28188        0.27134        0.30510        0.29096        0.33113        0.36727        0.39617        0.34390        0.32953        0.30503        0.30721        0.30465        0.28383        0.32710        0.34390        0.33389        0.32904        0.30371        0.34667        0.33041        0.30526        0.32518        0.33045        0.35049        0.35818        0.32287        0.33432        0.30449        0.30444        0.30007        0.32375        0.40331        0.33568        0.36229        0.31078        0.32236        0.30779        0.30972        0.29389        0.31199        0.30614        0.33822        0.35310        0.29856        0.32964        0.31795        0.29329        0.31111        0.31881        0.32336        0.36610        0.36206        0.32163        0.30307        0.29444        0.25072        0.32324        0.34187        0.30816        0.31436        0.27832        0.29530        0.32972        0.33165        0.30752        0.34558        0.33438        0.31319        0.24477        0.29697        0.29720        0.30507        0.33395        0.31323        0.36840        0.37495        0.27833        0.29242        0.28671        0.28168        0.30906        0.28050        0.25954        0.25478        0.28719        0.29356        0.28300        0.28520        0.27375        0.33626        0.31603        0.29605        0.23808        0.24298        0.25239        0.23196        0.23281        0.31412        0.36125        0.25809        0.25158        0.30359        0.22812        0.23566        0.32833        0.28964        0.17217        0.17805        0.24905        0.31385        0.28053        0.11509       -0.00678       -0.50961       -0.71998
3.021339 2.983601 2.946107 2.908856 2.871849 2.835086 2.798566 2.762290 2.726258 2.690470 2.654925 2.619624 2.584566 2.549753 2.515182 2.480856 2.446773 2.412934 2.379339 2.345988 2.312880 2.280015 2.247395 2.215018 2.182885 2.150995 2.119350 2.087948 2.056789 2.025874 1.995203 1.964776 1.934592 1.904652 1.874956 1.845504 1.816295 1.787330 1.758608 1.730130 1.701896 1.673906 1.646159 1.618656 1.591397 1.564381 1.537609 1.511081 1.484796 1.458755 1.432958 1.492769 1.650520 1.587518 0.939153 0.662978 0.463787 0.410780 0.316870 0.255068 0.187392 0.000061 0.191769 0.067512 -0.028038 -0.071423 -0.212030 -0.161222 -0.089170 -0.094786 -0.085636 0.008664 0.032905 0.218569 0.142538 0.349434 0.434548 0.468679 0.686760 0.681234 0.690360 0.817196 0.798531 0.818361 0.934826 0.859595 0.912190 0.730570 0.825825 0.821041 0.622868 0.595097 0.444492 0.428100 0.354272 0.212160 0.120107 0.096440 0.215304 0.131665 0.210174 0.111079 0.281809 0.272714 0.444188 0.401252 0.579139 0.631592 0.738872 0.715742 0.642977 0.631032 0.506039 0.486042 0.326377 0.294063 0.120008 0.153869 0.008524 -0.003374 -0.043055 -0.042840 -0.006436 0.042266 0.268640 0.309383 0.383242 0.373274 0.457384 0.483686 0.492914 0.481467 0.371961 0.391973 0.153825 0.086542 0.081774 -0.015126 -0.130529 -0.041305 -0.113947 0.012648 0.136956 0.168085 0.250830 0.270644 0.364484 0.449217 0.340246 0.391970 0.286149 0.122440 0.055022 0.064558 0.039194 0.022777 0.023188 0.114492 0.120817 0.269672 0.230867 0.288340 0.342876 0.260599 0.265722 0.226915 0.130675 0.081988 0.024647 0.034060 0.025397 -0.002519 0.029482 0.173655 0.212740 0.242933 0.290472 0.229421 0.238077 0.140782 0.119606 0.000347 -0.001074 -0.009596 0.011061 0.020547 0.038338 0.100983 0.188583 0.208236 0.213955 0.137957 0.106190 0.073151 0.053803 -0.075933 -0.010694 0.020516 0.049779 0.054190 0.086188 0.155801 0.111012 0.161133 0.059477 0.044897 0.044870 0.037497 0.004002 -0.001840 0.019123 0.078104 0.115043 0.132491 0.058586 0.109616 0.103629 0.008863 0.016398 0.014272 0.007669 0.039308 0.071448 0.097794 0.082647 0.049807 0.080564 0.073145 0.045508 0.008799 -0.016518 0.003721 0.060151 0.030930 0.040112 0.055820 0.086290 0.080160 0.038758 0.019874 0.008251 -0.014852 -0.000881 0.013951 0.055548 0.105436 0.065989 0.062008 0.010603 -0.015511 -0.002755 0.022048 0.017980 0.041165 0.096855 0.075829 0.012535 0.050009 -0.006884 0.035921 -0.006082 -0.008245 0.052763 0.047435 0.027344 0.024931 -0.001569 0.051694 0.012450 0.005689 0.024958 0.030466 0.050946 0.043873 0.028801 0.015161 -0.015630 0.005163 -0.002217 0.031559 0.088053 0.031772 0.024447 -0.002127 0.020816 -0.016482 0.012744 -0.010506 0.014753 -0.015333 0.045164 0.031305 0.012140 0.049464 -0.015592 0.001957 0.016410 0.002521 0.044093 0.057458 0.055111 0.014451 0.009034 -0.015417 -0.018063 0.011677 0.049776 0.005994 0.040605 -0.024208 -0.010388 0.035690 0.045351 0.014133 0.039495 0.039345 0.033542 -0.062942 0.013780 0.025963 0.004947 0.035245 0.042013 0.083849 0.074452 0.001847 0.019063 -0.005244 0.004940 0.023440 -0.026098 -0.016256 -0.032175 -0.016847 0.009144 -0.023385 0.025159 -0.092308 0.014441 -0.016108 -0.040431 -0.106344 -0.056446 -0.090884 -0.066629 -0.084700 0.013559 0.060787 -0.082108 -0.039804 0.046844 -0.011886 -0.070894 0.076010 0.074427 -0.002099 -0.015841 0.062838 0.276154 0.248039 0.039657 -0.000769 -0.628549
0.072396 0.073046 0.074996 0.078245 0.082793 0.088637 0.095776 0.104207 0.113925 0.124926 0.137203 0.150747 0.165549 0.181596 0.198872 0.217360 0.237036 0.257875 0.279846 0.302915 0.327039 0.352173 0.378262 0.405246 0.433057 0.461618 0.490844 0.520642 0.550906 0.581524 0.612371 0.643310 0.674196 0.704871 0.735165 0.764897 0.793877 0.821899 0.848752 0.874210 0.898041 0.920004 0.939849 0.957322 0.972163 0.984112 0.992906 0.998285 0.999994 0.997785 0.991419 0.980673 0.965339 0.945231 0.920189 0.890079 0.854803 0.814299 0.768547 0.717572 0.661449 0.600306 0.534331 0.463769 0.388929 0.310188 0.227985 0.142832 0.055305 0.033954 0.124235 0.214770 0.304735 0.393253 0.479406 0.562240 0.640777 0.714026 0.780994 0.840705 0.892211 0.934607 0.967054 0.988792 0.999159 0.997611 0.983738 0.957282 0.918153 0.866440 0.802433 0.726620 0.639706 0.542607 0.436456 0.322596 0.202570 0.078110 0.048887 0.176378 0.302208 0.424142 0.539906 0.647225 0.743879 0.827745 0.896852 0.949434 0.983980 0.999286 0.994499 0.969165 0.923257 0.857208 0.771930 0.668816 0.549742 0.417045 0.273495 0.122248 0.033212 0.189150 0.341655 0.486747 0.620476 0.739038 0.838888 0.916857 0.970268 0.997041 0.995784 0.965882 0.907549 0.821873 0.710823 0.577237 0.424772 0.257831 0.081448 0.098842 0.277170 0.447525 0.603950 0.740762 0.852768 0.935484 0.985329 0.999811 0.977667 0.918978 0.825226 0.699300 0.545454 0.369192 0.177106 0.023350 0.224134 0.416925 0.593473 0.745964 0.867371 0.951820 0.994888 0.993883 0.948034 0.858616 0.728978 0.564466 0.372260 0.161092 0.059122 0.277711 0.483780 0.666743 0.816888 0.925920 0.987456 0.997444 0.954476 0.859973 0.718213 0.536209 0.323425 0.091321 0.147215 0.378574 0.589196 0.766373 0.899048 0.978552 0.999219 0.958853 0.858996 0.704964 0.505652 0.273084 0.021753 0.232252 0.472251 0.682076 0.847180 0.955697 0.999348 0.974154 0.880858 0.725043 0.516892 0.270618 0.003549 0.265035 0.515280 0.728227 0.887288 0.979595 0.997118 0.937453 0.804199 0.606863 0.360297 0.083664 0.200989 0.470448 0.702237 0.876515 0.977847 0.996659 0.930245 0.783220 0.567337 0.300684 0.006246 0.289996 0.561330 0.782748 0.933282 0.998099 0.970061 0.850635 0.650011 0.386378 0.084403 0.227004 0.517398 0.757788 0.923586 0.997208 0.970072 0.843732 0.630013 0.350066 0.032399 0.289911 0.582642 0.814066 0.958464 0.999096 0.930294 0.758401 0.501380 0.187116 0.149484 0.470290 0.738266 0.921792 0.998508 0.958200 0.804332 0.553994 0.236203 0.111315 0.446502 0.728041 0.920507 0.998933 0.952237 0.784977 0.517162 0.182079 0.177687 0.515570 0.787052 0.955591 0.997702 0.906421 0.692667 0.384179 0.022155 0.344128 0.663944 0.892182 0.995838 0.958980 0.785436 0.498710 0.139070 0.241948 0.588797 0.850047 0.986101 0.975417 0.818154 0.536663 0.172588 0.219073 0.578176 0.848647 0.987364 0.971244 0.801356 0.503300 0.123650 0.277109 0.634096 0.888559 0.997693 0.942077 0.729439 0.393951 0.008946 0.411528 0.745051 0.951599 0.994314 0.864277 0.582671 0.197697 0.223393 0.605902 0.880923 0.997903 0.934214 0.699876 0.336403 0.090208 0.501266 0.819824 0.985184 0.964755 0.760812 0.410780 0.019240 0.446728 0.788437 0.976748 0.973277 0.777090 0.425623 0.012025 0.448434 0.795176 0.980871 0.966136 0.752344 0.382146 0.068636 0.506219 0.838326 0.993748 0.937945 0.681150 0.277032 0.188094 0.613478
1.000000 1.000000 1.000000 1.000000 1.000000 1.000000 1.000000 1.000000 1.000000 1.000000 1.000000 1.000000 1.000000 1.000000 1.000000 1.000000 1.000000 1.000000 1.000000 1.000000 1.000000 1.000000 1.000000 1.000000 1.000000 1.000000 1.000000 1.000000 1.000000 1.000000 1.000000 1.000000 1.000000 1.000000 1.000000 1.000000 1.000000 1.000000 1.000000 1.000000 1.000000 1.000000 1.000000 1.000000 1.000000 1.000000 1.000000 1.000000 1.000000 1.000000 1.000000 1.000000 0.938418 0.938418 0.938418 0.938418 0.938418 0.938418 0.938418 0.938418 0.938418 0.938418 0.938418 0.938418 0.938418 0.938418 0.938418 0.938418 0.938418 0.938418 0.938418 0.938418 0.938418 0.938418 0.938418 0.938418 0.938418 0.938418 0.938418 0.938418 0.938418 0.938418 0.938418 0.938418 0.938418 0.931563 0.932884 0.935492 0.936427 0.936403 0.936026 0.935782 0.936014 0.937180 0.938929 0.955404 0.957007 0.957877 0.959079 0.957864 0.960810 0.959346 0.959643 0.970287 0.969326 0.969919 0.963197 0.964507 0.963737 0.962899 0.963660 0.963810 0.962152 0.960283 0.958725 0.958920 0.958617 0.960299 0.960554 0.960280 0.960752 0.960616 0.960383 0.957215 0.955622 0.956976 0.958707 0.957973 0.963817 0.962302 0.964240 0.964160 0.962884 0.962750 0.962966 0.963166 0.959148 0.957244 0.954319 0.943328 0.934139 0.928297 0.930965 0.933922 0.932382 0.926862 0.925977 0.924086 0.920143 0.919539 0.917793 0.918667 0.911435 0.907982 0.895246 0.894900 0.898409 0.899737 0.897179 0.888389 0.882734 0.883367 0.886322 0.884501 0.881887 0.898427 0.895167 0.898192 0.901664 0.903909 0.907778 0.897388 0.890527 0.886269 0.882616 0.879523 0.881302 0.879450 0.882060 0.874980 0.865553 0.859870 0.860278 0.866555 0.873651 0.877873 0.876494 0.876853 0.876214 0.857755 0.859834 0.843691 0.844476 0.849348 0.855059 0.854331 0.852187 0.853136 0.851622 0.851125 0.852897 0.848356 0.841837 0.835168 0.832832 0.834260 0.848315 0.847971 0.829864 0.821910 0.815665 0.820002 0.826171 0.822938 0.823643 0.818061 0.819138 0.813237 0.802898 0.805231 0.811831 0.807066 0.813363 0.813597 0.819326 0.819815 0.819032 0.816540 0.815870 0.819818 0.787935 0.798336 0.799732 0.786105 0.792243 0.783650 0.777872 0.778398 0.774153 0.757271 0.765130 0.728750 0.698538 0.710082 0.710749 0.695576 0.680796 0.681178 0.682920 0.667825 0.654788 0.637751 0.635273 0.645099 0.650554 0.664263 0.655048 0.648160 0.637299 0.587342 0.604784 0.604312 0.568588 0.575838 0.570205 0.565341 0.563284 0.529104 0.532144 0.534095 0.539576 0.521990 0.517363 0.526757 0.498648 0.497471 0.497809 0.497148 0.497822 0.500879 0.482621 0.501156 0.525512 0.483987 0.466228 0.485585 0.500784 0.511651 0.515878 0.505481 0.455447 0.510697 0.471187 0.480977 0.495904 0.486023 0.460291 0.468607 0.459208 0.487971 0.469945 0.451513 0.477338 0.454065 0.448615 0.450293 0.439781 0.429633 0.412556 0.407464 0.370948 0.386296 0.374192 0.348467 0.379262 0.392629 0.383620 0.369673 0.336613 0.339631 0.298225 0.274173 0.251413 0.253835 0.203651 0.157786 0.162407 0.152918 0.121923 0.090170 0.079178 0.042982 0.036856 0.065364 0.069110 0.067862 0.066302 0.089744 0.089744 0.089744 0.089744 0.089744 0.089744 0.089744 0.089744 0.089744 0.089744 0.089744 0.089744 0.089744 0.089744 0.112631 0.112631 0.112631 0.112631 0.112631 0.112631 0.112631 0.112631 0.112631 0.112631 0.112631 0.112631
0.000000 0.000000 0.000000 0.000000 0.000000 0.000000 0.000000 0.000000 0.000000 0.000000 0.000000 0.000000 0.000000 0.000000 0.000000 0.000000 0.000000 0.000000 0.000000 0.000000 0.000000 0.000000 0.000000 0.000000 0.000000 0.000000 0.000000 0.000000 0.000000 0.000000 0.000000 0.000000 0.000000 0.000000 0.000000 0.000000 0.000000 0.000000 0.000000 0.000000 0.000000 0.000000 0.000000 0.000000 0.000000 0.000000 0.000000 0.000000 0.000000 0.000000 0.000000 0.000000 0.209657 0.209657 0.209657 0.209657 0.209657 0.209657 0.209657 0.209657 0.209657 0.209657 0.209657 0.209657 0.209657 0.209657 0.209657 0.209657 0.209657 0.209657 0.209657 0.209657 0.209657 0.209657 0.209657 0.209657 0.209657 0.209657 0.209657 0.209657 0.209657 0.209657 0.209657 0.209657 0.209657 0.244339 0.244339 0.244339 0.244339 0.244339 0.244339 0.244339 0.244339 0.244339 0.244339 0.244339 0.244339 0.244339 0.244339 0.244339 0.244339 0.244339 0.244339 0.244339 0.244339 0.244339 0.244339 0.244339 0.244339 0.244339 0.260378 0.260378 0.260378 0.260378 0.260378 0.260378 0.260378 0.260378 0.260378 0.260378 0.260378 0.260378 0.260378 0.260378 0.260378 0.260378 0.260378 0.260378 0.260378 0.260378 0.269680 0.269680 0.269680 0.269680 0.269680 0.269680 0.269680 0.269680 0.269680 0.269680 0.269680 0.269680 0.269680 0.269680 0.269680 0.269680 0.269680 0.269680 0.269680 0.269680 0.269680 0.269680 0.269680 0.269680 0.269680 0.269680 0.269680 0.269680 0.269680 0.269680 0.269680 0.269680 0.269680 0.280056 0.280056 0.280056 0.280056 0.280056 0.280056 0.280056 0.280056 0.280056 0.280056 0.280056 0.280056 0.280056 0.280056 0.280056 0.280056 0.280056 0.280056 0.280056 0.280056 0.280056 0.280056 0.280056 0.280056 0.280056 0.280056 0.280056 0.274721 0.274721 0.274721 0.274721 0.274721 0.274721 0.274721 0.274721 0.274721 0.274721 0.274721 0.274721 0.274721 0.285714 0.285714 0.285714 0.285714 0.285714 0.285714 0.285714 0.285714 0.285714 0.285714 0.285714 0.280056 0.280056 0.280056 0.280056 0.280056 0.280056 0.280056 0.280056 0.280056 0.280056 0.280056 0.274721 0.274721 0.274721 0.274721 0.274721 0.274721 0.274721 0.274721 0.274721 0.274721 0.274721 0.280056 0.280056 0.280056 0.280056 0.280056 0.280056 0.280056 0.280056 0.280056 0.280056 0.285714 0.285714 0.285714 0.285714 0.285714 0.285714 0.285714 0.285714 0.285714 0.269680 0.269680 0.269680 0.269680 0.269680 0.269680 0.269680 0.269680 0.269680 0.269680 0.274721 0.274721 0.274721 0.274721 0.274721 0.274721 0.274721 0.274721 0.274721 0.285714 0.285714 0.285714 0.285714 0.285714 0.285714 0.285714 0.285714 0.264906 0.264906 0.264906 0.264906 0.264906 0.264906 0.264906 0.264906 0.264906 0.274721 0.274721 0.274721 0.274721 0.274721 0.274721 0.274721 0.274721 0.269680 0.269680 0.269680 0.269680 0.269680 0.269680 0.269680 0.269680 0.269680 0.269680 0.269680 0.269680 0.269680 0.269680 0.269680 0.269680 0.280056 0.280056 0.280056 0.280056 0.280056 0.280056 0.280056 0.260378 0.260378 0.260378 0.260378 0.260378 0.260378 0.260378 0.260378 0.269680 0.269680 0.269680 0.269680 0.269680 0.269680 0.269680 0.264906 0.264906 0.264906 0.264906 0.264906 0.264906 0.264906 0.264906 0.264906 0.264906 0.264906 0.264906 0.264906 0.264906 0.260378 0.260378 0.260378 0.260378 0.260378 0.260378 0.260378 0.260378 0.260378 0.260378 0.260378 0.260378
