# Output from CTFFind version 4.1.9, run on 2019-11-02 17:47:17
# Input file: stack1_bm3d_averaged_1_1.5_0_1500_half.mrc ; Number of micrographs: 1
# Pixel size: 3.000 Angstroms ; acceleration voltage: 300.0 keV ; spherical aberration: 0.00 mm ; amplitude contrast: 0.07
# Box size: 512 pixels ; min. res.: 30.0 Angstroms ; max. res.: 5.0 Angstroms ; min. def.: 5000.0 um; max. def. 50000.0 um; num. frames averaged: 1
# 6 lines per micrograph: #1 - spatial frequency (1/Angstroms); #2 - 1D rotational average of spectrum (assuming no astigmatism); #3 - 1D rotational average of spectrum; #4 - CTF fit; #5 - cross-correlation between spectrum and CTF fit; #6 - 2sigma of expected cross correlation of noise
0.000000 0.000651 0.001302 0.001953 0.002604 0.003255 0.003906 0.004557 0.005208 0.005859 0.006510 0.007161 0.007812 0.008464 0.009115 0.009766 0.010417 0.011068 0.011719 0.012370 0.013021 0.013672 0.014323 0.014974 0.015625 0.016276 0.016927 0.017578 0.018229 0.018880 0.019531 0.020182 0.020833 0.021484 0.022135 0.022786 0.023438 0.024089 0.024740 0.025391 0.026042 0.026693 0.027344 0.027995 0.028646 0.029297 0.029948 0.030599 0.031250 0.031901 0.032552 0.033203 0.033854 0.034505 0.035156 0.035807 0.036458 0.037109 0.037760 0.038411 0.039062 0.039714 0.040365 0.041016 0.041667 0.042318 0.042969 0.043620 0.044271 0.044922 0.045573 0.046224 0.046875 0.047526 0.048177 0.048828 0.049479 0.050130 0.050781 0.051432 0.052083 0.052734 0.053385 0.054036 0.054688 0.055339 0.055990 0.056641 0.057292 0.057943 0.058594 0.059245 0.059896 0.060547 0.061198 0.061849 0.062500 0.063151 0.063802 0.064453 0.065104 0.065755 0.066406 0.067057 0.067708 0.068359 0.069010 0.069661 0.070312 0.070964 0.071615 0.072266 0.072917 0.073568 0.074219 0.074870 0.075521 0.076172 0.076823 0.077474 0.078125 0.078776 0.079427 0.080078 0.080729 0.081380 0.082031 0.082682 0.083333 0.083984 0.084635 0.085286 0.085938 0.086589 0.087240 0.087891 0.088542 0.089193 0.089844 0.090495 0.091146 0.091797 0.092448 0.093099 0.093750 0.094401 0.095052 0.095703 0.096354 0.097005 0.097656 0.098307 0.098958 0.099609 0.100260 0.100911 0.101562 0.102214 0.102865 0.103516 0.104167 0.104818 0.105469 0.106120 0.106771 0.107422 0.108073 0.108724 0.109375 0.110026 0.110677 0.111328 0.111979 0.112630 0.113281 0.113932 0.114583 0.115234 0.115885 0.116536 0.117188 0.117839 0.118490 0.119141 0.119792 0.120443 0.121094 0.121745 0.122396 0.123047 0.123698 0.124349 0.125000 0.125651 0.126302 0.126953 0.127604 0.128255 0.128906 0.129557 0.130208 0.130859 0.131510 0.132161 0.132812 0.133464 0.134115 0.134766 0.135417 0.136068 0.136719 0.137370 0.138021 0.138672 0.139323 0.139974 0.140625 0.141276 0.141927 0.142578 0.143229 0.143880 0.144531 0.145182 0.145833 0.146484 0.147135 0.147786 0.148438 0.149089 0.149740 0.150391 0.151042 0.151693 0.152344 0.152995 0.153646 0.154297 0.154948 0.155599 0.156250 0.156901 0.157552 0.158203 0.158854 0.159505 0.160156 0.160807 0.161458 0.162109 0.162760 0.163411 0.164062 0.164714 0.165365 0.166016 0.166667 0.167318 0.167969 0.168620 0.169271 0.169922 0.170573 0.171224 0.171875 0.172526 0.173177 0.173828 0.174479 0.175130 0.175781 0.176432 0.177083 0.177734 0.178385 0.179036 0.179688 0.180339 0.180990 0.181641 0.182292 0.182943 0.183594 0.184245 0.184896 0.185547 0.186198 0.186849 0.187500 0.188151 0.188802 0.189453 0.190104 0.190755 0.191406 0.192057 0.192708 0.193359 0.194010 0.194661 0.195312 0.195964 0.196615 0.197266 0.197917 0.198568 0.199219 0.199870 0.200521 0.201172 0.201823 0.202474 0.203125 0.203776 0.204427 0.205078 0.205729 0.206380 0.207031 0.207682 0.208333 0.208984 0.209635 0.210286 0.210938 0.211589 0.212240 0.212891 0.213542 0.214193 0.214844 0.215495 0.216146 0.216797 0.217448 0.218099 0.218750 0.219401 0.220052 0.220703 0.221354 0.222005 0.222656 0.223307 0.223958 0.224609 0.225260 0.225911 0.226562 0.227214 0.227865 0.228516 0.229167 0.229818 0.230469 0.231120 0.231771 0.232422 0.233073 0.233724 0.234375 0.235026 0.235677
       0.33023        0.33023        0.33023        0.33023        0.33023        0.33023        0.33023        0.33023        0.33023        0.33023        0.33023        0.33023        0.33023        0.33023        0.33023        0.33023        0.33023        0.33023        0.33023        0.33023        0.33023        0.33023        0.33023        0.33024        0.33023        0.33023        0.33023        0.33023        0.33023        0.33023        0.33023        0.33023        0.33023        0.33023        0.33023        0.33023        0.33023        0.33023        0.33023        0.33023        0.33023        0.33023        0.33023        0.33023        0.33023        0.33024        0.33023        0.33023        0.33023        0.33023        0.33023        0.49869        0.71504        0.42394        0.18884       -0.08084       -0.26228       -0.07046       -0.13266       -0.06040       -0.00413       -0.15034       -0.09975       -0.04975       -0.00270       -0.15421       -0.22356       -0.34460       -0.46594       -0.56656       -0.52164       -0.45513       -0.37472       -0.55469       -0.45329       -0.62419       -0.50692       -0.47589       -0.39533       -0.38384       -0.33961       -0.24873       -0.16596       -0.14266        0.02933       -0.01631        0.11515        0.16655        0.30413        0.41020        0.46199        0.49541        0.53961        0.54769        0.69010        0.64324        0.67686        0.58660        0.55368        0.65057        0.52443        0.42792        0.38703        0.31509        0.22837        0.26099        0.24875        0.10013        0.08014       -0.00267       -0.01068        0.03108       -0.01049        0.06933        0.09085        0.22893        0.28160        0.29824        0.38510        0.56070        0.53562        0.57437        0.66815        0.69297        0.62688        0.63417        0.63290        0.54428        0.56973        0.39266        0.34601        0.26284        0.18278        0.07185        0.14149        0.11329        0.09471        0.10790        0.20381        0.20117        0.31348        0.35380        0.41062        0.48924        0.57336        0.54277        0.55405        0.60370        0.53498        0.46224        0.48026        0.32155        0.24618        0.25372        0.24100        0.13679        0.14136        0.14951        0.22101        0.24694        0.33037        0.36944        0.39317        0.46113        0.44452        0.47484        0.44431        0.47064        0.44334        0.39890        0.37436        0.35708        0.31549        0.28537        0.20493        0.20281        0.22325        0.26663        0.25876        0.34096        0.37208        0.35145        0.40781        0.45298        0.44326        0.42387        0.43905        0.36166        0.33146        0.27887        0.25684        0.28564        0.26015        0.29154        0.29916        0.34441        0.33466        0.39813        0.39476        0.42206        0.40735        0.43335        0.40257        0.36548        0.28147        0.28613        0.29809        0.27536        0.25584        0.32798        0.36771        0.33453        0.35530        0.36352        0.34863        0.40423        0.39894        0.36035        0.33849        0.30643        0.30956        0.31689        0.30990        0.29703        0.28216        0.33527        0.35465        0.37235        0.33475        0.32928        0.33248        0.34563        0.30672        0.27858        0.30577        0.31713        0.32922        0.31859        0.33094        0.35184        0.32888        0.31603        0.32880        0.29841        0.25751        0.24636        0.26183        0.30256        0.31912        0.35379        0.29755        0.30668        0.32986        0.29096        0.31804        0.29049        0.27787        0.28653        0.29285        0.30670        0.34365        0.31805        0.32608        0.32624        0.32065        0.33333        0.31584        0.31993        0.31474        0.27249        0.28719        0.30539        0.28532        0.32000        0.32703        0.33248        0.31708        0.34692        0.32538        0.27859        0.24347        0.26984        0.32933        0.35828        0.34949        0.31813        0.29227        0.29777        0.31260        0.24925        0.28973        0.29808        0.31615        0.29148        0.29744        0.26930        0.33168        0.34010        0.33877        0.31903        0.29271        0.30527        0.38993        0.33301        0.31149        0.30357        0.30357        0.28503        0.29556        0.27853        0.30303        0.22910        0.26824        0.29690        0.31317        0.29539        0.27205        0.28699        0.23363        0.22531        0.27250        0.30994        0.30286        0.29965        0.28338        0.33060        0.25209        0.22442        0.29632        0.25431        0.26449        0.27413        0.37122        0.27696        0.28511        0.26218        0.23591        0.26366        0.25684        0.22956        0.16456        0.22395        0.22211        0.24724        0.30919        0.27351        0.33864        0.30142        0.26630        0.24942        0.21145        0.24514        0.27546        0.21961        0.14198        0.18439        0.24602        0.22104        0.31349        0.26935        0.05616       -0.41186       -0.93721
2.694564 2.666049 2.637688 2.609480 2.581426 2.553526 2.525779 2.498187 2.470748 2.443463 2.416332 2.389354 2.362531 2.335861 2.309345 2.282982 2.256774 2.230719 2.204818 2.179071 2.153478 2.128038 2.102752 2.077620 2.052642 2.027817 2.003147 1.978630 1.954267 1.930058 1.906002 1.882100 1.858352 1.834758 1.811318 1.788031 1.764898 1.741919 1.719094 1.696423 1.673905 1.651541 1.629331 1.607275 1.585372 1.563624 1.542029 1.520588 1.499300 1.478167 1.457187 1.525650 1.829004 1.519384 1.190200 0.941062 0.545189 0.912579 0.638093 0.867229 0.924194 0.591727 0.701311 0.783370 0.823850 0.625271 0.536331 0.352490 0.101458 0.072097 0.043309 0.071860 0.300023 -0.039550 0.076315 -0.134997 -0.018844 -0.015430 0.074557 0.065865 0.103527 0.178868 0.280797 0.245572 0.479588 0.396916 0.545357 0.528915 0.769815 0.789172 0.878186 0.927398 0.935578 0.949914 1.118189 0.951431 1.130990 0.945886 0.851746 1.015458 0.846819 0.760548 0.626019 0.592357 0.457394 0.419503 0.506164 0.262754 0.198905 0.159759 0.009563 0.203128 -0.007635 0.118854 0.173068 0.257736 0.337074 0.345743 0.433571 0.543662 0.668597 0.536175 0.740796 0.857926 0.637511 0.700983 0.673085 0.586482 0.537926 0.463329 0.304389 0.214226 0.120707 -0.037420 -0.015695 0.053447 -0.087706 -0.056584 0.056352 0.046370 0.110013 0.219434 0.240898 0.314268 0.440433 0.449306 0.440774 0.469659 0.454089 0.332172 0.338905 0.247962 0.049021 0.065227 0.019591 -0.043865 -0.098441 -0.093427 -0.013178 -0.041665 0.081493 0.134000 0.129435 0.264352 0.229489 0.248376 0.280213 0.237164 0.241749 0.212437 0.158493 0.116172 0.110265 0.026163 0.013325 -0.112540 -0.043585 0.007409 -0.001964 0.015867 0.099510 0.077939 0.122042 0.212796 0.266884 0.176393 0.198514 0.114888 0.144098 0.025360 -0.033339 0.024995 -0.017876 0.009378 0.001422 0.043526 0.083322 0.064416 0.162008 0.107703 0.184993 0.083884 0.171467 0.104668 0.011520 -0.042987 -0.009249 -0.019908 -0.050924 -0.050617 0.076734 0.074250 -0.000021 0.106434 0.084489 0.076861 0.160084 0.087857 0.087636 0.066503 -0.004224 0.045982 0.017320 0.027210 0.017821 0.010452 0.060979 0.085852 0.078599 0.050148 0.060294 0.033916 0.079085 0.002890 -0.004225 0.037957 0.029492 0.067222 0.049183 0.068669 0.071942 0.052998 0.025727 0.041309 0.001291 -0.044834 -0.031253 -0.018201 0.026374 0.042346 0.109569 0.000844 0.053353 0.060422 -0.002054 0.070008 0.019368 0.003920 0.033962 0.047618 0.039212 0.092506 0.043939 0.071705 0.072172 0.088263 0.067704 0.076326 0.091993 0.045799 -0.009540 0.052992 0.042641 0.043558 0.077502 0.078452 0.037619 0.067637 0.095253 0.023442 0.014256 -0.064777 -0.007819 0.117022 0.089904 0.076327 0.048118 -0.002883 0.057174 0.034713 -0.054977 0.049196 0.036839 0.058854 0.045631 -0.008321 0.045511 0.010285 0.063017 0.035931 0.041557 -0.038277 0.063934 0.114437 0.023888 -0.005376 0.019859 0.011456 -0.040917 -0.017721 -0.034164 -0.019440 -0.101651 -0.032294 -0.024849 0.013216 -0.031678 -0.063326 0.022198 -0.072052 -0.044089 -0.069845 0.057885 0.011834 0.029654 -0.010136 0.077621 -0.050926 -0.062092 0.030388 -0.045344 0.012865 -0.014589 0.164843 -0.055005 0.014675 0.017241 -0.043620 -0.000084 -0.010624 -0.028940 -0.158106 -0.014674 -0.044515 -0.032495 0.058983 0.008975 0.133676 0.053174 0.030159 0.002442 -0.004494 -0.023179 0.308667 0.265051 0.172437 0.231513 0.260054 0.300451 0.337648 0.300662 0.067999 -1.099814
0.072396 0.072911 0.074454 0.077025 0.080624 0.085250 0.090901 0.097576 0.105273 0.113988 0.123717 0.134458 0.146203 0.158945 0.172678 0.187390 0.203071 0.219706 0.237280 0.255773 0.275166 0.295433 0.316546 0.338474 0.361182 0.384631 0.408775 0.433566 0.458950 0.484867 0.511252 0.538033 0.565133 0.592468 0.619946 0.647471 0.674938 0.702234 0.729241 0.755833 0.781877 0.807232 0.831751 0.855281 0.877663 0.898731 0.918314 0.936238 0.952323 0.966389 0.978250 0.987724 0.994625 0.998771 0.999984 0.998089 0.992919 0.984313 0.972124 0.956215 0.936464 0.912765 0.885033 0.853202 0.817233 0.777110 0.732847 0.684488 0.632111 0.575827 0.515786 0.452176 0.385224 0.315198 0.242410 0.167212 0.090000 0.011211 0.068677 0.149146 0.229642 0.309576 0.388327 0.465248 0.539671 0.610910 0.678268 0.741048 0.798553 0.850100 0.895029 0.932707 0.962543 0.983996 0.996582 0.999891 0.993590 0.977438 0.951291 0.915115 0.868991 0.813120 0.747833 0.673595 0.591002 0.500787 0.403815 0.301082 0.193707 0.082925 0.029926 0.143417 0.256043 0.366247 0.472433 0.572996 0.666346 0.750929 0.825265 0.887967 0.937777 0.973592 0.994493 0.999772 0.988957 0.961832 0.918458 0.859187 0.784668 0.695855 0.594006 0.480669 0.357671 0.227099 0.091263 0.047330 0.186029 0.322075 0.452666 0.575011 0.686390 0.784222 0.866127 0.929992 0.974034 0.996855 0.997498 0.975487 0.930866 0.864219 0.776684 0.669950 0.546239 0.408273 0.259229 0.102674 0.057513 0.217231 0.372258 0.518362 0.651425 0.767556 0.863218 0.935344 0.981450 0.999730 0.989144 0.949477 0.881385 0.786410 0.666970 0.526315 0.368465 0.198101 0.020451 0.158871 0.334031 0.499169 0.648592 0.776982 0.879597 0.952457 0.992522 0.997831 0.967623 0.902407 0.803991 0.675469 0.521144 0.346418 0.157617 0.038216 0.233582 0.420799 0.592311 0.740996 0.860482 0.945428 0.991798 0.997068 0.960396 0.882711 0.766742 0.616957 0.439423 0.241597 0.032031 0.179984 0.384819 0.572933 0.735350 0.864079 0.952542 0.995942 0.991548 0.938902 0.839919 0.698867 0.522226 0.318430 0.097500 0.129430 0.350658 0.554519 0.730004 0.867375 0.958732 0.998507 0.983840 0.914825 0.794596 0.629242 0.427553 0.200588 0.038893 0.277117 0.500098 0.694458 0.848238 0.951682 0.997883 0.983303 0.908086 0.776156 0.595087 0.375715 0.131549 0.122030 0.368724 0.592345 0.777907 0.912651 0.986964 0.995122 0.935791 0.812237 0.632229 0.407617 0.153619 0.112181 0.371009 0.604236 0.794721 0.928115 0.993992 0.986719 0.906014 0.757106 0.550480 0.301228 0.027981 0.248409 0.506477 0.725788 0.888607 0.981367 0.995877 0.930123 0.788584 0.582032 0.326799 0.043564 0.244296 0.512590 0.738356 0.901878 0.988439 0.989747 0.904800 0.740167 0.509579 0.232882 0.065599 0.359155 0.621073 0.827079 0.957644 0.999905 0.949037 0.808889 0.591827 0.317747 0.012352 0.295213 0.575114 0.799728 0.946421 0.999920 0.953991 0.812282 0.588176 0.303645 0.012799 0.328910 0.611954 0.832130 0.965766 0.997949 0.924313 0.751738 0.497858 0.189376 0.140637 0.456243 0.722536 0.909545 0.995692 0.970393 0.835497 0.605333 0.305343 0.030612 0.364003 0.656027 0.872136 0.986220 0.983867 0.864335 0.640914 0.339628 0.003679 0.347505 0.649685 0.872582 0.987855 0.980196 0.849513 0.611251 0.294744 0.060257 0.408496 0.704949 0.910681 0.998063 0.954630 0.785030 0.510733 0.167515 0.199119 0.539847 0.808200 0.966941 0.993390
1.000000 1.000000 1.000000 1.000000 1.000000 1.000000 1.000000 1.000000 1.000000 1.000000 1.000000 1.000000 1.000000 1.000000 1.000000 1.000000 1.000000 1.000000 1.000000 1.000000 1.000000 1.000000 1.000000 1.000000 1.000000 1.000000 1.000000 1.000000 1.000000 1.000000 1.000000 1.000000 1.000000 1.000000 1.000000 1.000000 1.000000 1.000000 1.000000 1.000000 1.000000 1.000000 1.000000 1.000000 1.000000 1.000000 1.000000 1.000000 1.000000 1.000000 1.000000 1.000000 0.917885 0.917885 0.904904 0.904904 0.904904 0.904904 0.904904 0.904904 0.904904 0.904904 0.904904 0.904904 0.904904 0.904904 0.904904 0.904904 0.904904 0.904904 0.904904 0.904904 0.904904 0.904904 0.904904 0.904904 0.904904 0.904904 0.904904 0.904904 0.904904 0.904904 0.904904 0.904904 0.904904 0.904904 0.904904 0.904904 0.904904 0.904904 0.904904 0.904904 0.904904 0.904904 0.904904 0.902640 0.907667 0.909629 0.908231 0.911686 0.911724 0.909680 0.909130 0.908815 0.909183 0.910591 0.921032 0.931970 0.943113 0.943627 0.948841 0.953129 0.955676 0.956397 0.958038 0.968347 0.965647 0.965192 0.965875 0.967266 0.969319 0.968205 0.967555 0.970647 0.971266 0.969810 0.967344 0.966698 0.965351 0.964657 0.964310 0.964184 0.965276 0.965788 0.965409 0.965014 0.965166 0.965231 0.966230 0.967392 0.969989 0.971131 0.971055 0.969977 0.964896 0.968306 0.969277 0.968679 0.968703 0.968384 0.968662 0.952466 0.949957 0.949854 0.945995 0.945042 0.942501 0.940705 0.939627 0.940527 0.939741 0.939807 0.936460 0.923518 0.910141 0.897453 0.917792 0.905829 0.893015 0.869783 0.869631 0.863014 0.863396 0.855727 0.848373 0.844031 0.841480 0.843504 0.844204 0.848775 0.845055 0.829230 0.832737 0.828543 0.794412 0.782132 0.768278 0.764992 0.761891 0.762991 0.762752 0.757851 0.766461 0.758395 0.755324 0.745267 0.722967 0.688513 0.675955 0.687350 0.697578 0.698524 0.694535 0.679001 0.639573 0.652854 0.680447 0.673646 0.674699 0.669424 0.662275 0.670648 0.669640 0.665393 0.658625 0.658169 0.657804 0.668740 0.674125 0.666822 0.660469 0.648286 0.638297 0.624828 0.635843 0.644006 0.612465 0.606354 0.600095 0.595116 0.586041 0.565230 0.565217 0.544081 0.530229 0.529095 0.530286 0.534051 0.544321 0.543289 0.519515 0.541517 0.537886 0.569937 0.547133 0.545177 0.547317 0.556720 0.537019 0.527868 0.521601 0.522460 0.537865 0.568085 0.607790 0.600791 0.588870 0.583189 0.597001 0.578735 0.587316 0.610952 0.590061 0.518620 0.472766 0.469633 0.439082 0.429515 0.415225 0.395036 0.373509 0.373545 0.368850 0.354272 0.343166 0.291587 0.258321 0.238081 0.224018 0.238083 0.252678 0.251728 0.249400 0.286010 0.330830 0.334000 0.323930 0.307761 0.309676 0.305569 0.261815 0.260854 0.222863 0.211050 0.241635 0.190458 0.196578 0.139343 0.132916 0.149778 0.172970 0.186001 0.142062 0.124779 0.146171 0.165863 0.157653 0.150321 0.106156 0.081335 0.069632 0.080881 0.060905 0.031642 0.030824 0.038575 0.020357 -0.003433 0.003411 -0.000250 0.005938 -0.008187 -0.007279 0.038813 0.066161 0.057420 0.061454 0.080136 0.068192 0.047904 0.041019 0.025744 0.017932 -0.029752 -0.054499 -0.054499 -0.047615 -0.047615 -0.047615 -0.047615 -0.047615 -0.047615 -0.047615 -0.047615 -0.047615 -0.047848 -0.047848 -0.047848 -0.047848 -0.047848 -0.047848 -0.047848 -0.047848 -0.047848 -0.029467 -0.029467 -0.029467 -0.029467 -0.029467 -0.029467 -0.029467 -0.029467 -0.029467
0.000000 0.000000 0.000000 0.000000 0.000000 0.000000 0.000000 0.000000 0.000000 0.000000 0.000000 0.000000 0.000000 0.000000 0.000000 0.000000 0.000000 0.000000 0.000000 0.000000 0.000000 0.000000 0.000000 0.000000 0.000000 0.000000 0.000000 0.000000 0.000000 0.000000 0.000000 0.000000 0.000000 0.000000 0.000000 0.000000 0.000000 0.000000 0.000000 0.000000 0.000000 0.000000 0.000000 0.000000 0.000000 0.000000 0.000000 0.000000 0.000000 0.000000 0.000000 0.000000 0.181818 0.181818 0.199007 0.199007 0.199007 0.199007 0.199007 0.199007 0.199007 0.199007 0.199007 0.199007 0.199007 0.199007 0.199007 0.199007 0.199007 0.199007 0.199007 0.199007 0.199007 0.199007 0.199007 0.199007 0.199007 0.199007 0.199007 0.199007 0.199007 0.199007 0.199007 0.199007 0.199007 0.199007 0.199007 0.199007 0.199007 0.199007 0.199007 0.199007 0.199007 0.199007 0.199007 0.230940 0.230940 0.230940 0.230940 0.230940 0.230940 0.230940 0.230940 0.230940 0.230940 0.230940 0.230940 0.230940 0.230940 0.230940 0.230940 0.230940 0.230940 0.230940 0.230940 0.230940 0.230940 0.230940 0.230940 0.230940 0.230940 0.230940 0.230940 0.244339 0.244339 0.244339 0.244339 0.244339 0.244339 0.244339 0.244339 0.244339 0.244339 0.244339 0.244339 0.244339 0.244339 0.244339 0.244339 0.244339 0.244339 0.244339 0.244339 0.244339 0.244339 0.244339 0.251976 0.251976 0.251976 0.251976 0.251976 0.251976 0.251976 0.251976 0.251976 0.251976 0.251976 0.251976 0.251976 0.251976 0.251976 0.251976 0.251976 0.251976 0.251976 0.251976 0.264906 0.264906 0.264906 0.264906 0.264906 0.264906 0.264906 0.264906 0.264906 0.264906 0.264906 0.264906 0.264906 0.264906 0.264906 0.264906 0.264906 0.264906 0.264906 0.264906 0.264906 0.264906 0.264906 0.264906 0.264906 0.264906 0.264906 0.264906 0.264906 0.264906 0.264906 0.264906 0.264906 0.264906 0.264906 0.264906 0.264906 0.264906 0.264906 0.264906 0.264906 0.264906 0.264906 0.264906 0.264906 0.264906 0.264906 0.264906 0.264906 0.264906 0.264906 0.264906 0.264906 0.264906 0.264906 0.264906 0.264906 0.264906 0.264906 0.264906 0.264906 0.264906 0.264906 0.264906 0.264906 0.264906 0.264906 0.264906 0.264906 0.264906 0.264906 0.264906 0.264906 0.264906 0.264906 0.269680 0.269680 0.269680 0.269680 0.269680 0.269680 0.269680 0.269680 0.269680 0.269680 0.269680 0.269680 0.264906 0.264906 0.264906 0.264906 0.264906 0.264906 0.264906 0.264906 0.264906 0.264906 0.264906 0.264906 0.269680 0.269680 0.269680 0.269680 0.269680 0.269680 0.269680 0.269680 0.269680 0.269680 0.269680 0.264906 0.264906 0.264906 0.264906 0.264906 0.264906 0.264906 0.264906 0.264906 0.264906 0.264906 0.269680 0.269680 0.269680 0.269680 0.269680 0.269680 0.269680 0.269680 0.269680 0.269680 0.251976 0.251976 0.251976 0.251976 0.251976 0.251976 0.251976 0.251976 0.251976 0.251976 0.251976 0.269680 0.269680 0.269680 0.269680 0.269680 0.269680 0.269680 0.269680 0.269680 0.256074 0.256074 0.256074 0.256074 0.256074 0.256074 0.256074 0.256074 0.256074 0.256074 0.260378 0.260378 0.260378 0.260378 0.260378 0.260378 0.260378 0.260378 0.260378 0.256074 0.256074 0.256074 0.256074 0.256074 0.256074 0.256074 0.256074 0.256074 0.251976 0.251976 0.251976 0.251976 0.251976 0.251976 0.251976 0.251976 0.251976 0.264906 0.264906 0.264906 0.264906 0.264906 0.264906 0.264906 0.264906 0.264906
