# Output from CTFFind version 4.1.9, run on 2019-11-03 19:46:16
# Input file: stack1_bm3d_averaged_1_5.25_0_1000_half.mrc ; Number of micrographs: 1
# Pixel size: 3.000 Angstroms ; acceleration voltage: 300.0 keV ; spherical aberration: 0.00 mm ; amplitude contrast: 0.07
# Box size: 512 pixels ; min. res.: 30.0 Angstroms ; max. res.: 5.0 Angstroms ; min. def.: 5000.0 um; max. def. 50000.0 um; num. frames averaged: 1
# 6 lines per micrograph: #1 - spatial frequency (1/Angstroms); #2 - 1D rotational average of spectrum (assuming no astigmatism); #3 - 1D rotational average of spectrum; #4 - CTF fit; #5 - cross-correlation between spectrum and CTF fit; #6 - 2sigma of expected cross correlation of noise
0.000000 0.000651 0.001302 0.001953 0.002604 0.003255 0.003906 0.004557 0.005208 0.005859 0.006510 0.007161 0.007812 0.008464 0.009115 0.009766 0.010417 0.011068 0.011719 0.012370 0.013021 0.013672 0.014323 0.014974 0.015625 0.016276 0.016927 0.017578 0.018229 0.018880 0.019531 0.020182 0.020833 0.021484 0.022135 0.022786 0.023438 0.024089 0.024740 0.025391 0.026042 0.026693 0.027344 0.027995 0.028646 0.029297 0.029948 0.030599 0.031250 0.031901 0.032552 0.033203 0.033854 0.034505 0.035156 0.035807 0.036458 0.037109 0.037760 0.038411 0.039062 0.039714 0.040365 0.041016 0.041667 0.042318 0.042969 0.043620 0.044271 0.044922 0.045573 0.046224 0.046875 0.047526 0.048177 0.048828 0.049479 0.050130 0.050781 0.051432 0.052083 0.052734 0.053385 0.054036 0.054688 0.055339 0.055990 0.056641 0.057292 0.057943 0.058594 0.059245 0.059896 0.060547 0.061198 0.061849 0.062500 0.063151 0.063802 0.064453 0.065104 0.065755 0.066406 0.067057 0.067708 0.068359 0.069010 0.069661 0.070312 0.070964 0.071615 0.072266 0.072917 0.073568 0.074219 0.074870 0.075521 0.076172 0.076823 0.077474 0.078125 0.078776 0.079427 0.080078 0.080729 0.081380 0.082031 0.082682 0.083333 0.083984 0.084635 0.085286 0.085938 0.086589 0.087240 0.087891 0.088542 0.089193 0.089844 0.090495 0.091146 0.091797 0.092448 0.093099 0.093750 0.094401 0.095052 0.095703 0.096354 0.097005 0.097656 0.098307 0.098958 0.099609 0.100260 0.100911 0.101562 0.102214 0.102865 0.103516 0.104167 0.104818 0.105469 0.106120 0.106771 0.107422 0.108073 0.108724 0.109375 0.110026 0.110677 0.111328 0.111979 0.112630 0.113281 0.113932 0.114583 0.115234 0.115885 0.116536 0.117188 0.117839 0.118490 0.119141 0.119792 0.120443 0.121094 0.121745 0.122396 0.123047 0.123698 0.124349 0.125000 0.125651 0.126302 0.126953 0.127604 0.128255 0.128906 0.129557 0.130208 0.130859 0.131510 0.132161 0.132812 0.133464 0.134115 0.134766 0.135417 0.136068 0.136719 0.137370 0.138021 0.138672 0.139323 0.139974 0.140625 0.141276 0.141927 0.142578 0.143229 0.143880 0.144531 0.145182 0.145833 0.146484 0.147135 0.147786 0.148438 0.149089 0.149740 0.150391 0.151042 0.151693 0.152344 0.152995 0.153646 0.154297 0.154948 0.155599 0.156250 0.156901 0.157552 0.158203 0.158854 0.159505 0.160156 0.160807 0.161458 0.162109 0.162760 0.163411 0.164062 0.164714 0.165365 0.166016 0.166667 0.167318 0.167969 0.168620 0.169271 0.169922 0.170573 0.171224 0.171875 0.172526 0.173177 0.173828 0.174479 0.175130 0.175781 0.176432 0.177083 0.177734 0.178385 0.179036 0.179688 0.180339 0.180990 0.181641 0.182292 0.182943 0.183594 0.184245 0.184896 0.185547 0.186198 0.186849 0.187500 0.188151 0.188802 0.189453 0.190104 0.190755 0.191406 0.192057 0.192708 0.193359 0.194010 0.194661 0.195312 0.195964 0.196615 0.197266 0.197917 0.198568 0.199219 0.199870 0.200521 0.201172 0.201823 0.202474 0.203125 0.203776 0.204427 0.205078 0.205729 0.206380 0.207031 0.207682 0.208333 0.208984 0.209635 0.210286 0.210938 0.211589 0.212240 0.212891 0.213542 0.214193 0.214844 0.215495 0.216146 0.216797 0.217448 0.218099 0.218750 0.219401 0.220052 0.220703 0.221354 0.222005 0.222656 0.223307 0.223958 0.224609 0.225260 0.225911 0.226562 0.227214 0.227865 0.228516 0.229167 0.229818 0.230469 0.231120 0.231771 0.232422 0.233073 0.233724 0.234375 0.235026 0.235677
       0.34991        0.34991        0.34991        0.34991        0.34991        0.34991        0.34991        0.34991        0.34991        0.34991        0.34991        0.34991        0.34991        0.34991        0.34991        0.34991        0.34991        0.34991        0.34991        0.34991        0.34991        0.34991        0.34991        0.34991        0.34991        0.34991        0.34991        0.34991        0.34991        0.34991        0.34991        0.34991        0.34991        0.34991        0.34991        0.34991        0.34991        0.34991        0.34991        0.34991        0.34991        0.34991        0.34991        0.34991        0.34991        0.34991        0.34991        0.34991        0.34991        0.34991        0.34991        0.40477        0.59291        0.27924        0.12509       -0.01560       -0.27042       -0.09743       -0.17420       -0.20435        0.01617       -0.13115       -0.11103       -0.05792       -0.03763       -0.12924       -0.15802       -0.29610       -0.39917       -0.50398       -0.44532       -0.34595       -0.27223       -0.39500       -0.30567       -0.40252       -0.33806       -0.38527       -0.20436       -0.20043       -0.25634       -0.09076       -0.04485       -0.04679        0.08198        0.03031        0.20341        0.21966        0.33368        0.36722        0.45088        0.48475        0.53916        0.60128        0.66722        0.56810        0.52714        0.50613        0.48526        0.56966        0.48103        0.42651        0.40682        0.33099        0.28570        0.30884        0.32178        0.22082        0.19192        0.09239        0.12992        0.13340        0.15743        0.12619        0.19045        0.24112        0.30061        0.29752        0.33052        0.46215        0.42186        0.48642        0.63328        0.62381        0.55531        0.55311        0.57693        0.42648        0.48044        0.36898        0.31686        0.29048        0.24791        0.25151        0.19453        0.17073        0.15154        0.22265        0.24723        0.27602        0.34059        0.32824        0.40693        0.47373        0.46995        0.44985        0.47930        0.55126        0.49195        0.47850        0.42373        0.35312        0.34012        0.26593        0.29712        0.23394        0.21994        0.28520        0.23390        0.25629        0.32082        0.41362        0.41420        0.44685        0.42616        0.50471        0.49822        0.46873        0.43670        0.39170        0.38181        0.39287        0.40266        0.34434        0.28205        0.31353        0.29064        0.29486        0.30024        0.34443        0.37465        0.39646        0.45379        0.49049        0.40899        0.42906        0.43132        0.39495        0.33048        0.36959        0.32610        0.31898        0.33363        0.29249        0.26151        0.32529        0.34117        0.41538        0.42562        0.41554        0.40577        0.39795        0.37349        0.37201        0.31161        0.31666        0.34869        0.30242        0.31203        0.32942        0.34642        0.34889        0.35374        0.38681        0.38527        0.45703        0.39393        0.34231        0.36286        0.34416        0.33375        0.33137        0.33276        0.37318        0.33408        0.35634        0.35199        0.41260        0.37740        0.36288        0.38442        0.38016        0.36037        0.34061        0.33220        0.30945        0.35133        0.33070        0.31393        0.32748        0.36109        0.35152        0.34294        0.33612        0.30380        0.29963        0.27835        0.31198        0.33303        0.35022        0.33514        0.32341        0.37164        0.33366        0.34159        0.32503        0.30078        0.34191        0.31791        0.31529        0.34277        0.32578        0.31663        0.29852        0.34171        0.37013        0.32434        0.31295        0.32063        0.32176        0.29959        0.35231        0.32253        0.28994        0.33805        0.30339        0.34526        0.35492        0.37426        0.31365        0.31353        0.26647        0.33581        0.36095        0.34343        0.31400        0.31017        0.33088        0.32320        0.29157        0.31798        0.31943        0.31507        0.30819        0.30102        0.29743        0.29667        0.29990        0.32139        0.28119        0.31021        0.35639        0.36848        0.34809        0.31659        0.32972        0.28418        0.30617        0.28882        0.33381        0.34081        0.27284        0.26070        0.32366        0.32999        0.31938        0.28805        0.30214        0.32769        0.28984        0.30605        0.33422        0.32872        0.28214        0.25670        0.30031        0.33847        0.28596        0.26269        0.28659        0.27379        0.30499        0.36599        0.30837        0.32890        0.28007        0.26306        0.29902        0.28698        0.23289        0.25334        0.27936        0.24865        0.21879        0.26659        0.29212        0.39520        0.29705        0.25757        0.21185        0.24220        0.25829        0.24461        0.32713        0.20737        0.15899        0.29664        0.40404        0.30472        0.12892        0.06745       -0.57257       -1.11358
3.004873 2.972106 2.939519 2.907114 2.874890 2.842846 2.810984 2.779303 2.747803 2.716485 2.685347 2.654390 2.623615 2.593020 2.562607 2.532375 2.502324 2.472453 2.442764 2.413257 2.383930 2.354784 2.325819 2.297036 2.268433 2.240012 2.211772 2.183713 2.155835 2.128138 2.100622 2.073287 2.046134 2.019161 1.992369 1.965759 1.939330 1.913082 1.887014 1.861128 1.835423 1.809899 1.784557 1.759395 1.734415 1.709615 1.684997 1.660559 1.636303 1.612228 1.588334 1.551136 1.901845 1.642896 1.180604 1.024883 0.414026 0.897554 0.520839 0.660343 0.887251 0.685252 0.582478 0.757051 0.699548 0.618177 0.522574 0.328913 0.111066 -0.021284 -0.018048 0.008738 0.390054 -0.040532 0.124163 -0.002268 0.062822 -0.062532 0.201936 0.173345 0.081502 0.266728 0.379922 0.280850 0.474971 0.391484 0.674672 0.564219 0.807384 0.761267 0.869359 1.030485 0.930242 1.124110 1.143628 1.102560 0.910190 0.894041 0.881867 0.907002 0.861876 0.749811 0.643444 0.591788 0.507845 0.474733 0.511695 0.365311 0.323646 0.166979 0.128727 0.170431 0.188768 0.122427 0.162530 0.248747 0.331678 0.330856 0.390531 0.405994 0.545291 0.384594 0.724159 0.753614 0.654190 0.598215 0.659116 0.446173 0.417882 0.390898 0.203828 0.215008 0.063541 0.157839 -0.007595 0.002153 -0.072938 -0.055035 0.106117 0.028623 0.116025 0.169038 0.208600 0.286002 0.350310 0.290370 0.332032 0.388081 0.392438 0.329926 0.284194 0.189512 0.143056 0.057611 -0.008524 0.007816 -0.111597 0.012883 0.010928 -0.087132 -0.045937 0.118328 0.246367 0.164129 0.253498 0.208048 0.420228 0.278816 0.266858 0.271535 0.152703 0.112656 0.290341 0.074800 0.077429 0.010358 0.075596 -0.008922 0.081990 0.000180 0.166139 0.055980 0.202981 0.263880 0.270541 0.124558 0.197919 0.161981 0.089056 0.084337 0.078340 0.007283 0.017998 0.052526 -0.085259 -0.061146 0.046248 0.046815 0.210479 0.120177 0.148818 0.066079 0.098134 0.043644 0.022292 -0.069839 -0.004866 0.000201 -0.068124 -0.023738 -0.008325 0.023767 -0.026952 0.032388 0.070424 0.078550 0.201728 -0.004142 0.031508 0.026830 -0.022190 -0.001827 -0.020351 0.018279 0.068008 -0.030335 0.016364 0.038403 0.132808 0.026072 0.037445 0.085840 0.022513 0.043808 -0.018260 0.002701 -0.036135 0.022982 -0.010510 -0.028643 -0.015158 0.056955 -0.016656 0.028804 -0.022063 -0.051444 -0.055144 -0.084115 -0.021097 0.010190 0.043639 -0.024218 -0.005021 0.078480 -0.006381 0.041480 -0.015907 -0.018528 0.036650 -0.020815 0.022729 0.041599 0.017532 -0.007381 -0.019395 0.066109 0.078538 0.017729 0.018369 0.045417 -0.015608 0.027839 0.077150 0.023375 -0.000787 0.062495 0.028290 0.044899 0.056437 0.075010 0.020463 -0.021359 -0.077144 0.057441 0.098714 0.002527 0.008736 -0.012217 0.089152 -0.009347 -0.042988 0.024977 0.033032 0.008238 0.000431 -0.039804 0.008990 -0.042409 0.006446 -0.013501 -0.069372 0.035995 0.076115 0.095878 0.027180 0.014463 -0.005903 -0.020804 -0.031010 -0.019574 0.018253 0.039586 -0.096165 -0.081224 0.019032 0.008101 0.018835 -0.051813 -0.076832 0.005630 -0.037604 -0.050981 0.069768 -0.015208 -0.029283 -0.089072 -0.025806 0.051854 -0.030849 -0.019932 -0.012875 0.027876 0.046211 0.140533 0.026273 0.068511 0.077986 -0.114043 0.068780 0.008413 -0.038816 -0.015315 0.059777 0.017605 -0.021061 -0.007101 0.094889 0.200509 0.017759 0.100979 -0.104128 0.021482 0.092632 0.015995 0.184436 0.260967 0.225390 0.512617 0.644895 0.287607 0.089649 0.102889 -1.586757
0.072396 0.072906 0.074435 0.076983 0.080550 0.085134 0.090734 0.097349 0.104976 0.113612 0.123254 0.133898 0.145538 0.158167 0.171777 0.186359 0.201901 0.218391 0.235811 0.254145 0.273371 0.293466 0.314403 0.336151 0.358675 0.381937 0.405894 0.430499 0.455697 0.481431 0.507638 0.534248 0.561185 0.588367 0.615705 0.643105 0.670464 0.697672 0.724615 0.751168 0.777201 0.802578 0.827154 0.850780 0.873298 0.894548 0.914362 0.932567 0.948989 0.963448 0.975764 0.985755 0.993239 0.998036 0.999968 0.998862 0.994551 0.986875 0.975684 0.960842 0.942223 0.919719 0.893239 0.862714 0.828097 0.789364 0.746522 0.699605 0.648679 0.593844 0.535235 0.473026 0.407428 0.338694 0.267115 0.193026 0.116803 0.038864 0.040335 0.120295 0.200483 0.280328 0.359231 0.436562 0.511669 0.583881 0.652514 0.716879 0.776289 0.830063 0.877539 0.918082 0.951089 0.976006 0.992331 0.999627 0.997531 0.985766 0.964146 0.932589 0.891123 0.839892 0.779165 0.709338 0.630939 0.544628 0.451196 0.351565 0.246782 0.138010 0.026519 0.086321 0.199063 0.310194 0.418157 0.521369 0.618252 0.707250 0.786862 0.855666 0.912350 0.955739 0.984824 0.998789 0.997036 0.979208 0.945209 0.895222 0.829717 0.749463 0.655525 0.549264 0.432321 0.306607 0.174271 0.037673 0.100654 0.238044 0.371758 0.499026 0.617113 0.723380 0.815345 0.890746 0.947610 0.984302 0.999588 0.992682 0.963282 0.911606 0.838410 0.744991 0.633184 0.505341 0.364292 0.213294 0.055967 0.103788 0.261880 0.414129 0.556380 0.684621 0.795096 0.884430 0.949738 0.988734 0.999821 0.982171 0.935781 0.861506 0.761075 0.637066 0.492867 0.332596 0.161003 0.016663 0.194803 0.367641 0.529414 0.674560 0.797928 0.894966 0.961903 0.995920 0.995279 0.959437 0.889105 0.786270 0.654173 0.497235 0.320923 0.131596 0.063725 0.257601 0.442453 0.610860 0.755871 0.871298 0.952005 0.994155 0.995419 0.955129 0.874364 0.755969 0.604485 0.426013 0.228000 0.018941 0.191961 0.395200 0.581386 0.741700 0.868314 0.954806 0.996511 0.990806 0.937303 0.837946 0.696985 0.520842 0.317857 0.097920 0.127985 0.348313 0.551557 0.726840 0.864528 0.956785 0.998047 0.985406 0.918848 0.801344 0.638774 0.439683 0.214877 0.023134 0.260810 0.484338 0.680449 0.837212 0.944798 0.996132 0.987406 0.918411 0.792650 0.617231 0.402524 0.161593 0.090560 0.337912 0.564422 0.755087 0.896970 0.980101 0.998243 0.949411 0.836130 0.665376 0.448233 0.199210 0.064659 0.324971 0.563226 0.762136 0.906935 0.986504 0.994291 0.928916 0.794413 0.600067 0.359850 0.091478 0.184848 0.447942 0.677259 0.854517 0.965206 0.999837 0.954827 0.832938 0.643219 0.400419 0.123909 0.163796 0.438855 0.678073 0.860866 0.971106 0.998601 0.940122 0.799864 0.589245 0.326084 0.033164 0.263685 0.537841 0.764283 0.921918 0.995614 0.977732 0.869022 0.678750 0.424011 0.128304 0.180576 0.473120 0.720902 0.899402 0.990483 0.984329 0.880617 0.688756 0.427172 0.121630 0.197221 0.496878 0.746307 0.919189 0.996783 0.970057 0.840865 0.621981 0.335972 0.012982 0.312374 0.604701 0.831672 0.967677 0.996816 0.914871 0.730039 0.462266 0.141219 0.196887 0.513345 0.771376 0.940447 0.999996 0.942054 0.772452 0.510411 0.186507 0.160769 0.489541 0.759591 0.937309 0.999996 0.938898 0.760580 0.486411 0.150154 0.206066 0.536975 0.799924 0.960421 0.996795 0.903270 0.691041 0.387110 0.031035 0.330119 0.647980 0.879326
1.000000 1.000000 1.000000 1.000000 1.000000 1.000000 1.000000 1.000000 1.000000 1.000000 1.000000 1.000000 1.000000 1.000000 1.000000 1.000000 1.000000 1.000000 1.000000 1.000000 1.000000 1.000000 1.000000 1.000000 1.000000 1.000000 1.000000 1.000000 1.000000 1.000000 1.000000 1.000000 1.000000 1.000000 1.000000 1.000000 1.000000 1.000000 1.000000 1.000000 1.000000 1.000000 1.000000 1.000000 1.000000 1.000000 1.000000 1.000000 1.000000 1.000000 1.000000 1.000000 0.838555 0.838555 0.838555 0.845178 0.845178 0.845178 0.845178 0.845178 0.845178 0.845178 0.845178 0.845178 0.845178 0.845178 0.845178 0.845178 0.845178 0.845178 0.845178 0.845178 0.845178 0.845178 0.845178 0.845178 0.845178 0.845178 0.845178 0.845178 0.845178 0.845178 0.845178 0.845178 0.845178 0.845178 0.845178 0.845178 0.845178 0.845178 0.845178 0.845178 0.845178 0.845178 0.845178 0.845178 0.856676 0.862382 0.864910 0.867642 0.870674 0.867911 0.866780 0.866319 0.866511 0.867423 0.878399 0.903249 0.919928 0.925609 0.936897 0.940636 0.946004 0.947242 0.956133 0.960093 0.961868 0.958438 0.957797 0.959691 0.950155 0.940101 0.937962 0.935074 0.951658 0.940903 0.936721 0.932511 0.930661 0.928183 0.928203 0.929686 0.922701 0.923296 0.924070 0.923242 0.923776 0.921710 0.920559 0.903504 0.904651 0.904017 0.907167 0.886044 0.879201 0.870191 0.867207 0.878307 0.871321 0.864167 0.862982 0.851974 0.852401 0.852153 0.852120 0.837641 0.835644 0.832446 0.828617 0.828167 0.827499 0.833106 0.834501 0.835784 0.822878 0.798006 0.780410 0.755799 0.754315 0.755127 0.759128 0.753069 0.754206 0.750502 0.747482 0.740740 0.739318 0.732199 0.735314 0.731364 0.723834 0.717858 0.693254 0.685952 0.685406 0.658501 0.652945 0.656551 0.657453 0.627148 0.623049 0.625850 0.632295 0.637790 0.649377 0.643110 0.632326 0.600226 0.574258 0.555599 0.571179 0.588929 0.577881 0.581027 0.557999 0.594248 0.600146 0.620870 0.633270 0.636282 0.627107 0.590999 0.548648 0.548724 0.545937 0.547779 0.546085 0.545591 0.553262 0.579754 0.560175 0.543399 0.531855 0.526053 0.531431 0.545412 0.524813 0.518118 0.488885 0.464266 0.446518 0.453051 0.434064 0.419027 0.413390 0.404150 0.387637 0.392692 0.409849 0.403635 0.400823 0.403907 0.401567 0.413352 0.375883 0.327222 0.328569 0.322567 0.320827 0.306956 0.296394 0.302767 0.311387 0.321551 0.354319 0.325928 0.307713 0.281614 0.290348 0.276427 0.297041 0.283807 0.268054 0.248388 0.222797 0.196586 0.197662 0.225006 0.254537 0.222963 0.188395 0.168749 0.159254 0.135531 0.127835 0.069000 0.010529 -0.001229 0.007545 0.005668 0.008088 0.012277 -0.005052 0.017216 0.028334 0.074217 0.046873 0.041689 0.021009 0.033789 -0.002960 -0.012466 -0.038344 -0.038217 -0.023469 0.002528 -0.034792 -0.051141 -0.072998 -0.063685 -0.103132 -0.087829 -0.095302 -0.088508 -0.093942 -0.136129 -0.148696 -0.170546 -0.186782 -0.173724 -0.168901 -0.172559 -0.217873 -0.222822 -0.211943 -0.214332 -0.219596 -0.191342 -0.197958 -0.179459 -0.180041 -0.180007 -0.144662 -0.146043 -0.159283 -0.161805 -0.147955 -0.165394 -0.159248 -0.116255 -0.117521 -0.151045 -0.153107 -0.153107 -0.153107 -0.153107 -0.153107 -0.153107 -0.137193 -0.137193 -0.137193 -0.137193 -0.137193 -0.137193 -0.137193 -0.137193 -0.137193 -0.073200 -0.073200 -0.073200 -0.073200 -0.073200 -0.073200 -0.073200 -0.073200 -0.073200 -0.073200 -0.073200 -0.073200 -0.073200 -0.073200 -0.073200 -0.073200
0.000000 0.000000 0.000000 0.000000 0.000000 0.000000 0.000000 0.000000 0.000000 0.000000 0.000000 0.000000 0.000000 0.000000 0.000000 0.000000 0.000000 0.000000 0.000000 0.000000 0.000000 0.000000 0.000000 0.000000 0.000000 0.000000 0.000000 0.000000 0.000000 0.000000 0.000000 0.000000 0.000000 0.000000 0.000000 0.000000 0.000000 0.000000 0.000000 0.000000 0.000000 0.000000 0.000000 0.000000 0.000000 0.000000 0.000000 0.000000 0.000000 0.000000 0.000000 0.000000 0.180334 0.180334 0.180334 0.199007 0.199007 0.199007 0.199007 0.199007 0.199007 0.199007 0.199007 0.199007 0.199007 0.199007 0.199007 0.199007 0.199007 0.199007 0.199007 0.199007 0.199007 0.199007 0.199007 0.199007 0.199007 0.199007 0.199007 0.199007 0.199007 0.199007 0.199007 0.199007 0.199007 0.199007 0.199007 0.199007 0.199007 0.199007 0.199007 0.199007 0.199007 0.199007 0.199007 0.199007 0.230940 0.230940 0.230940 0.230940 0.230940 0.230940 0.230940 0.230940 0.230940 0.230940 0.230940 0.230940 0.230940 0.230940 0.230940 0.230940 0.230940 0.230940 0.230940 0.230940 0.230940 0.230940 0.230940 0.230940 0.230940 0.230940 0.230940 0.230940 0.244339 0.244339 0.244339 0.244339 0.244339 0.244339 0.244339 0.244339 0.244339 0.244339 0.244339 0.244339 0.244339 0.244339 0.244339 0.244339 0.244339 0.244339 0.244339 0.244339 0.244339 0.244339 0.244339 0.256074 0.256074 0.256074 0.256074 0.256074 0.256074 0.256074 0.256074 0.256074 0.256074 0.256074 0.256074 0.256074 0.256074 0.256074 0.256074 0.256074 0.256074 0.256074 0.256074 0.256074 0.256074 0.256074 0.256074 0.256074 0.256074 0.256074 0.256074 0.256074 0.256074 0.256074 0.256074 0.256074 0.256074 0.256074 0.256074 0.256074 0.264906 0.264906 0.264906 0.264906 0.264906 0.264906 0.264906 0.264906 0.264906 0.264906 0.264906 0.264906 0.264906 0.264906 0.264906 0.264906 0.264906 0.264906 0.264906 0.264906 0.264906 0.264906 0.264906 0.264906 0.264906 0.264906 0.264906 0.264906 0.264906 0.264906 0.264906 0.264906 0.264906 0.264906 0.264906 0.264906 0.264906 0.264906 0.264906 0.264906 0.264906 0.264906 0.264906 0.264906 0.264906 0.264906 0.264906 0.264906 0.264906 0.264906 0.264906 0.264906 0.264906 0.264906 0.264906 0.264906 0.264906 0.264906 0.269680 0.269680 0.269680 0.269680 0.269680 0.269680 0.269680 0.269680 0.269680 0.269680 0.269680 0.269680 0.264906 0.264906 0.264906 0.264906 0.264906 0.264906 0.264906 0.264906 0.264906 0.264906 0.264906 0.264906 0.269680 0.269680 0.269680 0.269680 0.269680 0.269680 0.269680 0.269680 0.269680 0.269680 0.269680 0.264906 0.264906 0.264906 0.264906 0.264906 0.264906 0.264906 0.264906 0.264906 0.264906 0.264906 0.256074 0.256074 0.256074 0.256074 0.256074 0.256074 0.256074 0.256074 0.256074 0.256074 0.256074 0.264906 0.264906 0.264906 0.264906 0.264906 0.264906 0.264906 0.264906 0.264906 0.264906 0.260378 0.260378 0.260378 0.260378 0.260378 0.260378 0.260378 0.260378 0.260378 0.260378 0.264906 0.264906 0.264906 0.264906 0.264906 0.264906 0.264906 0.264906 0.264906 0.251976 0.251976 0.251976 0.251976 0.251976 0.251976 0.251976 0.251976 0.251976 0.251976 0.256074 0.256074 0.256074 0.256074 0.256074 0.256074 0.256074 0.256074 0.256074 0.269680 0.269680 0.269680 0.269680 0.269680 0.269680 0.269680 0.269680 0.269680 0.269680 0.269680 0.269680 0.269680 0.269680 0.269680 0.269680
