# Output from CTFFind version 4.1.9, run on 2019-11-03 19:30:00
# Input file: stack1_bm3d_averaged_1_3.75_0_2500_half.mrc ; Number of micrographs: 1
# Pixel size: 3.000 Angstroms ; acceleration voltage: 300.0 keV ; spherical aberration: 0.00 mm ; amplitude contrast: 0.07
# Box size: 512 pixels ; min. res.: 30.0 Angstroms ; max. res.: 5.0 Angstroms ; min. def.: 5000.0 um; max. def. 50000.0 um; num. frames averaged: 1
# 6 lines per micrograph: #1 - spatial frequency (1/Angstroms); #2 - 1D rotational average of spectrum (assuming no astigmatism); #3 - 1D rotational average of spectrum; #4 - CTF fit; #5 - cross-correlation between spectrum and CTF fit; #6 - 2sigma of expected cross correlation of noise
0.000000 0.000651 0.001302 0.001953 0.002604 0.003255 0.003906 0.004557 0.005208 0.005859 0.006510 0.007161 0.007812 0.008464 0.009115 0.009766 0.010417 0.011068 0.011719 0.012370 0.013021 0.013672 0.014323 0.014974 0.015625 0.016276 0.016927 0.017578 0.018229 0.018880 0.019531 0.020182 0.020833 0.021484 0.022135 0.022786 0.023438 0.024089 0.024740 0.025391 0.026042 0.026693 0.027344 0.027995 0.028646 0.029297 0.029948 0.030599 0.031250 0.031901 0.032552 0.033203 0.033854 0.034505 0.035156 0.035807 0.036458 0.037109 0.037760 0.038411 0.039062 0.039714 0.040365 0.041016 0.041667 0.042318 0.042969 0.043620 0.044271 0.044922 0.045573 0.046224 0.046875 0.047526 0.048177 0.048828 0.049479 0.050130 0.050781 0.051432 0.052083 0.052734 0.053385 0.054036 0.054688 0.055339 0.055990 0.056641 0.057292 0.057943 0.058594 0.059245 0.059896 0.060547 0.061198 0.061849 0.062500 0.063151 0.063802 0.064453 0.065104 0.065755 0.066406 0.067057 0.067708 0.068359 0.069010 0.069661 0.070312 0.070964 0.071615 0.072266 0.072917 0.073568 0.074219 0.074870 0.075521 0.076172 0.076823 0.077474 0.078125 0.078776 0.079427 0.080078 0.080729 0.081380 0.082031 0.082682 0.083333 0.083984 0.084635 0.085286 0.085938 0.086589 0.087240 0.087891 0.088542 0.089193 0.089844 0.090495 0.091146 0.091797 0.092448 0.093099 0.093750 0.094401 0.095052 0.095703 0.096354 0.097005 0.097656 0.098307 0.098958 0.099609 0.100260 0.100911 0.101562 0.102214 0.102865 0.103516 0.104167 0.104818 0.105469 0.106120 0.106771 0.107422 0.108073 0.108724 0.109375 0.110026 0.110677 0.111328 0.111979 0.112630 0.113281 0.113932 0.114583 0.115234 0.115885 0.116536 0.117188 0.117839 0.118490 0.119141 0.119792 0.120443 0.121094 0.121745 0.122396 0.123047 0.123698 0.124349 0.125000 0.125651 0.126302 0.126953 0.127604 0.128255 0.128906 0.129557 0.130208 0.130859 0.131510 0.132161 0.132812 0.133464 0.134115 0.134766 0.135417 0.136068 0.136719 0.137370 0.138021 0.138672 0.139323 0.139974 0.140625 0.141276 0.141927 0.142578 0.143229 0.143880 0.144531 0.145182 0.145833 0.146484 0.147135 0.147786 0.148438 0.149089 0.149740 0.150391 0.151042 0.151693 0.152344 0.152995 0.153646 0.154297 0.154948 0.155599 0.156250 0.156901 0.157552 0.158203 0.158854 0.159505 0.160156 0.160807 0.161458 0.162109 0.162760 0.163411 0.164062 0.164714 0.165365 0.166016 0.166667 0.167318 0.167969 0.168620 0.169271 0.169922 0.170573 0.171224 0.171875 0.172526 0.173177 0.173828 0.174479 0.175130 0.175781 0.176432 0.177083 0.177734 0.178385 0.179036 0.179688 0.180339 0.180990 0.181641 0.182292 0.182943 0.183594 0.184245 0.184896 0.185547 0.186198 0.186849 0.187500 0.188151 0.188802 0.189453 0.190104 0.190755 0.191406 0.192057 0.192708 0.193359 0.194010 0.194661 0.195312 0.195964 0.196615 0.197266 0.197917 0.198568 0.199219 0.199870 0.200521 0.201172 0.201823 0.202474 0.203125 0.203776 0.204427 0.205078 0.205729 0.206380 0.207031 0.207682 0.208333 0.208984 0.209635 0.210286 0.210938 0.211589 0.212240 0.212891 0.213542 0.214193 0.214844 0.215495 0.216146 0.216797 0.217448 0.218099 0.218750 0.219401 0.220052 0.220703 0.221354 0.222005 0.222656 0.223307 0.223958 0.224609 0.225260 0.225911 0.226562 0.227214 0.227865 0.228516 0.229167 0.229818 0.230469 0.231120 0.231771 0.232422 0.233073 0.233724 0.234375 0.235026 0.235677
       0.35125        0.35125        0.35125        0.35125        0.35125        0.35125        0.35125        0.35125        0.35125        0.35125        0.35125        0.35125        0.35125        0.35125        0.35125        0.35125        0.35125        0.35125        0.35125        0.35125        0.35125        0.35125        0.35125        0.35125        0.35125        0.35125        0.35125        0.35125        0.35125        0.35125        0.35125        0.35125        0.35125        0.35125        0.35125        0.35125        0.35125        0.35125        0.35125        0.35125        0.35125        0.35125        0.35125        0.35125        0.35125        0.35125        0.35125        0.35125        0.35125        0.35125        0.35125        0.47596        0.68574        0.36967        0.19306       -0.03596       -0.24307       -0.05361       -0.13595       -0.11394        0.01374       -0.10727       -0.11450       -0.04355       -0.02847       -0.12873       -0.16075       -0.30194       -0.46896       -0.55467       -0.51550       -0.43290       -0.32885       -0.50921       -0.38468       -0.51299       -0.42168       -0.44599       -0.31902       -0.29823       -0.28226       -0.18072       -0.10504       -0.08780        0.05298        0.02539        0.18767        0.17432        0.31916        0.39738        0.51744        0.54135        0.56301        0.59699        0.73901        0.64883        0.63757        0.55219        0.53717        0.62002        0.50821        0.48703        0.41691        0.31943        0.28644        0.29872        0.25365        0.13641        0.13807        0.00878        0.07034        0.07046        0.04166        0.09415        0.13154        0.21943        0.28926        0.29832        0.36239        0.49935        0.51883        0.53917        0.65844        0.63320        0.61033        0.64166        0.62765        0.50287        0.50282        0.40082        0.35878        0.28309        0.22089        0.18760        0.16598        0.13519        0.19743        0.20637        0.24370        0.25586        0.32566        0.37830        0.39581        0.49538        0.53914        0.55707        0.52843        0.59991        0.51991        0.49302        0.50223        0.38400        0.32268        0.29194        0.29164        0.21459        0.23332        0.21710        0.22761        0.24210        0.32435        0.37534        0.41565        0.44334        0.44594        0.47198        0.44470        0.48156        0.42105        0.38596        0.35039        0.39091        0.36179        0.34689        0.26117        0.31240        0.26737        0.26995        0.28616        0.36440        0.37890        0.42028        0.43960        0.46401        0.43841        0.43452        0.47001        0.36656        0.35764        0.34609        0.29808        0.34259        0.28968        0.32386        0.33486        0.32744        0.37274        0.41253        0.39215        0.43528        0.38840        0.41538        0.38665        0.41157        0.31414        0.31042        0.28497        0.25083        0.31806        0.34684        0.36298        0.36348        0.38523        0.39154        0.36693        0.43710        0.40266        0.37337        0.36369        0.31935        0.28903        0.31324        0.31630        0.36787        0.33239        0.35653        0.34274        0.39899        0.38367        0.37358        0.38677        0.38518        0.35427        0.32057        0.35414        0.34230        0.34946        0.31646        0.36323        0.37011        0.33730        0.34071        0.36332        0.33186        0.29298        0.30621        0.30795        0.31969        0.31523        0.35778        0.33103        0.33291        0.33657        0.33226        0.32394        0.30122        0.31696        0.32109        0.30930        0.31396        0.32410        0.31655        0.34022        0.32479        0.38410        0.37985        0.33669        0.37551        0.32108        0.26270        0.29087        0.33295        0.33323        0.30662        0.34276        0.32611        0.31910        0.34655        0.35945        0.33756        0.31024        0.29410        0.34566        0.36739        0.37576        0.30317        0.31186        0.28808        0.26196        0.26441        0.33192        0.31842        0.31315        0.30542        0.29655        0.29157        0.33996        0.36740        0.35606        0.30690        0.32865        0.32972        0.35055        0.39024        0.32980        0.33385        0.33094        0.35147        0.32375        0.32176        0.33337        0.26603        0.29733        0.32854        0.30400        0.33608        0.30811        0.26064        0.24678        0.29636        0.29112        0.35984        0.31797        0.31145        0.27924        0.31893        0.33230        0.28638        0.28820        0.25002        0.29143        0.31215        0.35297        0.29387        0.31657        0.32147        0.29340        0.33629        0.26081        0.20932        0.20945        0.26364        0.24582        0.25641        0.21891        0.20906        0.34613        0.31470        0.25650        0.24759        0.20053        0.27613        0.37181        0.22725        0.09934        0.18010        0.15553        0.17631        0.25558        0.13362        0.11394       -0.46485       -1.09929
2.789969 2.760176 2.730546 2.701078 2.671772 2.642628 2.613647 2.584827 2.556169 2.527674 2.499341 2.471169 2.443160 2.415313 2.387629 2.360106 2.332745 2.305547 2.278510 2.251636 2.224924 2.198373 2.171985 2.145759 2.119696 2.093794 2.068054 2.042477 2.017062 1.991808 1.966717 1.941788 1.917021 1.892416 1.867974 1.843693 1.819575 1.795618 1.771824 1.748192 1.724722 1.701414 1.678268 1.655284 1.632463 1.609803 1.587306 1.564971 1.542797 1.520786 1.498937 1.520848 1.876367 1.704578 1.123436 1.062590 0.499474 0.926648 0.601515 0.776390 0.882332 0.670333 0.614213 0.778033 0.748567 0.601962 0.574131 0.362583 0.052539 0.011177 -0.009128 -0.029616 0.329451 -0.062613 0.053611 -0.059010 -0.004756 -0.029612 0.091995 0.104788 0.115030 0.195700 0.311727 0.286449 0.454424 0.386063 0.628092 0.522391 0.767042 0.757129 0.932296 1.021108 0.945153 1.021772 1.141862 1.118650 1.059739 0.885632 0.873822 0.975198 0.818946 0.819435 0.663715 0.555328 0.498045 0.478521 0.459745 0.243360 0.274295 0.110407 0.063177 0.172443 0.042278 0.085824 0.173176 0.209665 0.319935 0.336984 0.416289 0.461989 0.622234 0.483053 0.748173 0.737505 0.629577 0.722612 0.693302 0.545733 0.438755 0.422036 0.285784 0.239060 0.087702 0.079507 -0.001375 -0.006853 -0.031415 0.039917 0.077565 0.073818 0.097518 0.220133 0.241781 0.289659 0.415620 0.419303 0.370975 0.444126 0.408286 0.324284 0.320552 0.282591 0.080084 0.079622 0.022334 -0.022373 -0.043660 -0.066186 -0.054664 -0.058060 -0.007175 0.084830 0.159908 0.206993 0.173789 0.204543 0.271850 0.221491 0.210697 0.212202 0.095531 0.088388 0.151863 0.061354 0.009478 -0.005989 0.028931 -0.033828 -0.007017 0.029345 0.109270 0.109634 0.152861 0.211269 0.225525 0.112366 0.204007 0.163129 0.096882 0.052635 0.009150 0.050198 -0.007023 0.014226 -0.000678 0.048253 0.027329 0.101551 0.132094 0.083684 0.157906 0.089600 0.105609 0.122901 0.087894 -0.043463 -0.001237 -0.056922 -0.068855 0.020197 0.053883 0.078741 0.034222 0.108507 0.045650 0.110288 0.168944 0.069535 0.088372 0.082970 -0.053952 0.000983 0.002936 0.024877 0.074190 0.048859 0.039273 0.081262 0.091486 0.081779 0.100796 0.091519 0.077515 0.045490 0.034513 0.054461 0.033598 0.063623 0.016086 0.084373 0.049586 0.012464 0.040486 0.062524 -0.011706 -0.051440 0.011987 -0.032704 -0.014757 -0.008472 0.051722 0.014220 -0.001835 0.022572 0.011460 0.011017 -0.010310 -0.009748 -0.008544 0.016174 -0.010001 0.005276 -0.021398 0.039419 0.024397 0.098397 0.081103 0.052809 0.073747 -0.005736 -0.086640 0.001843 0.028455 0.046164 -0.003234 0.047087 0.008366 0.002516 0.043348 0.052136 0.034568 -0.058168 -0.004824 0.058775 0.048929 0.060398 -0.043146 -0.007865 -0.039551 -0.062298 -0.053462 0.012522 0.038171 -0.017084 0.004507 -0.039820 -0.031355 0.012294 0.098395 -0.028993 0.017430 -0.046808 0.021581 0.030299 0.071798 -0.018656 -0.033370 0.019855 -0.016023 -0.048093 -0.046725 -0.018516 -0.121792 -0.052971 -0.025056 -0.041414 -0.015501 -0.104460 -0.089683 -0.080566 -0.036553 -0.135827 0.061283 -0.054118 -0.011237 -0.066802 -0.008337 0.026022 -0.044849 -0.024141 -0.108047 0.025869 0.006108 0.084261 -0.034073 0.029706 0.059927 0.003621 0.136186 -0.025278 -0.079377 -0.048022 0.027359 0.011078 0.055453 -0.009265 -0.028544 0.177873 0.124353 0.098893 0.034208 0.031929 0.092559 0.295208 0.442491 0.102289 0.222562 0.248183 0.154829 0.336745 0.107667 0.147165 -1.386471
0.072396 0.072908 0.074443 0.077000 0.080580 0.085181 0.090802 0.097442 0.105097 0.113765 0.123444 0.134127 0.145809 0.158485 0.172145 0.186780 0.202379 0.218928 0.236411 0.254810 0.274104 0.294269 0.315278 0.337100 0.359699 0.383038 0.407071 0.431752 0.457026 0.482835 0.509115 0.535795 0.562799 0.590043 0.617440 0.644891 0.672294 0.699539 0.726508 0.753078 0.779116 0.804484 0.829038 0.852626 0.875090 0.896266 0.915987 0.934078 0.950364 0.964664 0.976796 0.986577 0.993824 0.998357 0.999997 0.998570 0.993910 0.985856 0.974260 0.958983 0.939903 0.916912 0.889922 0.858865 0.823696 0.784397 0.740975 0.693468 0.641949 0.586521 0.527326 0.464542 0.398389 0.329123 0.257046 0.182499 0.105867 0.027574 0.051914 0.132091 0.212414 0.292306 0.371158 0.448333 0.523173 0.595001 0.663127 0.726859 0.785505 0.838384 0.884834 0.924221 0.955947 0.979462 0.994271 0.999949 0.996144 0.982593 0.959129 0.925687 0.882316 0.829185 0.766588 0.694947 0.614819 0.526892 0.431989 0.331062 0.225187 0.115556 0.003468 0.109683 0.222426 0.333229 0.440519 0.542704 0.638198 0.725446 0.802956 0.869316 0.923238 0.963573 0.989349 0.999792 0.994354 0.972736 0.934903 0.881107 0.811891 0.728099 0.630873 0.521652 0.402154 0.274359 0.140488 0.002957 0.135645 0.272618 0.405190 0.530582 0.646061 0.749008 0.836981 0.907774 0.959487 0.990580 0.999929 0.986870 0.951241 0.893409 0.814281 0.715318 0.598510 0.466365 0.321854 0.168365 0.009629 0.150367 0.307470 0.457475 0.596232 0.719770 0.824416 0.906910 0.964526 0.995165 0.997450 0.970800 0.915477 0.832614 0.724222 0.593156 0.443066 0.278308 0.103835 0.074944 0.252318 0.422465 0.579632 0.718343 0.833594 0.921052 0.977231 0.999647 0.986954 0.939028 0.857026 0.743389 0.601796 0.437079 0.255073 0.062431 0.133606 0.325470 0.505567 0.666568 0.801725 0.905172 0.972192 0.999465 0.985250 0.929523 0.834034 0.702295 0.539486 0.352286 0.148618 0.062657 0.272115 0.470194 0.647619 0.795860 0.907556 0.976902 0.999993 0.975066 0.902663 0.785678 0.629288 0.440770 0.229196 0.005021 0.220412 0.435434 0.628660 0.789605 0.909270 0.980681 0.999333 0.963512 0.874478 0.736492 0.556653 0.344596 0.112004 0.128005 0.361595 0.575017 0.755422 0.891660 0.975001 0.999743 0.963649 0.868187 0.718546 0.523414 0.294538 0.046049 0.206374 0.446480 0.658491 0.828164 0.943772 0.996970 0.983444 0.903326 0.761305 0.566420 0.331564 0.072680 0.192298 0.444640 0.666177 0.840602 0.954728 0.999529 0.970927 0.870218 0.704127 0.484432 0.227208 0.048302 0.321088 0.569966 0.775224 0.920245 0.992877 0.986540 0.900894 0.742024 0.522106 0.258559 0.027285 0.311840 0.571226 0.783262 0.929412 0.996471 0.977835 0.874236 0.693857 0.451800 0.168892 0.130027 0.418257 0.669607 0.860813 0.973729 0.997151 0.928009 0.771851 0.542522 0.261040 0.046248 0.350075 0.621038 0.832447 0.963014 0.999090 0.936182 0.779621 0.544247 0.253109 0.064684 0.376835 0.651116 0.858714 0.977334 0.993686 0.905086 0.719982 0.457291 0.144581 0.184727 0.494885 0.751701 0.926348 0.998689 0.959718 0.812807 0.573599 0.268467 0.068264 0.398112 0.682830 0.888847 0.991333 0.977297 0.847380 0.616062 0.310205 0.033938 0.374929 0.671123 0.885770 0.991667 0.974729 0.836025 0.591942 0.272423 0.082581 0.428007 0.719390 0.918624 0.999053 0.949176 0.774459 0.496966 0.152709 0.212871 0.550827 0.815289 0.969730
1.000000 1.000000 1.000000 1.000000 1.000000 1.000000 1.000000 1.000000 1.000000 1.000000 1.000000 1.000000 1.000000 1.000000 1.000000 1.000000 1.000000 1.000000 1.000000 1.000000 1.000000 1.000000 1.000000 1.000000 1.000000 1.000000 1.000000 1.000000 1.000000 1.000000 1.000000 1.000000 1.000000 1.000000 1.000000 1.000000 1.000000 1.000000 1.000000 1.000000 1.000000 1.000000 1.000000 1.000000 1.000000 1.000000 1.000000 1.000000 1.000000 1.000000 1.000000 1.000000 0.905037 0.905037 0.905037 0.886689 0.886689 0.886689 0.886689 0.886689 0.886689 0.886689 0.886689 0.886689 0.886689 0.886689 0.886689 0.886689 0.886689 0.886689 0.886689 0.886689 0.886689 0.886689 0.886689 0.886689 0.886689 0.886689 0.886689 0.886689 0.886689 0.886689 0.886689 0.886689 0.886689 0.886689 0.886689 0.886689 0.886689 0.886689 0.886689 0.886689 0.886689 0.886689 0.886689 0.886689 0.890974 0.893402 0.894887 0.897623 0.899030 0.898384 0.897751 0.897370 0.897841 0.899007 0.909598 0.920974 0.936453 0.952398 0.957627 0.961137 0.962959 0.963225 0.969460 0.974880 0.973332 0.972699 0.973074 0.974469 0.976313 0.976480 0.977429 0.977308 0.976856 0.977311 0.977121 0.976558 0.975832 0.975145 0.975168 0.974714 0.974833 0.975657 0.976107 0.976492 0.975846 0.975877 0.974448 0.972900 0.968219 0.968551 0.968310 0.967571 0.964485 0.960447 0.960146 0.957077 0.957148 0.957379 0.957751 0.958163 0.957989 0.958221 0.941615 0.940582 0.940008 0.937185 0.934629 0.933874 0.932025 0.933954 0.932538 0.920084 0.910792 0.887742 0.881006 0.868467 0.862439 0.856631 0.860542 0.859773 0.861015 0.857778 0.852402 0.851919 0.848031 0.851923 0.850607 0.847861 0.846707 0.846005 0.835964 0.837963 0.831986 0.823634 0.800041 0.798937 0.801480 0.801862 0.801980 0.795177 0.801470 0.794500 0.791575 0.786500 0.780460 0.772957 0.760677 0.765894 0.778350 0.783288 0.780990 0.767489 0.777687 0.766859 0.768475 0.773267 0.760042 0.759876 0.752635 0.710996 0.706648 0.718370 0.717711 0.716601 0.711706 0.704114 0.689387 0.687612 0.685529 0.670958 0.653082 0.657545 0.653231 0.679484 0.679272 0.675460 0.658936 0.646733 0.649867 0.612942 0.625402 0.631447 0.602581 0.601499 0.586303 0.584480 0.591929 0.595584 0.590065 0.608584 0.602534 0.585572 0.596125 0.587967 0.584377 0.571391 0.563108 0.575133 0.556835 0.535235 0.542665 0.531710 0.535464 0.505170 0.486607 0.477623 0.434048 0.425378 0.392422 0.360229 0.343758 0.314430 0.260454 0.247329 0.266785 0.249783 0.236672 0.229919 0.194535 0.204707 0.180355 0.171558 0.180803 0.148811 0.128459 0.109259 0.087978 0.113118 0.131138 0.139668 0.129726 0.122091 0.152924 0.156349 0.144411 0.131144 0.118319 0.123730 0.102749 0.068482 0.045737 0.015795 0.010379 -0.043263 -0.038285 -0.041954 -0.043343 -0.061291 -0.075089 -0.070109 -0.056794 -0.069867 -0.086836 -0.100717 -0.101977 -0.114017 -0.099961 -0.088678 -0.082978 -0.087890 -0.051199 -0.020173 -0.016633 -0.031639 -0.037253 -0.076715 -0.066340 -0.045484 0.011140 0.029987 0.033977 0.104384 0.098371 0.086728 0.080893 0.090647 0.070759 0.115867 0.127109 0.126250 0.117402 0.033168 0.020817 0.020817 0.020817 0.021572 0.021572 0.021572 0.021572 0.021572 0.021572 0.021572 0.021572 0.021572 0.009514 0.009514 0.009514 0.009514 0.009514 0.009514 0.009514 0.009514 0.009514 0.009514 0.009514 0.009514 0.009514 0.009514 0.009514 0.009514 0.009514
0.000000 0.000000 0.000000 0.000000 0.000000 0.000000 0.000000 0.000000 0.000000 0.000000 0.000000 0.000000 0.000000 0.000000 0.000000 0.000000 0.000000 0.000000 0.000000 0.000000 0.000000 0.000000 0.000000 0.000000 0.000000 0.000000 0.000000 0.000000 0.000000 0.000000 0.000000 0.000000 0.000000 0.000000 0.000000 0.000000 0.000000 0.000000 0.000000 0.000000 0.000000 0.000000 0.000000 0.000000 0.000000 0.000000 0.000000 0.000000 0.000000 0.000000 0.000000 0.000000 0.180334 0.180334 0.180334 0.199007 0.199007 0.199007 0.199007 0.199007 0.199007 0.199007 0.199007 0.199007 0.199007 0.199007 0.199007 0.199007 0.199007 0.199007 0.199007 0.199007 0.199007 0.199007 0.199007 0.199007 0.199007 0.199007 0.199007 0.199007 0.199007 0.199007 0.199007 0.199007 0.199007 0.199007 0.199007 0.199007 0.199007 0.199007 0.199007 0.199007 0.199007 0.199007 0.199007 0.199007 0.230940 0.230940 0.230940 0.230940 0.230940 0.230940 0.230940 0.230940 0.230940 0.230940 0.230940 0.230940 0.230940 0.230940 0.230940 0.230940 0.230940 0.230940 0.230940 0.230940 0.230940 0.230940 0.230940 0.230940 0.230940 0.230940 0.230940 0.230940 0.248069 0.248069 0.248069 0.248069 0.248069 0.248069 0.248069 0.248069 0.248069 0.248069 0.248069 0.248069 0.248069 0.248069 0.248069 0.248069 0.248069 0.248069 0.248069 0.248069 0.248069 0.248069 0.251976 0.251976 0.251976 0.251976 0.251976 0.251976 0.251976 0.251976 0.251976 0.251976 0.251976 0.251976 0.251976 0.251976 0.251976 0.251976 0.251976 0.251976 0.251976 0.251976 0.256074 0.256074 0.256074 0.256074 0.256074 0.256074 0.256074 0.256074 0.256074 0.256074 0.256074 0.256074 0.256074 0.256074 0.256074 0.256074 0.256074 0.256074 0.264906 0.264906 0.264906 0.264906 0.264906 0.264906 0.264906 0.264906 0.264906 0.264906 0.264906 0.264906 0.264906 0.264906 0.264906 0.264906 0.269680 0.269680 0.269680 0.269680 0.269680 0.269680 0.269680 0.269680 0.269680 0.269680 0.269680 0.269680 0.269680 0.269680 0.264906 0.264906 0.264906 0.264906 0.264906 0.264906 0.264906 0.264906 0.264906 0.264906 0.264906 0.264906 0.264906 0.264906 0.264906 0.264906 0.264906 0.264906 0.264906 0.264906 0.264906 0.264906 0.264906 0.264906 0.264906 0.264906 0.264906 0.260378 0.260378 0.260378 0.260378 0.260378 0.260378 0.260378 0.260378 0.260378 0.260378 0.260378 0.260378 0.260378 0.264906 0.264906 0.264906 0.264906 0.264906 0.264906 0.264906 0.264906 0.264906 0.264906 0.264906 0.264906 0.269680 0.269680 0.269680 0.269680 0.269680 0.269680 0.269680 0.269680 0.269680 0.269680 0.269680 0.264906 0.264906 0.264906 0.264906 0.264906 0.264906 0.264906 0.264906 0.264906 0.264906 0.264906 0.269680 0.269680 0.269680 0.269680 0.269680 0.269680 0.269680 0.269680 0.269680 0.269680 0.264906 0.264906 0.264906 0.264906 0.264906 0.264906 0.264906 0.264906 0.264906 0.264906 0.260378 0.260378 0.260378 0.260378 0.260378 0.260378 0.260378 0.260378 0.260378 0.260378 0.256074 0.256074 0.256074 0.256074 0.256074 0.256074 0.256074 0.256074 0.256074 0.256074 0.260378 0.260378 0.260378 0.260378 0.260378 0.260378 0.260378 0.260378 0.260378 0.256074 0.256074 0.256074 0.256074 0.256074 0.256074 0.256074 0.256074 0.256074 0.251976 0.251976 0.251976 0.251976 0.251976 0.251976 0.251976 0.251976 0.251976 0.251976 0.251976 0.251976 0.251976 0.251976 0.251976 0.251976 0.251976
