# Output from CTFFind version 4.1.9, run on 2019-11-03 20:07:28
# Input file: stack16_bm3d_averaged_1_5.5_0_1250_half.mrc ; Number of micrographs: 1
# Pixel size: 3.000 Angstroms ; acceleration voltage: 300.0 keV ; spherical aberration: 0.00 mm ; amplitude contrast: 0.07
# Box size: 512 pixels ; min. res.: 30.0 Angstroms ; max. res.: 5.0 Angstroms ; min. def.: 5000.0 um; max. def. 50000.0 um; num. frames averaged: 1
# 6 lines per micrograph: #1 - spatial frequency (1/Angstroms); #2 - 1D rotational average of spectrum (assuming no astigmatism); #3 - 1D rotational average of spectrum; #4 - CTF fit; #5 - cross-correlation between spectrum and CTF fit; #6 - 2sigma of expected cross correlation of noise
0.000000 0.000651 0.001302 0.001953 0.002604 0.003255 0.003906 0.004557 0.005208 0.005859 0.006510 0.007161 0.007812 0.008464 0.009115 0.009766 0.010417 0.011068 0.011719 0.012370 0.013021 0.013672 0.014323 0.014974 0.015625 0.016276 0.016927 0.017578 0.018229 0.018880 0.019531 0.020182 0.020833 0.021484 0.022135 0.022786 0.023438 0.024089 0.024740 0.025391 0.026042 0.026693 0.027344 0.027995 0.028646 0.029297 0.029948 0.030599 0.031250 0.031901 0.032552 0.033203 0.033854 0.034505 0.035156 0.035807 0.036458 0.037109 0.037760 0.038411 0.039062 0.039714 0.040365 0.041016 0.041667 0.042318 0.042969 0.043620 0.044271 0.044922 0.045573 0.046224 0.046875 0.047526 0.048177 0.048828 0.049479 0.050130 0.050781 0.051432 0.052083 0.052734 0.053385 0.054036 0.054688 0.055339 0.055990 0.056641 0.057292 0.057943 0.058594 0.059245 0.059896 0.060547 0.061198 0.061849 0.062500 0.063151 0.063802 0.064453 0.065104 0.065755 0.066406 0.067057 0.067708 0.068359 0.069010 0.069661 0.070312 0.070964 0.071615 0.072266 0.072917 0.073568 0.074219 0.074870 0.075521 0.076172 0.076823 0.077474 0.078125 0.078776 0.079427 0.080078 0.080729 0.081380 0.082031 0.082682 0.083333 0.083984 0.084635 0.085286 0.085938 0.086589 0.087240 0.087891 0.088542 0.089193 0.089844 0.090495 0.091146 0.091797 0.092448 0.093099 0.093750 0.094401 0.095052 0.095703 0.096354 0.097005 0.097656 0.098307 0.098958 0.099609 0.100260 0.100911 0.101562 0.102214 0.102865 0.103516 0.104167 0.104818 0.105469 0.106120 0.106771 0.107422 0.108073 0.108724 0.109375 0.110026 0.110677 0.111328 0.111979 0.112630 0.113281 0.113932 0.114583 0.115234 0.115885 0.116536 0.117188 0.117839 0.118490 0.119141 0.119792 0.120443 0.121094 0.121745 0.122396 0.123047 0.123698 0.124349 0.125000 0.125651 0.126302 0.126953 0.127604 0.128255 0.128906 0.129557 0.130208 0.130859 0.131510 0.132161 0.132812 0.133464 0.134115 0.134766 0.135417 0.136068 0.136719 0.137370 0.138021 0.138672 0.139323 0.139974 0.140625 0.141276 0.141927 0.142578 0.143229 0.143880 0.144531 0.145182 0.145833 0.146484 0.147135 0.147786 0.148438 0.149089 0.149740 0.150391 0.151042 0.151693 0.152344 0.152995 0.153646 0.154297 0.154948 0.155599 0.156250 0.156901 0.157552 0.158203 0.158854 0.159505 0.160156 0.160807 0.161458 0.162109 0.162760 0.163411 0.164062 0.164714 0.165365 0.166016 0.166667 0.167318 0.167969 0.168620 0.169271 0.169922 0.170573 0.171224 0.171875 0.172526 0.173177 0.173828 0.174479 0.175130 0.175781 0.176432 0.177083 0.177734 0.178385 0.179036 0.179688 0.180339 0.180990 0.181641 0.182292 0.182943 0.183594 0.184245 0.184896 0.185547 0.186198 0.186849 0.187500 0.188151 0.188802 0.189453 0.190104 0.190755 0.191406 0.192057 0.192708 0.193359 0.194010 0.194661 0.195312 0.195964 0.196615 0.197266 0.197917 0.198568 0.199219 0.199870 0.200521 0.201172 0.201823 0.202474 0.203125 0.203776 0.204427 0.205078 0.205729 0.206380 0.207031 0.207682 0.208333 0.208984 0.209635 0.210286 0.210938 0.211589 0.212240 0.212891 0.213542 0.214193 0.214844 0.215495 0.216146 0.216797 0.217448 0.218099 0.218750 0.219401 0.220052 0.220703 0.221354 0.222005 0.222656 0.223307 0.223958 0.224609 0.225260 0.225911 0.226562 0.227214 0.227865 0.228516 0.229167 0.229818 0.230469 0.231120 0.231771 0.232422 0.233073 0.233724 0.234375 0.235026 0.235677
       0.33999        0.33999        0.33999        0.33999        0.33999        0.33999        0.33999        0.33999        0.33999        0.33999        0.33999        0.33999        0.33999        0.33999        0.33999        0.33999        0.33999        0.33999        0.33999        0.33999        0.33999        0.33999        0.33999        0.33999        0.33999        0.33999        0.33999        0.33999        0.33999        0.33999        0.33999        0.33999        0.33999        0.33999        0.33999        0.33999        0.33999        0.33999        0.33999        0.33999        0.33999        0.33999        0.33999        0.33999        0.33999        0.33999        0.33999        0.33999        0.33999        0.33999        0.33999        0.42147        0.55545        0.34174       -0.21132       -0.45718       -0.55248       -0.65155       -0.72289       -0.73343       -0.83097       -0.90001       -0.69463       -0.85207       -0.83143       -0.97835       -1.01493       -0.89698       -0.85603       -0.80879       -0.72692       -0.65685       -0.56879       -0.47407       -0.40728       -0.17918       -0.07576        0.02285        0.24692        0.25025        0.30679        0.36770        0.39570        0.50938        0.53360        0.56974        0.53035        0.46936        0.50422        0.51642        0.43767        0.32514        0.20464        0.17315        0.10505       -0.00453       -0.02070       -0.02898        0.04497        0.00991        0.06367        0.03826        0.15349        0.18923        0.40245        0.45554        0.54730        0.65568        0.68785        0.71227        0.63290        0.60953        0.53189        0.43472        0.38229        0.26653        0.20970        0.20309        0.09188        0.09732        0.08867        0.07615        0.08904        0.30010        0.40914        0.51395        0.53136        0.57079        0.60715        0.58599        0.57426        0.58042        0.56204        0.46185        0.29665        0.25682        0.24243        0.13707        0.08146        0.15554        0.18948        0.27523        0.34799        0.41908        0.46865        0.52766        0.59897        0.54319        0.50504        0.49316        0.35064        0.26013        0.24851        0.16798        0.17817        0.21964        0.26345        0.27453        0.31536        0.41929        0.45235        0.49701        0.44974        0.44112        0.47885        0.38440        0.32374        0.27956        0.24877        0.22297        0.22357        0.23252        0.32933        0.43453        0.42447        0.48686        0.54977        0.44046        0.40775        0.35153        0.30409        0.25906        0.27182        0.26479        0.28223        0.33338        0.34449        0.42574        0.46906        0.43361        0.45232        0.36524        0.37279        0.35065        0.26027        0.24150        0.23943        0.31584        0.37133        0.36268        0.38592        0.43024        0.43351        0.36717        0.33464        0.31406        0.34412        0.30430        0.27258        0.27453        0.34477        0.36413        0.37906        0.38560        0.38065        0.41005        0.39370        0.31133        0.28255        0.31121        0.33875        0.36514        0.35511        0.39992        0.33666        0.36681        0.38702        0.32883        0.34863        0.31190        0.29332        0.33346        0.33383        0.32130        0.34261        0.36198        0.32153        0.34089        0.31153        0.30898        0.28518        0.31184        0.30621        0.32347        0.36154        0.36243        0.34419        0.30140        0.28974        0.28020        0.32258        0.30195        0.30886        0.36299        0.35584        0.33605        0.30694        0.29939        0.30704        0.26902        0.30178        0.31546        0.32540        0.36219        0.33944        0.29685        0.32754        0.32955        0.31822        0.35198        0.33974        0.30552        0.32880        0.28742        0.31791        0.28728        0.30560        0.28601        0.31551        0.35356        0.32819        0.34880        0.30340        0.31685        0.34007        0.33140        0.30544        0.30526        0.34379        0.32913        0.32346        0.31551        0.30843        0.30206        0.30655        0.31662        0.31719        0.34148        0.33809        0.33531        0.28656        0.27631        0.26303        0.26366        0.35749        0.30656        0.34823        0.29202        0.25769        0.27782        0.35683        0.30281        0.27795        0.29353        0.31005        0.29053        0.26575        0.30574        0.26748        0.27520        0.30025        0.32068        0.32921        0.31844        0.29670        0.26261        0.26254        0.25701        0.26465        0.28758        0.35380        0.28531        0.19667        0.29668        0.27375        0.31264        0.23952        0.30153        0.30553        0.32953        0.28664        0.27261        0.26299        0.23578        0.29142        0.34143        0.34981        0.23980        0.27620        0.22216        0.22261        0.20347        0.33190        0.24587        0.19268        0.13022        0.21997        0.30656        0.20635        0.18142        0.07668       -0.53732       -0.66861
3.143399 3.103751 3.064360 3.025225 2.986346 2.947724 2.909359 2.871250 2.833398 2.795802 2.758463 2.721380 2.684554 2.647984 2.611670 2.575614 2.539813 2.504270 2.468982 2.433951 2.399177 2.364659 2.330398 2.296394 2.262645 2.229153 2.195918 2.162940 2.130217 2.097752 2.065542 2.033590 2.001894 1.970454 1.939271 1.908344 1.877674 1.847260 1.817103 1.787203 1.757559 1.728171 1.699040 1.670165 1.641547 1.613186 1.585081 1.557232 1.529640 1.502305 1.475225 1.509783 1.595624 1.535599 0.846518 0.590829 0.451572 0.383175 0.288110 0.210969 0.174731 -0.053401 0.198990 0.063488 -0.035215 -0.117388 -0.241602 -0.149283 -0.063021 -0.094403 -0.079563 0.031963 0.027858 0.222353 0.104964 0.352274 0.460311 0.485094 0.762396 0.685922 0.690142 0.828364 0.797768 0.836156 0.919506 0.860991 0.893058 0.727808 0.797355 0.846285 0.681947 0.605516 0.439400 0.425775 0.344601 0.186695 0.183564 0.116070 0.210536 0.119700 0.210860 0.106525 0.221079 0.232885 0.449536 0.409410 0.582960 0.622015 0.656461 0.727439 0.615168 0.593607 0.465550 0.415838 0.298975 0.268078 0.100282 0.160912 -0.023073 0.038990 -0.033489 -0.039456 -0.045424 0.034402 0.279329 0.297935 0.372397 0.316298 0.397315 0.408777 0.434846 0.415768 0.363716 0.342902 0.132249 0.084699 0.066901 -0.011232 -0.152254 -0.041652 -0.066867 0.041700 0.086810 0.161616 0.229683 0.237111 0.326659 0.419445 0.302879 0.368589 0.247238 0.140865 0.068060 0.044975 0.003993 0.046330 0.072869 0.104141 0.118693 0.181076 0.242760 0.309368 0.285227 0.223768 0.260151 0.230506 0.112649 0.074044 0.048803 0.031714 0.007650 -0.007847 0.035804 0.172211 0.190532 0.196471 0.307275 0.192087 0.201861 0.081405 0.072372 0.001547 -0.006146 0.003152 -0.003990 0.042015 0.058491 0.094737 0.158511 0.145313 0.223197 0.131164 0.077917 0.102142 0.047395 -0.058069 -0.024782 0.020337 0.059179 0.075014 0.075053 0.154562 0.124736 0.151993 0.037985 0.054630 0.045935 0.050434 0.024618 -0.021668 0.038427 0.045683 0.087862 0.106945 0.091020 0.109026 0.126729 0.075974 0.013028 -0.002953 0.032029 0.080216 0.064557 0.098388 0.094346 0.050802 0.110383 0.067649 0.042267 0.081327 -0.019061 0.020256 0.062051 0.037941 0.043908 0.055543 0.071538 0.052317 0.062014 0.011849 0.019826 -0.001735 0.047518 0.002983 0.046080 0.068221 0.073121 0.039293 -0.009846 -0.007175 -0.017710 0.034516 -0.000683 0.013873 0.069895 0.057382 -0.006078 0.009046 -0.012569 0.010050 -0.043819 -0.003881 0.002967 0.031711 0.047423 0.019400 -0.016900 0.006333 0.010309 0.002822 0.043320 0.012489 -0.015580 0.035177 -0.042712 -0.019215 -0.050916 -0.013509 -0.045874 0.013960 0.036283 -0.001066 0.001577 -0.006192 0.004238 0.023503 0.023695 -0.012038 0.000153 0.024231 0.039768 0.015330 0.011228 0.033558 -0.006084 -0.000138 0.020851 -0.000405 0.076816 0.054973 0.033743 0.000887 -0.008741 -0.035518 -0.000936 0.078994 -0.002602 0.072280 -0.018509 -0.024155 -0.019329 0.095099 -0.003273 -0.016119 0.029953 0.044874 0.010436 0.006365 0.028458 0.004080 0.018037 0.028781 0.070500 0.074136 0.050741 0.033982 -0.000272 -0.000279 -0.005452 -0.015021 0.004890 0.107100 -0.024212 -0.093661 0.054686 -0.012935 0.053710 -0.062724 0.011592 0.017272 0.023166 0.000673 -0.019058 -0.019461 -0.073763 0.026017 0.050526 0.066565 -0.126048 -0.002000 -0.033632 -0.016017 -0.123236 0.107007 0.012797 -0.010672 -0.079458 0.195829 0.255957 0.139400 0.142895 0.080866 -0.635432
0.072396 0.073047 0.074998 0.078250 0.082801 0.088649 0.095793 0.104230 0.113955 0.124964 0.137250 0.150804 0.165617 0.181675 0.198964 0.217464 0.237154 0.258008 0.279995 0.303079 0.327219 0.352369 0.378475 0.405476 0.433304 0.461882 0.491125 0.520938 0.551218 0.581850 0.612709 0.643660 0.674556 0.705238 0.735538 0.765273 0.794252 0.822271 0.849115 0.874562 0.898376 0.920317 0.940136 0.957576 0.972379 0.984283 0.993025 0.998346 0.999990 0.997708 0.991263 0.980430 0.965002 0.944793 0.919644 0.889421 0.854027 0.813400 0.767521 0.716416 0.660162 0.598888 0.532783 0.462093 0.387132 0.308274 0.225965 0.140716 0.053106 0.036220 0.126550 0.217114 0.307086 0.395586 0.481693 0.564454 0.642887 0.716000 0.782801 0.842311 0.893583 0.935714 0.967864 0.989276 0.999291 0.997368 0.983100 0.956234 0.916685 0.864551 0.800125 0.723905 0.636603 0.539142 0.432666 0.318524 0.198270 0.073642 0.053454 0.180971 0.306745 0.428537 0.544070 0.651068 0.747311 0.830679 0.899206 0.951132 0.984955 0.999483 0.993879 0.967702 0.920945 0.854061 0.767980 0.664120 0.544377 0.411111 0.267111 0.115552 0.040067 0.195992 0.348308 0.493028 0.626203 0.744031 0.842979 0.919896 0.972127 0.997618 0.995014 0.963733 0.904033 0.817045 0.704782 0.570127 0.416781 0.249184 0.072405 0.107994 0.286127 0.455972 0.611576 0.747268 0.857884 0.938975 0.987011 0.999557 0.975422 0.914758 0.819126 0.691497 0.536199 0.358809 0.165979 0.034788 0.235413 0.427565 0.603001 0.753927 0.873375 0.955532 0.996072 0.992406 0.943881 0.851899 0.719933 0.553454 0.359752 0.147651 0.072855 0.291061 0.496063 0.677298 0.825120 0.931331 0.989677 0.996267 0.949867 0.852086 0.707391 0.522975 0.308457 0.075427 0.163143 0.393610 0.602429 0.776964 0.906291 0.981914 0.998391 0.953776 0.849876 0.692273 0.490108 0.255620 0.003459 0.250189 0.488626 0.695746 0.857147 0.961183 0.999861 0.969533 0.871303 0.711115 0.499487 0.250917 0.017055 0.285036 0.533164 0.742593 0.896956 0.983708 0.995226 0.929563 0.790795 0.588889 0.339094 0.060884 0.223513 0.490845 0.718753 0.887668 0.982570 0.994400 0.921045 0.767728 0.546778 0.276774 0.018945 0.314221 0.582358 0.798574 0.942329 0.999375 0.963278 0.836267 0.629277 0.361148 0.057041 0.253852 0.541060 0.775836 0.934084 0.998935 0.962672 0.827784 0.607001 0.322257 0.002642 0.318490 0.606952 0.831389 0.966774 0.997301 0.918394 0.737526 0.473702 0.155643 0.181231 0.498669 0.759919 0.934060 0.999770 0.948097 0.783856 0.525416 0.202833 0.145489 0.477292 0.751569 0.933699 0.999943 0.940713 0.762158 0.485776 0.146035 0.213778 0.546973 0.809531 0.965995 0.994421 0.889657 0.664456 0.348188 0.016798 0.380684 0.692957 0.909437 0.998689 0.946771 0.759662 0.462868 0.098196 0.281944 0.622004 0.871417 0.992244 0.965153 0.792765 0.499767 0.129656 0.261512 0.613516 0.871241 0.993447 0.959583 0.773523 0.463501 0.078119 0.321058 0.669250 0.908989 0.999780 0.925182 0.696092 0.349528 0.057079 0.455195 0.776680 0.965529 0.987845 0.838225 0.541328 0.148159 0.272420 0.645613 0.904006 0.999913 0.914465 0.661672 0.286532 0.142653 0.546511 0.849242 0.992977 0.949117 0.724391 0.360294 0.074227 0.495559 0.821460 0.987221 0.958797 0.740183 0.373367 0.069320 0.499207 0.828993 0.990553 0.949342 0.712186 0.326661 0.128015 0.557038 0.869687 0.998691 0.915042 0.634958 0.217237 0.248650 0.661537
1.000000 1.000000 1.000000 1.000000 1.000000 1.000000 1.000000 1.000000 1.000000 1.000000 1.000000 1.000000 1.000000 1.000000 1.000000 1.000000 1.000000 1.000000 1.000000 1.000000 1.000000 1.000000 1.000000 1.000000 1.000000 1.000000 1.000000 1.000000 1.000000 1.000000 1.000000 1.000000 1.000000 1.000000 1.000000 1.000000 1.000000 1.000000 1.000000 1.000000 1.000000 1.000000 1.000000 1.000000 1.000000 1.000000 1.000000 1.000000 1.000000 1.000000 1.000000 1.000000 0.926230 0.926230 0.926230 0.926230 0.926230 0.926230 0.926230 0.926230 0.926230 0.926230 0.926230 0.926230 0.926230 0.926230 0.926230 0.926230 0.926230 0.926230 0.926230 0.926230 0.926230 0.926230 0.926230 0.926230 0.926230 0.926230 0.926230 0.926230 0.926230 0.926230 0.926230 0.926230 0.926230 0.913313 0.911407 0.912569 0.913757 0.913664 0.913108 0.912743 0.913777 0.915327 0.917343 0.938962 0.941992 0.943158 0.944453 0.945877 0.948312 0.946293 0.954011 0.960635 0.959653 0.960662 0.954477 0.955787 0.955155 0.954426 0.956000 0.956072 0.954452 0.952542 0.951057 0.950552 0.950259 0.953784 0.954329 0.954497 0.955048 0.954979 0.955698 0.956304 0.954395 0.956579 0.948701 0.947500 0.952899 0.951012 0.952554 0.952517 0.953214 0.953989 0.954275 0.954519 0.951398 0.951050 0.950317 0.941081 0.934251 0.933183 0.935639 0.938908 0.936362 0.932584 0.933930 0.936397 0.935750 0.935088 0.925570 0.921690 0.898290 0.886389 0.875197 0.875613 0.878774 0.881133 0.878749 0.870995 0.861307 0.857532 0.857828 0.853614 0.846534 0.862801 0.857202 0.855612 0.859605 0.862679 0.868137 0.865028 0.860589 0.855998 0.851565 0.844605 0.846479 0.850976 0.855010 0.839253 0.830440 0.847870 0.837305 0.828410 0.835948 0.837983 0.834983 0.833837 0.834598 0.832654 0.825932 0.820444 0.823652 0.832624 0.831748 0.820562 0.817025 0.812704 0.812502 0.805496 0.808987 0.809146 0.805365 0.798418 0.814194 0.780270 0.803641 0.802731 0.788075 0.772196 0.760888 0.769943 0.781259 0.783972 0.775782 0.772158 0.771478 0.764446 0.736972 0.739221 0.746540 0.744910 0.732403 0.713558 0.720810 0.726733 0.722126 0.717893 0.720823 0.722376 0.694928 0.708003 0.711937 0.697942 0.712966 0.715047 0.705831 0.707266 0.709762 0.712289 0.705722 0.664902 0.667724 0.662070 0.655193 0.605466 0.604865 0.603355 0.549774 0.553771 0.520306 0.503312 0.502831 0.494780 0.544314 0.502626 0.488030 0.518950 0.446936 0.362097 0.377514 0.375884 0.389442 0.398308 0.377466 0.376991 0.364557 0.341940 0.350923 0.372779 0.388402 0.355457 0.357415 0.350748 0.322384 0.294698 0.308777 0.312053 0.333413 0.335712 0.313145 0.341984 0.379828 0.323449 0.299770 0.281093 0.289259 0.302945 0.308071 0.296977 0.274630 0.262740 0.237096 0.262190 0.257087 0.261772 0.278786 0.310189 0.304145 0.313677 0.335765 0.286628 0.302060 0.303816 0.293687 0.301244 0.307414 0.307343 0.296250 0.315079 0.286362 0.298500 0.280660 0.270703 0.335503 0.315607 0.286997 0.282843 0.287690 0.294609 0.266632 0.216729 0.200511 0.204020 0.140818 0.113811 0.114735 0.114592 0.071437 0.045586 0.030394 -0.008025 -0.008131 -0.005968 0.030033 -0.001296 0.022777 0.031220 0.031220 0.031220 0.031220 0.031220 0.031220 0.031220 0.031220 0.031220 0.031220 0.031220 0.031220 0.031220 0.031220 0.053959 0.053959 0.053959 0.053959 0.053959 0.053959 0.053959 0.053959 0.053959 0.053959 0.053959 0.053959
0.000000 0.000000 0.000000 0.000000 0.000000 0.000000 0.000000 0.000000 0.000000 0.000000 0.000000 0.000000 0.000000 0.000000 0.000000 0.000000 0.000000 0.000000 0.000000 0.000000 0.000000 0.000000 0.000000 0.000000 0.000000 0.000000 0.000000 0.000000 0.000000 0.000000 0.000000 0.000000 0.000000 0.000000 0.000000 0.000000 0.000000 0.000000 0.000000 0.000000 0.000000 0.000000 0.000000 0.000000 0.000000 0.000000 0.000000 0.000000 0.000000 0.000000 0.000000 0.000000 0.209657 0.209657 0.209657 0.209657 0.209657 0.209657 0.209657 0.209657 0.209657 0.209657 0.209657 0.209657 0.209657 0.209657 0.209657 0.209657 0.209657 0.209657 0.209657 0.209657 0.209657 0.209657 0.209657 0.209657 0.209657 0.209657 0.209657 0.209657 0.209657 0.209657 0.209657 0.209657 0.209657 0.244339 0.244339 0.244339 0.244339 0.244339 0.244339 0.244339 0.244339 0.244339 0.244339 0.244339 0.244339 0.244339 0.244339 0.244339 0.244339 0.244339 0.244339 0.244339 0.244339 0.244339 0.244339 0.244339 0.244339 0.244339 0.260378 0.260378 0.260378 0.260378 0.260378 0.260378 0.260378 0.260378 0.260378 0.260378 0.260378 0.260378 0.260378 0.260378 0.260378 0.260378 0.260378 0.260378 0.260378 0.260378 0.269680 0.269680 0.269680 0.269680 0.269680 0.269680 0.269680 0.269680 0.269680 0.269680 0.269680 0.269680 0.269680 0.269680 0.269680 0.269680 0.269680 0.269680 0.269680 0.269680 0.269680 0.269680 0.269680 0.269680 0.269680 0.269680 0.269680 0.269680 0.269680 0.269680 0.269680 0.269680 0.269680 0.280056 0.280056 0.280056 0.280056 0.280056 0.280056 0.280056 0.280056 0.280056 0.280056 0.280056 0.280056 0.280056 0.280056 0.280056 0.280056 0.280056 0.280056 0.280056 0.280056 0.280056 0.280056 0.280056 0.280056 0.280056 0.280056 0.280056 0.274721 0.274721 0.274721 0.274721 0.274721 0.274721 0.274721 0.274721 0.274721 0.274721 0.274721 0.274721 0.274721 0.285714 0.285714 0.285714 0.285714 0.285714 0.285714 0.285714 0.285714 0.285714 0.285714 0.285714 0.280056 0.280056 0.280056 0.280056 0.280056 0.280056 0.280056 0.280056 0.280056 0.280056 0.280056 0.274721 0.274721 0.274721 0.274721 0.274721 0.274721 0.274721 0.274721 0.274721 0.274721 0.274721 0.280056 0.280056 0.280056 0.280056 0.280056 0.280056 0.280056 0.280056 0.280056 0.280056 0.285714 0.285714 0.285714 0.285714 0.285714 0.285714 0.285714 0.285714 0.285714 0.269680 0.269680 0.269680 0.269680 0.269680 0.269680 0.269680 0.269680 0.269680 0.269680 0.274721 0.274721 0.274721 0.274721 0.274721 0.274721 0.274721 0.274721 0.274721 0.285714 0.285714 0.285714 0.285714 0.285714 0.285714 0.285714 0.285714 0.264906 0.264906 0.264906 0.264906 0.264906 0.264906 0.264906 0.264906 0.264906 0.274721 0.274721 0.274721 0.274721 0.274721 0.274721 0.274721 0.274721 0.269680 0.269680 0.269680 0.269680 0.269680 0.269680 0.269680 0.269680 0.269680 0.269680 0.269680 0.269680 0.269680 0.269680 0.269680 0.269680 0.280056 0.280056 0.280056 0.280056 0.280056 0.280056 0.280056 0.260378 0.260378 0.260378 0.260378 0.260378 0.260378 0.260378 0.260378 0.269680 0.269680 0.269680 0.269680 0.269680 0.269680 0.269680 0.264906 0.264906 0.264906 0.264906 0.264906 0.264906 0.264906 0.264906 0.264906 0.264906 0.264906 0.264906 0.264906 0.264906 0.260378 0.260378 0.260378 0.260378 0.260378 0.260378 0.260378 0.260378 0.260378 0.260378 0.260378 0.260378
