# Output from CTFFind version 4.1.9, run on 2019-11-02 17:59:15
# Input file: stack16_bm3d_averaged_1_1.75_0_2500_half.mrc ; Number of micrographs: 1
# Pixel size: 3.000 Angstroms ; acceleration voltage: 300.0 keV ; spherical aberration: 0.00 mm ; amplitude contrast: 0.07
# Box size: 512 pixels ; min. res.: 30.0 Angstroms ; max. res.: 5.0 Angstroms ; min. def.: 5000.0 um; max. def. 50000.0 um; num. frames averaged: 1
# 6 lines per micrograph: #1 - spatial frequency (1/Angstroms); #2 - 1D rotational average of spectrum (assuming no astigmatism); #3 - 1D rotational average of spectrum; #4 - CTF fit; #5 - cross-correlation between spectrum and CTF fit; #6 - 2sigma of expected cross correlation of noise
0.000000 0.000651 0.001302 0.001953 0.002604 0.003255 0.003906 0.004557 0.005208 0.005859 0.006510 0.007161 0.007812 0.008464 0.009115 0.009766 0.010417 0.011068 0.011719 0.012370 0.013021 0.013672 0.014323 0.014974 0.015625 0.016276 0.016927 0.017578 0.018229 0.018880 0.019531 0.020182 0.020833 0.021484 0.022135 0.022786 0.023438 0.024089 0.024740 0.025391 0.026042 0.026693 0.027344 0.027995 0.028646 0.029297 0.029948 0.030599 0.031250 0.031901 0.032552 0.033203 0.033854 0.034505 0.035156 0.035807 0.036458 0.037109 0.037760 0.038411 0.039062 0.039714 0.040365 0.041016 0.041667 0.042318 0.042969 0.043620 0.044271 0.044922 0.045573 0.046224 0.046875 0.047526 0.048177 0.048828 0.049479 0.050130 0.050781 0.051432 0.052083 0.052734 0.053385 0.054036 0.054688 0.055339 0.055990 0.056641 0.057292 0.057943 0.058594 0.059245 0.059896 0.060547 0.061198 0.061849 0.062500 0.063151 0.063802 0.064453 0.065104 0.065755 0.066406 0.067057 0.067708 0.068359 0.069010 0.069661 0.070312 0.070964 0.071615 0.072266 0.072917 0.073568 0.074219 0.074870 0.075521 0.076172 0.076823 0.077474 0.078125 0.078776 0.079427 0.080078 0.080729 0.081380 0.082031 0.082682 0.083333 0.083984 0.084635 0.085286 0.085938 0.086589 0.087240 0.087891 0.088542 0.089193 0.089844 0.090495 0.091146 0.091797 0.092448 0.093099 0.093750 0.094401 0.095052 0.095703 0.096354 0.097005 0.097656 0.098307 0.098958 0.099609 0.100260 0.100911 0.101562 0.102214 0.102865 0.103516 0.104167 0.104818 0.105469 0.106120 0.106771 0.107422 0.108073 0.108724 0.109375 0.110026 0.110677 0.111328 0.111979 0.112630 0.113281 0.113932 0.114583 0.115234 0.115885 0.116536 0.117188 0.117839 0.118490 0.119141 0.119792 0.120443 0.121094 0.121745 0.122396 0.123047 0.123698 0.124349 0.125000 0.125651 0.126302 0.126953 0.127604 0.128255 0.128906 0.129557 0.130208 0.130859 0.131510 0.132161 0.132812 0.133464 0.134115 0.134766 0.135417 0.136068 0.136719 0.137370 0.138021 0.138672 0.139323 0.139974 0.140625 0.141276 0.141927 0.142578 0.143229 0.143880 0.144531 0.145182 0.145833 0.146484 0.147135 0.147786 0.148438 0.149089 0.149740 0.150391 0.151042 0.151693 0.152344 0.152995 0.153646 0.154297 0.154948 0.155599 0.156250 0.156901 0.157552 0.158203 0.158854 0.159505 0.160156 0.160807 0.161458 0.162109 0.162760 0.163411 0.164062 0.164714 0.165365 0.166016 0.166667 0.167318 0.167969 0.168620 0.169271 0.169922 0.170573 0.171224 0.171875 0.172526 0.173177 0.173828 0.174479 0.175130 0.175781 0.176432 0.177083 0.177734 0.178385 0.179036 0.179688 0.180339 0.180990 0.181641 0.182292 0.182943 0.183594 0.184245 0.184896 0.185547 0.186198 0.186849 0.187500 0.188151 0.188802 0.189453 0.190104 0.190755 0.191406 0.192057 0.192708 0.193359 0.194010 0.194661 0.195312 0.195964 0.196615 0.197266 0.197917 0.198568 0.199219 0.199870 0.200521 0.201172 0.201823 0.202474 0.203125 0.203776 0.204427 0.205078 0.205729 0.206380 0.207031 0.207682 0.208333 0.208984 0.209635 0.210286 0.210938 0.211589 0.212240 0.212891 0.213542 0.214193 0.214844 0.215495 0.216146 0.216797 0.217448 0.218099 0.218750 0.219401 0.220052 0.220703 0.221354 0.222005 0.222656 0.223307 0.223958 0.224609 0.225260 0.225911 0.226562 0.227214 0.227865 0.228516 0.229167 0.229818 0.230469 0.231120 0.231771 0.232422 0.233073 0.233724 0.234375 0.235026 0.235677
       0.34512        0.34512        0.34512        0.34512        0.34512        0.34512        0.34512        0.34512        0.34512        0.34512        0.34512        0.34512        0.34512        0.34512        0.34512        0.34512        0.34512        0.34512        0.34512        0.34512        0.34512        0.34512        0.34512        0.34512        0.34512        0.34512        0.34512        0.34512        0.34512        0.34512        0.34512        0.34512        0.34512        0.34512        0.34512        0.34512        0.34512        0.34512        0.34512        0.34512        0.34512        0.34512        0.34512        0.34512        0.34512        0.34512        0.34512        0.34512        0.34512        0.34512        0.34512        0.48825        0.69838        0.45827       -0.10710       -0.41046       -0.56760       -0.65657       -0.73899       -0.75562       -0.87070       -0.91449       -0.75757       -0.92479       -0.87074       -1.02425       -1.09541       -0.98613       -0.95636       -0.88121       -0.85002       -0.74492       -0.63645       -0.49567       -0.41833       -0.21961       -0.11631       -0.02381        0.19893        0.24278        0.31054        0.38455        0.43540        0.51209        0.58304        0.60501        0.59252        0.50304        0.55038        0.48512        0.39380        0.32969        0.20582        0.17378        0.09879       -0.05376       -0.11476       -0.08634        0.01658       -0.01645        0.01930        0.02879        0.20404        0.21741        0.39202        0.45955        0.56722        0.70703        0.76979        0.73571        0.70563        0.69874        0.58756        0.53975        0.39750        0.28274        0.19915        0.15503        0.07219        0.03148        0.02393        0.06594        0.08708        0.28062        0.41538        0.50622        0.58893        0.64057        0.70581        0.65988        0.65698        0.67350        0.60844        0.48791        0.29062        0.24186        0.20787        0.12774        0.04247        0.09413        0.10892        0.25356        0.35331        0.42064        0.50885        0.54774        0.65518        0.60173        0.55473        0.51191        0.36439        0.20422        0.21451        0.16048        0.12839        0.12378        0.21361        0.25899        0.36345        0.44347        0.43654        0.55340        0.51439        0.45893        0.46026        0.38467        0.32725        0.27069        0.21051        0.23126        0.21628        0.21286        0.31726        0.45358        0.48799        0.48564        0.55306        0.50224        0.45248        0.40220        0.29687        0.23360        0.23718        0.23993        0.26242        0.27640        0.33400        0.44306        0.50518        0.49901        0.46259        0.41349        0.38771        0.35876        0.24799        0.22908        0.25608        0.29823        0.36095        0.36726        0.39800        0.41753        0.44963        0.37981        0.34970        0.31850        0.31693        0.27113        0.26130        0.30964        0.35051        0.41396        0.42171        0.39557        0.39046        0.40393        0.34991        0.28906        0.30090        0.29026        0.30586        0.35942        0.37720        0.41380        0.35976        0.36280        0.39114        0.34562        0.30787        0.28634        0.28760        0.33738        0.33296        0.32872        0.37183        0.39809        0.34264        0.35734        0.30339        0.30626        0.28439        0.28087        0.30510        0.32995        0.38514        0.36602        0.35102        0.32614        0.28661        0.27635        0.30007        0.28571        0.31658        0.37011        0.39813        0.33687        0.32288        0.30991        0.30496        0.30161        0.27988        0.31476        0.34109        0.33020        0.34338        0.32452        0.35420        0.33189        0.29543        0.31164        0.32309        0.34754        0.34643        0.31786        0.31701        0.30230        0.32758        0.31549        0.33814        0.39676        0.33670        0.35990        0.31430        0.31043        0.29345        0.31309        0.29517        0.31484        0.32739        0.34564        0.36036        0.30476        0.32512        0.31962        0.30245        0.29377        0.29969        0.32637        0.34157        0.35651        0.33994        0.31635        0.27291        0.25336        0.31166        0.35512        0.31293        0.29655        0.28533        0.29378        0.32692        0.31179        0.29796        0.34754        0.33174        0.31351        0.24537        0.28232        0.29041        0.29251        0.33319        0.32907        0.35186        0.34802        0.28822        0.28362        0.29848        0.27916        0.30727        0.26988        0.25864        0.27002        0.27771        0.29506        0.28563        0.28981        0.27054        0.30994        0.32749        0.32118        0.27413        0.27497        0.23509        0.26296        0.24489        0.30217        0.35122        0.23388        0.24391        0.29698        0.23937        0.23690        0.32087        0.25889        0.12374        0.16581        0.21766        0.29303        0.28560        0.13931        0.06234       -0.38008       -0.79168
3.059099 3.021035 2.983215 2.945641 2.908311 2.871227 2.834387 2.797791 2.761441 2.725336 2.689475 2.653860 2.618489 2.583363 2.548482 2.513845 2.479454 2.445307 2.411406 2.377749 2.344336 2.311169 2.278247 2.245569 2.213137 2.180949 2.149006 2.117308 2.085854 2.054646 2.023682 1.992964 1.962490 1.932261 1.902277 1.872537 1.843043 1.813793 1.784788 1.756028 1.727513 1.699243 1.671218 1.643437 1.615901 1.588610 1.561564 1.534763 1.508207 1.481895 1.455829 1.513084 1.693495 1.613944 0.968885 0.681639 0.478059 0.431550 0.325055 0.267889 0.197622 0.016894 0.196763 0.078726 -0.011419 -0.061806 -0.200270 -0.154079 -0.087478 -0.093551 -0.090715 0.010046 0.035751 0.230176 0.153452 0.362583 0.442389 0.475897 0.707828 0.697459 0.708528 0.835763 0.817327 0.842427 0.922330 0.900543 0.937307 0.749542 0.838282 0.837405 0.622671 0.607742 0.455736 0.437751 0.374340 0.213740 0.117221 0.097887 0.211533 0.140884 0.200880 0.113636 0.302000 0.282799 0.454701 0.413596 0.583463 0.647952 0.764997 0.703698 0.661267 0.663408 0.529193 0.504879 0.356621 0.298000 0.122656 0.152954 0.004090 -0.006660 -0.039918 -0.029489 0.000838 0.039592 0.274581 0.326096 0.385021 0.395893 0.468864 0.516244 0.473710 0.506898 0.393434 0.396522 0.155430 0.073236 0.076005 -0.007526 -0.129432 -0.043054 -0.120210 0.012653 0.141475 0.163726 0.255193 0.267510 0.377006 0.458378 0.353016 0.391279 0.287337 0.122382 0.048919 0.056765 0.026220 0.010527 0.008130 0.110585 0.130165 0.272892 0.235036 0.299165 0.366609 0.246571 0.249559 0.222627 0.131337 0.084888 0.042191 0.023846 0.038842 -0.011705 0.029266 0.181317 0.224560 0.254814 0.278112 0.239284 0.236645 0.149014 0.110250 -0.018999 -0.009722 -0.011035 0.013077 0.004770 0.032862 0.105515 0.189149 0.207517 0.227084 0.135164 0.139450 0.078096 0.054221 -0.062238 -0.011867 0.005146 0.054050 0.067023 0.079529 0.147350 0.094682 0.167746 0.063871 0.046404 0.047842 0.027051 0.002103 0.003268 0.043696 0.084478 0.124161 0.137162 0.056151 0.117987 0.094199 0.005355 0.010142 0.008013 -0.004120 0.041431 0.059727 0.099197 0.092034 0.054304 0.070701 0.079842 0.028171 0.005931 -0.007480 -0.002691 0.060450 0.023867 0.034180 0.078668 0.085144 0.063671 0.033822 0.012256 0.007427 -0.009485 -0.013061 0.012219 0.049797 0.105886 0.057483 0.062466 0.028866 -0.012429 -0.003448 0.018883 0.011026 0.025199 0.102661 0.068654 0.011775 0.048170 -0.000429 0.031366 -0.003419 -0.006850 0.036977 0.053588 0.021720 0.041408 0.024442 0.057200 0.022152 -0.005838 0.016577 0.034582 0.045807 0.037461 0.017349 -0.006741 -0.010825 0.018122 0.007708 0.041919 0.073370 0.033582 0.022010 0.002370 -0.002551 -0.012287 0.008334 -0.000388 0.008944 0.003658 0.063779 0.040777 0.015659 0.034737 0.002250 0.009054 0.000015 -0.003994 0.038064 0.058150 0.074640 0.047987 0.033313 -0.020887 -0.008942 0.020141 0.075654 0.018214 0.036637 -0.008670 0.009207 0.039666 0.044302 0.012070 0.068060 0.049876 0.042252 -0.038653 0.004948 0.036383 0.006947 0.035059 0.071204 0.064757 0.055461 0.001062 0.007371 -0.000273 -0.011628 0.023516 -0.042221 -0.025328 -0.031394 -0.028570 -0.006719 -0.023582 0.006544 -0.093133 -0.019314 -0.005528 -0.013154 -0.075490 -0.028032 -0.116122 -0.041757 -0.079652 -0.020006 0.058973 -0.112887 -0.051001 0.034649 -0.020064 -0.060983 0.048463 0.033722 -0.067104 -0.057604 0.021842 0.261820 0.272809 0.074661 0.057116 -0.695735
0.072396 0.073046 0.074995 0.078242 0.082787 0.088628 0.095763 0.104188 0.113901 0.124895 0.137165 0.150701 0.165495 0.181532 0.198799 0.217275 0.236940 0.257768 0.279727 0.302783 0.326894 0.352015 0.378090 0.405060 0.432858 0.461405 0.490618 0.520403 0.550656 0.581262 0.612098 0.643028 0.673906 0.704574 0.734864 0.764595 0.793574 0.821600 0.848459 0.873927 0.897771 0.919751 0.939618 0.957117 0.971989 0.983974 0.992809 0.998235 0.999997 0.997846 0.991544 0.980867 0.965609 0.945582 0.920626 0.890607 0.855426 0.815022 0.769372 0.718501 0.662483 0.601447 0.535576 0.465116 0.390375 0.311727 0.229611 0.144535 0.057074 0.032130 0.122371 0.212883 0.302842 0.391374 0.477563 0.560456 0.639076 0.712433 0.779536 0.839408 0.891100 0.933709 0.966394 0.988394 0.999044 0.997799 0.984244 0.958117 0.919325 0.867953 0.804282 0.728798 0.642197 0.545389 0.439501 0.325869 0.206029 0.081705 0.045209 0.172679 0.298552 0.420598 0.536544 0.644120 0.741101 0.825366 0.894938 0.948047 0.983173 0.999103 0.994974 0.970318 0.925093 0.859719 0.775087 0.672576 0.554043 0.421809 0.278626 0.127635 0.027695 0.183636 0.336287 0.481672 0.615843 0.734990 0.835559 0.914371 0.968729 0.996530 0.996358 0.967565 0.910334 0.825717 0.715648 0.582928 0.431180 0.264775 0.088721 0.091469 0.269943 0.440697 0.597772 0.735473 0.848590 0.932605 0.983902 0.999937 0.979397 0.922301 0.830067 0.705521 0.552855 0.377517 0.186047 0.014142 0.215032 0.408318 0.585744 0.739475 0.862446 0.948725 0.993822 0.994956 0.951264 0.863920 0.736168 0.573260 0.382281 0.171887 0.048058 0.266925 0.473824 0.658149 0.810139 0.921422 0.985511 0.998230 0.958029 0.866176 0.726799 0.546768 0.335413 0.104098 0.134365 0.366400 0.578429 0.757693 0.893033 0.975639 0.999670 0.962730 0.866146 0.715020 0.518046 0.287076 0.036473 0.217757 0.458952 0.670897 0.838934 0.951023 0.998661 0.977601 0.888298 0.736043 0.530749 0.286393 0.020133 0.248853 0.500718 0.716423 0.879210 0.975951 0.998296 0.943474 0.814700 0.621111 0.377232 0.101971 0.182779 0.453846 0.688661 0.867179 0.973640 0.998056 0.937252 0.795347 0.583634 0.319795 0.026522 0.270358 0.544135 0.769627 0.925539 0.996571 0.975025 0.861757 0.666357 0.406480 0.106381 0.205264 0.498055 0.742825 0.914596 0.995225 0.975443 0.856054 0.648147 0.372227 0.056335 0.266715 0.562686 0.799573 0.951118 0.999845 0.939215 0.774658 0.523292 0.212313 0.123814 0.447088 0.720264 0.911190 0.996693 0.965554 0.820150 0.576536 0.262866 0.083707 0.421325 0.708456 0.909057 0.997206 0.960631 0.802603 0.541931 0.210919 0.148456 0.489774 0.768158 0.946234 0.999304 0.918961 0.714632 0.412738 0.053488 0.314312 0.639833 0.877266 0.992383 0.967676 0.805243 0.526963 0.171800 0.209451 0.561325 0.831753 0.979875 0.982395 0.837501 0.565641 0.206916 0.184605 0.548913 0.829249 0.981041 0.979210 0.822575 0.534587 0.160114 0.241299 0.604807 0.870708 0.994415 0.954149 0.755081 0.429056 0.029815 0.375671 0.718301 0.938720 0.997760 0.883698 0.614898 0.237221 0.183507 0.572791 0.860664 0.994360 0.948287 0.729249 0.375887 0.047802 0.463817 0.794438 0.976841 0.975293 0.788493 0.450539 0.025067 0.406414 0.760074 0.966088 0.982689 0.804986 0.466687 0.034126 0.406471 0.766007 0.970652 0.977241 0.782776 0.425836 0.020646 0.463983 0.810860 0.987111 0.953842 0.716478 0.324409 0.138814 0.573046
1.000000 1.000000 1.000000 1.000000 1.000000 1.000000 1.000000 1.000000 1.000000 1.000000 1.000000 1.000000 1.000000 1.000000 1.000000 1.000000 1.000000 1.000000 1.000000 1.000000 1.000000 1.000000 1.000000 1.000000 1.000000 1.000000 1.000000 1.000000 1.000000 1.000000 1.000000 1.000000 1.000000 1.000000 1.000000 1.000000 1.000000 1.000000 1.000000 1.000000 1.000000 1.000000 1.000000 1.000000 1.000000 1.000000 1.000000 1.000000 1.000000 1.000000 1.000000 1.000000 0.936953 0.936953 0.936953 0.936953 0.936953 0.936953 0.936953 0.936953 0.936953 0.936953 0.936953 0.936953 0.936953 0.936953 0.936953 0.936953 0.936953 0.936953 0.936953 0.936953 0.936953 0.936953 0.936953 0.936953 0.936953 0.936953 0.936953 0.936953 0.936953 0.936953 0.936953 0.936953 0.936953 0.929608 0.930962 0.933690 0.934674 0.934648 0.934244 0.933969 0.934180 0.935027 0.937230 0.953767 0.955051 0.955545 0.956796 0.955529 0.958507 0.956926 0.956807 0.967501 0.966375 0.966951 0.959911 0.961423 0.960504 0.959567 0.960316 0.960624 0.958789 0.956726 0.955108 0.954504 0.954146 0.955871 0.956305 0.956265 0.957685 0.957631 0.957346 0.953933 0.952523 0.953942 0.955883 0.955168 0.961014 0.959317 0.962625 0.963402 0.961983 0.961894 0.962103 0.962310 0.954032 0.948670 0.943844 0.931913 0.922953 0.919703 0.922572 0.924504 0.923596 0.919099 0.918018 0.915696 0.911020 0.910209 0.910606 0.912121 0.908371 0.905123 0.888711 0.888308 0.891372 0.891380 0.889074 0.881504 0.878135 0.879232 0.882197 0.880009 0.876835 0.892964 0.887136 0.891532 0.894341 0.897536 0.901258 0.896137 0.893487 0.889826 0.886342 0.881180 0.881936 0.873062 0.875890 0.868210 0.856723 0.849923 0.853244 0.862445 0.870709 0.878654 0.877631 0.878338 0.877526 0.862966 0.865608 0.852635 0.853521 0.857780 0.863669 0.862059 0.859202 0.863527 0.861522 0.858749 0.861887 0.857901 0.855899 0.845659 0.845318 0.848855 0.864399 0.866030 0.851832 0.843068 0.830628 0.837074 0.840231 0.839744 0.841460 0.835750 0.837372 0.828864 0.817826 0.819308 0.824636 0.818112 0.823047 0.823625 0.828852 0.829666 0.828365 0.822583 0.821331 0.827425 0.794584 0.803206 0.805962 0.797555 0.800767 0.793445 0.786123 0.785011 0.782288 0.763312 0.777545 0.771859 0.738581 0.735861 0.742946 0.735602 0.724510 0.723717 0.725225 0.707994 0.690898 0.658127 0.655377 0.647475 0.642213 0.648425 0.636365 0.623798 0.612521 0.581491 0.595356 0.599361 0.593297 0.593568 0.587463 0.581700 0.573599 0.564226 0.560591 0.565775 0.569286 0.535592 0.529073 0.538279 0.509495 0.507122 0.506978 0.495106 0.478171 0.484092 0.474044 0.498818 0.508889 0.477406 0.465939 0.476310 0.493980 0.504731 0.507635 0.494827 0.475247 0.499505 0.477316 0.460870 0.477501 0.481614 0.474271 0.481174 0.473023 0.498339 0.488045 0.465205 0.495583 0.477270 0.474926 0.480486 0.472553 0.466950 0.463900 0.461072 0.411533 0.426567 0.403582 0.333810 0.347636 0.340238 0.327939 0.322862 0.298977 0.302657 0.274520 0.252830 0.253043 0.249343 0.211154 0.165701 0.172674 0.174434 0.145301 0.117458 0.125100 0.081821 0.074310 0.096384 0.098180 0.105056 0.098824 0.123860 0.123860 0.123860 0.123860 0.123860 0.123860 0.123860 0.123860 0.123860 0.123860 0.123860 0.123860 0.123860 0.123860 0.150930 0.150930 0.150930 0.150930 0.150930 0.150930 0.150930 0.150930 0.150930 0.150930 0.150930 0.150930
0.000000 0.000000 0.000000 0.000000 0.000000 0.000000 0.000000 0.000000 0.000000 0.000000 0.000000 0.000000 0.000000 0.000000 0.000000 0.000000 0.000000 0.000000 0.000000 0.000000 0.000000 0.000000 0.000000 0.000000 0.000000 7.000000 4.000000 0.000000 0.000000 0.000000 0.000000 0.000000 0.000000 0.000000 0.000000 0.000000 0.000000 0.000000 0.000000 0.000000 0.000000 0.000000 0.000000 0.000000 0.000000 0.000000 0.000000 0.000000 0.000000 0.000000 0.000000 0.000000 0.209657 0.209657 0.209657 0.209657 0.209657 0.209657 0.209657 0.209657 0.209657 0.209657 0.209657 0.209657 0.209657 0.209657 0.209657 0.209657 0.209657 0.209657 0.209657 0.209657 0.209657 0.209657 0.209657 0.209657 0.209657 0.209657 0.209657 0.209657 0.209657 0.209657 0.209657 0.209657 0.209657 0.244339 0.244339 0.244339 0.244339 0.244339 0.244339 0.244339 0.244339 0.244339 0.244339 0.244339 0.244339 0.244339 0.244339 0.244339 0.244339 0.244339 0.244339 0.244339 0.244339 0.244339 0.244339 0.244339 0.244339 0.244339 0.260378 0.260378 0.260378 0.260378 0.260378 0.260378 0.260378 0.260378 0.260378 0.260378 0.260378 0.260378 0.260378 0.260378 0.260378 0.260378 0.260378 0.260378 0.260378 0.260378 0.269680 0.269680 0.269680 0.269680 0.269680 0.269680 0.269680 0.269680 0.269680 0.269680 0.269680 0.269680 0.269680 0.269680 0.269680 0.269680 0.269680 0.269680 0.269680 0.269680 0.269680 0.269680 0.269680 0.269680 0.269680 0.269680 0.269680 0.269680 0.269680 0.269680 0.269680 0.269680 0.269680 0.280056 0.280056 0.280056 0.280056 0.280056 0.280056 0.280056 0.280056 0.280056 0.280056 0.280056 0.280056 0.280056 0.280056 0.280056 0.280056 0.280056 0.280056 0.280056 0.280056 0.280056 0.280056 0.280056 0.280056 0.280056 0.280056 0.280056 0.274721 0.274721 0.274721 0.274721 0.274721 0.274721 0.274721 0.274721 0.274721 0.274721 0.274721 0.274721 0.274721 0.285714 0.285714 0.285714 0.285714 0.285714 0.285714 0.285714 0.285714 0.285714 0.285714 0.285714 0.280056 0.280056 0.280056 0.280056 0.280056 0.280056 0.280056 0.280056 0.280056 0.280056 0.280056 0.274721 0.274721 0.274721 0.274721 0.274721 0.274721 0.274721 0.274721 0.274721 0.274721 0.274721 0.280056 0.280056 0.280056 0.280056 0.280056 0.280056 0.280056 0.280056 0.280056 0.280056 0.285714 0.285714 0.285714 0.285714 0.285714 0.285714 0.285714 0.285714 0.285714 0.269680 0.269680 0.269680 0.269680 0.269680 0.269680 0.269680 0.269680 0.269680 0.269680 0.274721 0.274721 0.274721 0.274721 0.274721 0.274721 0.274721 0.274721 0.274721 0.285714 0.285714 0.285714 0.285714 0.285714 0.285714 0.285714 0.285714 0.264906 0.264906 0.264906 0.264906 0.264906 0.264906 0.264906 0.264906 0.264906 0.274721 0.274721 0.274721 0.274721 0.274721 0.274721 0.274721 0.274721 0.269680 0.269680 0.269680 0.269680 0.269680 0.269680 0.269680 0.269680 0.269680 0.269680 0.269680 0.269680 0.269680 0.269680 0.269680 0.269680 0.280056 0.280056 0.280056 0.280056 0.280056 0.280056 0.280056 0.260378 0.260378 0.260378 0.260378 0.260378 0.260378 0.260378 0.260378 0.269680 0.269680 0.269680 0.269680 0.269680 0.269680 0.269680 0.264906 0.264906 0.264906 0.264906 0.264906 0.264906 0.264906 0.264906 0.264906 0.264906 0.264906 0.264906 0.264906 0.264906 0.260378 0.260378 0.260378 0.260378 0.260378 0.260378 0.260378 0.260378 0.260378 0.260378 0.260378 0.260378
