# Output from CTFFind version 4.1.9, run on 2019-11-02 17:45:09
# Input file: stack11_bm3d_averaged_1_1.25_0_750_half.mrc ; Number of micrographs: 1
# Pixel size: 3.000 Angstroms ; acceleration voltage: 300.0 keV ; spherical aberration: 0.00 mm ; amplitude contrast: 0.07
# Box size: 512 pixels ; min. res.: 30.0 Angstroms ; max. res.: 5.0 Angstroms ; min. def.: 5000.0 um; max. def. 50000.0 um; num. frames averaged: 1
# 6 lines per micrograph: #1 - spatial frequency (1/Angstroms); #2 - 1D rotational average of spectrum (assuming no astigmatism); #3 - 1D rotational average of spectrum; #4 - CTF fit; #5 - cross-correlation between spectrum and CTF fit; #6 - 2sigma of expected cross correlation of noise
0.000000 0.000651 0.001302 0.001953 0.002604 0.003255 0.003906 0.004557 0.005208 0.005859 0.006510 0.007161 0.007812 0.008464 0.009115 0.009766 0.010417 0.011068 0.011719 0.012370 0.013021 0.013672 0.014323 0.014974 0.015625 0.016276 0.016927 0.017578 0.018229 0.018880 0.019531 0.020182 0.020833 0.021484 0.022135 0.022786 0.023438 0.024089 0.024740 0.025391 0.026042 0.026693 0.027344 0.027995 0.028646 0.029297 0.029948 0.030599 0.031250 0.031901 0.032552 0.033203 0.033854 0.034505 0.035156 0.035807 0.036458 0.037109 0.037760 0.038411 0.039062 0.039714 0.040365 0.041016 0.041667 0.042318 0.042969 0.043620 0.044271 0.044922 0.045573 0.046224 0.046875 0.047526 0.048177 0.048828 0.049479 0.050130 0.050781 0.051432 0.052083 0.052734 0.053385 0.054036 0.054688 0.055339 0.055990 0.056641 0.057292 0.057943 0.058594 0.059245 0.059896 0.060547 0.061198 0.061849 0.062500 0.063151 0.063802 0.064453 0.065104 0.065755 0.066406 0.067057 0.067708 0.068359 0.069010 0.069661 0.070312 0.070964 0.071615 0.072266 0.072917 0.073568 0.074219 0.074870 0.075521 0.076172 0.076823 0.077474 0.078125 0.078776 0.079427 0.080078 0.080729 0.081380 0.082031 0.082682 0.083333 0.083984 0.084635 0.085286 0.085938 0.086589 0.087240 0.087891 0.088542 0.089193 0.089844 0.090495 0.091146 0.091797 0.092448 0.093099 0.093750 0.094401 0.095052 0.095703 0.096354 0.097005 0.097656 0.098307 0.098958 0.099609 0.100260 0.100911 0.101562 0.102214 0.102865 0.103516 0.104167 0.104818 0.105469 0.106120 0.106771 0.107422 0.108073 0.108724 0.109375 0.110026 0.110677 0.111328 0.111979 0.112630 0.113281 0.113932 0.114583 0.115234 0.115885 0.116536 0.117188 0.117839 0.118490 0.119141 0.119792 0.120443 0.121094 0.121745 0.122396 0.123047 0.123698 0.124349 0.125000 0.125651 0.126302 0.126953 0.127604 0.128255 0.128906 0.129557 0.130208 0.130859 0.131510 0.132161 0.132812 0.133464 0.134115 0.134766 0.135417 0.136068 0.136719 0.137370 0.138021 0.138672 0.139323 0.139974 0.140625 0.141276 0.141927 0.142578 0.143229 0.143880 0.144531 0.145182 0.145833 0.146484 0.147135 0.147786 0.148438 0.149089 0.149740 0.150391 0.151042 0.151693 0.152344 0.152995 0.153646 0.154297 0.154948 0.155599 0.156250 0.156901 0.157552 0.158203 0.158854 0.159505 0.160156 0.160807 0.161458 0.162109 0.162760 0.163411 0.164062 0.164714 0.165365 0.166016 0.166667 0.167318 0.167969 0.168620 0.169271 0.169922 0.170573 0.171224 0.171875 0.172526 0.173177 0.173828 0.174479 0.175130 0.175781 0.176432 0.177083 0.177734 0.178385 0.179036 0.179688 0.180339 0.180990 0.181641 0.182292 0.182943 0.183594 0.184245 0.184896 0.185547 0.186198 0.186849 0.187500 0.188151 0.188802 0.189453 0.190104 0.190755 0.191406 0.192057 0.192708 0.193359 0.194010 0.194661 0.195312 0.195964 0.196615 0.197266 0.197917 0.198568 0.199219 0.199870 0.200521 0.201172 0.201823 0.202474 0.203125 0.203776 0.204427 0.205078 0.205729 0.206380 0.207031 0.207682 0.208333 0.208984 0.209635 0.210286 0.210938 0.211589 0.212240 0.212891 0.213542 0.214193 0.214844 0.215495 0.216146 0.216797 0.217448 0.218099 0.218750 0.219401 0.220052 0.220703 0.221354 0.222005 0.222656 0.223307 0.223958 0.224609 0.225260 0.225911 0.226562 0.227214 0.227865 0.228516 0.229167 0.229818 0.230469 0.231120 0.231771 0.232422 0.233073 0.233724 0.234375 0.235026 0.235677
       0.31686        0.31686        0.31686        0.31686        0.31686        0.31686        0.31686        0.31686        0.31686        0.31686        0.31686        0.31686        0.31686        0.31686        0.31686        0.31686        0.31686        0.31686        0.31686        0.31686        0.31686        0.31686        0.31686        0.31686        0.31686        0.31686        0.31686        0.31686        0.31686        0.31686        0.31686        0.31686        0.31686        0.31686        0.31686        0.31686        0.31686        0.31686        0.31686        0.31686        0.31686        0.31686        0.31686        0.31686        0.31686        0.31686        0.31686        0.31686        0.31686        0.31686        0.31686        0.68321        0.86971        0.52306        0.08814       -0.06497       -0.42548       -0.20750       -0.29685       -0.11717       -0.07690       -0.11829       -0.06814       -0.20817       -0.23520       -0.25817       -0.32983       -0.33715       -0.48947       -0.38249       -0.46649       -0.44780       -0.42207       -0.47023       -0.54480       -0.56231       -0.58861       -0.62497       -0.57874       -0.41628       -0.37963       -0.33106       -0.31531       -0.21225       -0.20102        0.01676        0.07251        0.10577        0.22607        0.37207        0.44260        0.51603        0.55863        0.55421        0.57018        0.69825        0.81191        0.74055        0.73248        0.66944        0.58144        0.48568        0.40834        0.49375        0.37643        0.20407        0.07736        0.04720        0.01202       -0.06170       -0.03937       -0.02340       -0.07294       -0.00765       -0.01957        0.21230        0.25019        0.29036        0.43141        0.46356        0.40398        0.53696        0.62723        0.70045        0.76358        0.69037        0.65705        0.69942        0.58504        0.50276        0.41888        0.29037        0.18651        0.15585        0.10566        0.03875        0.01136       -0.00205        0.07581        0.13131        0.20404        0.28156        0.39991        0.41655        0.51112        0.60211        0.63417        0.61696        0.63004        0.55354        0.44751        0.44592        0.35148        0.22913        0.18380        0.14867        0.10977        0.12211        0.06846        0.09990        0.22562        0.26211        0.34015        0.35202        0.45380        0.51471        0.53654        0.54888        0.47021        0.43001        0.39106        0.36776        0.30703        0.25045        0.20023        0.18607        0.16056        0.19240        0.17819        0.26931        0.33174        0.36351        0.42417        0.46121        0.47780        0.44416        0.39406        0.41654        0.37453        0.28636        0.27096        0.22418        0.21361        0.19551        0.21466        0.22912        0.32777        0.37405        0.36650        0.46118        0.43909        0.43795        0.43135        0.39406        0.34526        0.32812        0.27602        0.23830        0.23671        0.26946        0.27138        0.30240        0.30239        0.33899        0.32885        0.40776        0.41659        0.37496        0.34527        0.36495        0.27969        0.28124        0.26053        0.27605        0.26050        0.28032        0.29137        0.31330        0.35105        0.36037        0.35968        0.33236        0.35078        0.28483        0.32041        0.26922        0.24829        0.28625        0.28200        0.30679        0.31164        0.33229        0.32744        0.31479        0.31719        0.28770        0.28764        0.26002        0.28092        0.26552        0.30904        0.28335        0.26483        0.30758        0.31135        0.31589        0.28695        0.29961        0.28760        0.24748        0.23958        0.21940        0.28020        0.27463        0.31554        0.31468        0.32050        0.31797        0.30653        0.27756        0.28598        0.33057        0.26958        0.26131        0.29504        0.29258        0.34077        0.33415        0.35713        0.33199        0.31312        0.28121        0.26490        0.26186        0.22851        0.27104        0.30211        0.29458        0.27828        0.29395        0.27033        0.32374        0.32662        0.25085        0.21895        0.27575        0.33687        0.27612        0.30916        0.32427        0.32516        0.30132        0.32465        0.34298        0.29734        0.29036        0.25934        0.28129        0.35401        0.35255        0.26141        0.26787        0.25447        0.28452        0.22146        0.29279        0.22317        0.25089        0.33378        0.32210        0.34728        0.29511        0.24298        0.24104        0.24040        0.23727        0.18613        0.22577        0.26172        0.29919        0.27435        0.30433        0.29924        0.27716        0.27615        0.20961        0.16961        0.19194        0.23015        0.20103        0.21181        0.22823        0.20731        0.24966        0.33936        0.29741        0.30821        0.22236        0.25299        0.23327        0.27997        0.29918        0.14597        0.22134        0.22642        0.11762        0.22072        0.11038        0.15214        0.20301        0.10939       -0.11782       -0.58295
2.589168 2.562131 2.535241 2.508498 2.481901 2.455451 2.429147 2.402990 2.376980 2.351116 2.325399 2.299829 2.274405 2.249128 2.223997 2.199013 2.174176 2.149485 2.124941 2.100544 2.076293 2.052188 2.028231 2.004420 1.980755 1.957238 1.933866 1.910642 1.887564 1.864633 1.841848 1.819210 1.796718 1.774374 1.752175 1.730124 1.708219 1.686460 1.664849 1.643384 1.622065 1.600893 1.579868 1.558989 1.538257 1.517672 1.497233 1.476941 1.456795 1.436796 1.416944 1.637557 2.044510 1.618488 1.131028 0.988346 0.423118 0.811456 0.562329 0.835322 0.773875 0.788423 0.752862 0.710380 0.563573 0.514989 0.485635 0.445096 0.206885 0.381021 0.202971 0.308244 0.237981 0.180252 0.130607 0.005423 0.041680 -0.014584 -0.055657 0.104341 0.206324 0.194646 0.153812 0.331748 0.197481 0.493582 0.577988 0.550754 0.594871 0.877513 0.809663 0.945851 0.888582 0.974147 0.941965 1.079417 1.139283 1.074086 1.125974 0.949644 0.944017 0.785639 0.653041 0.770656 0.706360 0.464263 0.307141 0.253742 0.216280 0.147702 0.089021 0.127427 0.068021 0.150678 0.054213 0.262604 0.378846 0.356764 0.482260 0.581636 0.466091 0.548067 0.697770 0.744526 0.781934 0.731336 0.731913 0.714763 0.626535 0.568565 0.428361 0.287784 0.206158 0.078115 0.128821 -0.044045 -0.030193 -0.081734 -0.038014 0.002526 0.145917 0.088866 0.299828 0.277505 0.363878 0.457678 0.520742 0.507357 0.519965 0.504995 0.333040 0.310251 0.276324 0.099647 0.047942 -0.005457 -0.033475 -0.039654 -0.090679 -0.105324 -0.013291 0.057395 0.130973 0.139754 0.229693 0.333264 0.310603 0.417192 0.391119 0.283842 0.230745 0.245159 0.202750 0.103235 0.072461 0.016534 0.001068 0.004972 -0.015898 0.057898 0.147193 0.140659 0.226324 0.254712 0.304116 0.258802 0.222368 0.186984 0.213859 0.145228 0.043873 0.041543 -0.010690 -0.010407 -0.029606 0.017113 0.015156 0.170853 0.126915 0.181821 0.239092 0.199900 0.191566 0.197858 0.139116 0.103837 0.063802 0.045540 -0.034969 0.007006 0.022916 0.055541 0.052294 0.079813 0.096263 0.120203 0.134854 0.188707 0.078315 0.098256 0.072536 -0.000433 0.005621 0.007905 -0.010769 0.019796 0.004171 0.029428 0.068384 0.081756 0.121224 0.047945 0.099683 0.053941 0.010406 0.061693 -0.034668 -0.011640 0.026079 -0.000869 0.053145 0.051449 0.053329 0.055464 0.054455 0.047604 0.021005 0.000232 0.008727 0.012588 -0.012622 0.070641 -0.015369 0.010315 0.056751 0.047480 0.035366 0.044419 0.036685 0.015198 -0.019866 -0.043711 -0.015685 0.018947 0.024865 0.067925 0.057986 0.064496 0.079120 0.064822 0.024048 0.064304 0.086300 0.016705 0.018767 0.060309 0.052011 0.103131 0.106997 0.109565 0.116206 0.067716 0.041062 0.030557 0.005637 0.000429 0.050300 0.078353 0.042866 0.031962 0.031700 0.017894 0.091624 0.056424 -0.046706 -0.051828 0.032591 0.095425 0.004311 0.025028 0.063430 0.081232 0.027998 0.058247 0.080045 0.031158 0.037203 -0.041088 0.020345 0.112425 0.068110 -0.051281 -0.021650 -0.049896 0.028051 -0.110029 0.039160 -0.105205 -0.033360 0.058178 0.033525 0.033356 -0.043050 -0.060697 -0.082078 -0.083684 -0.068911 -0.118632 -0.096591 -0.035596 0.027701 -0.029244 0.039925 -0.013957 -0.043655 0.048639 -0.106923 -0.102969 -0.088076 -0.014704 -0.048384 -0.045656 -0.001114 0.009068 0.016591 0.185065 -0.012198 0.145296 0.011256 0.260359 0.252631 0.320774 0.274840 0.112867 0.224187 0.269343 0.044375 0.241681 0.117790 0.111328 0.284558 0.111686 -0.603098
0.072396 0.072899 0.074406 0.076917 0.080433 0.084951 0.090472 0.096992 0.104510 0.113024 0.122529 0.133021 0.144496 0.156946 0.170365 0.184742 0.200067 0.216328 0.233508 0.251591 0.270556 0.290382 0.311041 0.332505 0.354740 0.377709 0.401371 0.425681 0.450586 0.476032 0.501957 0.528294 0.554971 0.581909 0.609022 0.636219 0.663402 0.690465 0.717297 0.743779 0.769785 0.795184 0.819836 0.843596 0.866314 0.887831 0.907987 0.926614 0.943542 0.958596 0.971601 0.982378 0.990750 0.996539 0.999570 0.999673 0.996680 0.990433 0.980781 0.967584 0.950714 0.930059 0.905523 0.877026 0.844514 0.807953 0.767335 0.722681 0.674039 0.621492 0.565154 0.505177 0.441749 0.375095 0.305481 0.233214 0.158637 0.082140 0.004147 0.074876 0.154427 0.233966 0.312925 0.390703 0.466673 0.540191 0.610594 0.677210 0.739364 0.796385 0.847613 0.892408 0.930159 0.960291 0.982278 0.995648 0.999996 0.994992 0.980392 0.956043 0.921895 0.878008 0.824556 0.761837 0.690269 0.610405 0.522921 0.428624 0.328446 0.223435 0.114757 0.003675 0.108454 0.220198 0.330067 0.436532 0.538042 0.633055 0.720055 0.797582 0.864261 0.918824 0.960142 0.987249 0.999372 0.995952 0.976664 0.941442 0.890488 0.824290 0.743619 0.649542 0.543405 0.426832 0.301702 0.170130 0.034430 0.102912 0.239288 0.372015 0.498384 0.615716 0.721429 0.813090 0.888481 0.945660 0.983014 0.999317 0.993775 0.966064 0.916364 0.845374 0.754322 0.644958 0.519536 0.380781 0.231837 0.076209 0.082313 0.239747 0.392005 0.535012 0.664813 0.777682 0.870248 0.939596 0.983376 0.999890 0.988177 0.948065 0.880215 0.786133 0.668158 0.529429 0.373812 0.205816 0.030466 0.146830 0.320449 0.484728 0.634151 0.763537 0.868240 0.944321 0.988713 0.999370 0.975369 0.916994 0.825767 0.704442 0.556947 0.388281 0.204368 0.011863 0.182077 0.370055 0.544712 0.699023 0.826591 0.921926 0.980704 0.999986 0.978390 0.916201 0.815422 0.679743 0.514445 0.326217 0.122919 0.086736 0.293539 0.488194 0.661725 0.805917 0.913715 0.979599 0.999891 0.972996 0.899545 0.782442 0.626784 0.439689 0.230002 0.007898 0.215586 0.429093 0.621528 0.782645 0.903609 0.977518 0.999824 0.968658 0.885012 0.752772 0.578588 0.371594 0.142954 0.094699 0.327952 0.543363 0.728239 0.871408 0.963929 0.999686 0.975840 0.893097 0.755769 0.571609 0.351427 0.108503 0.142184 0.384864 0.603961 0.785106 0.916117 0.987843 0.994869 0.935974 0.814328 0.637399 0.416557 0.166410 0.096141 0.352995 0.586120 0.778806 0.916911 0.989933 0.991882 0.921824 0.784088 0.588078 0.347711 0.080483 0.193763 0.454285 0.681019 0.856134 0.965495 0.999853 0.955702 0.835706 0.648635 0.408816 0.135101 0.150561 0.424849 0.664972 0.850602 0.965618 0.999588 0.948795 0.816716 0.613895 0.357201 0.068490 0.227188 0.503746 0.736362 0.903742 0.990132 0.986879 0.893395 0.717398 0.474386 0.186369 0.120052 0.416105 0.673534 0.867330 0.978209 0.994628 0.914084 0.743562 0.499059 0.204188 0.112013 0.417905 0.682399 0.878133 0.984388 0.989363 0.891607 0.700391 0.434964 0.122738 0.203482 0.508875 0.760350 0.930155 0.999033 0.958521 0.812114 0.575120 0.273215 0.060259 0.387880 0.672346 0.880740 0.988422 0.982051 0.861377 0.639534 0.341773 0.002707 0.337628 0.638468 0.863225 0.984014 0.985230 0.865712 0.639172 0.332794 0.015898 0.363544 0.666308 0.885438 0.992301 0.972274 0.826889 0.573965 0.245574 0.115855
1.000000 1.000000 1.000000 1.000000 1.000000 1.000000 1.000000 1.000000 1.000000 1.000000 1.000000 1.000000 1.000000 1.000000 1.000000 1.000000 1.000000 1.000000 1.000000 1.000000 1.000000 1.000000 1.000000 1.000000 1.000000 1.000000 1.000000 1.000000 1.000000 1.000000 1.000000 1.000000 1.000000 1.000000 1.000000 1.000000 1.000000 1.000000 1.000000 1.000000 1.000000 1.000000 1.000000 1.000000 1.000000 1.000000 1.000000 1.000000 1.000000 1.000000 1.000000 1.000000 0.929704 0.929704 0.929704 0.919672 0.919672 0.919672 0.919672 0.919672 0.919672 0.919672 0.919672 0.919672 0.919672 0.919672 0.919672 0.919672 0.919672 0.919672 0.919672 0.919672 0.919672 0.919672 0.919672 0.919672 0.919672 0.919672 0.919672 0.919672 0.919672 0.919672 0.919672 0.919672 0.919672 0.919672 0.919672 0.919672 0.919672 0.919672 0.919672 0.919672 0.919672 0.919672 0.919672 0.919672 0.950054 0.951295 0.959193 0.959038 0.958545 0.956467 0.955547 0.954432 0.953977 0.954250 0.954854 0.955684 0.964397 0.965469 0.967042 0.967872 0.968591 0.969240 0.969071 0.969789 0.969000 0.968441 0.967931 0.963968 0.964584 0.965146 0.965263 0.966294 0.966175 0.968170 0.968337 0.967735 0.966847 0.966099 0.965376 0.964949 0.964670 0.965175 0.965471 0.966779 0.969956 0.969390 0.969089 0.969247 0.969349 0.969532 0.969973 0.971670 0.967948 0.968575 0.966920 0.964755 0.968925 0.966095 0.965869 0.967230 0.967616 0.968017 0.966832 0.963175 0.957494 0.956981 0.954127 0.944642 0.943032 0.943651 0.945996 0.946437 0.944998 0.937353 0.937954 0.931472 0.932858 0.936133 0.930830 0.930756 0.931915 0.931041 0.929657 0.929000 0.926133 0.923276 0.921549 0.921359 0.924410 0.924895 0.926096 0.925936 0.920438 0.912033 0.898946 0.897051 0.891257 0.894433 0.884026 0.884000 0.884155 0.880324 0.883754 0.883387 0.884327 0.881274 0.865540 0.847923 0.840764 0.844488 0.849519 0.844408 0.843228 0.836228 0.847747 0.828838 0.841519 0.852540 0.848825 0.849040 0.848618 0.846282 0.840703 0.841502 0.843537 0.845349 0.844013 0.843030 0.841419 0.825409 0.826726 0.761936 0.744637 0.738016 0.743719 0.750113 0.751444 0.750812 0.758363 0.763544 0.755501 0.738472 0.730711 0.722476 0.727459 0.730348 0.732767 0.719577 0.693045 0.687136 0.655434 0.673208 0.688307 0.648199 0.671976 0.682928 0.680416 0.678994 0.672133 0.669124 0.664592 0.667583 0.675660 0.688799 0.707738 0.730929 0.727593 0.717988 0.716598 0.697500 0.690773 0.682325 0.693542 0.674525 0.671111 0.689328 0.689293 0.675145 0.653289 0.641485 0.630118 0.626179 0.633711 0.626085 0.622221 0.610270 0.585229 0.578332 0.614943 0.631447 0.651276 0.622711 0.608907 0.597792 0.576845 0.590600 0.535646 0.535407 0.555968 0.563509 0.540675 0.528925 0.539571 0.550052 0.554530 0.544995 0.525083 0.514230 0.529456 0.558773 0.549992 0.530968 0.533983 0.532220 0.525161 0.440790 0.435057 0.404368 0.373527 0.317091 0.294627 0.287094 0.269255 0.256145 0.221774 0.217787 0.228337 0.237086 0.249196 0.251454 0.235546 0.241296 0.234277 0.220869 0.159421 0.149097 0.141894 0.131209 0.131741 0.109589 0.132362 0.195691 0.198165 0.198165 0.198165 0.198165 0.198165 0.198165 0.207821 0.207821 0.207821 0.207821 0.207821 0.207821 0.207821 0.207821 0.207821 0.217319 0.217319 0.217319 0.217319 0.217319 0.217319 0.217319 0.217319 0.217319 0.217319 0.217319 0.217319 0.217319 0.217319
0.000000 0.000000 0.000000 0.000000 0.000000 0.000000 0.000000 0.000000 0.000000 0.000000 0.000000 0.000000 0.000000 0.000000 0.000000 0.000000 0.000000 0.000000 0.000000 0.000000 0.000000 0.000000 0.000000 0.000000 0.000000 0.000000 0.000000 0.000000 0.000000 0.000000 0.000000 0.000000 0.000000 0.000000 0.000000 0.000000 0.000000 0.000000 0.000000 0.000000 0.000000 0.000000 0.000000 0.000000 0.000000 0.000000 0.000000 0.000000 0.000000 0.000000 0.000000 0.000000 0.180334 0.180334 0.180334 0.199007 0.199007 0.199007 0.199007 0.199007 0.199007 0.199007 0.199007 0.199007 0.199007 0.199007 0.199007 0.199007 0.199007 0.199007 0.199007 0.199007 0.199007 0.199007 0.199007 0.199007 0.199007 0.199007 0.199007 0.199007 0.199007 0.199007 0.199007 0.199007 0.199007 0.199007 0.199007 0.199007 0.199007 0.199007 0.199007 0.199007 0.199007 0.199007 0.199007 0.199007 0.225018 0.225018 0.225018 0.225018 0.225018 0.225018 0.225018 0.225018 0.225018 0.225018 0.225018 0.225018 0.225018 0.225018 0.225018 0.225018 0.225018 0.225018 0.225018 0.225018 0.225018 0.225018 0.225018 0.225018 0.225018 0.225018 0.225018 0.225018 0.225018 0.244339 0.244339 0.244339 0.244339 0.244339 0.244339 0.244339 0.244339 0.244339 0.244339 0.244339 0.244339 0.244339 0.244339 0.244339 0.244339 0.244339 0.244339 0.244339 0.244339 0.244339 0.244339 0.244339 0.251976 0.251976 0.251976 0.251976 0.251976 0.251976 0.251976 0.251976 0.251976 0.251976 0.251976 0.251976 0.251976 0.251976 0.251976 0.251976 0.251976 0.251976 0.251976 0.251976 0.264906 0.264906 0.264906 0.264906 0.264906 0.264906 0.264906 0.264906 0.264906 0.264906 0.264906 0.264906 0.264906 0.264906 0.264906 0.264906 0.264906 0.264906 0.264906 0.264906 0.264906 0.264906 0.264906 0.264906 0.264906 0.264906 0.264906 0.264906 0.264906 0.264906 0.264906 0.264906 0.264906 0.264906 0.264906 0.264906 0.264906 0.264906 0.264906 0.264906 0.264906 0.264906 0.264906 0.264906 0.264906 0.264906 0.264906 0.264906 0.264906 0.264906 0.264906 0.264906 0.264906 0.264906 0.264906 0.264906 0.264906 0.264906 0.264906 0.264906 0.264906 0.264906 0.256074 0.256074 0.256074 0.256074 0.256074 0.256074 0.256074 0.256074 0.256074 0.256074 0.256074 0.256074 0.256074 0.256074 0.269680 0.269680 0.269680 0.269680 0.269680 0.269680 0.269680 0.269680 0.269680 0.269680 0.269680 0.269680 0.264906 0.264906 0.264906 0.264906 0.264906 0.264906 0.264906 0.264906 0.264906 0.264906 0.264906 0.264906 0.269680 0.269680 0.269680 0.269680 0.269680 0.269680 0.269680 0.269680 0.269680 0.269680 0.269680 0.264906 0.264906 0.264906 0.264906 0.264906 0.264906 0.264906 0.264906 0.264906 0.264906 0.264906 0.256074 0.256074 0.256074 0.256074 0.256074 0.256074 0.256074 0.256074 0.256074 0.256074 0.256074 0.264906 0.264906 0.264906 0.264906 0.264906 0.264906 0.264906 0.264906 0.264906 0.264906 0.260378 0.260378 0.260378 0.260378 0.260378 0.260378 0.260378 0.260378 0.260378 0.260378 0.256074 0.256074 0.256074 0.256074 0.256074 0.256074 0.256074 0.256074 0.256074 0.256074 0.260378 0.260378 0.260378 0.260378 0.260378 0.260378 0.260378 0.260378 0.260378 0.256074 0.256074 0.256074 0.256074 0.256074 0.256074 0.256074 0.256074 0.256074 0.251976 0.251976 0.251976 0.251976 0.251976 0.251976 0.251976 0.251976 0.251976 0.251976 0.251976 0.251976 0.251976 0.251976
