# Output from CTFFind version 4.1.9, run on 2019-11-03 19:34:27
# Input file: stack6_bm3d_averaged_1_4.25_0_1250_half.mrc ; Number of micrographs: 1
# Pixel size: 3.000 Angstroms ; acceleration voltage: 300.0 keV ; spherical aberration: 0.00 mm ; amplitude contrast: 0.07
# Box size: 512 pixels ; min. res.: 30.0 Angstroms ; max. res.: 5.0 Angstroms ; min. def.: 5000.0 um; max. def. 50000.0 um; num. frames averaged: 1
# 6 lines per micrograph: #1 - spatial frequency (1/Angstroms); #2 - 1D rotational average of spectrum (assuming no astigmatism); #3 - 1D rotational average of spectrum; #4 - CTF fit; #5 - cross-correlation between spectrum and CTF fit; #6 - 2sigma of expected cross correlation of noise
0.000000 0.000651 0.001302 0.001953 0.002604 0.003255 0.003906 0.004557 0.005208 0.005859 0.006510 0.007161 0.007812 0.008464 0.009115 0.009766 0.010417 0.011068 0.011719 0.012370 0.013021 0.013672 0.014323 0.014974 0.015625 0.016276 0.016927 0.017578 0.018229 0.018880 0.019531 0.020182 0.020833 0.021484 0.022135 0.022786 0.023438 0.024089 0.024740 0.025391 0.026042 0.026693 0.027344 0.027995 0.028646 0.029297 0.029948 0.030599 0.031250 0.031901 0.032552 0.033203 0.033854 0.034505 0.035156 0.035807 0.036458 0.037109 0.037760 0.038411 0.039062 0.039714 0.040365 0.041016 0.041667 0.042318 0.042969 0.043620 0.044271 0.044922 0.045573 0.046224 0.046875 0.047526 0.048177 0.048828 0.049479 0.050130 0.050781 0.051432 0.052083 0.052734 0.053385 0.054036 0.054688 0.055339 0.055990 0.056641 0.057292 0.057943 0.058594 0.059245 0.059896 0.060547 0.061198 0.061849 0.062500 0.063151 0.063802 0.064453 0.065104 0.065755 0.066406 0.067057 0.067708 0.068359 0.069010 0.069661 0.070312 0.070964 0.071615 0.072266 0.072917 0.073568 0.074219 0.074870 0.075521 0.076172 0.076823 0.077474 0.078125 0.078776 0.079427 0.080078 0.080729 0.081380 0.082031 0.082682 0.083333 0.083984 0.084635 0.085286 0.085938 0.086589 0.087240 0.087891 0.088542 0.089193 0.089844 0.090495 0.091146 0.091797 0.092448 0.093099 0.093750 0.094401 0.095052 0.095703 0.096354 0.097005 0.097656 0.098307 0.098958 0.099609 0.100260 0.100911 0.101562 0.102214 0.102865 0.103516 0.104167 0.104818 0.105469 0.106120 0.106771 0.107422 0.108073 0.108724 0.109375 0.110026 0.110677 0.111328 0.111979 0.112630 0.113281 0.113932 0.114583 0.115234 0.115885 0.116536 0.117188 0.117839 0.118490 0.119141 0.119792 0.120443 0.121094 0.121745 0.122396 0.123047 0.123698 0.124349 0.125000 0.125651 0.126302 0.126953 0.127604 0.128255 0.128906 0.129557 0.130208 0.130859 0.131510 0.132161 0.132812 0.133464 0.134115 0.134766 0.135417 0.136068 0.136719 0.137370 0.138021 0.138672 0.139323 0.139974 0.140625 0.141276 0.141927 0.142578 0.143229 0.143880 0.144531 0.145182 0.145833 0.146484 0.147135 0.147786 0.148438 0.149089 0.149740 0.150391 0.151042 0.151693 0.152344 0.152995 0.153646 0.154297 0.154948 0.155599 0.156250 0.156901 0.157552 0.158203 0.158854 0.159505 0.160156 0.160807 0.161458 0.162109 0.162760 0.163411 0.164062 0.164714 0.165365 0.166016 0.166667 0.167318 0.167969 0.168620 0.169271 0.169922 0.170573 0.171224 0.171875 0.172526 0.173177 0.173828 0.174479 0.175130 0.175781 0.176432 0.177083 0.177734 0.178385 0.179036 0.179688 0.180339 0.180990 0.181641 0.182292 0.182943 0.183594 0.184245 0.184896 0.185547 0.186198 0.186849 0.187500 0.188151 0.188802 0.189453 0.190104 0.190755 0.191406 0.192057 0.192708 0.193359 0.194010 0.194661 0.195312 0.195964 0.196615 0.197266 0.197917 0.198568 0.199219 0.199870 0.200521 0.201172 0.201823 0.202474 0.203125 0.203776 0.204427 0.205078 0.205729 0.206380 0.207031 0.207682 0.208333 0.208984 0.209635 0.210286 0.210938 0.211589 0.212240 0.212891 0.213542 0.214193 0.214844 0.215495 0.216146 0.216797 0.217448 0.218099 0.218750 0.219401 0.220052 0.220703 0.221354 0.222005 0.222656 0.223307 0.223958 0.224609 0.225260 0.225911 0.226562 0.227214 0.227865 0.228516 0.229167 0.229818 0.230469 0.231120 0.231771 0.232422 0.233073 0.233724 0.234375 0.235026 0.235677
       0.30213        0.30213        0.30213        0.30213        0.30213        0.30213        0.30213        0.30213        0.30213        0.30213        0.30213        0.30213        0.30213        0.30213        0.30213        0.30213        0.30213        0.30213        0.30213        0.30213        0.30213        0.30213        0.30213        0.30213        0.30213        0.30213        0.30213        0.30213        0.30213        0.30213        0.30213        0.30213        0.30213        0.30213        0.30213        0.30213        0.30213        0.30213        0.30213        0.30213        0.30213        0.30213        0.30213        0.30213        0.30213        0.30213        0.30213        0.30213        0.30213        0.30213        0.30213        0.60820        0.74912        0.36176        0.21106        0.13189       -0.15054        0.11396        0.02453        0.03422        0.09388        0.32019        0.35834        0.29110        0.17292       -0.03274        0.00073        0.04572       -0.15566       -0.16726       -0.09048       -0.11836       -0.26165       -0.16362       -0.29452       -0.29456       -0.30251       -0.37206       -0.44838       -0.41070       -0.32474       -0.28887       -0.38358       -0.29046       -0.35389       -0.29028       -0.21801       -0.16690       -0.12811       -0.04478       -0.01936        0.09684        0.13635        0.21575        0.32975        0.39303        0.36601        0.46968        0.56182        0.57427        0.65816        0.61713        0.66241        0.60546        0.63317        0.63284        0.56807        0.57337        0.57513        0.40020        0.33272        0.35659        0.34598        0.18418        0.13018        0.09004        0.07025        0.07044       -0.03018        0.03086       -0.00663       -0.05018        0.07680        0.16010        0.25930        0.34257        0.33230        0.37049        0.48550        0.51640        0.45139        0.65298        0.52759        0.49595        0.56103        0.51259        0.51575        0.46569        0.36904        0.32560        0.24472        0.20230        0.17085        0.16483        0.13707        0.08019        0.13331        0.15276        0.19478        0.17642        0.24740        0.27947        0.32882        0.45141        0.42354        0.42143        0.47132        0.51416        0.50160        0.46984        0.38119        0.40555        0.35324        0.28015        0.22552        0.23347        0.20388        0.17025        0.15234        0.18507        0.17530        0.22936        0.29415        0.33702        0.39327        0.39261        0.45294        0.46748        0.44999        0.43056        0.39754        0.40435        0.38928        0.34763        0.30473        0.28720        0.23776        0.25656        0.25072        0.20259        0.24755        0.24264        0.25406        0.31980        0.35717        0.38570        0.38991        0.40164        0.40240        0.40333        0.39987        0.29301        0.28795        0.25326        0.26669        0.22552        0.19283        0.26070        0.30965        0.29494        0.27311        0.32761        0.27113        0.35645        0.34709        0.35502        0.36550        0.37499        0.31158        0.30771        0.29234        0.27612        0.26401        0.24974        0.26090        0.29111        0.28689        0.30930        0.34970        0.36942        0.34305        0.33469        0.34728        0.31254        0.29578        0.29238        0.26898        0.27648        0.26293        0.29523        0.29855        0.28183        0.29625        0.30564        0.32004        0.32933        0.33001        0.27801        0.25881        0.28437        0.27473        0.26384        0.25632        0.22659        0.24508        0.25623        0.24691        0.26414        0.28106        0.32062        0.31387        0.29978        0.30354        0.23212        0.22073        0.27031        0.24002        0.20375        0.26192        0.31807        0.25777        0.29570        0.29622        0.29640        0.30731        0.28308        0.27161        0.28987        0.26651        0.28733        0.24151        0.26169        0.24943        0.29091        0.29042        0.31575        0.31466        0.31356        0.21945        0.28279        0.28024        0.22574        0.27069        0.25784        0.29306        0.28348        0.30500        0.29776        0.34885        0.29320        0.25838        0.24099        0.21799        0.24027        0.26215        0.29109        0.28839        0.28817        0.29430        0.27747        0.27274        0.26698        0.24128        0.28223        0.24139        0.22897        0.22236        0.30109        0.29751        0.28372        0.28543        0.22049        0.28774        0.25274        0.20032        0.23006        0.26802        0.27728        0.30506        0.21094        0.19221        0.25556        0.24362        0.26259        0.21864        0.21957        0.20618        0.23177        0.25307        0.21538        0.25918        0.23275        0.25967        0.19171        0.26866        0.30091        0.19501        0.15497        0.14322        0.13121        0.22671        0.14866        0.09157        0.31778        0.19379        0.09199        0.08722        0.11726        0.16420        0.21587       -0.05495       -0.74256       -1.07167
2.839258 2.811213 2.783312 2.755554 2.727940 2.700469 2.673142 2.645958 2.618918 2.592022 2.565269 2.538659 2.512193 2.485871 2.459691 2.433656 2.407764 2.382016 2.356411 2.330950 2.305632 2.280458 2.255427 2.230539 2.205796 2.181196 2.156739 2.132426 2.108256 2.084230 2.060348 2.036609 2.013013 1.989561 1.966253 1.943088 1.920066 1.897189 1.874454 1.851864 1.829416 1.807113 1.784952 1.762936 1.741062 1.719333 1.697747 1.676304 1.655005 1.633850 1.612838 1.943531 2.257517 1.645112 1.573381 1.290680 0.773544 1.158879 1.028003 1.055549 0.920514 1.502930 1.414857 1.414111 1.171978 0.854917 0.702884 0.935869 0.703561 0.393530 0.508856 0.618322 0.364945 0.412553 0.256934 0.191580 0.126589 0.125987 -0.123104 -0.055209 0.062794 0.035191 -0.001446 0.087882 -0.055746 -0.021958 0.127682 0.196782 0.246579 0.313177 0.348049 0.602096 0.533626 0.634517 0.855794 0.931988 0.848703 1.127529 1.126128 1.201094 1.274862 1.166257 1.319321 1.160048 1.127872 1.286256 1.080938 1.029789 1.127211 0.895989 0.625504 0.661301 0.717551 0.433838 0.345301 0.258258 0.160996 0.153814 0.012764 0.118102 0.046242 -0.075603 0.069919 0.195075 0.299456 0.500343 0.502713 0.475624 0.662587 0.781951 0.540008 0.929714 0.769063 0.716445 0.763801 0.634784 0.706871 0.679825 0.426773 0.394520 0.248781 0.187713 0.133442 0.018462 0.061042 -0.089609 -0.009203 -0.015003 0.099554 -0.022208 0.199918 0.178977 0.175224 0.386285 0.462536 0.375623 0.339449 0.541041 0.594519 0.446304 0.360638 0.341072 0.303308 0.194109 0.063955 0.056363 0.021076 0.011569 -0.095768 -0.039688 -0.093522 0.065778 0.031867 0.179174 0.232985 0.252482 0.349173 0.341120 0.465300 0.352284 0.408574 0.375189 0.263798 0.318893 0.166559 0.200759 0.079478 0.123180 0.063658 0.066239 -0.022002 0.094507 0.030296 0.131211 0.230525 0.228730 0.287548 0.285607 0.297966 0.286165 0.298376 0.194867 0.085922 0.111624 0.044837 0.033063 -0.040725 -0.034181 0.071642 0.140464 0.080723 0.088723 0.096374 0.136925 0.191908 0.159951 0.170911 0.222902 0.137724 0.084462 0.076810 0.056090 0.043203 -0.030839 0.012483 0.079079 0.002945 0.086945 0.095495 0.182682 0.203431 0.149078 0.156771 0.170005 0.082057 0.087195 0.096842 0.036638 0.018709 0.073120 0.073704 0.090871 0.059152 0.096775 0.092813 0.137072 0.143899 0.071029 0.028330 -0.011514 0.056169 0.002480 0.043898 -0.029041 -0.060158 0.006732 -0.018799 -0.019678 0.022569 0.039639 0.113554 0.110457 0.037361 0.068273 -0.074347 -0.005267 0.041043 -0.057081 -0.066287 0.057997 0.088901 -0.001639 0.062331 0.049398 0.094213 0.094909 0.010900 0.034132 0.118242 -0.030560 0.074091 -0.009646 0.038339 -0.021173 0.104453 0.040589 0.102746 0.107694 0.098232 -0.055772 0.072531 0.033391 -0.027184 0.042652 0.026298 0.050076 0.063935 0.164912 -0.006019 0.182825 0.079478 -0.039613 0.015520 -0.061908 0.012092 0.050610 0.057489 0.074210 0.049275 0.098460 0.075564 0.018684 0.049721 -0.010184 0.082060 0.016368 -0.049596 0.006897 0.095702 0.064630 0.087298 0.104823 -0.031823 0.088906 0.019733 -0.083812 0.025700 0.041528 0.102397 0.093824 -0.035918 -0.046779 0.057128 0.053651 0.001367 0.030912 -0.051479 0.037506 0.038469 0.064930 0.004743 0.104621 0.030453 0.100975 -0.040345 0.161128 0.201135 -0.011790 -0.048218 -0.055219 -0.167995 0.151859 -0.032151 0.004041 0.500536 0.265668 0.134076 0.145057 0.264664 0.216171 0.319325 -0.074313 -1.679243
0.072396 0.072835 0.074152 0.076347 0.079418 0.083367 0.088191 0.093889 0.100460 0.107902 0.116212 0.125388 0.135425 0.146319 0.158065 0.170656 0.184084 0.198341 0.213417 0.229298 0.245972 0.263424 0.281634 0.300582 0.320248 0.340603 0.361622 0.383271 0.405516 0.428320 0.451639 0.475429 0.499639 0.524214 0.549096 0.574222 0.599523 0.624926 0.650352 0.675720 0.700939 0.725916 0.750553 0.774745 0.798384 0.821354 0.843537 0.864809 0.885042 0.904105 0.921861 0.938172 0.952897 0.965891 0.977012 0.986112 0.993046 0.997671 0.999844 0.999427 0.996284 0.990287 0.981312 0.969245 0.953981 0.935427 0.913499 0.888131 0.859270 0.826881 0.790948 0.751475 0.708487 0.662034 0.612189 0.559052 0.502751 0.443441 0.381307 0.316564 0.249457 0.180263 0.109290 0.036874 0.036616 0.110783 0.185203 0.259424 0.332971 0.405349 0.476043 0.544521 0.610243 0.672659 0.731218 0.785371 0.834578 0.878310 0.916062 0.947351 0.971730 0.988790 0.998169 0.999559 0.992710 0.977440 0.953640 0.921278 0.880407 0.831168 0.773795 0.708616 0.636059 0.556647 0.471003 0.379848 0.283992 0.184338 0.081869 0.022355 0.127209 0.231513 0.334044 0.433551 0.528768 0.618434 0.701306 0.776182 0.841918 0.897448 0.941802 0.974128 0.993712 0.999990 0.992572 0.971251 0.936021 0.887083 0.824853 0.749972 0.663296 0.565905 0.459086 0.344326 0.223296 0.097832 0.030092 0.158393 0.284908 0.407429 0.523747 0.631691 0.729164 0.814199 0.884992 0.939951 0.977734 0.997289 0.997888 0.979157 0.941096 0.884101 0.808969 0.716899 0.609486 0.488701 0.356863 0.216604 0.070823 0.077374 0.224729 0.367909 0.503576 0.628472 0.739497 0.833791 0.908814 0.962429 0.992960 0.999263 0.980771 0.937535 0.870245 0.780235 0.669476 0.540545 0.396578 0.241205 0.078467 0.087281 0.251483 0.409505 0.556771 0.688889 0.801796 0.891895 0.956167 0.992298 0.998767 0.974925 0.921048 0.838355 0.729011 0.596081 0.443470 0.275819 0.098378 0.083152 0.262790 0.434478 0.592281 0.730595 0.844366 0.929276 0.981928 0.999999 0.982355 0.929137 0.841797 0.723083 0.576979 0.408597 0.224009 0.030050 0.165925 0.356321 0.533589 0.690536 0.820624 0.918256 0.979039 0.999998 0.979748 0.918601 0.818602 0.683494 0.518608 0.330684 0.127603 0.081911 0.288670 0.483418 0.657240 0.801996 0.910704 0.977911 0.999985 0.975340 0.904573 0.790495 0.638062 0.454186 0.247461 0.027775 0.194141 0.407233 0.600673 0.764422 0.889763 0.969794 0.999839 0.977747 0.904087 0.782179 0.617996 0.419912 0.198300 0.034973 0.267180 0.485408 0.677293 0.831722 0.939514 0.993989 0.991423 0.931344 0.816635 0.653464 0.450979 0.220859 0.023350 0.267003 0.495223 0.693820 0.850193 0.954149 0.998613 0.980157 0.899297 0.760569 0.572324 0.346280 0.096840 0.159811 0.406731 0.627336 0.806530 0.931777 0.993997 0.988296 0.914388 0.776732 0.584323 0.350166 0.090447 0.176554 0.431739 0.656551 0.834341 0.951634 0.999207 0.972859 0.873850 0.708920 0.489910 0.232967 0.042600 0.315738 0.565248 0.771448 0.917749 0.992037 0.987741 0.904476 0.748215 0.530938 0.269778 0.014259 0.297968 0.557812 0.771893 0.921822 0.994364 0.982661 0.886960 0.714740 0.480221 0.203254 0.092296 0.380570 0.635984 0.835494 0.960739 0.999793 0.948364 0.810361 0.597691 0.329328 0.029675 0.273577 0.552016 0.779165 0.933036 0.998335 0.968048 0.844297 0.638311 0.369497 0.063712 0.249185 0.538212 0.774337 0.933445
1.000000 1.000000 1.000000 1.000000 1.000000 1.000000 1.000000 1.000000 1.000000 1.000000 1.000000 1.000000 1.000000 1.000000 1.000000 1.000000 1.000000 1.000000 1.000000 1.000000 1.000000 1.000000 1.000000 1.000000 1.000000 1.000000 1.000000 1.000000 1.000000 1.000000 1.000000 1.000000 1.000000 1.000000 1.000000 1.000000 1.000000 1.000000 1.000000 1.000000 1.000000 1.000000 1.000000 1.000000 1.000000 1.000000 1.000000 1.000000 1.000000 1.000000 1.000000 1.000000 0.816639 0.816639 0.816639 0.816639 0.816639 0.816639 0.816639 0.794972 0.794972 0.794972 0.794972 0.794972 0.794972 0.794972 0.794972 0.794972 0.794972 0.794972 0.794972 0.794972 0.794972 0.794972 0.794972 0.794972 0.794972 0.794972 0.794972 0.794972 0.794972 0.794972 0.794972 0.794972 0.794972 0.794972 0.794972 0.794972 0.794972 0.794972 0.794972 0.794972 0.794972 0.794972 0.794972 0.794972 0.794972 0.794972 0.794972 0.794972 0.794972 0.794972 0.794972 0.941161 0.940333 0.941579 0.942528 0.944515 0.943411 0.942399 0.941588 0.940922 0.940650 0.940758 0.941139 0.942225 0.942218 0.945537 0.946422 0.954996 0.958954 0.959001 0.958052 0.956572 0.970150 0.969132 0.967940 0.967647 0.968469 0.965065 0.965576 0.962371 0.963020 0.965855 0.966405 0.962737 0.962286 0.961196 0.960274 0.959545 0.959075 0.959321 0.959380 0.958849 0.959585 0.960336 0.958511 0.960616 0.957502 0.958101 0.955145 0.955304 0.956674 0.945548 0.945788 0.940120 0.934691 0.933441 0.934347 0.932649 0.933275 0.934175 0.934810 0.935393 0.935563 0.935650 0.935446 0.935112 0.932366 0.922967 0.920546 0.918319 0.919678 0.923098 0.926420 0.926366 0.924679 0.922028 0.916007 0.909203 0.894750 0.887411 0.883957 0.886494 0.885722 0.886717 0.886014 0.882367 0.880486 0.880854 0.879658 0.883845 0.884450 0.881445 0.872135 0.869486 0.864971 0.867206 0.869908 0.870180 0.868993 0.862857 0.856164 0.849295 0.855637 0.857948 0.866894 0.860445 0.859738 0.858394 0.849982 0.844759 0.835548 0.835273 0.836706 0.832936 0.838492 0.835102 0.823133 0.796023 0.815309 0.811669 0.811031 0.815757 0.825519 0.827894 0.821935 0.804189 0.790555 0.778703 0.779285 0.782831 0.780404 0.783499 0.779563 0.767011 0.735442 0.737573 0.716820 0.728793 0.738975 0.731996 0.726027 0.713894 0.713572 0.704554 0.682382 0.689702 0.644046 0.645873 0.638851 0.618591 0.624408 0.616016 0.619009 0.621071 0.604848 0.572065 0.571978 0.571494 0.585324 0.544589 0.532533 0.537350 0.533843 0.535666 0.537044 0.529381 0.519241 0.494291 0.507993 0.510110 0.494637 0.494944 0.509903 0.503171 0.489280 0.472115 0.464696 0.475248 0.503122 0.502434 0.505446 0.510814 0.470578 0.441881 0.468072 0.480582 0.489769 0.478449 0.464638 0.459846 0.476065 0.452524 0.473397 0.470683 0.484423 0.449068 0.397116 0.354944 0.308029 0.328179 0.339843 0.339332 0.334160 0.341643 0.317013 0.291494 0.289701 0.288448 0.317599 0.319986 0.301509 0.308880 0.308577 0.306973 0.306358 0.304482 0.310103 0.315561 0.335863 0.340946 0.279955 0.260314 0.216957 0.211720 0.222756 0.247360 0.264865 0.251050 0.252096 0.128996 0.151641 0.118545 0.135015 0.135015 0.135015 0.135015 0.135015 0.135015 0.135015 0.135015 0.135015 0.155870 0.155870 0.155870 0.155870 0.155870 0.155870 0.155870 0.155870 0.155870 0.155870 0.155870 0.155870 0.155870 0.155870 0.155870 0.155870 0.155870 0.155870 0.155870 0.155870
0.000000 0.000000 0.000000 0.000000 0.000000 0.000000 0.000000 0.000000 0.000000 0.000000 0.000000 0.000000 0.000000 0.000000 0.000000 0.000000 0.000000 0.000000 0.000000 0.000000 0.000000 0.000000 0.000000 0.000000 0.000000 0.000000 0.000000 0.000000 0.000000 0.000000 0.000000 0.000000 0.000000 0.000000 0.000000 0.000000 0.000000 0.000000 0.000000 0.000000 0.000000 0.000000 0.000000 0.000000 0.000000 0.000000 0.000000 0.000000 0.000000 0.000000 0.000000 0.000000 0.173422 0.173422 0.173422 0.173422 0.173422 0.173422 0.173422 0.191565 0.191565 0.191565 0.191565 0.191565 0.191565 0.191565 0.191565 0.191565 0.191565 0.191565 0.191565 0.191565 0.191565 0.191565 0.191565 0.191565 0.191565 0.191565 0.191565 0.191565 0.191565 0.191565 0.191565 0.191565 0.191565 0.191565 0.191565 0.191565 0.191565 0.191565 0.191565 0.191565 0.191565 0.191565 0.191565 0.191565 0.191565 0.191565 0.191565 0.191565 0.191565 0.191565 0.191565 0.222222 0.222222 0.222222 0.222222 0.222222 0.222222 0.222222 0.222222 0.222222 0.222222 0.222222 0.222222 0.222222 0.222222 0.222222 0.222222 0.222222 0.222222 0.222222 0.222222 0.222222 0.222222 0.222222 0.222222 0.222222 0.222222 0.222222 0.222222 0.222222 0.222222 0.234082 0.234082 0.234082 0.234082 0.234082 0.234082 0.234082 0.234082 0.234082 0.234082 0.234082 0.234082 0.234082 0.234082 0.234082 0.234082 0.234082 0.234082 0.234082 0.234082 0.234082 0.234082 0.234082 0.234082 0.234082 0.244339 0.244339 0.244339 0.244339 0.244339 0.244339 0.244339 0.244339 0.244339 0.244339 0.244339 0.244339 0.244339 0.244339 0.244339 0.244339 0.244339 0.244339 0.244339 0.244339 0.244339 0.248069 0.248069 0.248069 0.248069 0.248069 0.248069 0.248069 0.248069 0.248069 0.248069 0.248069 0.248069 0.248069 0.248069 0.248069 0.248069 0.248069 0.248069 0.248069 0.248069 0.248069 0.248069 0.248069 0.248069 0.248069 0.248069 0.248069 0.248069 0.248069 0.248069 0.248069 0.248069 0.248069 0.248069 0.248069 0.248069 0.248069 0.256074 0.256074 0.256074 0.256074 0.256074 0.256074 0.256074 0.256074 0.256074 0.256074 0.256074 0.256074 0.256074 0.256074 0.256074 0.256074 0.264906 0.264906 0.264906 0.264906 0.264906 0.264906 0.264906 0.264906 0.264906 0.264906 0.264906 0.264906 0.264906 0.264906 0.248069 0.248069 0.248069 0.248069 0.248069 0.248069 0.248069 0.248069 0.248069 0.248069 0.248069 0.248069 0.248069 0.248069 0.248069 0.260378 0.260378 0.260378 0.260378 0.260378 0.260378 0.260378 0.260378 0.260378 0.260378 0.260378 0.260378 0.260378 0.256074 0.256074 0.256074 0.256074 0.256074 0.256074 0.256074 0.256074 0.256074 0.256074 0.256074 0.256074 0.256074 0.260378 0.260378 0.260378 0.260378 0.260378 0.260378 0.260378 0.260378 0.260378 0.260378 0.260378 0.260378 0.251976 0.251976 0.251976 0.251976 0.251976 0.251976 0.251976 0.251976 0.251976 0.251976 0.251976 0.251976 0.256074 0.256074 0.256074 0.256074 0.256074 0.256074 0.256074 0.256074 0.256074 0.256074 0.256074 0.251976 0.251976 0.251976 0.251976 0.251976 0.251976 0.251976 0.251976 0.251976 0.251976 0.251976 0.260378 0.260378 0.260378 0.260378 0.260378 0.260378 0.260378 0.260378 0.260378 0.260378 0.244339 0.244339 0.244339 0.244339 0.244339 0.244339 0.244339 0.244339 0.244339 0.244339 0.244339 0.244339 0.244339 0.244339 0.244339 0.244339 0.244339 0.244339 0.244339 0.244339
