# Output from CTFFind version 4.1.9, run on 2019-11-02 17:44:31
# Input file: stack16_bm3d_averaged_1_0.5_0_250_half.mrc ; Number of micrographs: 1
# Pixel size: 3.000 Angstroms ; acceleration voltage: 300.0 keV ; spherical aberration: 0.00 mm ; amplitude contrast: 0.07
# Box size: 512 pixels ; min. res.: 30.0 Angstroms ; max. res.: 5.0 Angstroms ; min. def.: 5000.0 um; max. def. 50000.0 um; num. frames averaged: 1
# 6 lines per micrograph: #1 - spatial frequency (1/Angstroms); #2 - 1D rotational average of spectrum (assuming no astigmatism); #3 - 1D rotational average of spectrum; #4 - CTF fit; #5 - cross-correlation between spectrum and CTF fit; #6 - 2sigma of expected cross correlation of noise
0.000000 0.000651 0.001302 0.001953 0.002604 0.003255 0.003906 0.004557 0.005208 0.005859 0.006510 0.007161 0.007812 0.008464 0.009115 0.009766 0.010417 0.011068 0.011719 0.012370 0.013021 0.013672 0.014323 0.014974 0.015625 0.016276 0.016927 0.017578 0.018229 0.018880 0.019531 0.020182 0.020833 0.021484 0.022135 0.022786 0.023438 0.024089 0.024740 0.025391 0.026042 0.026693 0.027344 0.027995 0.028646 0.029297 0.029948 0.030599 0.031250 0.031901 0.032552 0.033203 0.033854 0.034505 0.035156 0.035807 0.036458 0.037109 0.037760 0.038411 0.039062 0.039714 0.040365 0.041016 0.041667 0.042318 0.042969 0.043620 0.044271 0.044922 0.045573 0.046224 0.046875 0.047526 0.048177 0.048828 0.049479 0.050130 0.050781 0.051432 0.052083 0.052734 0.053385 0.054036 0.054688 0.055339 0.055990 0.056641 0.057292 0.057943 0.058594 0.059245 0.059896 0.060547 0.061198 0.061849 0.062500 0.063151 0.063802 0.064453 0.065104 0.065755 0.066406 0.067057 0.067708 0.068359 0.069010 0.069661 0.070312 0.070964 0.071615 0.072266 0.072917 0.073568 0.074219 0.074870 0.075521 0.076172 0.076823 0.077474 0.078125 0.078776 0.079427 0.080078 0.080729 0.081380 0.082031 0.082682 0.083333 0.083984 0.084635 0.085286 0.085938 0.086589 0.087240 0.087891 0.088542 0.089193 0.089844 0.090495 0.091146 0.091797 0.092448 0.093099 0.093750 0.094401 0.095052 0.095703 0.096354 0.097005 0.097656 0.098307 0.098958 0.099609 0.100260 0.100911 0.101562 0.102214 0.102865 0.103516 0.104167 0.104818 0.105469 0.106120 0.106771 0.107422 0.108073 0.108724 0.109375 0.110026 0.110677 0.111328 0.111979 0.112630 0.113281 0.113932 0.114583 0.115234 0.115885 0.116536 0.117188 0.117839 0.118490 0.119141 0.119792 0.120443 0.121094 0.121745 0.122396 0.123047 0.123698 0.124349 0.125000 0.125651 0.126302 0.126953 0.127604 0.128255 0.128906 0.129557 0.130208 0.130859 0.131510 0.132161 0.132812 0.133464 0.134115 0.134766 0.135417 0.136068 0.136719 0.137370 0.138021 0.138672 0.139323 0.139974 0.140625 0.141276 0.141927 0.142578 0.143229 0.143880 0.144531 0.145182 0.145833 0.146484 0.147135 0.147786 0.148438 0.149089 0.149740 0.150391 0.151042 0.151693 0.152344 0.152995 0.153646 0.154297 0.154948 0.155599 0.156250 0.156901 0.157552 0.158203 0.158854 0.159505 0.160156 0.160807 0.161458 0.162109 0.162760 0.163411 0.164062 0.164714 0.165365 0.166016 0.166667 0.167318 0.167969 0.168620 0.169271 0.169922 0.170573 0.171224 0.171875 0.172526 0.173177 0.173828 0.174479 0.175130 0.175781 0.176432 0.177083 0.177734 0.178385 0.179036 0.179688 0.180339 0.180990 0.181641 0.182292 0.182943 0.183594 0.184245 0.184896 0.185547 0.186198 0.186849 0.187500 0.188151 0.188802 0.189453 0.190104 0.190755 0.191406 0.192057 0.192708 0.193359 0.194010 0.194661 0.195312 0.195964 0.196615 0.197266 0.197917 0.198568 0.199219 0.199870 0.200521 0.201172 0.201823 0.202474 0.203125 0.203776 0.204427 0.205078 0.205729 0.206380 0.207031 0.207682 0.208333 0.208984 0.209635 0.210286 0.210938 0.211589 0.212240 0.212891 0.213542 0.214193 0.214844 0.215495 0.216146 0.216797 0.217448 0.218099 0.218750 0.219401 0.220052 0.220703 0.221354 0.222005 0.222656 0.223307 0.223958 0.224609 0.225260 0.225911 0.226562 0.227214 0.227865 0.228516 0.229167 0.229818 0.230469 0.231120 0.231771 0.232422 0.233073 0.233724 0.234375 0.235026 0.235677
       0.34133        0.34133        0.34133        0.34133        0.34133        0.34133        0.34133        0.34133        0.34133        0.34133        0.34133        0.34133        0.34133        0.34133        0.34133        0.34133        0.34133        0.34133        0.34133        0.34133        0.34133        0.34133        0.34133        0.34133        0.34133        0.34133        0.34133        0.34133        0.34133        0.34133        0.34133        0.34133        0.34133        0.34133        0.34133        0.34133        0.34133        0.34133        0.34133        0.34133        0.34133        0.34133        0.34133        0.34133        0.34133        0.34133        0.34133        0.34133        0.34133        0.34133        0.34133        0.48798        0.70168        0.45469       -0.11432       -0.41379       -0.57415       -0.66571       -0.74823       -0.76639       -0.87072       -0.91696       -0.76094       -0.92687       -0.87367       -1.02593       -1.10018       -0.99102       -0.96522       -0.88541       -0.86324       -0.75276       -0.64311       -0.50279       -0.42751       -0.22105       -0.11788       -0.02197        0.20325        0.24337        0.30666        0.38186        0.43744        0.51511        0.57791        0.59370        0.58984        0.49969        0.54280        0.48567        0.39018        0.31884        0.20341        0.16948        0.10159       -0.06198       -0.11002       -0.09432        0.00870       -0.01675        0.01289        0.02622        0.20840        0.21859        0.39158        0.45533        0.55907        0.69451        0.75726        0.72893        0.70258        0.69880        0.58082        0.53914        0.39890        0.26976        0.19034        0.14347        0.06639        0.02314        0.02137        0.06195        0.07438        0.26800        0.41629        0.50630        0.58793        0.63787        0.70232        0.65944        0.64951        0.66826        0.60753        0.47869        0.28359        0.23482        0.20657        0.12843        0.04247        0.08958        0.12267        0.24867        0.33745        0.41471        0.49965        0.53662        0.66129        0.60840        0.55551        0.51119        0.36446        0.21071        0.21286        0.15095        0.11262        0.12154        0.21580        0.25038        0.35511        0.44053        0.43865        0.56123        0.50784        0.44687        0.45306        0.38090        0.32270        0.27480        0.21629        0.23586        0.20776        0.20661        0.32030        0.44914        0.48308        0.47911        0.54994        0.49405        0.45432        0.39210        0.29373        0.22339        0.23060        0.24269        0.26482        0.27600        0.32263        0.44117        0.49861        0.48490        0.45860        0.41362        0.38572        0.36113        0.24781        0.22249        0.24355        0.29261        0.35374        0.35963        0.38832        0.41120        0.44239        0.36989        0.34741        0.31174        0.30299        0.26710        0.25737        0.30450        0.34405        0.41327        0.41363        0.39483        0.39385        0.40474        0.34825        0.28809        0.29118        0.27853        0.30714        0.35799        0.36776        0.41661        0.35712        0.36690        0.38829        0.34617        0.31766        0.27882        0.29545        0.33848        0.32741        0.32329        0.37192        0.39019        0.33027        0.35129        0.29697        0.30676        0.28503        0.28214        0.29839        0.33080        0.38368        0.36339        0.34502        0.32479        0.28285        0.27549        0.29500        0.28150        0.31203        0.36564        0.39313        0.33652        0.31754        0.30828        0.29668        0.28038        0.28021        0.29906        0.33830        0.33862        0.33911        0.31311        0.34583        0.32140        0.28721        0.31589        0.32033        0.33052        0.34029        0.31834        0.31411        0.30535        0.32471        0.30929        0.33362        0.38440        0.32919        0.36109        0.31964        0.31261        0.29127        0.30940        0.28945        0.30645        0.31291        0.34728        0.35729        0.31545        0.32142        0.31536        0.29071        0.28853        0.28978        0.32773        0.34541        0.35445        0.33056        0.32183        0.25877        0.26032        0.31573        0.34379        0.32284        0.30113        0.28279        0.28523        0.32205        0.30795        0.31161        0.33426        0.34210        0.30512        0.23926        0.29042        0.28068        0.28485        0.32080        0.31884        0.34026        0.33999        0.27912        0.26688        0.29342        0.27349        0.29063        0.27572        0.25013        0.26371        0.24686        0.28173        0.27998        0.27624        0.26115        0.31846        0.32350        0.31399        0.27945        0.29926        0.24398        0.26520        0.25460        0.33824        0.34726        0.22987        0.24942        0.26366        0.23938        0.24438        0.29422        0.22272        0.14445        0.17435        0.24787        0.27206        0.22673        0.12832        0.03825       -0.43034       -0.76466
3.159450 3.119777 3.080360 3.041200 3.002295 2.963647 2.925256 2.887120 2.849241 2.811618 2.774251 2.737141 2.700286 2.663688 2.627347 2.591261 2.555432 2.519859 2.484543 2.449483 2.414679 2.380131 2.345839 2.311804 2.278025 2.244502 2.211236 2.178226 2.145472 2.112974 2.080733 2.048748 2.017019 1.985546 1.954330 1.923370 1.892666 1.862219 1.832028 1.802093 1.772414 1.742992 1.713826 1.684916 1.656262 1.627865 1.599724 1.571839 1.544211 1.516838 1.489722 1.547391 1.736264 1.647117 0.990548 0.707553 0.497020 0.447930 0.339294 0.278507 0.215346 0.032805 0.211793 0.092716 0.003174 -0.047998 -0.192986 -0.145672 -0.085703 -0.085572 -0.092555 0.016234 0.035505 0.241254 0.152960 0.369610 0.453358 0.486603 0.724365 0.708272 0.714528 0.844575 0.828067 0.861503 0.927051 0.897943 0.945020 0.754498 0.838912 0.844309 0.623642 0.604412 0.454096 0.432352 0.383417 0.205684 0.117206 0.092991 0.199642 0.140387 0.189950 0.103001 0.297207 0.289674 0.452632 0.409046 0.575904 0.634982 0.756571 0.689229 0.655668 0.658895 0.522146 0.496467 0.358410 0.281904 0.104755 0.131901 -0.008613 -0.026331 -0.052577 -0.040668 -0.017106 0.016415 0.263508 0.321108 0.374625 0.389508 0.456229 0.483730 0.439280 0.483755 0.379535 0.368437 0.130509 0.047159 0.051570 -0.025933 -0.150836 -0.068928 -0.133195 -0.005192 0.111586 0.135686 0.234526 0.235151 0.361628 0.444342 0.330997 0.369507 0.259716 0.102569 0.027675 0.025968 -0.012532 -0.021418 -0.015461 0.084529 0.103216 0.239449 0.216513 0.286371 0.344506 0.225268 0.227162 0.203059 0.117319 0.067246 0.035851 0.014634 0.025754 -0.031015 0.012308 0.174483 0.213353 0.234856 0.275079 0.224950 0.255317 0.151994 0.114691 -0.013466 -0.012883 0.005714 0.023851 0.020016 0.038881 0.113971 0.202304 0.215955 0.212151 0.137515 0.144522 0.079608 0.057557 -0.061877 -0.018509 -0.006793 0.055681 0.066044 0.074275 0.151360 0.084406 0.173845 0.071651 0.048858 0.049133 0.029501 0.003877 0.006818 0.052399 0.084769 0.132586 0.135070 0.072892 0.137434 0.101225 0.019431 0.010348 0.008724 -0.002971 0.057905 0.063172 0.103643 0.097481 0.080726 0.067064 0.082442 0.037512 0.017994 -0.015434 0.014309 0.056839 0.027004 0.037823 0.090132 0.081936 0.056962 0.033088 0.012323 0.016393 -0.007072 -0.007847 0.013712 0.062008 0.096488 0.066185 0.057396 0.040801 -0.013927 -0.000511 0.016018 0.014382 0.028874 0.091505 0.123334 0.040569 0.045140 0.002659 0.028347 -0.011985 0.002559 0.023064 0.064302 0.043939 0.043147 0.029370 0.056577 0.028472 -0.002761 0.034112 0.042289 0.038287 0.047402 0.021900 0.009383 -0.008790 0.029458 0.005775 0.046882 0.073927 0.042283 0.031987 0.006603 0.003253 -0.005202 0.008148 0.001693 0.009602 -0.007806 0.066780 0.050225 0.039799 0.042000 0.002788 0.009053 0.004259 -0.006816 0.056007 0.060729 0.082700 0.042470 0.047461 -0.027713 0.005718 0.040544 0.076274 0.035394 0.022831 0.005104 0.001390 0.047710 0.048222 0.039465 0.070190 0.068091 0.050587 -0.023399 0.023246 0.040366 0.024998 0.044109 0.072952 0.080473 0.068853 0.017224 0.005972 0.019578 0.005207 0.013785 -0.010132 -0.022055 -0.010731 -0.052570 0.006830 -0.006461 0.007012 -0.060345 -0.005037 0.013013 0.001896 -0.041001 0.023843 -0.054003 -0.055250 -0.040123 0.042763 0.071728 -0.106237 -0.026275 0.031089 0.010291 -0.044888 0.043503 0.023917 0.000145 -0.033273 0.075090 0.237684 0.203724 0.078670 0.037359 -0.677152
0.072396 0.073045 0.074993 0.078239 0.082782 0.088620 0.095751 0.104173 0.113881 0.124870 0.137133 0.150663 0.165450 0.181479 0.198738 0.217205 0.236861 0.257679 0.279628 0.302673 0.326774 0.351883 0.377947 0.404906 0.432692 0.461229 0.490431 0.520205 0.550447 0.581044 0.611871 0.642794 0.673665 0.704328 0.734615 0.764343 0.793323 0.821352 0.848216 0.873692 0.897547 0.919541 0.939425 0.956946 0.971844 0.983859 0.992728 0.998193 0.999999 0.997896 0.991647 0.981028 0.965832 0.945872 0.920988 0.891044 0.855943 0.815621 0.770055 0.719271 0.663341 0.602392 0.536609 0.466234 0.391575 0.313005 0.230960 0.145949 0.058544 0.030615 0.120822 0.211314 0.301269 0.389813 0.476031 0.558972 0.637661 0.711107 0.778321 0.838326 0.890174 0.932960 0.965842 0.988058 0.998944 0.997949 0.984657 0.958805 0.920292 0.869202 0.805811 0.730600 0.644259 0.547695 0.442026 0.328584 0.208899 0.084690 0.042155 0.169605 0.295512 0.417650 0.533746 0.641532 0.738786 0.823379 0.893337 0.946881 0.982488 0.998936 0.995353 0.971259 0.926602 0.861788 0.777695 0.675686 0.557604 0.425756 0.282880 0.132104 0.023113 0.179052 0.331822 0.477447 0.611979 0.731608 0.832772 0.912280 0.967422 0.996075 0.996802 0.968930 0.912616 0.828880 0.719628 0.587632 0.436484 0.270532 0.094758 0.085343 0.263931 0.435008 0.592614 0.731047 0.845079 0.930169 0.982666 0.999991 0.980782 0.925009 0.834039 0.710647 0.558969 0.384407 0.193459 0.006495 0.207461 0.401143 0.579286 0.734032 0.858293 0.946085 0.992860 0.995769 0.953869 0.868252 0.742076 0.580511 0.390567 0.180835 0.038868 0.257943 0.465510 0.650946 0.804452 0.917590 0.983791 0.998773 0.960871 0.871229 0.733844 0.555469 0.345327 0.114694 0.123679 0.356241 0.569411 0.750382 0.887915 0.973082 0.999899 0.965806 0.871951 0.723258 0.528255 0.298650 0.048690 0.205683 0.447828 0.661496 0.831936 0.946969 0.997905 0.980277 0.894304 0.745033 0.542150 0.299435 0.033898 0.235362 0.488517 0.706465 0.872304 0.972701 0.999040 0.948249 0.823222 0.632788 0.391197 0.117145 0.167612 0.439936 0.677203 0.859188 0.969873 0.998931 0.942796 0.805182 0.596991 0.335566 0.043349 0.253969 0.529683 0.758479 0.918799 0.994962 0.978808 0.870689 0.679694 0.423026 0.124595 0.187138 0.481804 0.730112 0.906769 0.993179 0.979505 0.865930 0.662931 0.390472 0.076188 0.247331 0.545861 0.787169 0.944575 0.999995 0.946173 0.787783 0.541228 0.233127 0.102434 0.427586 0.704935 0.901898 0.994645 0.971129 0.832827 0.594928 0.284853 0.060735 0.400169 0.691766 0.898992 0.995153 0.966995 0.816730 0.562147 0.234726 0.124086 0.468025 0.751942 0.937805 0.999928 0.928714 0.732353 0.436145 0.079465 0.289317 0.619323 0.864195 0.988730 0.974121 0.821038 0.549986 0.198834 0.182287 0.538028 0.815841 0.973842 0.987313 0.852809 0.589185 0.235227 0.155809 0.524089 0.812337 0.974829 0.984854 0.839369 0.560021 0.190230 0.211311 0.579844 0.854950 0.990614 0.963126 0.775535 0.457727 0.061968 0.345457 0.695248 0.926912 0.999424 0.898752 0.640903 0.269744 0.150154 0.544566 0.842725 0.990116 0.958717 0.752663 0.408164 0.012526 0.432074 0.772236 0.968523 0.982640 0.810336 0.482883 0.061827 0.372321 0.735358 0.955744 0.988970 0.826882 0.500044 0.072392 0.370955 0.740513 0.960539 0.984807 0.806707 0.461380 0.019237 0.428083 0.786600 0.979807 0.965298 0.744485 0.363143 0.097627 0.538376
1.000000 1.000000 1.000000 1.000000 1.000000 1.000000 1.000000 1.000000 1.000000 1.000000 1.000000 1.000000 1.000000 1.000000 1.000000 1.000000 1.000000 1.000000 1.000000 1.000000 1.000000 1.000000 1.000000 1.000000 1.000000 1.000000 1.000000 1.000000 1.000000 1.000000 1.000000 1.000000 1.000000 1.000000 1.000000 1.000000 1.000000 1.000000 1.000000 1.000000 1.000000 1.000000 1.000000 1.000000 1.000000 1.000000 1.000000 1.000000 1.000000 1.000000 1.000000 1.000000 0.943450 0.943450 0.943450 0.943450 0.943450 0.943450 0.943450 0.943450 0.943450 0.943450 0.943450 0.943450 0.943450 0.943450 0.943450 0.943450 0.943450 0.943450 0.943450 0.943450 0.943450 0.943450 0.943450 0.943450 0.943450 0.943450 0.943450 0.943450 0.943450 0.943450 0.943450 0.943450 0.943450 0.924681 0.926117 0.929060 0.930124 0.930089 0.929635 0.929310 0.929504 0.931190 0.933480 0.950167 0.952270 0.952919 0.954235 0.954694 0.957685 0.956602 0.959480 0.968479 0.967487 0.967731 0.968153 0.969658 0.970029 0.970001 0.968785 0.969087 0.968712 0.967896 0.967058 0.966752 0.966456 0.968069 0.968388 0.968297 0.968714 0.968470 0.968128 0.964429 0.963158 0.964461 0.966209 0.965882 0.972110 0.972396 0.979703 0.979531 0.977946 0.977860 0.977956 0.978080 0.969462 0.963656 0.958755 0.947679 0.938629 0.936032 0.938188 0.938860 0.937730 0.933208 0.932355 0.930434 0.926065 0.925315 0.923554 0.925068 0.919974 0.915767 0.897869 0.895865 0.898172 0.897901 0.896040 0.888241 0.883402 0.883996 0.886965 0.889766 0.886871 0.889240 0.885907 0.887257 0.888131 0.889979 0.893063 0.889992 0.888377 0.883840 0.880506 0.875420 0.876884 0.861455 0.864972 0.858105 0.845154 0.836998 0.840334 0.850796 0.859891 0.868153 0.866925 0.867233 0.867451 0.859319 0.860711 0.851849 0.852461 0.857623 0.863957 0.860020 0.857664 0.863031 0.860821 0.864302 0.867345 0.863541 0.861286 0.852495 0.853054 0.853633 0.871242 0.869718 0.857387 0.850958 0.841374 0.848106 0.853084 0.851756 0.852408 0.846798 0.849184 0.839870 0.825869 0.828324 0.833588 0.831818 0.833582 0.832561 0.836634 0.836885 0.836557 0.833417 0.832564 0.848880 0.831453 0.837826 0.842424 0.839942 0.843509 0.838084 0.831649 0.825650 0.822363 0.821698 0.832171 0.828952 0.800683 0.794385 0.801994 0.782470 0.781932 0.763232 0.747599 0.731588 0.720965 0.702336 0.698818 0.681250 0.673989 0.682062 0.663193 0.668552 0.661344 0.657187 0.665003 0.644769 0.638952 0.634259 0.596703 0.617127 0.614832 0.608669 0.602844 0.609201 0.617259 0.581794 0.578006 0.581095 0.558562 0.556221 0.556073 0.550209 0.525336 0.535119 0.518159 0.532297 0.564760 0.533403 0.515049 0.522638 0.540907 0.553968 0.552675 0.535078 0.510865 0.524310 0.498356 0.483673 0.497688 0.502639 0.488573 0.508535 0.503513 0.538127 0.534158 0.511645 0.535641 0.553118 0.557166 0.551030 0.563683 0.540559 0.544152 0.530157 0.474151 0.491362 0.474166 0.423455 0.429894 0.443151 0.436227 0.431948 0.417245 0.406912 0.384705 0.352248 0.360115 0.352148 0.321123 0.286325 0.288528 0.291394 0.258594 0.228899 0.249329 0.196707 0.186043 0.201878 0.213808 0.210101 0.208946 0.231476 0.231476 0.231476 0.231476 0.231476 0.231476 0.231476 0.231476 0.231476 0.231476 0.231476 0.231476 0.231476 0.231476 0.258696 0.258696 0.258696 0.258696 0.258696 0.258696 0.258696 0.258696 0.258696 0.258696 0.258696 0.258696
0.000000 0.000000 0.000000 0.000000 0.000000 0.000000 0.000000 0.000000 0.000000 0.000000 0.000000 0.000000 0.000000 0.000000 0.000000 0.000000 0.000000 0.000000 0.000000 0.000000 0.000000 0.000000 0.000000 0.000000 0.000000 0.000000 0.000000 0.000000 0.000000 0.000000 0.000000 0.000000 0.000000 0.000000 0.000000 0.000000 0.000000 0.000000 0.000000 0.000000 0.000000 0.000000 0.000000 0.000000 0.000000 0.000000 0.000000 0.000000 0.000000 0.000000 0.000000 0.000000 0.209657 0.209657 0.209657 0.209657 0.209657 0.209657 0.209657 0.209657 0.209657 0.209657 0.209657 0.209657 0.209657 0.209657 0.209657 0.209657 0.209657 0.209657 0.209657 0.209657 0.209657 0.209657 0.209657 0.209657 0.209657 0.209657 0.209657 0.209657 0.209657 0.209657 0.209657 0.209657 0.209657 0.244339 0.244339 0.244339 0.244339 0.244339 0.244339 0.244339 0.244339 0.244339 0.244339 0.244339 0.244339 0.244339 0.244339 0.244339 0.244339 0.244339 0.244339 0.244339 0.244339 0.244339 0.244339 0.244339 0.244339 0.244339 0.260378 0.260378 0.260378 0.260378 0.260378 0.260378 0.260378 0.260378 0.260378 0.260378 0.260378 0.260378 0.260378 0.260378 0.260378 0.260378 0.260378 0.260378 0.260378 0.260378 0.269680 0.269680 0.269680 0.269680 0.269680 0.269680 0.269680 0.269680 0.269680 0.269680 0.269680 0.269680 0.269680 0.269680 0.269680 0.269680 0.269680 0.269680 0.269680 0.269680 0.269680 0.269680 0.269680 0.269680 0.269680 0.269680 0.269680 0.269680 0.269680 0.269680 0.269680 0.269680 0.269680 0.280056 0.280056 0.280056 0.280056 0.280056 0.280056 0.280056 0.280056 0.280056 0.280056 0.280056 0.280056 0.280056 0.280056 0.280056 0.280056 0.280056 0.280056 0.280056 0.280056 0.280056 0.280056 0.280056 0.280056 0.280056 0.280056 0.280056 0.274721 0.274721 0.274721 0.274721 0.274721 0.274721 0.274721 0.274721 0.274721 0.274721 0.274721 0.274721 0.274721 0.285714 0.285714 0.285714 0.285714 0.285714 0.285714 0.285714 0.285714 0.285714 0.285714 0.285714 0.280056 0.280056 0.280056 0.280056 0.280056 0.280056 0.280056 0.280056 0.280056 0.280056 0.280056 0.274721 0.274721 0.274721 0.274721 0.274721 0.274721 0.274721 0.274721 0.274721 0.274721 0.274721 0.280056 0.280056 0.280056 0.280056 0.280056 0.280056 0.280056 0.280056 0.280056 0.280056 0.274721 0.274721 0.274721 0.274721 0.274721 0.274721 0.274721 0.274721 0.274721 0.274721 0.280056 0.280056 0.280056 0.280056 0.280056 0.280056 0.280056 0.280056 0.280056 0.274721 0.274721 0.274721 0.274721 0.274721 0.274721 0.274721 0.274721 0.274721 0.285714 0.285714 0.285714 0.285714 0.285714 0.285714 0.285714 0.285714 0.264906 0.264906 0.264906 0.264906 0.264906 0.264906 0.264906 0.264906 0.264906 0.274721 0.274721 0.274721 0.274721 0.274721 0.274721 0.274721 0.274721 0.269680 0.269680 0.269680 0.269680 0.269680 0.269680 0.269680 0.269680 0.269680 0.269680 0.269680 0.269680 0.269680 0.269680 0.269680 0.269680 0.280056 0.280056 0.280056 0.280056 0.280056 0.280056 0.280056 0.260378 0.260378 0.260378 0.260378 0.260378 0.260378 0.260378 0.260378 0.269680 0.269680 0.269680 0.269680 0.269680 0.269680 0.269680 0.264906 0.264906 0.264906 0.264906 0.264906 0.264906 0.264906 0.264906 0.264906 0.264906 0.264906 0.264906 0.264906 0.264906 0.260378 0.260378 0.260378 0.260378 0.260378 0.260378 0.260378 0.260378 0.260378 0.260378 0.260378 0.260378
