# Output from CTFFind version 4.1.9, run on 2019-11-03 19:29:28
# Input file: stack6_bm3d_averaged_1_3.75_0_2000_half.mrc ; Number of micrographs: 1
# Pixel size: 3.000 Angstroms ; acceleration voltage: 300.0 keV ; spherical aberration: 0.00 mm ; amplitude contrast: 0.07
# Box size: 512 pixels ; min. res.: 30.0 Angstroms ; max. res.: 5.0 Angstroms ; min. def.: 5000.0 um; max. def. 50000.0 um; num. frames averaged: 1
# 6 lines per micrograph: #1 - spatial frequency (1/Angstroms); #2 - 1D rotational average of spectrum (assuming no astigmatism); #3 - 1D rotational average of spectrum; #4 - CTF fit; #5 - cross-correlation between spectrum and CTF fit; #6 - 2sigma of expected cross correlation of noise
0.000000 0.000651 0.001302 0.001953 0.002604 0.003255 0.003906 0.004557 0.005208 0.005859 0.006510 0.007161 0.007812 0.008464 0.009115 0.009766 0.010417 0.011068 0.011719 0.012370 0.013021 0.013672 0.014323 0.014974 0.015625 0.016276 0.016927 0.017578 0.018229 0.018880 0.019531 0.020182 0.020833 0.021484 0.022135 0.022786 0.023438 0.024089 0.024740 0.025391 0.026042 0.026693 0.027344 0.027995 0.028646 0.029297 0.029948 0.030599 0.031250 0.031901 0.032552 0.033203 0.033854 0.034505 0.035156 0.035807 0.036458 0.037109 0.037760 0.038411 0.039062 0.039714 0.040365 0.041016 0.041667 0.042318 0.042969 0.043620 0.044271 0.044922 0.045573 0.046224 0.046875 0.047526 0.048177 0.048828 0.049479 0.050130 0.050781 0.051432 0.052083 0.052734 0.053385 0.054036 0.054688 0.055339 0.055990 0.056641 0.057292 0.057943 0.058594 0.059245 0.059896 0.060547 0.061198 0.061849 0.062500 0.063151 0.063802 0.064453 0.065104 0.065755 0.066406 0.067057 0.067708 0.068359 0.069010 0.069661 0.070312 0.070964 0.071615 0.072266 0.072917 0.073568 0.074219 0.074870 0.075521 0.076172 0.076823 0.077474 0.078125 0.078776 0.079427 0.080078 0.080729 0.081380 0.082031 0.082682 0.083333 0.083984 0.084635 0.085286 0.085938 0.086589 0.087240 0.087891 0.088542 0.089193 0.089844 0.090495 0.091146 0.091797 0.092448 0.093099 0.093750 0.094401 0.095052 0.095703 0.096354 0.097005 0.097656 0.098307 0.098958 0.099609 0.100260 0.100911 0.101562 0.102214 0.102865 0.103516 0.104167 0.104818 0.105469 0.106120 0.106771 0.107422 0.108073 0.108724 0.109375 0.110026 0.110677 0.111328 0.111979 0.112630 0.113281 0.113932 0.114583 0.115234 0.115885 0.116536 0.117188 0.117839 0.118490 0.119141 0.119792 0.120443 0.121094 0.121745 0.122396 0.123047 0.123698 0.124349 0.125000 0.125651 0.126302 0.126953 0.127604 0.128255 0.128906 0.129557 0.130208 0.130859 0.131510 0.132161 0.132812 0.133464 0.134115 0.134766 0.135417 0.136068 0.136719 0.137370 0.138021 0.138672 0.139323 0.139974 0.140625 0.141276 0.141927 0.142578 0.143229 0.143880 0.144531 0.145182 0.145833 0.146484 0.147135 0.147786 0.148438 0.149089 0.149740 0.150391 0.151042 0.151693 0.152344 0.152995 0.153646 0.154297 0.154948 0.155599 0.156250 0.156901 0.157552 0.158203 0.158854 0.159505 0.160156 0.160807 0.161458 0.162109 0.162760 0.163411 0.164062 0.164714 0.165365 0.166016 0.166667 0.167318 0.167969 0.168620 0.169271 0.169922 0.170573 0.171224 0.171875 0.172526 0.173177 0.173828 0.174479 0.175130 0.175781 0.176432 0.177083 0.177734 0.178385 0.179036 0.179688 0.180339 0.180990 0.181641 0.182292 0.182943 0.183594 0.184245 0.184896 0.185547 0.186198 0.186849 0.187500 0.188151 0.188802 0.189453 0.190104 0.190755 0.191406 0.192057 0.192708 0.193359 0.194010 0.194661 0.195312 0.195964 0.196615 0.197266 0.197917 0.198568 0.199219 0.199870 0.200521 0.201172 0.201823 0.202474 0.203125 0.203776 0.204427 0.205078 0.205729 0.206380 0.207031 0.207682 0.208333 0.208984 0.209635 0.210286 0.210938 0.211589 0.212240 0.212891 0.213542 0.214193 0.214844 0.215495 0.216146 0.216797 0.217448 0.218099 0.218750 0.219401 0.220052 0.220703 0.221354 0.222005 0.222656 0.223307 0.223958 0.224609 0.225260 0.225911 0.226562 0.227214 0.227865 0.228516 0.229167 0.229818 0.230469 0.231120 0.231771 0.232422 0.233073 0.233724 0.234375 0.235026 0.235677
       0.30042        0.30042        0.30042        0.30042        0.30042        0.30042        0.30042        0.30042        0.30042        0.30042        0.30042        0.30042        0.30042        0.30042        0.30042        0.30042        0.30042        0.30042        0.30042        0.30042        0.30042        0.30042        0.30042        0.30042        0.30042        0.30042        0.30042        0.30042        0.30042        0.30042        0.30042        0.30042        0.30042        0.30042        0.30042        0.30042        0.30042        0.30042        0.30042        0.30042        0.30042        0.30042        0.30042        0.30042        0.30042        0.30042        0.30042        0.30042        0.30042        0.30042        0.30042        0.61259        0.76151        0.36656        0.23013        0.13937       -0.14448        0.11774        0.02416        0.03805        0.09880        0.33049        0.37478        0.31372        0.18627       -0.02566        0.01183        0.05228       -0.16547       -0.17509       -0.09246       -0.12135       -0.27837       -0.17110       -0.30888       -0.29333       -0.30388       -0.38049       -0.45484       -0.43175       -0.35076       -0.31065       -0.40252       -0.30513       -0.37129       -0.30705       -0.24109       -0.18652       -0.15003       -0.06256       -0.03612        0.08286        0.11804        0.21967        0.32508        0.38872        0.37343        0.47742        0.56565        0.58508        0.66836        0.63504        0.69052        0.60799        0.64019        0.64380        0.57889        0.58008        0.58851        0.39953        0.34115        0.35611        0.34086        0.18323        0.12622        0.07566        0.07090        0.05410       -0.04455        0.01980       -0.02022       -0.06527        0.06503        0.16105        0.26124        0.33223        0.32608        0.38099        0.49788        0.52706        0.47264        0.64833        0.52348        0.50442        0.55651        0.53035        0.51259        0.45874        0.38239        0.34534        0.24437        0.19637        0.15180        0.15413        0.12228        0.07050        0.11217        0.14909        0.18137        0.17073        0.22943        0.26573        0.33544        0.44723        0.42872        0.43070        0.48959        0.54005        0.52786        0.48429        0.37660        0.40442        0.35791        0.27810        0.22781        0.22779        0.18528        0.17101        0.16049        0.18072        0.15917        0.21144        0.26152        0.33327        0.37829        0.39532        0.45301        0.48034        0.44524        0.43308        0.40105        0.40399        0.39828        0.34663        0.28486        0.27268        0.22011        0.24414        0.23419        0.19469        0.22654        0.23285        0.24783        0.31899        0.35407        0.37504        0.38540        0.39437        0.42202        0.41144        0.40710        0.30336        0.29586        0.26155        0.27721        0.23704        0.19670        0.25353        0.31097        0.29641        0.28183        0.33111        0.29298        0.37407        0.34021        0.35276        0.36159        0.35468        0.31577        0.30301        0.28386        0.27628        0.25309        0.24427        0.25056        0.28001        0.28512        0.30947        0.34353        0.36450        0.33094        0.32461        0.34252        0.31042        0.27633        0.28393        0.26384        0.26338        0.26427        0.29290        0.27626        0.26732        0.29925        0.30208        0.32121        0.32502        0.33059        0.27164        0.26689        0.28429        0.27905        0.26478        0.25677        0.22607        0.24431        0.25536        0.25641        0.27348        0.27708        0.31474        0.32956        0.30749        0.30144        0.23055        0.23554        0.26782        0.23082        0.20992        0.26092        0.31031        0.24644        0.29494        0.29727        0.29221        0.31169        0.26567        0.28120        0.28560        0.27330        0.26413        0.22655        0.24793        0.24402        0.28771        0.29591        0.30437        0.29731        0.32140        0.24749        0.29855        0.28945        0.22320        0.29199        0.27081        0.28558        0.29089        0.30299        0.30222        0.34388        0.28847        0.24668        0.24542        0.21672        0.24514        0.27644        0.29712        0.27565        0.27688        0.26758        0.26742        0.26112        0.27228        0.22748        0.27290        0.25022        0.23799        0.23530        0.29592        0.30254        0.27226        0.27380        0.22721        0.29112        0.23030        0.19729        0.22811        0.27349        0.27002        0.31072        0.24591        0.21448        0.26034        0.22839        0.23484        0.19037        0.20673        0.20492        0.26176        0.25755        0.19489        0.25851        0.23402        0.29122        0.23526        0.22358        0.23896        0.20904        0.13371        0.17962        0.13603        0.16698        0.17987        0.09752        0.29535        0.13286        0.06464        0.11478        0.11615        0.21772        0.23209       -0.01416       -0.69439       -0.98123
3.012597 2.982747 2.953051 2.923508 2.894118 2.864881 2.835798 2.806867 2.778090 2.749466 2.720994 2.692677 2.664512 2.636500 2.608641 2.580936 2.553383 2.525984 2.498738 2.471645 2.444705 2.417919 2.391285 2.364805 2.338477 2.312303 2.286282 2.260414 2.234699 2.209138 2.183729 2.158474 2.133371 2.108422 2.083626 2.058983 2.034493 2.010157 1.985973 1.961943 1.938066 1.914341 1.890770 1.867353 1.844088 1.820976 1.798018 1.775212 1.752560 1.730061 1.707715 2.050035 2.386190 1.744769 1.704952 1.387459 0.861258 1.245318 1.101539 1.143025 1.001127 1.601018 1.530348 1.527744 1.270912 0.942050 0.779059 1.020819 0.751459 0.431964 0.570635 0.668470 0.393890 0.461440 0.281094 0.241772 0.163828 0.158064 -0.098944 -0.043947 0.056962 0.039336 0.010196 0.108574 -0.055746 -0.005735 0.129397 0.203877 0.249088 0.326859 0.355324 0.635315 0.535443 0.679544 0.913414 0.960317 0.922009 1.178649 1.187820 1.265325 1.351436 1.220161 1.438735 1.194279 1.192378 1.357909 1.145721 1.084363 1.197928 0.934543 0.674225 0.700632 0.747011 0.449485 0.378042 0.257395 0.188392 0.150523 0.008704 0.127804 0.030201 -0.087760 0.075029 0.212441 0.335789 0.500158 0.516582 0.516891 0.718714 0.807643 0.596379 0.980415 0.871899 0.633747 0.781747 0.692461 0.731760 0.697172 0.442361 0.466542 0.267787 0.195868 0.126186 -0.002819 0.051995 -0.090720 -0.034021 -0.031114 0.099451 -0.040718 0.209338 0.152772 0.200270 0.393822 0.473841 0.408671 0.383653 0.613569 0.608988 0.487958 0.346391 0.344161 0.323974 0.175770 0.064238 0.045731 0.019755 -0.027359 -0.083647 -0.045999 -0.110591 0.009487 0.013877 0.125276 0.237836 0.236608 0.359909 0.348771 0.403266 0.360157 0.433413 0.367305 0.267800 0.343989 0.139132 0.184035 0.050725 0.088595 0.042667 0.039630 -0.049672 0.059027 0.035541 0.112734 0.230478 0.242525 0.255737 0.273072 0.323190 0.324958 0.323915 0.206341 0.095231 0.136666 0.049091 0.061625 -0.034485 -0.037404 0.077666 0.125552 0.097175 0.092094 0.122086 0.181420 0.204398 0.158088 0.190934 0.217328 0.138172 0.117847 0.078375 0.059704 0.062902 -0.032018 0.027228 0.064810 0.010794 0.103699 0.114392 0.194042 0.209571 0.151389 0.130673 0.169430 0.090193 0.057858 0.087901 0.023167 0.019849 0.070132 0.072854 0.061767 0.030445 0.121544 0.093877 0.134904 0.140755 0.114668 0.064188 0.018189 0.076533 0.044091 0.047785 -0.008364 -0.040097 0.010132 0.000333 0.012192 0.071062 0.013955 0.105834 0.151412 0.048213 0.065165 -0.054998 0.008808 0.018188 -0.064186 -0.066579 0.054601 0.077351 -0.042089 0.069329 0.050212 0.083951 0.054719 -0.001754 0.012600 0.097299 -0.045595 0.018807 -0.046396 -0.011367 -0.044485 0.062126 0.052240 0.066698 0.018340 0.111706 -0.050658 0.070481 -0.008984 -0.067857 0.043283 -0.010751 0.026142 0.009143 0.103524 0.046636 0.070597 0.041269 -0.109678 -0.022937 -0.112038 -0.015291 0.007729 0.017838 0.007879 -0.027715 -0.003795 -0.013823 -0.052457 -0.012891 -0.127780 0.002930 -0.049077 -0.087021 -0.042102 0.026224 0.005712 -0.004043 0.024919 -0.050672 0.060642 -0.035459 -0.112001 -0.030849 0.049328 0.067454 0.083450 0.004160 -0.028441 0.050593 0.010068 -0.061038 -0.012987 -0.104053 0.020361 0.090766 0.068269 -0.034633 0.110915 0.041956 0.223876 0.017487 0.096202 0.104670 0.070619 -0.124098 0.048248 -0.095391 0.090499 0.040860 -0.012786 0.478487 0.160961 0.098773 0.243938 0.214050 0.306325 0.314952 -0.010126 -1.570442
0.072396 0.072835 0.074150 0.076341 0.079409 0.083352 0.088169 0.093860 0.100422 0.107854 0.116153 0.125316 0.135339 0.146219 0.157949 0.170523 0.183933 0.198171 0.213227 0.229088 0.245740 0.263168 0.281355 0.300280 0.319920 0.340251 0.361244 0.382867 0.405087 0.427864 0.451158 0.474922 0.499107 0.523658 0.548517 0.573620 0.598900 0.624284 0.649694 0.675047 0.700254 0.725223 0.749854 0.774044 0.797684 0.820660 0.842854 0.864143 0.884398 0.903488 0.921279 0.937631 0.952404 0.965454 0.976637 0.985809 0.992823 0.997536 0.999807 0.999496 0.996468 0.990595 0.981753 0.969828 0.954715 0.936320 0.914559 0.889365 0.860685 0.828484 0.792743 0.753466 0.710678 0.664426 0.614783 0.561846 0.505743 0.446626 0.384678 0.320113 0.253173 0.184133 0.113297 0.041003 0.032386 0.106475 0.180841 0.255037 0.328588 0.401002 0.471765 0.540348 0.606213 0.668811 0.727593 0.782009 0.831520 0.875598 0.913737 0.945452 0.970296 0.987858 0.997772 0.999727 0.993471 0.978815 0.955646 0.923927 0.883703 0.835109 0.778371 0.713811 0.641846 0.562993 0.477865 0.387173 0.291721 0.192401 0.090190 0.013862 0.118638 0.222961 0.325617 0.425356 0.520918 0.611042 0.694487 0.770047 0.836575 0.893000 0.938346 0.971751 0.992487 0.999981 0.993825 0.973796 0.939868 0.892223 0.831257 0.757587 0.672048 0.575696 0.469796 0.355815 0.235402 0.110374 0.017311 0.145583 0.272290 0.395233 0.512204 0.621030 0.719612 0.805967 0.878280 0.934935 0.974567 0.996092 0.998749 0.982124 0.946177 0.891259 0.818121 0.727917 0.622195 0.502882 0.372253 0.232904 0.087697 0.060285 0.207805 0.351545 0.488168 0.614409 0.727152 0.823509 0.900907 0.957157 0.990530 0.999816 0.984378 0.944190 0.879860 0.792640 0.684421 0.557700 0.415539 0.261505 0.099581 0.065919 0.230469 0.389448 0.538270 0.672523 0.788103 0.881350 0.949167 0.989146 0.999658 0.979936 0.930125 0.851318 0.745543 0.615743 0.465703 0.299957 0.123672 0.057517 0.237669 0.410737 0.570763 0.712104 0.829619 0.918881 0.976360 0.999571 0.987203 0.939208 0.856840 0.742652 0.600443 0.435154 0.252716 0.059846 0.136177 0.327789 0.507433 0.667856 0.802410 0.905349 0.972085 0.999415 0.985701 0.930980 0.837019 0.707293 0.546876 0.362284 0.161221 0.047724 0.255430 0.452636 0.630366 0.780341 0.895377 0.969754 0.999527 0.982761 0.919680 0.812720 0.666471 0.487518 0.284176 0.066123 0.156045 0.371311 0.568792 0.738288 0.870837 0.959198 0.998289 0.985500 0.920910 0.807346 0.650311 0.457755 0.239705 0.007777 0.225432 0.447019 0.644488 0.806468 0.923394 0.988103 0.996301 0.946897 0.842145 0.687595 0.491851 0.266137 0.023665 0.221080 0.453240 0.658441 0.823739 0.938440 0.994831 0.988750 0.919932 0.792126 0.612942 0.393464 0.147591 0.108793 0.358846 0.585852 0.774366 0.911275 0.986763 0.995051 0.934900 0.809794 0.627819 0.401188 0.145484 0.121390 0.380429 0.612886 0.801641 0.932490 0.995254 0.984639 0.900731 0.749116 0.540577 0.290396 0.017277 0.258010 0.514208 0.731202 0.891642 0.982365 0.995533 0.929379 0.788479 0.583521 0.330569 0.049853 0.235796 0.502795 0.728752 0.894381 0.985189 0.992811 0.915854 0.760162 0.538471 0.269428 0.023902 0.315976 0.580992 0.795169 0.938928 0.998740 0.968470 0.850092 0.653669 0.396598 0.102137 0.202642 0.489316 0.730762 0.903749 0.991240 0.984145 0.882354 0.694924 0.439382 0.140162 0.173653 0.471139 0.722563 0.902398
1.000000 1.000000 1.000000 1.000000 1.000000 1.000000 1.000000 1.000000 1.000000 1.000000 1.000000 1.000000 1.000000 1.000000 1.000000 1.000000 1.000000 1.000000 1.000000 1.000000 1.000000 1.000000 1.000000 1.000000 1.000000 1.000000 1.000000 1.000000 1.000000 1.000000 1.000000 1.000000 1.000000 1.000000 1.000000 1.000000 1.000000 1.000000 1.000000 1.000000 1.000000 1.000000 1.000000 1.000000 1.000000 1.000000 1.000000 1.000000 1.000000 1.000000 1.000000 1.000000 0.829319 0.829319 0.829319 0.829319 0.829319 0.829319 0.829319 0.802910 0.802910 0.802910 0.802910 0.802910 0.802910 0.802910 0.802910 0.802910 0.802910 0.802910 0.802910 0.802910 0.802910 0.802910 0.802910 0.802910 0.802910 0.802910 0.802910 0.802910 0.802910 0.802910 0.802910 0.802910 0.802910 0.802910 0.802910 0.802910 0.802910 0.802910 0.802910 0.802910 0.802910 0.802910 0.802910 0.802910 0.802910 0.802910 0.802910 0.802910 0.802910 0.802910 0.802910 0.946104 0.946954 0.947320 0.947956 0.946358 0.946057 0.944346 0.943448 0.946135 0.946344 0.946289 0.947222 0.947772 0.948928 0.950365 0.952264 0.952232 0.960520 0.964308 0.963760 0.962968 0.962001 0.975753 0.975674 0.975414 0.975346 0.975455 0.975441 0.975361 0.975279 0.975891 0.975187 0.975610 0.975538 0.975174 0.974582 0.974369 0.974006 0.973402 0.973735 0.974467 0.974535 0.975002 0.977618 0.976697 0.977307 0.975923 0.975220 0.974089 0.972249 0.972975 0.973324 0.974813 0.972906 0.971175 0.972235 0.970486 0.970404 0.970328 0.970575 0.970816 0.969319 0.969371 0.969391 0.970193 0.966992 0.954914 0.953110 0.949844 0.950934 0.952734 0.954929 0.954510 0.954064 0.952523 0.946798 0.943680 0.933063 0.930504 0.926333 0.925843 0.926637 0.927495 0.926276 0.926422 0.924943 0.924460 0.921408 0.924059 0.922705 0.921132 0.914749 0.913854 0.912327 0.913526 0.915325 0.916165 0.912995 0.908939 0.898008 0.882371 0.881375 0.880289 0.886664 0.879050 0.877833 0.878035 0.861380 0.858814 0.850288 0.849161 0.850355 0.851780 0.852218 0.853981 0.853371 0.836841 0.826653 0.821848 0.820185 0.823202 0.832622 0.834931 0.831696 0.822681 0.820222 0.797541 0.797184 0.800016 0.794186 0.799909 0.782191 0.782133 0.775753 0.777326 0.773116 0.767859 0.767856 0.745258 0.749277 0.751866 0.756462 0.755932 0.741009 0.733641 0.694858 0.700980 0.680882 0.690270 0.691210 0.678596 0.667236 0.668261 0.672750 0.664045 0.668220 0.648417 0.636591 0.618844 0.614139 0.621615 0.589701 0.597206 0.596621 0.589430 0.581380 0.596633 0.609244 0.612965 0.592357 0.590989 0.579024 0.549008 0.524352 0.507103 0.493646 0.495654 0.512618 0.513070 0.521403 0.507495 0.478519 0.447652 0.453845 0.457580 0.446407 0.440423 0.433023 0.421170 0.438433 0.424458 0.448162 0.441481 0.433418 0.401589 0.328477 0.304769 0.263921 0.280569 0.287254 0.288607 0.285139 0.286317 0.261511 0.200683 0.195146 0.197335 0.218204 0.188263 0.152798 0.164756 0.160389 0.157101 0.153696 0.153053 0.208038 0.199381 0.225384 0.223831 0.166797 0.142059 0.081278 0.085218 0.088237 0.118884 0.143304 0.133772 0.107324 0.012049 0.038253 0.070700 0.070700 0.070700 0.070700 0.070700 0.070700 0.070700 0.070700 0.070700 0.070700 0.070700 -0.003297 -0.003297 -0.003297 -0.003297 -0.003297 -0.003297 -0.003297 -0.003297 -0.003297 -0.003297 -0.003297 -0.003297 -0.003297 -0.003297 -0.003297 -0.003297 -0.003297 -0.003297 -0.003297
0.000000 0.000000 0.000000 0.000000 0.000000 0.000000 0.000000 0.000000 0.000000 0.000000 0.000000 0.000000 0.000000 0.000000 0.000000 0.000000 0.000000 0.000000 0.000000 0.000000 0.000000 0.000000 0.000000 0.000000 0.000000 0.000000 0.000000 0.000000 0.000000 0.000000 0.000000 0.000000 0.000000 0.000000 0.000000 0.000000 0.000000 0.000000 0.000000 0.000000 0.000000 0.000000 0.000000 0.000000 0.000000 0.000000 0.000000 0.000000 0.000000 0.000000 0.000000 0.000000 0.173422 0.173422 0.173422 0.173422 0.173422 0.173422 0.173422 0.191565 0.191565 0.191565 0.191565 0.191565 0.191565 0.191565 0.191565 0.191565 0.191565 0.191565 0.191565 0.191565 0.191565 0.191565 0.191565 0.191565 0.191565 0.191565 0.191565 0.191565 0.191565 0.191565 0.191565 0.191565 0.191565 0.191565 0.191565 0.191565 0.191565 0.191565 0.191565 0.191565 0.191565 0.191565 0.191565 0.191565 0.191565 0.191565 0.191565 0.191565 0.191565 0.191565 0.191565 0.219529 0.219529 0.219529 0.219529 0.219529 0.219529 0.219529 0.219529 0.219529 0.219529 0.219529 0.219529 0.219529 0.219529 0.219529 0.219529 0.219529 0.219529 0.219529 0.219529 0.219529 0.219529 0.219529 0.219529 0.219529 0.219529 0.219529 0.219529 0.219529 0.219529 0.219529 0.237356 0.237356 0.237356 0.237356 0.237356 0.237356 0.237356 0.237356 0.237356 0.237356 0.237356 0.237356 0.237356 0.237356 0.237356 0.237356 0.237356 0.237356 0.237356 0.237356 0.237356 0.237356 0.237356 0.237356 0.244339 0.244339 0.244339 0.244339 0.244339 0.244339 0.244339 0.244339 0.244339 0.244339 0.244339 0.244339 0.244339 0.244339 0.244339 0.244339 0.244339 0.244339 0.244339 0.244339 0.244339 0.248069 0.248069 0.248069 0.248069 0.248069 0.248069 0.248069 0.248069 0.248069 0.248069 0.248069 0.248069 0.248069 0.248069 0.248069 0.248069 0.248069 0.248069 0.248069 0.248069 0.248069 0.248069 0.248069 0.248069 0.248069 0.248069 0.248069 0.248069 0.248069 0.248069 0.248069 0.248069 0.248069 0.248069 0.248069 0.248069 0.248069 0.256074 0.256074 0.256074 0.256074 0.256074 0.256074 0.256074 0.256074 0.256074 0.256074 0.256074 0.256074 0.256074 0.256074 0.256074 0.256074 0.256074 0.256074 0.256074 0.256074 0.256074 0.256074 0.256074 0.256074 0.256074 0.256074 0.256074 0.256074 0.256074 0.256074 0.256074 0.256074 0.256074 0.256074 0.256074 0.256074 0.256074 0.256074 0.256074 0.256074 0.256074 0.256074 0.256074 0.256074 0.256074 0.260378 0.260378 0.260378 0.260378 0.260378 0.260378 0.260378 0.260378 0.260378 0.260378 0.260378 0.260378 0.260378 0.256074 0.256074 0.256074 0.256074 0.256074 0.256074 0.256074 0.256074 0.256074 0.256074 0.256074 0.256074 0.256074 0.260378 0.260378 0.260378 0.260378 0.260378 0.260378 0.260378 0.260378 0.260378 0.260378 0.260378 0.260378 0.251976 0.251976 0.251976 0.251976 0.251976 0.251976 0.251976 0.251976 0.251976 0.251976 0.251976 0.251976 0.256074 0.256074 0.256074 0.256074 0.256074 0.256074 0.256074 0.256074 0.256074 0.256074 0.256074 0.251976 0.251976 0.251976 0.251976 0.251976 0.251976 0.251976 0.251976 0.251976 0.251976 0.251976 0.248069 0.248069 0.248069 0.248069 0.248069 0.248069 0.248069 0.248069 0.248069 0.248069 0.248069 0.256074 0.256074 0.256074 0.256074 0.256074 0.256074 0.256074 0.256074 0.256074 0.256074 0.256074 0.256074 0.256074 0.256074 0.256074 0.256074 0.256074 0.256074 0.256074
