# Output from CTFFind version 4.1.9, run on 2019-11-02 17:49:15
# Input file: stack6_bm3d_averaged_1_1.5_0_2500_half.mrc ; Number of micrographs: 1
# Pixel size: 3.000 Angstroms ; acceleration voltage: 300.0 keV ; spherical aberration: 0.00 mm ; amplitude contrast: 0.07
# Box size: 512 pixels ; min. res.: 30.0 Angstroms ; max. res.: 5.0 Angstroms ; min. def.: 5000.0 um; max. def. 50000.0 um; num. frames averaged: 1
# 6 lines per micrograph: #1 - spatial frequency (1/Angstroms); #2 - 1D rotational average of spectrum (assuming no astigmatism); #3 - 1D rotational average of spectrum; #4 - CTF fit; #5 - cross-correlation between spectrum and CTF fit; #6 - 2sigma of expected cross correlation of noise
0.000000 0.000651 0.001302 0.001953 0.002604 0.003255 0.003906 0.004557 0.005208 0.005859 0.006510 0.007161 0.007812 0.008464 0.009115 0.009766 0.010417 0.011068 0.011719 0.012370 0.013021 0.013672 0.014323 0.014974 0.015625 0.016276 0.016927 0.017578 0.018229 0.018880 0.019531 0.020182 0.020833 0.021484 0.022135 0.022786 0.023438 0.024089 0.024740 0.025391 0.026042 0.026693 0.027344 0.027995 0.028646 0.029297 0.029948 0.030599 0.031250 0.031901 0.032552 0.033203 0.033854 0.034505 0.035156 0.035807 0.036458 0.037109 0.037760 0.038411 0.039062 0.039714 0.040365 0.041016 0.041667 0.042318 0.042969 0.043620 0.044271 0.044922 0.045573 0.046224 0.046875 0.047526 0.048177 0.048828 0.049479 0.050130 0.050781 0.051432 0.052083 0.052734 0.053385 0.054036 0.054688 0.055339 0.055990 0.056641 0.057292 0.057943 0.058594 0.059245 0.059896 0.060547 0.061198 0.061849 0.062500 0.063151 0.063802 0.064453 0.065104 0.065755 0.066406 0.067057 0.067708 0.068359 0.069010 0.069661 0.070312 0.070964 0.071615 0.072266 0.072917 0.073568 0.074219 0.074870 0.075521 0.076172 0.076823 0.077474 0.078125 0.078776 0.079427 0.080078 0.080729 0.081380 0.082031 0.082682 0.083333 0.083984 0.084635 0.085286 0.085938 0.086589 0.087240 0.087891 0.088542 0.089193 0.089844 0.090495 0.091146 0.091797 0.092448 0.093099 0.093750 0.094401 0.095052 0.095703 0.096354 0.097005 0.097656 0.098307 0.098958 0.099609 0.100260 0.100911 0.101562 0.102214 0.102865 0.103516 0.104167 0.104818 0.105469 0.106120 0.106771 0.107422 0.108073 0.108724 0.109375 0.110026 0.110677 0.111328 0.111979 0.112630 0.113281 0.113932 0.114583 0.115234 0.115885 0.116536 0.117188 0.117839 0.118490 0.119141 0.119792 0.120443 0.121094 0.121745 0.122396 0.123047 0.123698 0.124349 0.125000 0.125651 0.126302 0.126953 0.127604 0.128255 0.128906 0.129557 0.130208 0.130859 0.131510 0.132161 0.132812 0.133464 0.134115 0.134766 0.135417 0.136068 0.136719 0.137370 0.138021 0.138672 0.139323 0.139974 0.140625 0.141276 0.141927 0.142578 0.143229 0.143880 0.144531 0.145182 0.145833 0.146484 0.147135 0.147786 0.148438 0.149089 0.149740 0.150391 0.151042 0.151693 0.152344 0.152995 0.153646 0.154297 0.154948 0.155599 0.156250 0.156901 0.157552 0.158203 0.158854 0.159505 0.160156 0.160807 0.161458 0.162109 0.162760 0.163411 0.164062 0.164714 0.165365 0.166016 0.166667 0.167318 0.167969 0.168620 0.169271 0.169922 0.170573 0.171224 0.171875 0.172526 0.173177 0.173828 0.174479 0.175130 0.175781 0.176432 0.177083 0.177734 0.178385 0.179036 0.179688 0.180339 0.180990 0.181641 0.182292 0.182943 0.183594 0.184245 0.184896 0.185547 0.186198 0.186849 0.187500 0.188151 0.188802 0.189453 0.190104 0.190755 0.191406 0.192057 0.192708 0.193359 0.194010 0.194661 0.195312 0.195964 0.196615 0.197266 0.197917 0.198568 0.199219 0.199870 0.200521 0.201172 0.201823 0.202474 0.203125 0.203776 0.204427 0.205078 0.205729 0.206380 0.207031 0.207682 0.208333 0.208984 0.209635 0.210286 0.210938 0.211589 0.212240 0.212891 0.213542 0.214193 0.214844 0.215495 0.216146 0.216797 0.217448 0.218099 0.218750 0.219401 0.220052 0.220703 0.221354 0.222005 0.222656 0.223307 0.223958 0.224609 0.225260 0.225911 0.226562 0.227214 0.227865 0.228516 0.229167 0.229818 0.230469 0.231120 0.231771 0.232422 0.233073 0.233724 0.234375 0.235026 0.235677
       0.30916        0.30916        0.30916        0.30916        0.30916        0.30916        0.30916        0.30916        0.30916        0.30916        0.30916        0.30916        0.30916        0.30916        0.30916        0.30916        0.30916        0.30916        0.30916        0.30916        0.30916        0.30916        0.30916        0.30916        0.30916        0.30916        0.30916        0.30916        0.30916        0.30916        0.30916        0.30916        0.30916        0.30916        0.30916        0.30916        0.30916        0.30916        0.30916        0.30916        0.30916        0.30916        0.30916        0.30916        0.30916        0.30916        0.30916        0.30916        0.30916        0.30916        0.30916        0.63361        0.81105        0.41033        0.30667        0.18599       -0.10714        0.11252       -0.00019        0.03237        0.11438        0.33746        0.42376        0.40183        0.22272       -0.01307        0.04499        0.07224       -0.17059       -0.17860       -0.08953       -0.11045       -0.29813       -0.18952       -0.30637       -0.25979       -0.28320       -0.40725       -0.47556       -0.47466       -0.42096       -0.34467       -0.43597       -0.36571       -0.41331       -0.35345       -0.27570       -0.20135       -0.19687       -0.13287       -0.08824        0.03885        0.08075        0.25042        0.28613        0.37423        0.40119        0.51171        0.58698        0.60728        0.73784        0.69513        0.73770        0.64870        0.66182        0.69426        0.63244        0.61547        0.60678        0.43248        0.39211        0.35324        0.32780        0.22561        0.13324        0.06038        0.05151       -0.00177       -0.08088       -0.03068       -0.03262       -0.07201        0.06667        0.16463        0.25521        0.31395        0.33510        0.42508        0.53795        0.58352        0.53519        0.66833        0.55955        0.53269        0.59990        0.63037        0.52766        0.46134        0.40141        0.37845        0.24859        0.20649        0.13083        0.11398        0.05523        0.05916        0.10173        0.15543        0.15063        0.17810        0.22085        0.23799        0.32922        0.44703        0.48920        0.49325        0.52037        0.57715        0.57379        0.52476        0.41689        0.38379        0.36265        0.26526        0.24311        0.21619        0.20442        0.19896        0.17780        0.15756        0.12322        0.18503        0.24097        0.34180        0.37771        0.40523        0.45990        0.53298        0.47124        0.48469        0.42712        0.40466        0.38194        0.36409        0.28702        0.25487        0.20289        0.23653        0.21819        0.19548        0.21323        0.21903        0.24241        0.30531        0.39859        0.39196        0.37492        0.38961        0.45114        0.47586        0.43336        0.35605        0.32135        0.28119        0.26437        0.24706        0.21365        0.28150        0.29517        0.29299        0.31026        0.30075        0.33533        0.37528        0.36866        0.36844        0.34993        0.31607        0.33185        0.32136        0.29697        0.28815        0.26895        0.21399        0.26732        0.27237        0.29955        0.31576        0.33652        0.36787        0.32971        0.31010        0.35527        0.36445        0.26181        0.29293        0.30560        0.24016        0.21072        0.26344        0.27033        0.27637        0.29826        0.30219        0.33059        0.33217        0.35394        0.32494        0.32401        0.30803        0.29111        0.26371        0.23811        0.25172        0.25869        0.27604        0.29920        0.29043        0.28849        0.31747        0.33559        0.26836        0.30573        0.26630        0.25791        0.26442        0.25417        0.25337        0.26285        0.31204        0.28097        0.31516        0.29123        0.27484        0.30950        0.30067        0.32846        0.31312        0.29939        0.25035        0.25139        0.26593        0.26180        0.30957        0.31337        0.33273        0.32359        0.30958        0.26295        0.29194        0.21883        0.18871        0.25743        0.27296        0.25612        0.28191        0.31096        0.29186        0.35480        0.29968        0.25095        0.21614        0.23824        0.29134        0.29960        0.30111        0.26926        0.27676        0.25347        0.30994        0.27326        0.25005        0.27180        0.24784        0.28870        0.25190        0.28210        0.32552        0.28717        0.20552        0.23301        0.27760        0.31624        0.25287        0.26395        0.24388        0.28986        0.28711        0.37918        0.29363        0.27246        0.27233        0.24949        0.21737        0.18772        0.24596        0.21034        0.19815        0.17779        0.19676        0.24226        0.21487        0.24489        0.20043        0.23861        0.21976        0.20834        0.18664        0.16430        0.19322        0.23433        0.15524        0.07765        0.20811        0.17819        0.12532        0.23838        0.15028        0.23685        0.18419       -0.11627       -0.53516       -0.91677
2.868148 2.839864 2.811726 2.783733 2.755887 2.728185 2.700630 2.673220 2.645956 2.618838 2.591865 2.565038 2.538357 2.511821 2.485431 2.459186 2.433088 2.407135 2.381328 2.355666 2.330150 2.304780 2.279556 2.254477 2.229544 2.204757 2.180115 2.155619 2.131268 2.107064 2.083005 2.059092 2.035324 2.011702 1.988226 1.964896 1.941711 1.918672 1.895778 1.873030 1.850428 1.827972 1.805661 1.783496 1.761477 1.739603 1.717876 1.696293 1.674857 1.653566 1.632421 1.932129 2.277657 1.699261 1.743890 1.388169 0.946311 1.209099 1.035384 1.083584 1.033355 1.504467 1.524159 1.551963 1.281823 0.952081 0.827281 1.020257 0.722510 0.496151 0.592931 0.683127 0.420293 0.493501 0.328818 0.366131 0.258619 0.163513 -0.035949 0.009368 0.035918 0.076060 0.046359 0.087393 -0.042179 0.028841 0.110252 0.230026 0.284317 0.216918 0.333960 0.560861 0.446836 0.731955 0.807793 0.890055 0.909940 1.118390 1.140906 1.180025 1.332647 1.230557 1.377482 1.193416 1.112172 1.317898 1.130574 1.059262 1.130004 0.889630 0.734843 0.675529 0.672142 0.475314 0.396905 0.270604 0.217302 0.094552 -0.012050 0.093140 0.024143 -0.065847 0.116669 0.261775 0.309587 0.462851 0.481459 0.554531 0.712999 0.810583 0.653792 0.953421 0.803367 0.650742 0.766649 0.787114 0.706965 0.641285 0.444454 0.501803 0.288969 0.183009 0.137134 0.003359 -0.019496 -0.102864 -0.016494 0.002783 0.093554 -0.049138 0.251336 0.102423 0.202703 0.370807 0.426473 0.528135 0.426439 0.562573 0.669513 0.508111 0.386197 0.329956 0.320389 0.141305 0.126911 0.020706 0.092925 0.019831 0.001527 -0.033652 -0.119402 -0.020145 0.013062 0.099789 0.286955 0.206233 0.346808 0.371428 0.432595 0.402173 0.407970 0.339918 0.225841 0.310926 0.166509 0.161656 0.007081 0.059057 0.070008 -0.017826 -0.000334 0.007672 0.062024 0.078707 0.228048 0.298534 0.239874 0.207636 0.378797 0.388157 0.358444 0.251538 0.171328 0.149467 0.088234 0.076440 0.025294 0.021008 0.136040 0.052937 0.185945 0.081189 0.128679 0.220881 0.216475 0.212439 0.203488 0.190227 0.116714 0.169155 0.122438 0.101499 0.119060 -0.008548 0.023937 0.082964 0.049214 0.150433 0.106237 0.208899 0.188093 0.124942 0.131480 0.214261 0.124774 0.067726 0.093431 0.061016 -0.001223 -0.016120 0.057572 0.071496 0.039831 0.114900 0.110283 0.122204 0.147602 0.167413 0.136733 0.093055 0.107026 0.088427 0.011896 0.009193 0.039124 0.010548 0.073563 0.112376 0.069021 0.051545 0.129594 0.119425 0.018835 0.118799 0.019086 0.021652 0.034967 0.010517 0.001118 0.070718 0.083762 0.020670 0.104503 0.074705 0.013682 0.119826 0.067423 0.083980 0.096337 0.032558 -0.010247 -0.014800 0.037891 0.007581 0.064593 0.095164 0.098493 0.062398 0.132294 -0.006476 0.064338 -0.098338 -0.042230 -0.009137 0.023405 0.013983 0.021550 0.089522 0.050656 0.118628 -0.021415 -0.036567 -0.098205 -0.080632 0.074137 0.014047 0.042757 -0.023612 -0.018559 -0.040468 0.060943 -0.014397 -0.064679 -0.011207 -0.088780 0.025990 -0.041308 0.012676 0.059653 -0.014076 -0.105452 -0.028072 0.029355 0.029481 -0.039066 -0.003738 -0.063311 0.095897 0.060105 0.169856 0.037861 0.008678 0.045967 0.036881 -0.055079 -0.026293 0.055626 -0.006658 -0.043785 -0.040247 -0.024375 0.103484 -0.046961 0.120400 0.009400 0.114959 0.002561 0.092953 -0.031612 0.002784 -0.015995 0.137013 0.023971 0.037795 0.292754 0.244982 0.178337 0.403455 0.210830 0.299904 0.272110 -0.159706 -1.283715
0.072396 0.072834 0.074149 0.076340 0.079407 0.083349 0.088165 0.093853 0.100414 0.107844 0.116140 0.125301 0.135322 0.146198 0.157925 0.170495 0.183902 0.198136 0.213187 0.229044 0.245692 0.263115 0.281297 0.300217 0.319852 0.340178 0.361165 0.382783 0.404997 0.427769 0.451058 0.474817 0.498996 0.523542 0.548396 0.573495 0.598771 0.624151 0.649557 0.674907 0.700112 0.725078 0.749708 0.773898 0.797538 0.820516 0.842712 0.864004 0.884264 0.903360 0.921158 0.937518 0.952301 0.965363 0.976559 0.985745 0.992776 0.997508 0.999798 0.999509 0.996505 0.990658 0.981844 0.969949 0.954867 0.936504 0.914778 0.889621 0.860979 0.828816 0.793115 0.753879 0.711133 0.664922 0.615321 0.562426 0.506364 0.447287 0.385378 0.320849 0.253944 0.184936 0.114130 0.041861 0.031507 0.105580 0.179935 0.254124 0.327676 0.400097 0.470874 0.539480 0.605374 0.668010 0.726837 0.781308 0.830881 0.875031 0.913249 0.945054 0.969994 0.987659 0.997685 0.999757 0.993624 0.979096 0.956058 0.924471 0.884382 0.835923 0.779317 0.714886 0.643044 0.564308 0.479287 0.388693 0.293325 0.194076 0.091918 0.012098 0.116855 0.221182 0.323862 0.423649 0.519282 0.609499 0.693061 0.768762 0.835455 0.892065 0.937616 0.971244 0.992219 0.999965 0.994070 0.974310 0.940653 0.893277 0.832574 0.759156 0.673855 0.577720 0.472013 0.358196 0.237914 0.112978 0.014655 0.142918 0.269662 0.392689 0.509793 0.618800 0.717609 0.804237 0.876862 0.933868 0.973882 0.995816 0.998900 0.982712 0.947205 0.892719 0.819998 0.730184 0.624817 0.505812 0.375439 0.236283 0.091201 0.056731 0.204281 0.348130 0.484946 0.611461 0.724556 0.821338 0.899225 0.956019 0.989980 0.999885 0.985081 0.945527 0.881814 0.795178 0.687492 0.561236 0.419458 0.265709 0.103964 0.061476 0.226089 0.385256 0.534392 0.669080 0.785207 0.879100 0.947648 0.988423 0.999774 0.980907 0.931945 0.853949 0.748923 0.619782 0.470286 0.304951 0.128918 0.052184 0.232426 0.405765 0.566241 0.708197 0.826477 0.916635 0.975111 0.999385 0.988114 0.941207 0.859879 0.746642 0.605256 0.440627 0.258653 0.066033 0.129979 0.321822 0.501937 0.663061 0.798527 0.902554 0.970517 0.999166 0.986809 0.933429 0.840735 0.712142 0.552675 0.368801 0.168183 0.040612 0.248480 0.446168 0.624683 0.775717 0.892047 0.967901 0.999267 0.984138 0.922663 0.817198 0.672258 0.494361 0.291758 0.074082 0.148097 0.363774 0.562054 0.732710 0.866728 0.956801 0.997761 0.986906 0.924211 0.812404 0.656886 0.465519 0.248258 0.016662 0.216702 0.438932 0.637513 0.801021 0.919816 0.986632 0.997062 0.949886 0.847227 0.694508 0.500218 0.275476 0.033435 0.211471 0.444380 0.650894 0.817998 0.934894 0.993743 0.990233 0.923936 0.798437 0.621191 0.403145 0.158094 0.098150 0.348770 0.577025 0.767409 0.906691 0.984907 0.996097 0.938822 0.816367 0.636626 0.411645 0.156872 0.109871 0.369608 0.603563 0.794519 0.928125 0.994017 0.986672 0.905936 0.757149 0.550876 0.302208 0.029721 0.245887 0.503354 0.722488 0.885791 0.979882 0.996670 0.934100 0.796459 0.594161 0.343040 0.063160 0.222744 0.491086 0.719388 0.888189 0.982740 0.994370 0.921348 0.769178 0.550275 0.283030 0.009664 0.302354 0.569202 0.786296 0.933812 0.997897 0.972039 0.857811 0.664889 0.410332 0.117140 0.187751 0.475946 0.720193 0.897029 0.989069 0.986795 0.889637 0.706196 0.453595 0.155962 0.157812 0.456828 0.711240 0.895239
1.000000 1.000000 1.000000 1.000000 1.000000 1.000000 1.000000 1.000000 1.000000 1.000000 1.000000 1.000000 1.000000 1.000000 1.000000 1.000000 1.000000 1.000000 1.000000 1.000000 1.000000 1.000000 1.000000 1.000000 1.000000 1.000000 1.000000 1.000000 1.000000 1.000000 1.000000 1.000000 1.000000 1.000000 1.000000 1.000000 1.000000 1.000000 1.000000 1.000000 1.000000 1.000000 1.000000 1.000000 1.000000 1.000000 1.000000 1.000000 1.000000 1.000000 1.000000 1.000000 0.835078 0.835078 0.835078 0.835078 0.835078 0.835078 0.835078 0.812595 0.812595 0.812595 0.812595 0.812595 0.812595 0.812595 0.812595 0.812595 0.812595 0.812595 0.812595 0.812595 0.812595 0.812595 0.812595 0.812595 0.812595 0.812595 0.812595 0.812595 0.812595 0.812595 0.812595 0.812595 0.812595 0.812595 0.812595 0.812595 0.812595 0.812595 0.812595 0.812595 0.812595 0.812595 0.812595 0.812595 0.812595 0.812595 0.812595 0.812595 0.812595 0.812595 0.812595 0.954578 0.955251 0.947789 0.946740 0.945076 0.941705 0.937416 0.936931 0.938258 0.938480 0.939131 0.940544 0.941593 0.943272 0.944341 0.945204 0.946029 0.954046 0.957648 0.957278 0.956905 0.952646 0.959359 0.957314 0.957153 0.957856 0.958116 0.958803 0.958708 0.958560 0.958085 0.956851 0.957517 0.957355 0.956651 0.955659 0.953601 0.953572 0.953154 0.953292 0.954239 0.954942 0.955698 0.956200 0.956182 0.956338 0.956333 0.956246 0.951498 0.951510 0.944653 0.945153 0.946234 0.945897 0.944930 0.943523 0.943587 0.943486 0.943434 0.943278 0.943482 0.925475 0.925493 0.925515 0.926338 0.921143 0.910988 0.904741 0.899491 0.900574 0.904491 0.908957 0.909048 0.905432 0.904567 0.886568 0.890227 0.875083 0.871353 0.861966 0.871626 0.873537 0.874758 0.869806 0.868744 0.867317 0.864454 0.851317 0.855658 0.856476 0.852739 0.849455 0.847270 0.844241 0.846057 0.850655 0.845788 0.842904 0.839935 0.829417 0.818896 0.817462 0.819847 0.828510 0.840418 0.839616 0.838752 0.831290 0.827296 0.820413 0.814286 0.815055 0.817122 0.814201 0.818022 0.818884 0.828025 0.817704 0.811860 0.816673 0.828264 0.832766 0.834444 0.835639 0.832763 0.833401 0.807453 0.808197 0.810060 0.772532 0.772854 0.763304 0.763029 0.759998 0.758075 0.755016 0.749356 0.743587 0.727952 0.741757 0.749062 0.716478 0.723696 0.717168 0.708605 0.685891 0.687217 0.700005 0.709665 0.711490 0.718839 0.708371 0.707762 0.717926 0.718182 0.724364 0.720592 0.714290 0.710217 0.713160 0.708265 0.695003 0.689330 0.689095 0.688725 0.684288 0.665334 0.674159 0.660245 0.652063 0.640519 0.601506 0.584425 0.571512 0.560790 0.541810 0.515723 0.530396 0.533199 0.524794 0.514140 0.492026 0.448640 0.427578 0.425777 0.406980 0.403759 0.385209 0.334426 0.340587 0.326791 0.328381 0.307307 0.297264 0.282174 0.220913 0.224067 0.181200 0.208337 0.222060 0.214227 0.196329 0.185499 0.213899 0.221699 0.233194 0.231484 0.249987 0.209236 0.147309 0.171157 0.162625 0.170906 0.154902 0.122851 0.150633 0.148341 0.158836 0.164007 0.118445 0.088050 0.061370 0.054989 0.066151 0.089168 0.102309 0.091345 0.075322 -0.015718 0.017314 0.042054 0.042054 0.042054 0.042054 0.042054 0.042054 0.042054 0.042054 0.042054 0.042054 0.042054 -0.013915 -0.013915 -0.013915 -0.013915 -0.013915 -0.013915 -0.013915 -0.013915 -0.013915 -0.013915 -0.013915 -0.013915 -0.013915 -0.013915 -0.013915 -0.013915 -0.013915 -0.013915 -0.013915
0.000000 0.000000 0.000000 0.000000 0.000000 0.000000 0.000000 0.000000 0.000000 0.000000 0.000000 0.000000 0.000000 0.000000 0.000000 0.000000 0.000000 0.000000 0.000000 0.000000 0.000000 0.000000 0.000000 0.000000 0.000000 0.000000 0.000000 0.000000 0.000000 0.000000 0.000000 0.000000 0.000000 0.000000 0.000000 0.000000 0.000000 0.000000 0.000000 0.000000 0.000000 0.000000 0.000000 0.000000 0.000000 0.000000 0.000000 0.000000 0.000000 0.000000 0.000000 0.000000 0.173422 0.173422 0.173422 0.173422 0.173422 0.173422 0.173422 0.191565 0.191565 0.191565 0.191565 0.191565 0.191565 0.191565 0.191565 0.191565 0.191565 0.191565 0.191565 0.191565 0.191565 0.191565 0.191565 0.191565 0.191565 0.191565 0.191565 0.191565 0.191565 0.191565 0.191565 0.191565 0.191565 0.191565 0.191565 0.191565 0.191565 0.191565 0.191565 0.191565 0.191565 0.191565 0.191565 0.191565 0.191565 0.191565 0.191565 0.191565 0.191565 0.191565 0.191565 0.219529 0.219529 0.219529 0.219529 0.219529 0.219529 0.219529 0.219529 0.219529 0.219529 0.219529 0.219529 0.219529 0.219529 0.219529 0.219529 0.219529 0.219529 0.219529 0.219529 0.219529 0.219529 0.219529 0.219529 0.219529 0.219529 0.219529 0.219529 0.219529 0.219529 0.219529 0.237356 0.237356 0.237356 0.237356 0.237356 0.237356 0.237356 0.237356 0.237356 0.237356 0.237356 0.237356 0.237356 0.237356 0.237356 0.237356 0.237356 0.237356 0.237356 0.237356 0.237356 0.237356 0.237356 0.237356 0.244339 0.244339 0.244339 0.244339 0.244339 0.244339 0.244339 0.244339 0.244339 0.244339 0.244339 0.244339 0.244339 0.244339 0.244339 0.244339 0.244339 0.244339 0.244339 0.244339 0.244339 0.248069 0.248069 0.248069 0.248069 0.248069 0.248069 0.248069 0.248069 0.248069 0.248069 0.248069 0.248069 0.248069 0.248069 0.248069 0.248069 0.248069 0.248069 0.248069 0.248069 0.248069 0.248069 0.248069 0.248069 0.248069 0.248069 0.248069 0.248069 0.248069 0.248069 0.248069 0.248069 0.248069 0.248069 0.248069 0.248069 0.248069 0.256074 0.256074 0.256074 0.256074 0.256074 0.256074 0.256074 0.256074 0.256074 0.256074 0.256074 0.256074 0.256074 0.256074 0.256074 0.256074 0.256074 0.256074 0.256074 0.256074 0.256074 0.256074 0.256074 0.256074 0.256074 0.256074 0.256074 0.256074 0.256074 0.256074 0.256074 0.256074 0.256074 0.256074 0.256074 0.256074 0.256074 0.256074 0.256074 0.256074 0.256074 0.256074 0.256074 0.256074 0.256074 0.260378 0.260378 0.260378 0.260378 0.260378 0.260378 0.260378 0.260378 0.260378 0.260378 0.260378 0.260378 0.260378 0.256074 0.256074 0.256074 0.256074 0.256074 0.256074 0.256074 0.256074 0.256074 0.256074 0.256074 0.256074 0.256074 0.260378 0.260378 0.260378 0.260378 0.260378 0.260378 0.260378 0.260378 0.260378 0.260378 0.260378 0.260378 0.251976 0.251976 0.251976 0.251976 0.251976 0.251976 0.251976 0.251976 0.251976 0.251976 0.251976 0.251976 0.256074 0.256074 0.256074 0.256074 0.256074 0.256074 0.256074 0.256074 0.256074 0.256074 0.256074 0.251976 0.251976 0.251976 0.251976 0.251976 0.251976 0.251976 0.251976 0.251976 0.251976 0.251976 0.248069 0.248069 0.248069 0.248069 0.248069 0.248069 0.248069 0.248069 0.248069 0.248069 0.248069 0.256074 0.256074 0.256074 0.256074 0.256074 0.256074 0.256074 0.256074 0.256074 0.256074 0.256074 0.256074 0.256074 0.256074 0.256074 0.256074 0.256074 0.256074 0.256074
