# Output from CTFFind version 4.1.9, run on 2019-11-03 19:00:07
# Input file: stack1_bm3d_averaged_1_3.25_0_2500_half.mrc ; Number of micrographs: 1
# Pixel size: 3.000 Angstroms ; acceleration voltage: 300.0 keV ; spherical aberration: 0.00 mm ; amplitude contrast: 0.07
# Box size: 512 pixels ; min. res.: 30.0 Angstroms ; max. res.: 5.0 Angstroms ; min. def.: 5000.0 um; max. def. 50000.0 um; num. frames averaged: 1
# 6 lines per micrograph: #1 - spatial frequency (1/Angstroms); #2 - 1D rotational average of spectrum (assuming no astigmatism); #3 - 1D rotational average of spectrum; #4 - CTF fit; #5 - cross-correlation between spectrum and CTF fit; #6 - 2sigma of expected cross correlation of noise
0.000000 0.000651 0.001302 0.001953 0.002604 0.003255 0.003906 0.004557 0.005208 0.005859 0.006510 0.007161 0.007812 0.008464 0.009115 0.009766 0.010417 0.011068 0.011719 0.012370 0.013021 0.013672 0.014323 0.014974 0.015625 0.016276 0.016927 0.017578 0.018229 0.018880 0.019531 0.020182 0.020833 0.021484 0.022135 0.022786 0.023438 0.024089 0.024740 0.025391 0.026042 0.026693 0.027344 0.027995 0.028646 0.029297 0.029948 0.030599 0.031250 0.031901 0.032552 0.033203 0.033854 0.034505 0.035156 0.035807 0.036458 0.037109 0.037760 0.038411 0.039062 0.039714 0.040365 0.041016 0.041667 0.042318 0.042969 0.043620 0.044271 0.044922 0.045573 0.046224 0.046875 0.047526 0.048177 0.048828 0.049479 0.050130 0.050781 0.051432 0.052083 0.052734 0.053385 0.054036 0.054688 0.055339 0.055990 0.056641 0.057292 0.057943 0.058594 0.059245 0.059896 0.060547 0.061198 0.061849 0.062500 0.063151 0.063802 0.064453 0.065104 0.065755 0.066406 0.067057 0.067708 0.068359 0.069010 0.069661 0.070312 0.070964 0.071615 0.072266 0.072917 0.073568 0.074219 0.074870 0.075521 0.076172 0.076823 0.077474 0.078125 0.078776 0.079427 0.080078 0.080729 0.081380 0.082031 0.082682 0.083333 0.083984 0.084635 0.085286 0.085938 0.086589 0.087240 0.087891 0.088542 0.089193 0.089844 0.090495 0.091146 0.091797 0.092448 0.093099 0.093750 0.094401 0.095052 0.095703 0.096354 0.097005 0.097656 0.098307 0.098958 0.099609 0.100260 0.100911 0.101562 0.102214 0.102865 0.103516 0.104167 0.104818 0.105469 0.106120 0.106771 0.107422 0.108073 0.108724 0.109375 0.110026 0.110677 0.111328 0.111979 0.112630 0.113281 0.113932 0.114583 0.115234 0.115885 0.116536 0.117188 0.117839 0.118490 0.119141 0.119792 0.120443 0.121094 0.121745 0.122396 0.123047 0.123698 0.124349 0.125000 0.125651 0.126302 0.126953 0.127604 0.128255 0.128906 0.129557 0.130208 0.130859 0.131510 0.132161 0.132812 0.133464 0.134115 0.134766 0.135417 0.136068 0.136719 0.137370 0.138021 0.138672 0.139323 0.139974 0.140625 0.141276 0.141927 0.142578 0.143229 0.143880 0.144531 0.145182 0.145833 0.146484 0.147135 0.147786 0.148438 0.149089 0.149740 0.150391 0.151042 0.151693 0.152344 0.152995 0.153646 0.154297 0.154948 0.155599 0.156250 0.156901 0.157552 0.158203 0.158854 0.159505 0.160156 0.160807 0.161458 0.162109 0.162760 0.163411 0.164062 0.164714 0.165365 0.166016 0.166667 0.167318 0.167969 0.168620 0.169271 0.169922 0.170573 0.171224 0.171875 0.172526 0.173177 0.173828 0.174479 0.175130 0.175781 0.176432 0.177083 0.177734 0.178385 0.179036 0.179688 0.180339 0.180990 0.181641 0.182292 0.182943 0.183594 0.184245 0.184896 0.185547 0.186198 0.186849 0.187500 0.188151 0.188802 0.189453 0.190104 0.190755 0.191406 0.192057 0.192708 0.193359 0.194010 0.194661 0.195312 0.195964 0.196615 0.197266 0.197917 0.198568 0.199219 0.199870 0.200521 0.201172 0.201823 0.202474 0.203125 0.203776 0.204427 0.205078 0.205729 0.206380 0.207031 0.207682 0.208333 0.208984 0.209635 0.210286 0.210938 0.211589 0.212240 0.212891 0.213542 0.214193 0.214844 0.215495 0.216146 0.216797 0.217448 0.218099 0.218750 0.219401 0.220052 0.220703 0.221354 0.222005 0.222656 0.223307 0.223958 0.224609 0.225260 0.225911 0.226562 0.227214 0.227865 0.228516 0.229167 0.229818 0.230469 0.231120 0.231771 0.232422 0.233073 0.233724 0.234375 0.235026 0.235677
       0.35589        0.35589        0.35589        0.35589        0.35589        0.35589        0.35589        0.35589        0.35589        0.35589        0.35589        0.35589        0.35589        0.35589        0.35589        0.35589        0.35589        0.35589        0.35589        0.35589        0.35589        0.35589        0.35589        0.35589        0.35589        0.35589        0.35589        0.35589        0.35589        0.35589        0.35589        0.35589        0.35589        0.35589        0.35589        0.35589        0.35589        0.35589        0.35589        0.35589        0.35589        0.35589        0.35589        0.35589        0.35589        0.35589        0.35589        0.35589        0.35589        0.35589        0.35589        0.49563        0.70729        0.40408        0.21156       -0.03714       -0.22826       -0.04103       -0.11422       -0.08024        0.02360       -0.10200       -0.10043       -0.03201       -0.01352       -0.12447       -0.15541       -0.28862       -0.46069       -0.55832       -0.50715       -0.43866       -0.33918       -0.53362       -0.39456       -0.52912       -0.43475       -0.44907       -0.34085       -0.31726       -0.28665       -0.18925       -0.10291       -0.10230        0.04317        0.02394        0.17776        0.18599        0.33335        0.42341        0.52300        0.55768        0.56866        0.59479        0.73716        0.66526        0.67349        0.57712        0.54911        0.63607        0.51945        0.49059        0.42936        0.32302        0.29111        0.31118        0.25889        0.12669        0.11756       -0.00222        0.04692        0.05869        0.02995        0.10206        0.13826        0.22480        0.29080        0.30243        0.40316        0.54165        0.55734        0.56690        0.67487        0.64155        0.63149        0.67290        0.64864        0.53671        0.53400        0.41661        0.36633        0.28455        0.21125        0.15475        0.15854        0.14166        0.18070        0.17471        0.24465        0.25561        0.33029        0.37821        0.40196        0.51447        0.55071        0.57231        0.56326        0.60840        0.55123        0.49771        0.50761        0.37944        0.30521        0.28812        0.28055        0.21004        0.21027        0.21127        0.24108        0.27140        0.35453        0.39236        0.41865        0.44930        0.45322        0.47621        0.44636        0.49852        0.44268        0.39102        0.35848        0.38939        0.34102        0.32171        0.25752        0.29691        0.26242        0.27812        0.29141        0.37157        0.39413        0.40896        0.44270        0.46136        0.44623        0.44305        0.46706        0.36503        0.37107        0.32930        0.27555        0.33241        0.29583        0.33002        0.34790        0.34587        0.35470        0.43350        0.40230        0.44258        0.40475        0.42563        0.39697        0.39744        0.32087        0.30567        0.29643        0.28065        0.31067        0.36553        0.37947        0.37260        0.38722        0.38963        0.37101        0.44008        0.41531        0.38295        0.37275        0.32830        0.30839        0.34133        0.31845        0.36552        0.32744        0.35191        0.36172        0.38973        0.39443        0.36722        0.37431        0.36896        0.34497        0.32376        0.35794        0.34529        0.35482        0.33412        0.36019        0.38027        0.33797        0.34202        0.36948        0.32622        0.29764        0.31060        0.32136        0.31945        0.31942        0.36277        0.32829        0.32969        0.32983        0.32699        0.33859        0.32429        0.32887        0.31506        0.31359        0.31349        0.33202        0.32725        0.34556        0.33729        0.39499        0.38343        0.32424        0.36907        0.35170        0.26600        0.29379        0.33867        0.30730        0.31268        0.34975        0.33764        0.32899        0.36935        0.37141        0.31155        0.29064        0.31665        0.35072        0.37566        0.39089        0.33123        0.32343        0.30162        0.30172        0.28273        0.31463        0.30437        0.32985        0.34142        0.32694        0.29020        0.33832        0.34256        0.35717        0.29991        0.31737        0.34074        0.39002        0.38668        0.35281        0.34763        0.32913        0.31016        0.30925        0.32044        0.31091        0.25686        0.26497        0.31385        0.31511        0.32279        0.31750        0.27433        0.25540        0.27752        0.28687        0.35228        0.31040        0.31865        0.35428        0.38765        0.35402        0.26940        0.30865        0.26016        0.29883        0.34478        0.36022        0.30711        0.30017        0.29841        0.29166        0.32380        0.24947        0.22032        0.21887        0.28067        0.28383        0.23031        0.30901        0.26566        0.33355        0.29539        0.28215        0.24470        0.21025        0.29314        0.37209        0.33385        0.11627        0.18026        0.28506        0.17815        0.20682        0.01219        0.08236       -0.60774       -1.17143
2.781236 2.751849 2.722619 2.693548 2.664634 2.635878 2.607281 2.578842 2.550560 2.522437 2.494471 2.466664 2.439015 2.411523 2.384190 2.357015 2.329998 2.303139 2.276438 2.249895 2.223510 2.197283 2.171214 2.145303 2.119550 2.093955 2.068518 2.043239 2.018119 1.993156 1.968351 1.943705 1.919216 1.894885 1.870713 1.846698 1.822842 1.799143 1.775603 1.752221 1.728996 1.705930 1.683022 1.660272 1.637679 1.615245 1.592969 1.570851 1.548891 1.527089 1.505445 1.541301 1.885876 1.510600 1.242856 0.974369 0.542008 0.943068 0.645875 0.827242 0.913348 0.669651 0.651934 0.803907 0.787432 0.617222 0.598626 0.393340 0.075781 0.028704 0.017257 0.002291 0.321277 -0.059303 0.054566 -0.058586 0.004606 -0.021371 0.087802 0.096490 0.130634 0.194746 0.331030 0.284843 0.458577 0.392463 0.615732 0.547962 0.786746 0.803860 0.941740 1.030942 0.967254 1.010477 1.172457 1.001517 1.153903 0.916636 0.884941 0.992808 0.839827 0.820959 0.693343 0.564543 0.508097 0.497983 0.483309 0.251732 0.239904 0.126599 0.037793 0.179598 0.023497 0.106030 0.202507 0.232557 0.316321 0.344205 0.446911 0.529955 0.673386 0.521127 0.753925 0.767222 0.612101 0.760512 0.708894 0.594049 0.474278 0.458058 0.304102 0.234459 0.098834 0.039895 -0.013377 0.014028 -0.043951 0.014607 0.073818 0.078442 0.107705 0.217249 0.241051 0.326376 0.426251 0.421936 0.461767 0.432575 0.450018 0.336725 0.326019 0.279541 0.072007 0.065454 0.024893 -0.034622 -0.049079 -0.079579 -0.037960 -0.040510 0.055195 0.109629 0.155678 0.218761 0.187385 0.260325 0.239686 0.236477 0.221015 0.212566 0.097240 0.096604 0.105560 0.027041 0.004471 -0.045363 0.002121 -0.013681 -0.010307 0.020365 0.099355 0.097802 0.146214 0.185252 0.258329 0.119528 0.226294 0.110266 0.112278 0.042559 -0.039884 0.023247 -0.015135 0.005723 0.002560 0.066359 0.016977 0.073082 0.142553 0.129412 0.125943 0.091246 0.108466 0.085975 0.063314 -0.045550 -0.034661 -0.047467 -0.073243 0.002289 0.061181 0.069662 0.015094 0.069288 0.089486 0.058540 0.150925 0.057998 0.086067 0.059766 -0.053954 0.003329 0.006538 -0.016757 0.059446 0.003718 0.017411 0.036163 0.065395 0.055230 0.057479 -0.006746 0.049597 -0.023323 0.013762 0.019916 0.002369 0.044061 0.002297 0.034856 0.056137 -0.015621 0.023188 0.044997 -0.034348 -0.058037 -0.001780 -0.012852 -0.037392 -0.004573 0.057417 -0.008507 0.012714 0.062529 -0.012778 0.055083 0.039661 0.019803 0.012976 0.048101 0.007930 0.047345 0.020285 0.086904 0.056775 0.161083 0.115390 0.055707 0.119494 0.066710 -0.046643 0.055693 0.069688 0.027971 0.071220 0.087073 0.016930 0.035221 0.113593 0.071112 0.028426 -0.044180 0.049773 0.084119 0.108970 0.106267 0.037895 0.018507 0.022103 -0.000211 -0.017160 0.017916 0.050336 0.024397 0.106466 0.010650 -0.021774 0.070514 0.026696 0.005747 -0.001334 -0.033374 0.058150 0.097315 0.073195 0.015258 0.014910 -0.016792 -0.029016 -0.007837 -0.058079 -0.012348 -0.122478 -0.074465 -0.023998 0.001142 -0.018714 -0.001468 -0.041716 -0.041685 -0.023720 -0.057546 0.077979 -0.005333 0.020668 0.070650 0.131302 0.009678 -0.035634 0.008010 -0.058518 0.017807 0.060130 0.082528 0.015077 0.008523 0.020314 0.022003 0.104566 -0.034759 -0.056094 -0.090412 0.066252 0.060581 0.000496 0.041397 0.019337 0.185615 0.037608 0.103751 0.016977 0.038498 0.081263 0.217819 0.418445 0.079418 0.229018 0.433044 0.144750 0.279159 -0.127669 0.108877 -1.454060
0.072396 0.072910 0.074451 0.077018 0.080612 0.085231 0.090874 0.097539 0.105224 0.113927 0.123642 0.134367 0.146095 0.158819 0.172532 0.187223 0.202881 0.219493 0.237042 0.255510 0.274875 0.295114 0.316199 0.338098 0.360776 0.384194 0.408308 0.433069 0.458423 0.484310 0.510667 0.537420 0.564494 0.591804 0.619260 0.646765 0.674214 0.701496 0.728493 0.755079 0.781122 0.806481 0.831010 0.854556 0.876961 0.898058 0.917680 0.935650 0.951790 0.965920 0.977856 0.987414 0.994411 0.998664 0.999994 0.998228 0.993198 0.984744 0.972718 0.956982 0.937415 0.913911 0.886382 0.854764 0.819015 0.779117 0.735084 0.686959 0.634817 0.578767 0.518958 0.455573 0.388839 0.319021 0.246426 0.171405 0.094350 0.015695 0.064085 0.144477 0.224928 0.304853 0.383635 0.460630 0.535171 0.606575 0.674147 0.737192 0.795014 0.846930 0.892280 0.930430 0.960788 0.982809 0.996008 0.999968 0.994354 0.978916 0.953506 0.918079 0.872708 0.817586 0.753034 0.679504 0.597581 0.507987 0.411575 0.309328 0.202354 0.091876 0.020778 0.134188 0.246861 0.357243 0.463747 0.564770 0.658723 0.744052 0.819272 0.882990 0.933939 0.971004 0.993250 0.999951 0.990613 0.964998 0.923141 0.865364 0.792289 0.704840 0.604240 0.492010 0.369946 0.240107 0.104778 0.033557 0.172266 0.308604 0.439776 0.562994 0.675535 0.774804 0.858404 0.924196 0.970363 0.995469 0.998508 0.978953 0.936791 0.872545 0.787291 0.682653 0.560791 0.424370 0.276511 0.120731 0.039129 0.198997 0.354668 0.501918 0.636614 0.754843 0.853028 0.928047 0.977347 0.999040 0.991991 0.955885 0.891267 0.799569 0.683095 0.544990 0.389171 0.220236 0.043338 0.135961 0.311859 0.478499 0.630168 0.761500 0.867676 0.944617 0.989152 0.999178 0.973768 0.913256 0.819273 0.694732 0.543770 0.371633 0.184518 0.010633 0.206384 0.395078 0.569140 0.721381 0.845317 0.935459 0.987573 0.998913 0.968385 0.896656 0.786186 0.641182 0.467474 0.272314 0.064087 0.148017 0.354415 0.545548 0.712342 0.846643 0.941647 0.992268 0.995446 0.950359 0.858544 0.723893 0.552535 0.352599 0.133858 0.092719 0.315514 0.522835 0.703549 0.847689 0.947037 0.995621 0.990118 0.930120 0.818246 0.660089 0.463988 0.240632 0.002512 0.236754 0.463188 0.663273 0.824778 0.937531 0.994104 0.990346 0.925739 0.803533 0.630659 0.417386 0.176769 0.076119 0.325100 0.553926 0.747345 0.892147 0.978098 0.998730 0.951874 0.839933 0.669841 0.452705 0.203148 0.061643 0.323065 0.562396 0.762151 0.907378 0.986844 0.993951 0.927356 0.791212 0.594999 0.352935 0.083026 0.194249 0.457459 0.685881 0.861145 0.968777 0.999448 0.949857 0.823159 0.628869 0.382236 0.103113 0.185565 0.459671 0.695868 0.873654 0.977175 0.996719 0.929717 0.781140 0.563240 0.294649 0.001159 0.297843 0.568547 0.788319 0.936474 0.998598 0.968050 0.846768 0.645283 0.381927 0.081243 0.228215 0.516576 0.755544 0.921197 0.996478 0.973030 0.852249 0.645351 0.372471 0.060786 0.258098 0.551328 0.788208 0.943440 0.999929 0.950771 0.800218 0.563464 0.265247 0.062645 0.384681 0.665429 0.873478 0.985033 0.986734 0.877394 0.668394 0.382653 0.052226 0.285182 0.590495 0.827802 0.968644 0.995540 0.904293 0.704768 0.419995 0.083656 0.263802 0.579982 0.825723 0.970014 0.994030 0.893735 0.680693 0.380916 0.031826 0.322296 0.635897 0.868027 0.987778 0.978528 0.840420 0.590673 0.261618 0.103342 0.455365 0.746687 0.937154 0.999873
1.000000 1.000000 1.000000 1.000000 1.000000 1.000000 1.000000 1.000000 1.000000 1.000000 1.000000 1.000000 1.000000 1.000000 1.000000 1.000000 1.000000 1.000000 1.000000 1.000000 1.000000 1.000000 1.000000 1.000000 1.000000 1.000000 1.000000 1.000000 1.000000 1.000000 1.000000 1.000000 1.000000 1.000000 1.000000 1.000000 1.000000 1.000000 1.000000 1.000000 1.000000 1.000000 1.000000 1.000000 1.000000 1.000000 1.000000 1.000000 1.000000 1.000000 1.000000 1.000000 0.910357 0.910357 0.900844 0.900844 0.900844 0.900844 0.900844 0.900844 0.900844 0.900844 0.900844 0.900844 0.900844 0.900844 0.900844 0.900844 0.900844 0.900844 0.900844 0.900844 0.900844 0.900844 0.900844 0.900844 0.900844 0.900844 0.900844 0.900844 0.900844 0.900844 0.900844 0.900844 0.900844 0.900844 0.900844 0.900844 0.900844 0.900844 0.900844 0.900844 0.900844 0.900844 0.900844 0.884666 0.891519 0.894907 0.896812 0.900583 0.901542 0.900810 0.900499 0.900065 0.901034 0.902508 0.910413 0.929034 0.939781 0.945726 0.950577 0.958182 0.961256 0.960418 0.966731 0.974696 0.973616 0.973284 0.973870 0.975134 0.977199 0.977377 0.978817 0.979084 0.979656 0.979846 0.979571 0.979170 0.978755 0.978607 0.978234 0.978373 0.978957 0.979104 0.979371 0.979579 0.979692 0.971357 0.974458 0.969596 0.970470 0.972157 0.972744 0.960128 0.957326 0.961085 0.961092 0.960809 0.960748 0.961011 0.961482 0.951813 0.946620 0.946595 0.934016 0.932277 0.930798 0.929678 0.929280 0.929738 0.927693 0.929257 0.927405 0.917675 0.910871 0.884905 0.903809 0.896436 0.869199 0.852627 0.855790 0.857905 0.858635 0.856733 0.853485 0.847249 0.838428 0.839929 0.841561 0.846038 0.843273 0.842872 0.842925 0.841880 0.822948 0.807058 0.798432 0.787801 0.787362 0.787444 0.783362 0.775616 0.784370 0.779717 0.776146 0.766699 0.760750 0.738790 0.718302 0.716521 0.724978 0.740603 0.734163 0.709263 0.683434 0.718101 0.703176 0.698093 0.700467 0.696242 0.671500 0.668534 0.673970 0.650553 0.658710 0.657226 0.652558 0.655423 0.640268 0.619875 0.621910 0.609939 0.601063 0.590656 0.591175 0.616980 0.576195 0.567617 0.555023 0.546055 0.547821 0.515084 0.526409 0.532747 0.512736 0.509618 0.492942 0.496011 0.501521 0.499912 0.487911 0.493546 0.482677 0.514295 0.498472 0.494800 0.495818 0.503821 0.485007 0.460969 0.449501 0.449376 0.445447 0.477418 0.475270 0.476168 0.477411 0.469597 0.448844 0.414604 0.402449 0.398268 0.371126 0.381284 0.363067 0.357902 0.379364 0.364001 0.329666 0.298885 0.299944 0.282368 0.272270 0.256058 0.278384 0.240914 0.181030 0.160001 0.151727 0.168830 0.192219 0.203162 0.186229 0.200339 0.238708 0.243923 0.234353 0.252388 0.221194 0.189853 0.206865 0.218189 0.162986 0.174763 0.157396 0.167671 0.167055 0.148716 0.162244 0.110175 0.092914 0.094400 0.117666 0.123685 0.107085 0.114506 0.107718 0.099383 0.112504 0.116769 0.121462 0.106649 0.143070 0.150999 0.153402 0.115582 0.105375 0.104967 0.126111 0.124079 0.124985 0.130858 0.146922 0.154362 0.150704 0.205153 0.214650 0.207354 0.179795 0.189704 0.186548 0.155627 0.150889 0.073827 0.042396 0.042396 0.040817 0.040817 0.040817 0.040817 0.040817 0.040817 0.040817 0.040817 0.040817 0.034113 0.034113 0.034113 0.034113 0.034113 0.034113 0.034113 0.034113 0.034113 0.081986 0.081986 0.081986 0.081986 0.081986 0.081986 0.081986 0.081986 0.081986
0.000000 0.000000 0.000000 0.000000 0.000000 0.000000 0.000000 0.000000 0.000000 0.000000 0.000000 0.000000 0.000000 0.000000 0.000000 0.000000 0.000000 0.000000 0.000000 0.000000 0.000000 0.000000 0.000000 0.000000 0.000000 0.000000 0.000000 0.000000 0.000000 0.000000 0.000000 0.000000 0.000000 0.000000 0.000000 0.000000 0.000000 0.000000 0.000000 0.000000 0.000000 0.000000 0.000000 0.000000 0.000000 0.000000 0.000000 0.000000 0.000000 0.000000 0.000000 0.000000 0.181818 0.181818 0.199007 0.199007 0.199007 0.199007 0.199007 0.199007 0.199007 0.199007 0.199007 0.199007 0.199007 0.199007 0.199007 0.199007 0.199007 0.199007 0.199007 0.199007 0.199007 0.199007 0.199007 0.199007 0.199007 0.199007 0.199007 0.199007 0.199007 0.199007 0.199007 0.199007 0.199007 0.199007 0.199007 0.199007 0.199007 0.199007 0.199007 0.199007 0.199007 0.199007 0.199007 0.230940 0.230940 0.230940 0.230940 0.230940 0.230940 0.230940 0.230940 0.230940 0.230940 0.230940 0.230940 0.230940 0.230940 0.230940 0.230940 0.230940 0.230940 0.230940 0.230940 0.230940 0.230940 0.230940 0.230940 0.230940 0.230940 0.230940 0.230940 0.244339 0.244339 0.244339 0.244339 0.244339 0.244339 0.244339 0.244339 0.244339 0.244339 0.244339 0.244339 0.244339 0.244339 0.244339 0.244339 0.244339 0.244339 0.244339 0.244339 0.244339 0.244339 0.244339 0.251976 0.251976 0.251976 0.251976 0.251976 0.251976 0.251976 0.251976 0.251976 0.251976 0.251976 0.251976 0.251976 0.251976 0.251976 0.251976 0.251976 0.251976 0.251976 0.251976 0.264906 0.264906 0.264906 0.264906 0.264906 0.264906 0.264906 0.264906 0.264906 0.264906 0.264906 0.264906 0.264906 0.264906 0.264906 0.264906 0.264906 0.264906 0.264906 0.264906 0.264906 0.264906 0.264906 0.264906 0.264906 0.264906 0.264906 0.264906 0.264906 0.264906 0.264906 0.264906 0.264906 0.264906 0.264906 0.264906 0.264906 0.264906 0.264906 0.264906 0.264906 0.264906 0.264906 0.264906 0.264906 0.264906 0.264906 0.264906 0.264906 0.264906 0.264906 0.264906 0.264906 0.264906 0.264906 0.264906 0.264906 0.264906 0.264906 0.264906 0.264906 0.264906 0.264906 0.264906 0.264906 0.264906 0.264906 0.264906 0.264906 0.264906 0.264906 0.264906 0.264906 0.264906 0.264906 0.269680 0.269680 0.269680 0.269680 0.269680 0.269680 0.269680 0.269680 0.269680 0.269680 0.269680 0.269680 0.264906 0.264906 0.264906 0.264906 0.264906 0.264906 0.264906 0.264906 0.264906 0.264906 0.264906 0.264906 0.269680 0.269680 0.269680 0.269680 0.269680 0.269680 0.269680 0.269680 0.269680 0.269680 0.269680 0.264906 0.264906 0.264906 0.264906 0.264906 0.264906 0.264906 0.264906 0.264906 0.264906 0.264906 0.256074 0.256074 0.256074 0.256074 0.256074 0.256074 0.256074 0.256074 0.256074 0.256074 0.256074 0.264906 0.264906 0.264906 0.264906 0.264906 0.264906 0.264906 0.264906 0.264906 0.264906 0.260378 0.260378 0.260378 0.260378 0.260378 0.260378 0.260378 0.260378 0.260378 0.260378 0.264906 0.264906 0.264906 0.264906 0.264906 0.264906 0.264906 0.264906 0.264906 0.260378 0.260378 0.260378 0.260378 0.260378 0.260378 0.260378 0.260378 0.260378 0.256074 0.256074 0.256074 0.256074 0.256074 0.256074 0.256074 0.256074 0.256074 0.251976 0.251976 0.251976 0.251976 0.251976 0.251976 0.251976 0.251976 0.251976 0.264906 0.264906 0.264906 0.264906 0.264906 0.264906 0.264906 0.264906 0.264906
