# Output from CTFFind version 4.1.9, run on 2019-11-03 20:06:05
# Input file: stack6_bm3d_averaged_1_7.0_0_1000_half.mrc ; Number of micrographs: 1
# Pixel size: 3.000 Angstroms ; acceleration voltage: 300.0 keV ; spherical aberration: 0.00 mm ; amplitude contrast: 0.07
# Box size: 512 pixels ; min. res.: 30.0 Angstroms ; max. res.: 5.0 Angstroms ; min. def.: 5000.0 um; max. def. 50000.0 um; num. frames averaged: 1
# 6 lines per micrograph: #1 - spatial frequency (1/Angstroms); #2 - 1D rotational average of spectrum (assuming no astigmatism); #3 - 1D rotational average of spectrum; #4 - CTF fit; #5 - cross-correlation between spectrum and CTF fit; #6 - 2sigma of expected cross correlation of noise
0.000000 0.000651 0.001302 0.001953 0.002604 0.003255 0.003906 0.004557 0.005208 0.005859 0.006510 0.007161 0.007812 0.008464 0.009115 0.009766 0.010417 0.011068 0.011719 0.012370 0.013021 0.013672 0.014323 0.014974 0.015625 0.016276 0.016927 0.017578 0.018229 0.018880 0.019531 0.020182 0.020833 0.021484 0.022135 0.022786 0.023438 0.024089 0.024740 0.025391 0.026042 0.026693 0.027344 0.027995 0.028646 0.029297 0.029948 0.030599 0.031250 0.031901 0.032552 0.033203 0.033854 0.034505 0.035156 0.035807 0.036458 0.037109 0.037760 0.038411 0.039062 0.039714 0.040365 0.041016 0.041667 0.042318 0.042969 0.043620 0.044271 0.044922 0.045573 0.046224 0.046875 0.047526 0.048177 0.048828 0.049479 0.050130 0.050781 0.051432 0.052083 0.052734 0.053385 0.054036 0.054688 0.055339 0.055990 0.056641 0.057292 0.057943 0.058594 0.059245 0.059896 0.060547 0.061198 0.061849 0.062500 0.063151 0.063802 0.064453 0.065104 0.065755 0.066406 0.067057 0.067708 0.068359 0.069010 0.069661 0.070312 0.070964 0.071615 0.072266 0.072917 0.073568 0.074219 0.074870 0.075521 0.076172 0.076823 0.077474 0.078125 0.078776 0.079427 0.080078 0.080729 0.081380 0.082031 0.082682 0.083333 0.083984 0.084635 0.085286 0.085938 0.086589 0.087240 0.087891 0.088542 0.089193 0.089844 0.090495 0.091146 0.091797 0.092448 0.093099 0.093750 0.094401 0.095052 0.095703 0.096354 0.097005 0.097656 0.098307 0.098958 0.099609 0.100260 0.100911 0.101562 0.102214 0.102865 0.103516 0.104167 0.104818 0.105469 0.106120 0.106771 0.107422 0.108073 0.108724 0.109375 0.110026 0.110677 0.111328 0.111979 0.112630 0.113281 0.113932 0.114583 0.115234 0.115885 0.116536 0.117188 0.117839 0.118490 0.119141 0.119792 0.120443 0.121094 0.121745 0.122396 0.123047 0.123698 0.124349 0.125000 0.125651 0.126302 0.126953 0.127604 0.128255 0.128906 0.129557 0.130208 0.130859 0.131510 0.132161 0.132812 0.133464 0.134115 0.134766 0.135417 0.136068 0.136719 0.137370 0.138021 0.138672 0.139323 0.139974 0.140625 0.141276 0.141927 0.142578 0.143229 0.143880 0.144531 0.145182 0.145833 0.146484 0.147135 0.147786 0.148438 0.149089 0.149740 0.150391 0.151042 0.151693 0.152344 0.152995 0.153646 0.154297 0.154948 0.155599 0.156250 0.156901 0.157552 0.158203 0.158854 0.159505 0.160156 0.160807 0.161458 0.162109 0.162760 0.163411 0.164062 0.164714 0.165365 0.166016 0.166667 0.167318 0.167969 0.168620 0.169271 0.169922 0.170573 0.171224 0.171875 0.172526 0.173177 0.173828 0.174479 0.175130 0.175781 0.176432 0.177083 0.177734 0.178385 0.179036 0.179688 0.180339 0.180990 0.181641 0.182292 0.182943 0.183594 0.184245 0.184896 0.185547 0.186198 0.186849 0.187500 0.188151 0.188802 0.189453 0.190104 0.190755 0.191406 0.192057 0.192708 0.193359 0.194010 0.194661 0.195312 0.195964 0.196615 0.197266 0.197917 0.198568 0.199219 0.199870 0.200521 0.201172 0.201823 0.202474 0.203125 0.203776 0.204427 0.205078 0.205729 0.206380 0.207031 0.207682 0.208333 0.208984 0.209635 0.210286 0.210938 0.211589 0.212240 0.212891 0.213542 0.214193 0.214844 0.215495 0.216146 0.216797 0.217448 0.218099 0.218750 0.219401 0.220052 0.220703 0.221354 0.222005 0.222656 0.223307 0.223958 0.224609 0.225260 0.225911 0.226562 0.227214 0.227865 0.228516 0.229167 0.229818 0.230469 0.231120 0.231771 0.232422 0.233073 0.233724 0.234375 0.235026 0.235677
       0.33194        0.33194        0.33194        0.33194        0.33194        0.33194        0.33194        0.33194        0.33194        0.33194        0.33194        0.33194        0.33194        0.33194        0.33194        0.33194        0.33194        0.33194        0.33194        0.33194        0.33194        0.33194        0.33194        0.33194        0.33194        0.33194        0.33194        0.33194        0.33194        0.33194        0.33194        0.33194        0.33194        0.33194        0.33194        0.33194        0.33194        0.33194        0.33194        0.33194        0.33194        0.33194        0.33194        0.33194        0.33194        0.33194        0.33194        0.33194        0.33194        0.33194        0.33194        0.59621        0.70932        0.36538        0.17309        0.13923       -0.12917        0.11288        0.04097        0.04348        0.09396        0.30956        0.30784        0.23666        0.14229       -0.03714       -0.00974        0.05183       -0.09057       -0.09704       -0.06886       -0.07574       -0.17487       -0.11146       -0.22073       -0.23972       -0.23765       -0.29631       -0.36735       -0.29641       -0.20520       -0.17014       -0.27710       -0.20176       -0.24237       -0.18367       -0.12334       -0.06502       -0.03673        0.01905        0.06712        0.15069        0.19198        0.23414        0.34675        0.41154        0.36140        0.48279        0.54579        0.55425        0.63044        0.55525        0.58493        0.60376        0.60483        0.59568        0.55967        0.59585        0.54236        0.39861        0.35403        0.37764        0.34450        0.21234        0.20262        0.17289        0.11650        0.11446        0.04232        0.10853        0.08693        0.05354        0.13488        0.18977        0.27698        0.34995        0.36586        0.39736        0.44888        0.48217        0.42259        0.63823        0.55010        0.48244        0.56996        0.50340        0.55770        0.51710        0.39024        0.32806        0.31368        0.26764        0.25756        0.21559        0.19737        0.17499        0.26599        0.24394        0.26459        0.23477        0.27555        0.33847        0.33861        0.45038        0.44579        0.43177        0.41828        0.48147        0.43603        0.41751        0.40749        0.39813        0.33722        0.28458        0.28128        0.27109        0.26966        0.21526        0.20327        0.25239        0.26838        0.29021        0.35202        0.38601        0.42775        0.41646        0.43010        0.48988        0.47406        0.43051        0.38393        0.41842        0.38152        0.33114        0.34047        0.33132        0.27296        0.28481        0.28131        0.25670        0.32155        0.30010        0.31902        0.33859        0.39929        0.42244        0.41307        0.44201        0.39086        0.43341        0.40566        0.33379        0.30098        0.27454        0.28589        0.25778        0.22718        0.31441        0.37668        0.33869        0.31067        0.36676        0.29242        0.35068        0.40303        0.38826        0.36643        0.38093        0.34814        0.36378        0.33659        0.30710        0.28910        0.26949        0.32143        0.33309        0.35209        0.36669        0.38964        0.37291        0.37012        0.32742        0.35709        0.36462        0.34535        0.33006        0.29226        0.28964        0.27104        0.34118        0.33757        0.34882        0.31799        0.34988        0.37142        0.33990        0.35767        0.34931        0.31528        0.31158        0.31004        0.28266        0.27280        0.26322        0.25488        0.27534        0.26827        0.30522        0.27768        0.31878        0.36006        0.26453        0.29674        0.28389        0.24803        0.30289        0.28529        0.28629        0.31248        0.32893        0.32961        0.31770        0.31605        0.31312        0.35964        0.35947        0.30390        0.32857        0.32044        0.37051        0.28140        0.27911        0.29502        0.30778        0.33271        0.36591        0.35883        0.29836        0.23423        0.29852        0.26776        0.25916        0.26092        0.27542        0.30865        0.23867        0.30684        0.33216        0.36726        0.31237        0.31538        0.28287        0.29568        0.29253        0.26558        0.28832        0.27179        0.28780        0.35256        0.34828        0.28591        0.32411        0.33158        0.26303        0.23209        0.18861        0.33185        0.33058        0.36091        0.34469        0.29476        0.23138        0.22069        0.27561        0.27059        0.27065        0.29195        0.29278        0.24687        0.28140        0.28117        0.31019        0.28200        0.27912        0.27448        0.24840        0.22989        0.28552        0.25085        0.21814        0.26453        0.25709        0.26294        0.22543        0.20486        0.27254        0.29953        0.27728        0.20058        0.14668        0.29324        0.22744        0.25676        0.27556        0.16919        0.16371        0.20012        0.24349        0.29398        0.09826       -0.11080       -0.60657       -0.96328
2.419919 2.399417 2.379006 2.358685 2.338456 2.318317 2.298269 2.278311 2.258444 2.238668 2.218983 2.199389 2.179886 2.160473 2.141151 2.121920 2.102779 2.083730 2.064771 2.045903 2.027126 2.008439 1.989844 1.971339 1.952925 1.934601 1.916369 1.898227 1.880176 1.862216 1.844346 1.826568 1.808880 1.791283 1.773777 1.756361 1.739037 1.721803 1.704659 1.687607 1.670645 1.653775 1.636995 1.620305 1.603707 1.587199 1.570782 1.554456 1.538221 1.522076 1.506023 1.864171 2.205587 1.530786 1.330672 1.104495 0.519228 0.934258 0.804757 0.845731 0.701308 1.423277 1.195671 1.212361 0.987225 0.598004 0.470589 0.748127 0.602062 0.281676 0.273001 0.487760 0.246693 0.264577 0.109854 -0.002288 -0.016315 -0.009514 -0.320183 -0.144570 0.012862 0.007437 -0.081835 -0.013936 -0.105777 -0.085590 0.068750 0.196539 0.259588 0.281192 0.385780 0.631282 0.563568 0.668264 0.829736 1.062629 0.805656 1.267742 1.195205 1.271367 1.371680 1.263555 1.164079 1.373835 1.238668 1.349409 1.205857 1.203948 1.222705 0.965165 0.714559 0.749874 0.796797 0.484158 0.446792 0.372513 0.239681 0.197872 0.035724 0.232694 0.174686 0.058937 0.140180 0.238013 0.363232 0.608161 0.611262 0.627629 0.697799 0.881371 0.594345 1.028992 1.053804 0.776065 0.927991 0.770931 0.886434 0.919039 0.651098 0.407881 0.437794 0.385247 0.222581 0.242402 0.163415 -0.014552 0.251799 0.230438 0.261744 0.156264 0.250672 0.334464 0.278102 0.501901 0.603658 0.554787 0.366030 0.652664 0.560762 0.421983 0.539881 0.436316 0.270529 0.314973 0.138206 0.214985 0.025915 0.216119 -0.055471 0.058054 0.066038 0.259274 0.051174 0.399905 0.350511 0.405025 0.382171 0.418732 0.589946 0.409800 0.347878 0.402530 0.198311 0.360516 0.110433 0.268702 0.065390 0.092258 0.082369 0.063130 0.046717 0.159382 0.059350 0.158687 0.242202 0.287369 0.330403 0.265111 0.346333 0.264240 0.293813 0.185212 0.104513 0.019604 -0.008303 0.017886 -0.065398 -0.070762 0.127087 0.219174 0.055153 0.108766 0.128763 0.008698 0.189656 0.258498 0.188875 0.184144 0.131146 0.168502 0.107781 0.098559 0.046931 -0.086679 -0.003344 0.134926 0.051724 0.153699 0.133531 0.221705 0.182248 0.157073 0.107826 0.188378 0.101406 0.143623 0.093497 0.012196 -0.011717 -0.010799 0.130243 0.124103 0.129654 0.060332 0.152452 0.159674 0.046606 0.144580 0.052804 -0.008299 0.027066 0.008153 -0.059139 -0.062188 -0.116149 -0.048384 -0.053931 -0.096316 0.012716 -0.043985 0.048069 0.101731 -0.111359 0.025530 -0.050945 -0.098917 0.048884 -0.027098 -0.062831 0.043116 0.098462 0.030536 0.059787 -0.044874 0.028229 0.199110 0.009392 -0.043991 0.082592 0.041617 0.114386 -0.107638 -0.047637 -0.008543 0.047375 0.058256 0.099866 0.133246 -0.046282 -0.108365 0.008348 -0.063120 -0.066725 -0.047469 -0.047784 0.050378 -0.176544 0.125903 0.125895 0.183835 0.038804 0.049408 0.029673 0.030506 0.093766 -0.030279 0.038530 0.009369 0.056849 0.140033 0.189164 0.043176 0.162359 0.172142 -0.040080 -0.008744 -0.162529 0.234492 0.137710 0.214079 0.169568 0.031656 -0.062975 -0.091032 0.011260 0.008037 -0.017121 0.043860 0.050763 -0.078068 0.014387 0.105694 0.071639 0.039793 0.010169 0.057333 -0.099768 -0.018502 0.053272 -0.027152 -0.112716 0.047177 -0.008489 -0.038312 -0.032258 -0.110765 0.084218 0.123821 0.001319 -0.089782 -0.339898 0.202199 0.511682 0.446874 0.575756 0.267232 0.324224 0.398079 0.512766 0.563777 0.061962 0.032928 -0.925545
0.072396 0.072838 0.074163 0.076371 0.079462 0.083435 0.088289 0.094022 0.100634 0.108122 0.116484 0.125716 0.135815 0.146776 0.158594 0.171262 0.184772 0.199116 0.214282 0.230259 0.247032 0.264586 0.282903 0.301961 0.321739 0.342209 0.363344 0.385111 0.407474 0.430396 0.453833 0.477738 0.502061 0.526747 0.551735 0.576960 0.602354 0.627843 0.653346 0.678779 0.704051 0.729069 0.753731 0.777931 0.801559 0.824499 0.846629 0.867825 0.887956 0.906890 0.924488 0.940610 0.955112 0.967851 0.978680 0.987451 0.994019 0.998237 0.999964 0.999060 0.995388 0.988821 0.979236 0.966518 0.950564 0.931282 0.908590 0.882425 0.852736 0.819493 0.782682 0.742313 0.698416 0.651047 0.600285 0.546238 0.489041 0.428857 0.365881 0.300336 0.232478 0.162594 0.091002 0.018050 0.055883 0.130388 0.205031 0.279348 0.352856 0.425047 0.495396 0.563366 0.628407 0.689964 0.747479 0.800402 0.848190 0.890315 0.926273 0.955588 0.977820 0.992569 0.999485 0.998277 0.988713 0.970632 0.943948 0.908657 0.864842 0.812675 0.752424 0.684454 0.609231 0.527317 0.439375 0.346165 0.248540 0.147440 0.043885 0.061028 0.166143 0.270251 0.372106 0.470437 0.563965 0.651424 0.731572 0.803218 0.865233 0.916578 0.956321 0.983654 0.997916 0.998607 0.985407 0.958192 0.917039 0.862242 0.794319 0.714007 0.622269 0.520285 0.409446 0.291336 0.167716 0.040506 0.088250 0.216406 0.341757 0.462066 0.575119 0.678750 0.770902 0.849658 0.913296 0.960323 0.989521 0.999980 0.991137 0.962795 0.915150 0.848800 0.764752 0.664419 0.549605 0.422480 0.285552 0.141622 0.006269 0.154897 0.300927 0.440980 0.571721 0.689935 0.792613 0.877034 0.940842 0.982127 0.999484 0.992074 0.959665 0.902665 0.822136 0.719788 0.597962 0.459586 0.308120 0.147478 0.018066 0.183983 0.345614 0.498297 0.637510 0.759000 0.858929 0.934004 0.981593 0.999836 0.987727 0.945176 0.873050 0.773168 0.648289 0.502048 0.338864 0.163824 0.017463 0.199040 0.374797 0.538674 0.684877 0.808085 0.903659 0.967832 0.997874 0.992225 0.950588 0.873990 0.764777 0.626575 0.464192 0.283467 0.091080 0.105682 0.299199 0.481803 0.646095 0.785242 0.893285 0.965408 0.998170 0.989698 0.939809 0.850073 0.723801 0.565943 0.382939 0.182460 0.026882 0.235900 0.435226 0.615737 0.768976 0.887568 0.965597 0.998919 0.985421 0.925170 0.820481 0.675864 0.497862 0.294798 0.076395 0.146661 0.363236 0.562304 0.733521 0.867767 0.957665 0.998014 0.986118 0.922006 0.808499 0.651135 0.457938 0.239048 0.006209 0.227834 0.450029 0.647754 0.809529 0.925727 0.989163 0.995583 0.943987 0.836772 0.679681 0.481538 0.253798 0.009912 0.235431 0.467203 0.670938 0.833664 0.944749 0.996643 0.985427 0.911160 0.777971 0.593885 0.370404 0.121820 0.135662 0.384967 0.609279 0.793179 0.923751 0.991510 0.991152 0.922021 0.788260 0.598637 0.366026 0.106581 0.161341 0.418481 0.646035 0.827068 0.947796 0.998685 0.975268 0.878586 0.715243 0.497021 0.240102 0.036101 0.310362 0.561273 0.768927 0.916516 0.991754 0.987952 0.904681 0.747947 0.529842 0.267673 0.017345 0.301778 0.561874 0.775578 0.924413 0.995148 0.981031 0.882517 0.707374 0.470168 0.191118 0.105567 0.393759 0.647693 0.844311 0.965377 0.999256 0.942097 0.798357 0.580554 0.308267 0.006448 0.296823 0.572914 0.795383 0.942524 0.999570 0.960250 0.827572 0.613716 0.339009 0.030078 0.282680 0.568056 0.797160 0.946401 0.999962
1.000000 1.000000 1.000000 1.000000 1.000000 1.000000 1.000000 1.000000 1.000000 1.000000 1.000000 1.000000 1.000000 1.000000 1.000000 1.000000 1.000000 1.000000 1.000000 1.000000 1.000000 1.000000 1.000000 1.000000 1.000000 1.000000 1.000000 1.000000 1.000000 1.000000 1.000000 1.000000 1.000000 1.000000 1.000000 1.000000 1.000000 1.000000 1.000000 1.000000 1.000000 1.000000 1.000000 1.000000 1.000000 1.000000 1.000000 1.000000 1.000000 1.000000 1.000000 1.000000 0.770775 0.770775 0.770775 0.770775 0.770775 0.770775 0.770775 0.759572 0.759572 0.759572 0.759572 0.759572 0.759572 0.759572 0.759572 0.759572 0.759572 0.759572 0.759572 0.759572 0.759572 0.759572 0.759572 0.759572 0.759572 0.759572 0.759572 0.759572 0.759572 0.759572 0.759572 0.759572 0.759572 0.759572 0.759572 0.759572 0.759572 0.759572 0.759572 0.759572 0.759572 0.759572 0.759572 0.759572 0.759572 0.759572 0.759572 0.759572 0.759572 0.759572 0.759572 0.899993 0.901465 0.904529 0.899950 0.901884 0.899723 0.893291 0.896218 0.896839 0.896650 0.897442 0.899096 0.901102 0.908437 0.917346 0.919234 0.926212 0.929645 0.929627 0.931142 0.929756 0.937232 0.934734 0.932963 0.921057 0.924469 0.926370 0.925379 0.924219 0.921044 0.927466 0.926061 0.923983 0.918700 0.914781 0.912870 0.914510 0.912273 0.912470 0.912655 0.913277 0.911483 0.912092 0.908245 0.909189 0.908089 0.904537 0.901526 0.901243 0.902631 0.900940 0.897564 0.891289 0.897250 0.897407 0.896771 0.895680 0.895890 0.896684 0.897458 0.898125 0.895687 0.895739 0.893149 0.894925 0.891287 0.886531 0.880386 0.880638 0.883121 0.890265 0.892310 0.890986 0.888166 0.879887 0.869252 0.867166 0.855370 0.820802 0.822684 0.826570 0.828721 0.829311 0.828390 0.824593 0.820126 0.811659 0.802590 0.807395 0.807961 0.800412 0.796199 0.797122 0.797776 0.805160 0.808702 0.800503 0.797436 0.800392 0.796374 0.797585 0.801510 0.794919 0.791557 0.798248 0.806429 0.806568 0.791140 0.786819 0.784478 0.772361 0.779466 0.786036 0.786173 0.787576 0.784561 0.772859 0.771411 0.764578 0.775303 0.782596 0.781863 0.776946 0.759836 0.716663 0.703055 0.670558 0.669491 0.671081 0.637280 0.637428 0.638988 0.643473 0.587556 0.565218 0.551254 0.552078 0.560894 0.565878 0.559935 0.533261 0.551244 0.547848 0.533441 0.529409 0.509854 0.495811 0.477050 0.479679 0.478981 0.471086 0.440504 0.441000 0.460725 0.469831 0.465233 0.461635 0.433725 0.413125 0.413207 0.405958 0.405872 0.411703 0.420336 0.363871 0.340755 0.326695 0.355501 0.354493 0.352846 0.369646 0.361873 0.355376 0.330576 0.310128 0.282118 0.294563 0.315111 0.318750 0.322462 0.290461 0.280626 0.264388 0.268668 0.313755 0.302320 0.324136 0.328934 0.333926 0.360174 0.333103 0.309444 0.286905 0.330049 0.335532 0.308540 0.300222 0.314219 0.328122 0.327588 0.323537 0.317823 0.364987 0.370864 0.350296 0.350742 0.317721 0.339139 0.371015 0.368014 0.373410 0.383819 0.389355 0.354922 0.283107 0.255320 0.258552 0.234871 0.234460 0.220233 0.205107 0.196841 0.209009 0.231049 0.237184 0.269709 0.238487 0.194280 0.102903 0.170175 0.087409 0.100234 0.100234 0.100234 0.100234 0.100234 0.100234 0.100234 0.100234 0.135773 0.135773 0.135773 0.135773 0.135773 0.135773 0.135773 0.135773 0.135773 0.135773 0.135773 0.135773 0.135773 0.135773 0.135773 0.135773 0.135773 0.135773 0.135773 0.135773 0.135773
0.000000 0.000000 0.000000 0.000000 0.000000 0.000000 0.000000 0.000000 0.000000 0.000000 0.000000 0.000000 0.000000 0.000000 0.000000 0.000000 0.000000 0.000000 0.000000 0.000000 0.000000 0.000000 0.000000 0.000000 0.000000 0.000000 0.000000 0.000000 0.000000 0.000000 0.000000 0.000000 0.000000 0.000000 0.000000 0.000000 0.000000 0.000000 0.000000 0.000000 0.000000 0.000000 0.000000 0.000000 0.000000 0.000000 0.000000 0.000000 0.000000 0.000000 0.000000 0.000000 0.173422 0.173422 0.173422 0.173422 0.173422 0.173422 0.173422 0.191565 0.191565 0.191565 0.191565 0.191565 0.191565 0.191565 0.191565 0.191565 0.191565 0.191565 0.191565 0.191565 0.191565 0.191565 0.191565 0.191565 0.191565 0.191565 0.191565 0.191565 0.191565 0.191565 0.191565 0.191565 0.191565 0.191565 0.191565 0.191565 0.191565 0.191565 0.191565 0.191565 0.191565 0.191565 0.191565 0.191565 0.191565 0.191565 0.191565 0.191565 0.191565 0.191565 0.191565 0.222222 0.222222 0.222222 0.222222 0.222222 0.222222 0.222222 0.222222 0.222222 0.222222 0.222222 0.222222 0.222222 0.222222 0.222222 0.222222 0.222222 0.222222 0.222222 0.222222 0.222222 0.222222 0.222222 0.222222 0.222222 0.222222 0.222222 0.222222 0.222222 0.222222 0.234082 0.234082 0.234082 0.234082 0.234082 0.234082 0.234082 0.234082 0.234082 0.234082 0.234082 0.234082 0.234082 0.234082 0.234082 0.234082 0.234082 0.234082 0.234082 0.234082 0.234082 0.234082 0.234082 0.234082 0.234082 0.244339 0.244339 0.244339 0.244339 0.244339 0.244339 0.244339 0.244339 0.244339 0.244339 0.244339 0.244339 0.244339 0.244339 0.244339 0.244339 0.244339 0.244339 0.244339 0.244339 0.244339 0.248069 0.248069 0.248069 0.248069 0.248069 0.248069 0.248069 0.248069 0.248069 0.248069 0.248069 0.248069 0.248069 0.248069 0.248069 0.248069 0.248069 0.248069 0.248069 0.256074 0.256074 0.256074 0.256074 0.256074 0.256074 0.256074 0.256074 0.256074 0.256074 0.256074 0.256074 0.256074 0.256074 0.256074 0.256074 0.256074 0.256074 0.256074 0.256074 0.256074 0.256074 0.256074 0.256074 0.256074 0.256074 0.256074 0.256074 0.256074 0.256074 0.256074 0.256074 0.256074 0.256074 0.256074 0.256074 0.256074 0.256074 0.256074 0.256074 0.256074 0.256074 0.256074 0.256074 0.256074 0.256074 0.256074 0.256074 0.256074 0.256074 0.256074 0.256074 0.256074 0.256074 0.256074 0.256074 0.256074 0.256074 0.256074 0.256074 0.256074 0.256074 0.260378 0.260378 0.260378 0.260378 0.260378 0.260378 0.260378 0.260378 0.260378 0.260378 0.260378 0.260378 0.260378 0.256074 0.256074 0.256074 0.256074 0.256074 0.256074 0.256074 0.256074 0.256074 0.256074 0.256074 0.256074 0.256074 0.260378 0.260378 0.260378 0.260378 0.260378 0.260378 0.260378 0.260378 0.260378 0.260378 0.260378 0.260378 0.251976 0.251976 0.251976 0.251976 0.251976 0.251976 0.251976 0.251976 0.251976 0.251976 0.251976 0.251976 0.256074 0.256074 0.256074 0.256074 0.256074 0.256074 0.256074 0.256074 0.256074 0.256074 0.256074 0.251976 0.251976 0.251976 0.251976 0.251976 0.251976 0.251976 0.251976 0.251976 0.251976 0.251976 0.260378 0.260378 0.260378 0.260378 0.260378 0.260378 0.260378 0.260378 0.260378 0.260378 0.244339 0.244339 0.244339 0.244339 0.244339 0.244339 0.244339 0.244339 0.244339 0.244339 0.244339 0.244339 0.244339 0.244339 0.244339 0.244339 0.244339 0.244339 0.244339 0.244339 0.244339
