# Output from CTFFind version 4.1.9, run on 2019-11-02 17:46:51
# Input file: stack11_bm3d_averaged_1_1.5_0_1250_half.mrc ; Number of micrographs: 1
# Pixel size: 3.000 Angstroms ; acceleration voltage: 300.0 keV ; spherical aberration: 0.00 mm ; amplitude contrast: 0.07
# Box size: 512 pixels ; min. res.: 30.0 Angstroms ; max. res.: 5.0 Angstroms ; min. def.: 5000.0 um; max. def. 50000.0 um; num. frames averaged: 1
# 6 lines per micrograph: #1 - spatial frequency (1/Angstroms); #2 - 1D rotational average of spectrum (assuming no astigmatism); #3 - 1D rotational average of spectrum; #4 - CTF fit; #5 - cross-correlation between spectrum and CTF fit; #6 - 2sigma of expected cross correlation of noise
0.000000 0.000651 0.001302 0.001953 0.002604 0.003255 0.003906 0.004557 0.005208 0.005859 0.006510 0.007161 0.007812 0.008464 0.009115 0.009766 0.010417 0.011068 0.011719 0.012370 0.013021 0.013672 0.014323 0.014974 0.015625 0.016276 0.016927 0.017578 0.018229 0.018880 0.019531 0.020182 0.020833 0.021484 0.022135 0.022786 0.023438 0.024089 0.024740 0.025391 0.026042 0.026693 0.027344 0.027995 0.028646 0.029297 0.029948 0.030599 0.031250 0.031901 0.032552 0.033203 0.033854 0.034505 0.035156 0.035807 0.036458 0.037109 0.037760 0.038411 0.039062 0.039714 0.040365 0.041016 0.041667 0.042318 0.042969 0.043620 0.044271 0.044922 0.045573 0.046224 0.046875 0.047526 0.048177 0.048828 0.049479 0.050130 0.050781 0.051432 0.052083 0.052734 0.053385 0.054036 0.054688 0.055339 0.055990 0.056641 0.057292 0.057943 0.058594 0.059245 0.059896 0.060547 0.061198 0.061849 0.062500 0.063151 0.063802 0.064453 0.065104 0.065755 0.066406 0.067057 0.067708 0.068359 0.069010 0.069661 0.070312 0.070964 0.071615 0.072266 0.072917 0.073568 0.074219 0.074870 0.075521 0.076172 0.076823 0.077474 0.078125 0.078776 0.079427 0.080078 0.080729 0.081380 0.082031 0.082682 0.083333 0.083984 0.084635 0.085286 0.085938 0.086589 0.087240 0.087891 0.088542 0.089193 0.089844 0.090495 0.091146 0.091797 0.092448 0.093099 0.093750 0.094401 0.095052 0.095703 0.096354 0.097005 0.097656 0.098307 0.098958 0.099609 0.100260 0.100911 0.101562 0.102214 0.102865 0.103516 0.104167 0.104818 0.105469 0.106120 0.106771 0.107422 0.108073 0.108724 0.109375 0.110026 0.110677 0.111328 0.111979 0.112630 0.113281 0.113932 0.114583 0.115234 0.115885 0.116536 0.117188 0.117839 0.118490 0.119141 0.119792 0.120443 0.121094 0.121745 0.122396 0.123047 0.123698 0.124349 0.125000 0.125651 0.126302 0.126953 0.127604 0.128255 0.128906 0.129557 0.130208 0.130859 0.131510 0.132161 0.132812 0.133464 0.134115 0.134766 0.135417 0.136068 0.136719 0.137370 0.138021 0.138672 0.139323 0.139974 0.140625 0.141276 0.141927 0.142578 0.143229 0.143880 0.144531 0.145182 0.145833 0.146484 0.147135 0.147786 0.148438 0.149089 0.149740 0.150391 0.151042 0.151693 0.152344 0.152995 0.153646 0.154297 0.154948 0.155599 0.156250 0.156901 0.157552 0.158203 0.158854 0.159505 0.160156 0.160807 0.161458 0.162109 0.162760 0.163411 0.164062 0.164714 0.165365 0.166016 0.166667 0.167318 0.167969 0.168620 0.169271 0.169922 0.170573 0.171224 0.171875 0.172526 0.173177 0.173828 0.174479 0.175130 0.175781 0.176432 0.177083 0.177734 0.178385 0.179036 0.179688 0.180339 0.180990 0.181641 0.182292 0.182943 0.183594 0.184245 0.184896 0.185547 0.186198 0.186849 0.187500 0.188151 0.188802 0.189453 0.190104 0.190755 0.191406 0.192057 0.192708 0.193359 0.194010 0.194661 0.195312 0.195964 0.196615 0.197266 0.197917 0.198568 0.199219 0.199870 0.200521 0.201172 0.201823 0.202474 0.203125 0.203776 0.204427 0.205078 0.205729 0.206380 0.207031 0.207682 0.208333 0.208984 0.209635 0.210286 0.210938 0.211589 0.212240 0.212891 0.213542 0.214193 0.214844 0.215495 0.216146 0.216797 0.217448 0.218099 0.218750 0.219401 0.220052 0.220703 0.221354 0.222005 0.222656 0.223307 0.223958 0.224609 0.225260 0.225911 0.226562 0.227214 0.227865 0.228516 0.229167 0.229818 0.230469 0.231120 0.231771 0.232422 0.233073 0.233724 0.234375 0.235026 0.235677
       0.31657        0.31657        0.31657        0.31657        0.31657        0.31657        0.31657        0.31657        0.31657        0.31657        0.31657        0.31657        0.31657        0.31657        0.31657        0.31657        0.31657        0.31657        0.31657        0.31657        0.31657        0.31657        0.31657        0.31657        0.31657        0.31657        0.31657        0.31657        0.31657        0.31657        0.31657        0.31657        0.31657        0.31657        0.31657        0.31657        0.31657        0.31657        0.31657        0.31657        0.31657        0.31657        0.31657        0.31657        0.31657        0.31657        0.31657        0.31657        0.31657        0.31657        0.31657        0.68280        0.86836        0.52202        0.08742       -0.06441       -0.42563       -0.20558       -0.29667       -0.11834       -0.07746       -0.11955       -0.06931       -0.20804       -0.23553       -0.25798       -0.33132       -0.33879       -0.48980       -0.38270       -0.46598       -0.44909       -0.42187       -0.46881       -0.54193       -0.56166       -0.58769       -0.62300       -0.57817       -0.41525       -0.37857       -0.33126       -0.31492       -0.21166       -0.19975        0.01856        0.07360        0.10582        0.22501        0.37070        0.44241        0.51594        0.55834        0.55272        0.57102        0.69751        0.81164        0.74061        0.73316        0.66798        0.57875        0.48376        0.40596        0.49343        0.37486        0.20314        0.07737        0.04537        0.01137       -0.06176       -0.03953       -0.02167       -0.07119       -0.00866       -0.02029        0.21277        0.25074        0.28971        0.42927        0.46143        0.40338        0.53512        0.62517        0.69774        0.76236        0.68818        0.65641        0.69697        0.58436        0.50065        0.41853        0.28968        0.18849        0.15568        0.10883        0.03695        0.01121       -0.00016        0.07524        0.13208        0.20443        0.28007        0.39861        0.41752        0.50776        0.60063        0.63291        0.61621        0.62900        0.55330        0.44666        0.44729        0.35212        0.22804        0.18285        0.14762        0.10964        0.12235        0.07015        0.10218        0.22692        0.26205        0.34146        0.35365        0.45111        0.51300        0.53727        0.54886        0.46972        0.42906        0.38957        0.36710        0.30635        0.25074        0.20204        0.18616        0.16229        0.19236        0.17792        0.26902        0.33274        0.36572        0.42440        0.45969        0.47697        0.44216        0.39375        0.41352        0.37347        0.28575        0.27079        0.22453        0.21324        0.19414        0.21490        0.22903        0.32785        0.37264        0.36807        0.46148        0.43566        0.43722        0.42844        0.39438        0.34438        0.32741        0.27758        0.24024        0.23702        0.27008        0.27217        0.30075        0.30187        0.33702        0.32842        0.40810        0.41771        0.37571        0.34565        0.36486        0.28062        0.27981        0.26081        0.27714        0.26074        0.27997        0.29129        0.31081        0.34832        0.35903        0.35997        0.33464        0.35168        0.28667        0.32249        0.26760        0.24425        0.28443        0.28392        0.30930        0.31204        0.32938        0.32562        0.31311        0.31775        0.28620        0.28688        0.26002        0.28222        0.26641        0.30828        0.28296        0.26581        0.30742        0.31077        0.31561        0.28517        0.29925        0.28638        0.24869        0.24297        0.21844        0.28011        0.27546        0.31815        0.31336        0.32115        0.31741        0.30678        0.27502        0.28519        0.32927        0.26780        0.25926        0.29290        0.28998        0.33940        0.33479        0.35577        0.33247        0.31010        0.28297        0.26634        0.25917        0.22538        0.27004        0.30498        0.29619        0.27913        0.29428        0.26815        0.32348        0.33128        0.24964        0.21858        0.27295        0.33475        0.27727        0.30910        0.32585        0.32513        0.29854        0.32187        0.34327        0.29884        0.28870        0.25658        0.28148        0.35262        0.35642        0.26249        0.26545        0.25473        0.28502        0.22050        0.29133        0.22349        0.25095        0.33501        0.32117        0.34914        0.29716        0.23985        0.23664        0.23950        0.23234        0.18580        0.22389        0.26441        0.29910        0.26944        0.30788        0.29889        0.27415        0.27701        0.20901        0.17029        0.19229        0.22902        0.19667        0.21127        0.22849        0.20213        0.25230        0.34451        0.30092        0.31479        0.22405        0.24834        0.22731        0.28622        0.29842        0.14560        0.22812        0.22337        0.11083        0.22104        0.11155        0.15160        0.22138        0.12673       -0.12434       -0.61441
2.588239 2.561229 2.534366 2.507649 2.481078 2.454654 2.428376 2.402244 2.376259 2.350421 2.324729 2.299183 2.273784 2.248531 2.223425 2.198465 2.173651 2.148984 2.124463 2.100089 2.075861 2.051780 2.027845 2.004056 1.980414 1.956918 1.933569 1.910366 1.887310 1.864400 1.841637 1.819019 1.796549 1.774225 1.752047 1.730015 1.708130 1.686392 1.664800 1.643354 1.622055 1.600902 1.579896 1.559036 1.538322 1.517755 1.497334 1.477060 1.456932 1.436951 1.417116 1.638075 2.045296 1.618102 1.130106 0.989382 0.420365 0.813896 0.560790 0.834359 0.772548 0.787369 0.750909 0.710828 0.562524 0.514078 0.484274 0.442148 0.205984 0.379488 0.201763 0.307728 0.235900 0.180835 0.132326 0.006038 0.040048 -0.013204 -0.056288 0.104617 0.207303 0.192867 0.154139 0.332640 0.197443 0.496305 0.579431 0.551904 0.594386 0.877527 0.810712 0.946719 0.889625 0.974611 0.943977 1.081061 1.140333 1.075428 1.129454 0.951168 0.942578 0.785552 0.651328 0.771943 0.707561 0.462058 0.309156 0.251628 0.215869 0.147587 0.089243 0.129221 0.071014 0.150674 0.053714 0.262971 0.380388 0.358861 0.481323 0.580402 0.465997 0.548863 0.698319 0.743195 0.781882 0.731378 0.733553 0.714275 0.627866 0.568476 0.429141 0.287849 0.208869 0.078445 0.133463 -0.043739 -0.031228 -0.078635 -0.038443 0.003978 0.148313 0.088105 0.299507 0.279291 0.364430 0.454976 0.524387 0.507688 0.520746 0.506732 0.334730 0.310526 0.281482 0.099330 0.049122 -0.007526 -0.030899 -0.039987 -0.088175 -0.103136 -0.007646 0.056575 0.133512 0.144405 0.229318 0.332254 0.312400 0.410134 0.398095 0.284942 0.231710 0.245611 0.204007 0.104287 0.076853 0.018452 0.001492 0.008823 -0.014790 0.059000 0.148360 0.143020 0.232394 0.254129 0.305469 0.257147 0.223088 0.184280 0.213286 0.143823 0.045309 0.041595 -0.010084 -0.011352 -0.031376 0.017587 0.017071 0.168982 0.129779 0.182841 0.237960 0.200342 0.190362 0.196179 0.141689 0.103466 0.063423 0.049793 -0.033909 0.008420 0.023991 0.056127 0.052426 0.078865 0.095665 0.122556 0.137851 0.187925 0.079945 0.098283 0.073726 0.000668 0.004549 0.008494 -0.007665 0.018531 0.006063 0.029056 0.066315 0.079839 0.123354 0.050401 0.102487 0.055505 0.014283 0.062722 -0.036706 -0.014781 0.026041 0.003049 0.056934 0.052371 0.050681 0.056471 0.054860 0.046298 0.023069 -0.000016 0.011920 0.015423 -0.009776 0.071322 -0.013922 0.013495 0.058842 0.048968 0.037410 0.044871 0.038477 0.018841 -0.016604 -0.037346 -0.015838 0.022656 0.029808 0.072391 0.061040 0.064695 0.083999 0.066310 0.024364 0.066915 0.087857 0.015887 0.019383 0.060996 0.053054 0.103580 0.109569 0.112899 0.119703 0.070103 0.046492 0.036007 0.004535 0.002326 0.053818 0.085296 0.049220 0.035949 0.028320 0.022341 0.096648 0.063901 -0.046187 -0.049623 0.033015 0.096949 0.007346 0.026905 0.064369 0.088334 0.026754 0.060604 0.083204 0.036549 0.035924 -0.041255 0.024248 0.113127 0.074220 -0.047882 -0.022549 -0.045641 0.029494 -0.109325 0.040131 -0.103076 -0.029980 0.059446 0.036557 0.033444 -0.040464 -0.064857 -0.085931 -0.086237 -0.072782 -0.124605 -0.091801 -0.033573 0.034313 -0.037614 0.045227 -0.018570 -0.047565 0.049908 -0.109187 -0.103228 -0.089128 -0.016916 -0.053147 -0.049128 0.000621 0.000942 0.021144 0.191499 -0.013103 0.151962 0.013617 0.255170 0.246428 0.328913 0.273963 0.109228 0.231604 0.266704 0.032423 0.241298 0.115503 0.126665 0.304864 0.130000 -0.637037
0.072396 0.072899 0.074406 0.076917 0.080433 0.084951 0.090471 0.096990 0.104508 0.113021 0.122526 0.133018 0.144492 0.156941 0.170359 0.184736 0.200060 0.216319 0.233498 0.251580 0.270545 0.290369 0.311027 0.332490 0.354724 0.377692 0.401353 0.425661 0.450565 0.476010 0.501933 0.528270 0.554946 0.581882 0.608994 0.636191 0.663373 0.690435 0.717267 0.743748 0.769754 0.795153 0.819805 0.843566 0.866284 0.887803 0.907960 0.926589 0.943519 0.958576 0.971583 0.982363 0.990739 0.996532 0.999568 0.999675 0.996687 0.990446 0.980801 0.967610 0.950748 0.930101 0.905572 0.877084 0.844581 0.808028 0.767420 0.722774 0.674142 0.621604 0.565276 0.505309 0.441889 0.375244 0.305639 0.233379 0.158810 0.082318 0.004330 0.074689 0.154236 0.233774 0.312732 0.390511 0.466485 0.540008 0.610417 0.677042 0.739206 0.796240 0.847483 0.892295 0.930065 0.960218 0.982228 0.995622 0.999997 0.995021 0.980449 0.956130 0.922012 0.878156 0.824734 0.762044 0.690506 0.610668 0.523210 0.428937 0.328778 0.223785 0.115120 0.004047 0.108077 0.219822 0.329697 0.436173 0.537700 0.632735 0.719763 0.797325 0.864042 0.918649 0.960016 0.987176 0.999356 0.995994 0.976767 0.941606 0.890713 0.824574 0.743960 0.649935 0.543846 0.427315 0.302219 0.170672 0.034989 0.102348 0.238731 0.371474 0.497871 0.615244 0.721008 0.812731 0.888194 0.945453 0.982895 0.999292 0.993848 0.966237 0.916636 0.845742 0.754779 0.645497 0.520147 0.381451 0.232551 0.076951 0.081563 0.239006 0.391294 0.534351 0.664221 0.777178 0.869848 0.939315 0.983224 0.999877 0.988307 0.948339 0.880628 0.786678 0.668822 0.530195 0.374660 0.206720 0.031401 0.145894 0.319543 0.483882 0.633394 0.762898 0.867744 0.943988 0.988560 0.999406 0.975599 0.917414 0.826368 0.705207 0.557852 0.389295 0.205456 0.012987 0.180961 0.368988 0.543739 0.698185 0.825924 0.921462 0.980467 0.999992 0.978644 0.916699 0.816148 0.680673 0.515542 0.327439 0.124215 0.085423 0.292268 0.487020 0.660708 0.805106 0.913153 0.979318 0.999910 0.973323 0.900171 0.783342 0.627922 0.441013 0.231448 0.009399 0.214107 0.427712 0.620320 0.781676 0.902936 0.977183 0.999852 0.969056 0.885766 0.753849 0.579936 0.373142 0.144617 0.093011 0.326337 0.541915 0.727045 0.870547 0.963457 0.999639 0.976231 0.893910 0.756964 0.573119 0.353164 0.110363 0.140318 0.383109 0.602434 0.783909 0.915335 0.987536 0.995068 0.936674 0.815493 0.638955 0.418411 0.168437 0.094079 0.351042 0.584415 0.777476 0.916056 0.989626 0.992155 0.922669 0.785450 0.589870 0.349803 0.082722 0.191539 0.452251 0.679333 0.854935 0.964886 0.999891 0.956396 0.837013 0.650460 0.411019 0.137509 0.148140 0.422613 0.663115 0.849284 0.964960 0.999658 0.949599 0.818197 0.615937 0.359634 0.071108 0.224613 0.501444 0.734547 0.902584 0.989748 0.987317 0.894629 0.719327 0.476839 0.189127 0.117245 0.413515 0.671416 0.865893 0.977602 0.994926 0.915271 0.745535 0.501636 0.207118 0.109018 0.415152 0.680165 0.876660 0.983839 0.989810 0.893019 0.702634 0.437816 0.125898 0.200340 0.506097 0.758238 0.928951 0.998884 0.959459 0.814050 0.577854 0.276450 0.056877 0.384738 0.669806 0.879102 0.987890 0.982704 0.863154 0.642243 0.345109 0.006281 0.334244 0.635684 0.861384 0.983356 0.985853 0.867556 0.642025 0.336317 0.012137 0.360020 0.663470 0.883653 0.991817 0.973170 0.829071 0.577159 0.249388 0.111929
1.000000 1.000000 1.000000 1.000000 1.000000 1.000000 1.000000 1.000000 1.000000 1.000000 1.000000 1.000000 1.000000 1.000000 1.000000 1.000000 1.000000 1.000000 1.000000 1.000000 1.000000 1.000000 1.000000 1.000000 1.000000 1.000000 1.000000 1.000000 1.000000 1.000000 1.000000 1.000000 1.000000 1.000000 1.000000 1.000000 1.000000 1.000000 1.000000 1.000000 1.000000 1.000000 1.000000 1.000000 1.000000 1.000000 1.000000 1.000000 1.000000 1.000000 1.000000 1.000000 0.929544 0.929544 0.929544 0.919535 0.919535 0.919535 0.919535 0.919535 0.919535 0.919535 0.919535 0.919535 0.919535 0.919535 0.919535 0.919535 0.919535 0.919535 0.919535 0.919535 0.919535 0.919535 0.919535 0.919535 0.919535 0.919535 0.919535 0.919535 0.919535 0.919535 0.919535 0.919535 0.919535 0.919535 0.919535 0.919535 0.919535 0.919535 0.919535 0.919535 0.919535 0.919535 0.919535 0.919535 0.949985 0.951233 0.959131 0.958974 0.958478 0.956388 0.955471 0.954349 0.953896 0.954167 0.954772 0.955602 0.964322 0.965394 0.966972 0.967799 0.968515 0.969160 0.968985 0.969698 0.968900 0.968332 0.967813 0.963825 0.964455 0.965013 0.965118 0.966149 0.966026 0.968032 0.968212 0.967602 0.966706 0.965949 0.965220 0.964789 0.964507 0.965014 0.965311 0.966624 0.969809 0.969233 0.968940 0.969098 0.969198 0.969380 0.969820 0.971520 0.967765 0.968400 0.966728 0.964544 0.968735 0.965876 0.965657 0.967020 0.967405 0.967807 0.966504 0.962940 0.956924 0.956386 0.953441 0.944388 0.942846 0.943549 0.945885 0.946344 0.945057 0.937945 0.938521 0.932538 0.933437 0.936725 0.931887 0.931945 0.933078 0.932293 0.930850 0.930178 0.927539 0.924643 0.922867 0.922519 0.925502 0.925911 0.927102 0.926949 0.921399 0.912787 0.899553 0.897963 0.892705 0.895825 0.885315 0.885101 0.885191 0.880793 0.884300 0.884489 0.885459 0.882061 0.866135 0.847599 0.839239 0.842536 0.847652 0.843329 0.842093 0.835139 0.847105 0.828161 0.840871 0.852411 0.848582 0.849356 0.848827 0.846477 0.839886 0.840682 0.842902 0.844674 0.843638 0.841959 0.839623 0.822080 0.822977 0.758189 0.741019 0.735222 0.740791 0.746892 0.747570 0.746824 0.755176 0.760414 0.755824 0.739490 0.731669 0.722988 0.727975 0.730909 0.735339 0.723130 0.697908 0.691444 0.658254 0.675759 0.691949 0.650319 0.673779 0.684428 0.681507 0.680732 0.673372 0.669457 0.664826 0.667832 0.676057 0.690762 0.710220 0.734772 0.731981 0.721832 0.721353 0.702596 0.693134 0.685146 0.695819 0.675701 0.671154 0.689438 0.688852 0.675483 0.654826 0.643102 0.631743 0.628344 0.636855 0.628765 0.625644 0.614758 0.588299 0.582523 0.619375 0.635772 0.654642 0.626703 0.612651 0.603322 0.584218 0.597897 0.543980 0.543786 0.564297 0.571422 0.549975 0.534002 0.543439 0.553339 0.558010 0.548924 0.532552 0.521088 0.535680 0.565885 0.556925 0.534522 0.537871 0.537263 0.532777 0.451891 0.446653 0.416325 0.385053 0.325257 0.301611 0.294829 0.277076 0.262036 0.227757 0.224113 0.233611 0.242430 0.255198 0.256709 0.241485 0.245880 0.238043 0.224481 0.163219 0.152174 0.144887 0.134358 0.134652 0.110456 0.132758 0.198315 0.200928 0.200928 0.200928 0.200928 0.200928 0.200928 0.211709 0.211709 0.211709 0.211709 0.211709 0.211709 0.211709 0.211709 0.211709 0.221176 0.221176 0.221176 0.221176 0.221176 0.221176 0.221176 0.221176 0.221176 0.221176 0.221176 0.221176 0.221176 0.221176
0.000000 0.000000 0.000000 0.000000 0.000000 0.000000 0.000000 0.000000 0.000000 0.000000 0.000000 0.000000 0.000000 0.000000 0.000000 0.000000 0.000000 0.000000 0.000000 0.000000 0.000000 0.000000 0.000000 0.000000 0.000000 0.000000 0.000000 0.000000 0.000000 0.000000 0.000000 0.000000 0.000000 0.000000 0.000000 0.000000 0.000000 0.000000 0.000000 0.000000 0.000000 0.000000 0.000000 0.000000 0.000000 0.000000 0.000000 0.000000 0.000000 0.000000 0.000000 0.000000 0.180334 0.180334 0.180334 0.199007 0.199007 0.199007 0.199007 0.199007 0.199007 0.199007 0.199007 0.199007 0.199007 0.199007 0.199007 0.199007 0.199007 0.199007 0.199007 0.199007 0.199007 0.199007 0.199007 0.199007 0.199007 0.199007 0.199007 0.199007 0.199007 0.199007 0.199007 0.199007 0.199007 0.199007 0.199007 0.199007 0.199007 0.199007 0.199007 0.199007 0.199007 0.199007 0.199007 0.199007 0.225018 0.225018 0.225018 0.225018 0.225018 0.225018 0.225018 0.225018 0.225018 0.225018 0.225018 0.225018 0.225018 0.225018 0.225018 0.225018 0.225018 0.225018 0.225018 0.225018 0.225018 0.225018 0.225018 0.225018 0.225018 0.225018 0.225018 0.225018 0.225018 0.244339 0.244339 0.244339 0.244339 0.244339 0.244339 0.244339 0.244339 0.244339 0.244339 0.244339 0.244339 0.244339 0.244339 0.244339 0.244339 0.244339 0.244339 0.244339 0.244339 0.244339 0.244339 0.244339 0.251976 0.251976 0.251976 0.251976 0.251976 0.251976 0.251976 0.251976 0.251976 0.251976 0.251976 0.251976 0.251976 0.251976 0.251976 0.251976 0.251976 0.251976 0.251976 0.251976 0.264906 0.264906 0.264906 0.264906 0.264906 0.264906 0.264906 0.264906 0.264906 0.264906 0.264906 0.264906 0.264906 0.264906 0.264906 0.264906 0.264906 0.264906 0.264906 0.264906 0.264906 0.264906 0.264906 0.264906 0.264906 0.264906 0.264906 0.264906 0.264906 0.264906 0.264906 0.264906 0.264906 0.264906 0.264906 0.264906 0.264906 0.264906 0.264906 0.264906 0.264906 0.264906 0.264906 0.264906 0.264906 0.264906 0.264906 0.264906 0.264906 0.264906 0.264906 0.264906 0.264906 0.264906 0.264906 0.264906 0.264906 0.264906 0.264906 0.264906 0.264906 0.264906 0.256074 0.256074 0.256074 0.256074 0.256074 0.256074 0.256074 0.256074 0.256074 0.256074 0.256074 0.256074 0.256074 0.256074 0.269680 0.269680 0.269680 0.269680 0.269680 0.269680 0.269680 0.269680 0.269680 0.269680 0.269680 0.269680 0.264906 0.264906 0.264906 0.264906 0.264906 0.264906 0.264906 0.264906 0.264906 0.264906 0.264906 0.264906 0.269680 0.269680 0.269680 0.269680 0.269680 0.269680 0.269680 0.269680 0.269680 0.269680 0.269680 0.264906 0.264906 0.264906 0.264906 0.264906 0.264906 0.264906 0.264906 0.264906 0.264906 0.264906 0.256074 0.256074 0.256074 0.256074 0.256074 0.256074 0.256074 0.256074 0.256074 0.256074 0.256074 0.264906 0.264906 0.264906 0.264906 0.264906 0.264906 0.264906 0.264906 0.264906 0.264906 0.260378 0.260378 0.260378 0.260378 0.260378 0.260378 0.260378 0.260378 0.260378 0.260378 0.256074 0.256074 0.256074 0.256074 0.256074 0.256074 0.256074 0.256074 0.256074 0.256074 0.260378 0.260378 0.260378 0.260378 0.260378 0.260378 0.260378 0.260378 0.260378 0.256074 0.256074 0.256074 0.256074 0.256074 0.256074 0.256074 0.256074 0.256074 0.251976 0.251976 0.251976 0.251976 0.251976 0.251976 0.251976 0.251976 0.251976 0.251976 0.251976 0.251976 0.251976 0.251976
