# Output from CTFFind version 4.1.9, run on 2019-11-03 20:03:32
# Input file: stack1_bm3d_averaged_1_10_0_250_half.mrc ; Number of micrographs: 1
# Pixel size: 3.000 Angstroms ; acceleration voltage: 300.0 keV ; spherical aberration: 0.00 mm ; amplitude contrast: 0.07
# Box size: 512 pixels ; min. res.: 30.0 Angstroms ; max. res.: 5.0 Angstroms ; min. def.: 5000.0 um; max. def. 50000.0 um; num. frames averaged: 1
# 6 lines per micrograph: #1 - spatial frequency (1/Angstroms); #2 - 1D rotational average of spectrum (assuming no astigmatism); #3 - 1D rotational average of spectrum; #4 - CTF fit; #5 - cross-correlation between spectrum and CTF fit; #6 - 2sigma of expected cross correlation of noise
0.000000 0.000651 0.001302 0.001953 0.002604 0.003255 0.003906 0.004557 0.005208 0.005859 0.006510 0.007161 0.007812 0.008464 0.009115 0.009766 0.010417 0.011068 0.011719 0.012370 0.013021 0.013672 0.014323 0.014974 0.015625 0.016276 0.016927 0.017578 0.018229 0.018880 0.019531 0.020182 0.020833 0.021484 0.022135 0.022786 0.023438 0.024089 0.024740 0.025391 0.026042 0.026693 0.027344 0.027995 0.028646 0.029297 0.029948 0.030599 0.031250 0.031901 0.032552 0.033203 0.033854 0.034505 0.035156 0.035807 0.036458 0.037109 0.037760 0.038411 0.039062 0.039714 0.040365 0.041016 0.041667 0.042318 0.042969 0.043620 0.044271 0.044922 0.045573 0.046224 0.046875 0.047526 0.048177 0.048828 0.049479 0.050130 0.050781 0.051432 0.052083 0.052734 0.053385 0.054036 0.054688 0.055339 0.055990 0.056641 0.057292 0.057943 0.058594 0.059245 0.059896 0.060547 0.061198 0.061849 0.062500 0.063151 0.063802 0.064453 0.065104 0.065755 0.066406 0.067057 0.067708 0.068359 0.069010 0.069661 0.070312 0.070964 0.071615 0.072266 0.072917 0.073568 0.074219 0.074870 0.075521 0.076172 0.076823 0.077474 0.078125 0.078776 0.079427 0.080078 0.080729 0.081380 0.082031 0.082682 0.083333 0.083984 0.084635 0.085286 0.085938 0.086589 0.087240 0.087891 0.088542 0.089193 0.089844 0.090495 0.091146 0.091797 0.092448 0.093099 0.093750 0.094401 0.095052 0.095703 0.096354 0.097005 0.097656 0.098307 0.098958 0.099609 0.100260 0.100911 0.101562 0.102214 0.102865 0.103516 0.104167 0.104818 0.105469 0.106120 0.106771 0.107422 0.108073 0.108724 0.109375 0.110026 0.110677 0.111328 0.111979 0.112630 0.113281 0.113932 0.114583 0.115234 0.115885 0.116536 0.117188 0.117839 0.118490 0.119141 0.119792 0.120443 0.121094 0.121745 0.122396 0.123047 0.123698 0.124349 0.125000 0.125651 0.126302 0.126953 0.127604 0.128255 0.128906 0.129557 0.130208 0.130859 0.131510 0.132161 0.132812 0.133464 0.134115 0.134766 0.135417 0.136068 0.136719 0.137370 0.138021 0.138672 0.139323 0.139974 0.140625 0.141276 0.141927 0.142578 0.143229 0.143880 0.144531 0.145182 0.145833 0.146484 0.147135 0.147786 0.148438 0.149089 0.149740 0.150391 0.151042 0.151693 0.152344 0.152995 0.153646 0.154297 0.154948 0.155599 0.156250 0.156901 0.157552 0.158203 0.158854 0.159505 0.160156 0.160807 0.161458 0.162109 0.162760 0.163411 0.164062 0.164714 0.165365 0.166016 0.166667 0.167318 0.167969 0.168620 0.169271 0.169922 0.170573 0.171224 0.171875 0.172526 0.173177 0.173828 0.174479 0.175130 0.175781 0.176432 0.177083 0.177734 0.178385 0.179036 0.179688 0.180339 0.180990 0.181641 0.182292 0.182943 0.183594 0.184245 0.184896 0.185547 0.186198 0.186849 0.187500 0.188151 0.188802 0.189453 0.190104 0.190755 0.191406 0.192057 0.192708 0.193359 0.194010 0.194661 0.195312 0.195964 0.196615 0.197266 0.197917 0.198568 0.199219 0.199870 0.200521 0.201172 0.201823 0.202474 0.203125 0.203776 0.204427 0.205078 0.205729 0.206380 0.207031 0.207682 0.208333 0.208984 0.209635 0.210286 0.210938 0.211589 0.212240 0.212891 0.213542 0.214193 0.214844 0.215495 0.216146 0.216797 0.217448 0.218099 0.218750 0.219401 0.220052 0.220703 0.221354 0.222005 0.222656 0.223307 0.223958 0.224609 0.225260 0.225911 0.226562 0.227214 0.227865 0.228516 0.229167 0.229818 0.230469 0.231120 0.231771 0.232422 0.233073 0.233724 0.234375 0.235026 0.235677
       0.35140        0.35140        0.35140        0.35140        0.35140        0.35140        0.35140        0.35140        0.35140        0.35140        0.35140        0.35140        0.35140        0.35140        0.35140        0.35140        0.35140        0.35140        0.35140        0.35140        0.35140        0.35140        0.35140        0.35140        0.35140        0.35140        0.35140        0.35140        0.35140        0.35140        0.35140        0.35140        0.35140        0.35140        0.35140        0.35140        0.35140        0.35140        0.35140        0.35140        0.35140        0.35140        0.35140        0.35140        0.35140        0.35140        0.35140        0.35140        0.35140        0.35140        0.35140        0.31606        0.41828        0.21769        0.07075        0.01650       -0.24051       -0.10579       -0.11553       -0.20129        0.01283       -0.12732       -0.00768       -0.04466       -0.02856       -0.09373       -0.15281       -0.20573       -0.23204       -0.33384       -0.26599       -0.17972       -0.17585       -0.27418       -0.19110       -0.22669       -0.19692       -0.22298       -0.08429       -0.10809       -0.14272        0.00325        0.07580        0.01417        0.06901        0.07745        0.28371        0.26641        0.34799        0.36881        0.36776        0.40194        0.47875        0.52025        0.51757        0.49232        0.50158        0.52220        0.49167        0.49536        0.41698        0.41972        0.41144        0.37451        0.31668        0.32721        0.32392        0.21413        0.21336        0.16271        0.18478        0.17488        0.16770        0.17496        0.27335        0.34784        0.33679        0.28450        0.41863        0.48620        0.40319        0.49728        0.57671        0.51101        0.50503        0.58549        0.59104        0.43513        0.48724        0.42639        0.36075        0.32991        0.29001        0.26937        0.20946        0.21367        0.20092        0.22900        0.25642        0.28378        0.34738        0.32916        0.40989        0.40945        0.45678        0.51257        0.46094        0.47675        0.42841        0.43811        0.41058        0.35400        0.31433        0.32323        0.32175        0.25911        0.25999        0.26419        0.27243        0.28696        0.32502        0.43147        0.48689        0.43193        0.46784        0.46585        0.42143        0.45913        0.44809        0.41762        0.36939        0.37718        0.35570        0.32879        0.31167        0.29938        0.28350        0.30268        0.32229        0.34341        0.40560        0.37982        0.38293        0.39457        0.37160        0.42636        0.40626        0.36453        0.33732        0.34492        0.32148        0.29514        0.32737        0.33979        0.34645        0.34746        0.32827        0.41130        0.40318        0.41202        0.43075        0.45652        0.40235        0.37590        0.35343        0.34896        0.29967        0.28783        0.33494        0.39888        0.40145        0.35797        0.36776        0.40782        0.39656        0.45848        0.37360        0.39577        0.35076        0.31736        0.30940        0.30952        0.34998        0.35568        0.37516        0.37919        0.33382        0.42475        0.34083        0.34864        0.36036        0.40277        0.37579        0.30481        0.32374        0.28124        0.34645        0.32988        0.34451        0.34941        0.32617        0.36321        0.32908        0.35957        0.35207        0.32047        0.29442        0.31703        0.36216        0.31140        0.30609        0.33357        0.32509        0.33682        0.33744        0.31365        0.30474        0.28502        0.32485        0.33656        0.34679        0.29262        0.31210        0.34577        0.32702        0.30762        0.38868        0.35272        0.30251        0.32757        0.34030        0.33093        0.34443        0.30657        0.33715        0.27791        0.32792        0.39057        0.36516        0.30317        0.33869        0.33317        0.33002        0.34318        0.33954        0.30665        0.28579        0.29727        0.30083        0.36341        0.37404        0.32538        0.36220        0.31801        0.29323        0.28408        0.33151        0.37114        0.30934        0.27689        0.31951        0.35614        0.28388        0.31295        0.31791        0.28746        0.31646        0.33174        0.30682        0.34238        0.32025        0.31962        0.33811        0.35390        0.26486        0.31099        0.38043        0.32163        0.24498        0.30007        0.29478        0.31696        0.27686        0.21806        0.24086        0.32957        0.39909        0.33722        0.27735        0.21496        0.29176        0.29803        0.27314        0.32875        0.31312        0.27771        0.27310        0.26661        0.26028        0.34896        0.24082        0.31701        0.28527        0.27266        0.27388        0.34423        0.22588        0.27823        0.18477        0.31133        0.23371        0.27702        0.22947        0.30781        0.23740        0.28468        0.33947        0.32884        0.21270       -0.13991       -0.21194       -0.57337       -0.62155
2.727335 2.700590 2.673983 2.647514 2.621183 2.594990 2.568936 2.543019 2.517240 2.491600 2.466097 2.440733 2.415506 2.390418 2.365467 2.340655 2.315981 2.291445 2.267047 2.242786 2.218664 2.194680 2.170835 2.147127 2.123557 2.100125 2.076831 2.053676 2.030658 2.007778 1.985037 1.962433 1.939968 1.917640 1.895451 1.873400 1.851486 1.829711 1.808074 1.786575 1.765214 1.743991 1.722906 1.701959 1.681150 1.660479 1.639946 1.619552 1.599295 1.579176 1.559196 1.385963 1.748190 1.360513 0.836838 0.657865 -0.287063 0.420573 0.016242 0.135723 0.521026 0.167773 0.353224 0.335514 0.294815 0.273978 -0.061570 -0.115733 -0.246987 -0.484959 -0.462229 -0.245775 0.031209 -0.523183 -0.245796 -0.391554 -0.123162 -0.485464 -0.056286 -0.192697 -0.204214 0.037061 0.363750 0.095758 0.186151 0.174386 0.853729 0.600283 0.849812 0.993837 0.760245 1.075983 0.981637 1.378205 1.222939 1.072588 1.210540 1.229440 1.174848 1.019030 1.028479 0.889495 0.830695 0.741236 0.785757 0.493925 0.632972 0.430536 0.232610 0.231863 0.126318 0.154701 0.160107 0.070207 0.269554 0.567454 0.469236 0.460818 0.600943 0.768399 0.749434 0.548471 1.125245 0.936557 0.892717 0.968176 1.073393 0.823592 0.572710 0.810090 0.351956 0.462387 0.197799 0.235485 0.055735 0.018879 -0.029631 0.017639 0.161801 0.032365 0.209483 0.421912 0.303558 0.482340 0.484996 0.624522 0.671576 0.598299 0.530015 0.413478 0.460135 0.359796 0.198455 0.185530 0.147751 0.111128 0.090631 -0.073450 -0.021496 0.097386 0.019777 0.303745 0.539831 0.529115 0.367807 0.560406 0.460534 0.449803 0.500323 0.467096 0.309625 0.277519 0.336480 0.091714 0.150794 0.022536 0.155588 0.007917 0.179298 0.091054 0.331760 0.166115 0.256825 0.305215 0.185606 0.437642 0.191192 0.241544 0.142230 0.119790 0.089650 0.041383 0.008109 0.078416 0.147360 0.068645 0.080894 0.127550 0.344569 0.211735 0.283251 0.453819 0.172557 0.320585 0.060663 0.120966 0.068306 -0.107862 -0.014758 0.076348 0.298792 0.156661 0.075623 0.203420 0.174305 0.336759 0.274477 0.175437 0.230409 0.001912 -0.017736 0.001444 0.043100 0.094951 0.177338 0.155045 0.091967 0.066770 0.252785 0.003084 0.133676 0.135261 0.241696 0.060369 0.031857 -0.038959 -0.041476 0.113241 0.042347 0.117858 0.028928 0.079289 0.078930 0.011567 0.128020 0.089363 -0.067616 -0.007064 -0.026015 0.172384 -0.080703 0.012072 0.051205 -0.023692 0.029519 0.030513 -0.061648 -0.063790 -0.117885 0.036924 0.026476 0.075280 -0.108135 -0.038923 0.030664 0.012246 -0.096818 0.132113 0.004736 -0.105235 -0.049158 0.080137 0.004296 -0.067078 -0.085899 0.068822 -0.243816 0.061895 0.163680 0.028217 -0.049480 0.041839 -0.041987 0.034471 0.049918 0.026151 -0.038523 -0.199362 -0.008270 -0.065646 0.114596 0.063883 -0.009139 0.136659 -0.059093 -0.078621 -0.088458 0.006345 0.091427 -0.065960 -0.123586 0.073566 0.124913 0.000789 -0.020723 0.026918 -0.046525 0.006635 0.112946 0.035140 0.103990 0.145076 0.099583 0.196617 0.154591 -0.030927 0.104308 0.226598 0.075412 -0.143501 0.166063 -0.068880 0.173014 -0.091377 -0.162992 -0.141598 0.233712 0.290624 0.061625 -0.230968 -0.309210 -0.045411 -0.207143 -0.166077 0.106371 0.041279 -0.136571 -0.024548 -0.239838 -0.068061 0.221595 -0.211007 0.212916 0.112236 0.175695 0.101736 0.385992 0.121851 0.525166 0.222891 0.522442 0.500053 0.446956 0.456687 0.784724 0.537803 0.721314 0.925758 0.684298 1.016488 -0.856151 -0.518761 -1.564682
0.072396 0.072904 0.074427 0.076965 0.080517 0.085083 0.090661 0.097249 0.104846 0.113448 0.123052 0.133654 0.145248 0.157827 0.171384 0.185909 0.201391 0.217816 0.235170 0.253434 0.272587 0.292607 0.313467 0.335136 0.357579 0.380760 0.404635 0.429158 0.454275 0.479929 0.506058 0.532592 0.559457 0.586572 0.613848 0.641192 0.668503 0.695672 0.722584 0.749119 0.775146 0.800530 0.825129 0.848794 0.871370 0.892697 0.912608 0.930933 0.947499 0.962126 0.974637 0.984850 0.992585 0.997661 0.999903 0.999137 0.995196 0.987922 0.977164 0.962783 0.944654 0.922668 0.896732 0.866774 0.832745 0.794619 0.752397 0.706110 0.655819 0.601619 0.543640 0.482049 0.417050 0.348888 0.277848 0.204256 0.128481 0.050930 0.027948 0.107664 0.187693 0.267474 0.346415 0.423894 0.499267 0.571869 0.641023 0.706044 0.766248 0.820956 0.869508 0.911264 0.945622 0.972018 0.989945 0.998955 0.998673 0.988807 0.969153 0.939609 0.900181 0.850989 0.792274 0.724405 0.647879 0.563325 0.471503 0.373302 0.269736 0.161938 0.051149 0.061291 0.173959 0.285363 0.393964 0.498194 0.596478 0.687264 0.769043 0.840383 0.899949 0.946540 0.979109 0.996798 0.998956 0.985168 0.955271 0.909378 0.847882 0.771471 0.681130 0.578135 0.464048 0.340700 0.210166 0.074738 0.063104 0.200744 0.335473 0.464540 0.585212 0.694832 0.790881 0.871046 0.933275 0.975842 0.997401 0.997034 0.974300 0.929259 0.862503 0.775161 0.668899 0.545901 0.408842 0.260835 0.105375 0.053736 0.212482 0.366724 0.512310 0.645195 0.761552 0.857889 0.931169 0.978916 0.999308 0.991261 0.954495 0.889574 0.797923 0.681825 0.544379 0.389441 0.221530 0.045707 0.132563 0.307583 0.473592 0.624973 0.756437 0.863221 0.941280 0.987451 0.999601 0.976746 0.919129 0.828254 0.706888 0.558997 0.389645 0.204835 0.011327 0.183610 0.372464 0.547759 0.702372 0.829819 0.924552 0.982222 0.999898 0.976245 0.911636 0.808195 0.669767 0.501812 0.311215 0.106033 0.104833 0.312003 0.506047 0.677903 0.819327 0.923299 0.984404 0.999137 0.966148 0.886365 0.763036 0.601629 0.409645 0.196289 0.027934 0.251730 0.463565 0.652273 0.807654 0.921048 0.985852 0.997938 0.955960 0.861512 0.719130 0.536125 0.322256 0.089246 0.149834 0.381281 0.591553 0.768058 0.899943 0.978795 0.999217 0.959250 0.860589 0.708589 0.512035 0.282682 0.034599 0.216661 0.455035 0.664966 0.832443 0.945971 0.997399 0.982571 0.901703 0.759504 0.564960 0.330851 0.072942 0.191029 0.442555 0.663659 0.838199 0.953083 0.999307 0.972724 0.874476 0.711052 0.493938 0.238882 0.035195 0.307569 0.557267 0.764690 0.913193 0.990460 0.989609 0.909870 0.756803 0.542011 0.282338 0.001386 0.285969 0.547749 0.764548 0.917611 0.993273 0.984259 0.890478 0.719188 0.484554 0.206557 0.090634 0.380734 0.637650 0.837838 0.962534 0.999571 0.944663 0.801994 0.584014 0.310468 0.006691 0.298692 0.576430 0.799467 0.945612 0.999851 0.955965 0.817355 0.596928 0.315995 0.002329 0.312539 0.596455 0.819942 0.959313 0.999277 0.934723 0.771488 0.525972 0.223608 0.103656 0.420701 0.692979 0.890310 0.990308 0.981027 0.862517 0.647073 0.358101 0.027710 0.306796 0.607081 0.838191 0.972690 0.994025 0.898702 0.696961 0.411853 0.076728 0.268560 0.582351 0.826215 0.969728 0.994377 0.896103 0.686090 0.389670 0.043410 0.309285 0.623588 0.858955 0.984438 0.982883 0.853443 0.611995 0.289391 0.072359 0.425441 0.722555
1.000000 1.000000 1.000000 1.000000 1.000000 1.000000 1.000000 1.000000 1.000000 1.000000 1.000000 1.000000 1.000000 1.000000 1.000000 1.000000 1.000000 1.000000 1.000000 1.000000 1.000000 1.000000 1.000000 1.000000 1.000000 1.000000 1.000000 1.000000 1.000000 1.000000 1.000000 1.000000 1.000000 1.000000 1.000000 1.000000 1.000000 1.000000 1.000000 1.000000 1.000000 1.000000 1.000000 1.000000 1.000000 1.000000 1.000000 1.000000 1.000000 1.000000 1.000000 1.000000 0.790855 0.790855 0.790855 0.751315 0.751315 0.751315 0.751315 0.751315 0.751315 0.751315 0.751315 0.751315 0.751315 0.751315 0.751315 0.751315 0.751315 0.751315 0.751315 0.751315 0.751315 0.751315 0.751315 0.751315 0.751315 0.751315 0.751315 0.751315 0.751315 0.751315 0.751315 0.751315 0.751315 0.751315 0.751315 0.751315 0.751315 0.751315 0.751315 0.751315 0.751315 0.751315 0.751315 0.751315 0.801783 0.810778 0.815514 0.823981 0.825891 0.824287 0.821900 0.820903 0.821326 0.822046 0.829436 0.851056 0.862437 0.865189 0.877134 0.880993 0.884279 0.883231 0.906253 0.905125 0.954109 0.952306 0.951708 0.952627 0.959775 0.960773 0.959732 0.958136 0.963217 0.964025 0.962399 0.959926 0.959122 0.957833 0.957291 0.954480 0.954525 0.954494 0.953541 0.954083 0.954126 0.953764 0.951430 0.949267 0.946867 0.946198 0.949296 0.935835 0.932856 0.923213 0.919552 0.928392 0.923857 0.920692 0.919428 0.920924 0.909080 0.879657 0.879637 0.858105 0.850027 0.836013 0.828527 0.827996 0.832971 0.842293 0.846457 0.848647 0.841475 0.829433 0.812620 0.821844 0.806120 0.790832 0.795550 0.784660 0.780239 0.781417 0.768450 0.763796 0.752146 0.746937 0.744978 0.754832 0.759128 0.760156 0.751955 0.751416 0.738221 0.728008 0.708456 0.708487 0.717425 0.712691 0.714423 0.709750 0.710745 0.717988 0.714926 0.706299 0.693118 0.685117 0.671923 0.649120 0.660110 0.633003 0.629326 0.632616 0.604311 0.632233 0.630468 0.673431 0.687272 0.687981 0.684159 0.678922 0.660020 0.675053 0.669917 0.662963 0.665061 0.667475 0.664714 0.662042 0.653428 0.555097 0.548411 0.547260 0.548138 0.535303 0.552247 0.552947 0.540197 0.526634 0.507761 0.471917 0.412837 0.349184 0.354956 0.351329 0.331206 0.322451 0.310060 0.342633 0.347940 0.351729 0.307468 0.272794 0.266370 0.239927 0.228261 0.193747 0.206214 0.235174 0.227632 0.198052 0.164622 0.156862 0.135762 0.141705 0.142560 0.110885 0.140991 0.103578 0.090018 0.061144 0.079842 0.068458 0.018938 -0.077822 -0.034749 -0.037970 0.000000 -0.007483 -0.019505 0.022814 -0.008965 -0.040408 -0.041839 -0.062172 -0.098060 -0.039410 -0.037525 -0.059334 -0.038570 -0.053464 -0.036095 -0.045661 -0.061968 -0.071361 -0.084576 -0.058600 -0.045525 0.016285 0.014927 0.012706 -0.029692 -0.026824 -0.025251 -0.062820 -0.039917 0.013620 0.029808 0.027174 0.021296 0.036089 0.057519 0.054405 0.070707 0.057598 0.057803 0.033037 0.053361 0.041761 0.025285 0.024461 0.038509 0.044338 0.064255 0.052250 0.057508 0.076982 0.048427 0.061462 0.070201 0.053197 0.064707 0.061653 0.107006 0.065888 0.039050 0.034972 0.039059 0.026406 0.056249 0.114711 0.135940 0.112270 0.109493 0.109493 0.109493 0.109493 0.113247 0.113247 0.113247 0.113247 0.113247 0.113247 0.113247 0.113247 0.113247 0.081386 0.081386 0.081386 0.081386 0.081386 0.081386 0.081386 0.081386 0.081386 0.081386 0.081386 0.081386 0.081386 0.081386 0.081386 0.081386
0.000000 0.000000 0.000000 0.000000 0.000000 0.000000 0.000000 0.000000 0.000000 0.000000 0.000000 0.000000 0.000000 0.000000 0.000000 0.000000 0.000000 0.000000 2.000000 0.000000 0.000000 0.000000 0.000000 0.000000 0.000000 0.000000 0.000000 0.000000 0.000000 0.000000 0.000000 0.000000 0.000000 0.000000 0.000000 0.000000 0.000000 0.000000 0.000000 0.000000 0.000000 0.000000 0.000000 0.000000 0.000000 0.000000 0.000000 0.000000 0.000000 0.000000 0.000000 0.000000 0.180334 0.180334 0.180334 0.199007 0.199007 0.199007 0.199007 0.199007 0.199007 0.199007 0.199007 0.199007 0.199007 0.199007 0.199007 0.199007 0.199007 0.199007 0.199007 0.199007 0.199007 0.199007 0.199007 0.199007 0.199007 0.199007 0.199007 0.199007 0.199007 0.199007 0.199007 0.199007 0.199007 0.199007 0.199007 0.199007 0.199007 0.199007 0.199007 0.199007 0.199007 0.199007 0.199007 0.199007 0.230940 0.230940 0.230940 0.230940 0.230940 0.230940 0.230940 0.230940 0.230940 0.230940 0.230940 0.230940 0.230940 0.230940 0.230940 0.230940 0.230940 0.230940 0.230940 0.230940 0.230940 0.230940 0.230940 0.230940 0.230940 0.230940 0.230940 0.230940 0.244339 0.244339 0.244339 0.244339 0.244339 0.244339 0.244339 0.244339 0.244339 0.244339 0.244339 0.244339 0.244339 0.244339 0.244339 0.244339 0.244339 0.244339 0.244339 0.244339 0.244339 0.244339 0.244339 0.251976 0.251976 0.251976 0.251976 0.251976 0.251976 0.251976 0.251976 0.251976 0.251976 0.251976 0.251976 0.251976 0.251976 0.251976 0.251976 0.251976 0.251976 0.251976 0.251976 0.264906 0.264906 0.264906 0.264906 0.264906 0.264906 0.264906 0.264906 0.264906 0.264906 0.264906 0.264906 0.264906 0.264906 0.264906 0.264906 0.264906 0.264906 0.264906 0.264906 0.264906 0.264906 0.264906 0.264906 0.264906 0.264906 0.264906 0.264906 0.264906 0.264906 0.264906 0.264906 0.264906 0.264906 0.264906 0.264906 0.264906 0.264906 0.264906 0.264906 0.264906 0.264906 0.264906 0.264906 0.264906 0.264906 0.264906 0.264906 0.264906 0.264906 0.264906 0.264906 0.264906 0.264906 0.264906 0.264906 0.264906 0.264906 0.264906 0.264906 0.264906 0.264906 0.264906 0.264906 0.264906 0.264906 0.264906 0.264906 0.264906 0.264906 0.264906 0.264906 0.264906 0.264906 0.264906 0.260378 0.260378 0.260378 0.260378 0.260378 0.260378 0.260378 0.260378 0.260378 0.260378 0.260378 0.260378 0.260378 0.264906 0.264906 0.264906 0.264906 0.264906 0.264906 0.264906 0.264906 0.264906 0.264906 0.264906 0.264906 0.269680 0.269680 0.269680 0.269680 0.269680 0.269680 0.269680 0.269680 0.269680 0.269680 0.269680 0.264906 0.264906 0.264906 0.264906 0.264906 0.264906 0.264906 0.264906 0.264906 0.264906 0.264906 0.269680 0.269680 0.269680 0.269680 0.269680 0.269680 0.269680 0.269680 0.269680 0.269680 0.251976 0.251976 0.251976 0.251976 0.251976 0.251976 0.251976 0.251976 0.251976 0.251976 0.251976 0.269680 0.269680 0.269680 0.269680 0.269680 0.269680 0.269680 0.269680 0.269680 0.256074 0.256074 0.256074 0.256074 0.256074 0.256074 0.256074 0.256074 0.256074 0.256074 0.260378 0.260378 0.260378 0.260378 0.260378 0.260378 0.260378 0.260378 0.260378 0.256074 0.256074 0.256074 0.256074 0.256074 0.256074 0.256074 0.256074 0.256074 0.251976 0.251976 0.251976 0.251976 0.251976 0.251976 0.251976 0.251976 0.251976 0.251976 0.251976 0.251976 0.251976 0.251976 0.251976 0.251976
