# Output from CTFFind version 4.1.9, run on 2019-11-03 19:01:39
# Input file: stack11_bm3d_averaged_1_2.25_0_750_half.mrc ; Number of micrographs: 1
# Pixel size: 3.000 Angstroms ; acceleration voltage: 300.0 keV ; spherical aberration: 0.00 mm ; amplitude contrast: 0.07
# Box size: 512 pixels ; min. res.: 30.0 Angstroms ; max. res.: 5.0 Angstroms ; min. def.: 5000.0 um; max. def. 50000.0 um; num. frames averaged: 1
# 6 lines per micrograph: #1 - spatial frequency (1/Angstroms); #2 - 1D rotational average of spectrum (assuming no astigmatism); #3 - 1D rotational average of spectrum; #4 - CTF fit; #5 - cross-correlation between spectrum and CTF fit; #6 - 2sigma of expected cross correlation of noise
0.000000 0.000651 0.001302 0.001953 0.002604 0.003255 0.003906 0.004557 0.005208 0.005859 0.006510 0.007161 0.007812 0.008464 0.009115 0.009766 0.010417 0.011068 0.011719 0.012370 0.013021 0.013672 0.014323 0.014974 0.015625 0.016276 0.016927 0.017578 0.018229 0.018880 0.019531 0.020182 0.020833 0.021484 0.022135 0.022786 0.023438 0.024089 0.024740 0.025391 0.026042 0.026693 0.027344 0.027995 0.028646 0.029297 0.029948 0.030599 0.031250 0.031901 0.032552 0.033203 0.033854 0.034505 0.035156 0.035807 0.036458 0.037109 0.037760 0.038411 0.039062 0.039714 0.040365 0.041016 0.041667 0.042318 0.042969 0.043620 0.044271 0.044922 0.045573 0.046224 0.046875 0.047526 0.048177 0.048828 0.049479 0.050130 0.050781 0.051432 0.052083 0.052734 0.053385 0.054036 0.054688 0.055339 0.055990 0.056641 0.057292 0.057943 0.058594 0.059245 0.059896 0.060547 0.061198 0.061849 0.062500 0.063151 0.063802 0.064453 0.065104 0.065755 0.066406 0.067057 0.067708 0.068359 0.069010 0.069661 0.070312 0.070964 0.071615 0.072266 0.072917 0.073568 0.074219 0.074870 0.075521 0.076172 0.076823 0.077474 0.078125 0.078776 0.079427 0.080078 0.080729 0.081380 0.082031 0.082682 0.083333 0.083984 0.084635 0.085286 0.085938 0.086589 0.087240 0.087891 0.088542 0.089193 0.089844 0.090495 0.091146 0.091797 0.092448 0.093099 0.093750 0.094401 0.095052 0.095703 0.096354 0.097005 0.097656 0.098307 0.098958 0.099609 0.100260 0.100911 0.101562 0.102214 0.102865 0.103516 0.104167 0.104818 0.105469 0.106120 0.106771 0.107422 0.108073 0.108724 0.109375 0.110026 0.110677 0.111328 0.111979 0.112630 0.113281 0.113932 0.114583 0.115234 0.115885 0.116536 0.117188 0.117839 0.118490 0.119141 0.119792 0.120443 0.121094 0.121745 0.122396 0.123047 0.123698 0.124349 0.125000 0.125651 0.126302 0.126953 0.127604 0.128255 0.128906 0.129557 0.130208 0.130859 0.131510 0.132161 0.132812 0.133464 0.134115 0.134766 0.135417 0.136068 0.136719 0.137370 0.138021 0.138672 0.139323 0.139974 0.140625 0.141276 0.141927 0.142578 0.143229 0.143880 0.144531 0.145182 0.145833 0.146484 0.147135 0.147786 0.148438 0.149089 0.149740 0.150391 0.151042 0.151693 0.152344 0.152995 0.153646 0.154297 0.154948 0.155599 0.156250 0.156901 0.157552 0.158203 0.158854 0.159505 0.160156 0.160807 0.161458 0.162109 0.162760 0.163411 0.164062 0.164714 0.165365 0.166016 0.166667 0.167318 0.167969 0.168620 0.169271 0.169922 0.170573 0.171224 0.171875 0.172526 0.173177 0.173828 0.174479 0.175130 0.175781 0.176432 0.177083 0.177734 0.178385 0.179036 0.179688 0.180339 0.180990 0.181641 0.182292 0.182943 0.183594 0.184245 0.184896 0.185547 0.186198 0.186849 0.187500 0.188151 0.188802 0.189453 0.190104 0.190755 0.191406 0.192057 0.192708 0.193359 0.194010 0.194661 0.195312 0.195964 0.196615 0.197266 0.197917 0.198568 0.199219 0.199870 0.200521 0.201172 0.201823 0.202474 0.203125 0.203776 0.204427 0.205078 0.205729 0.206380 0.207031 0.207682 0.208333 0.208984 0.209635 0.210286 0.210938 0.211589 0.212240 0.212891 0.213542 0.214193 0.214844 0.215495 0.216146 0.216797 0.217448 0.218099 0.218750 0.219401 0.220052 0.220703 0.221354 0.222005 0.222656 0.223307 0.223958 0.224609 0.225260 0.225911 0.226562 0.227214 0.227865 0.228516 0.229167 0.229818 0.230469 0.231120 0.231771 0.232422 0.233073 0.233724 0.234375 0.235026 0.235677
       0.31637        0.31637        0.31637        0.31637        0.31637        0.31637        0.31637        0.31637        0.31637        0.31637        0.31637        0.31637        0.31637        0.31637        0.31637        0.31637        0.31637        0.31637        0.31637        0.31637        0.31637        0.31637        0.31637        0.31637        0.31637        0.31637        0.31637        0.31637        0.31637        0.31637        0.31637        0.31637        0.31637        0.31637        0.31637        0.31637        0.31637        0.31637        0.31637        0.31637        0.31637        0.31637        0.31637        0.31637        0.31637        0.31637        0.31637        0.31637        0.31637        0.31637        0.31637        0.68041        0.86380        0.52313        0.08834       -0.06086       -0.42565       -0.20379       -0.29916       -0.11795       -0.07621       -0.11982       -0.06859       -0.20628       -0.23368       -0.25466       -0.33038       -0.33989       -0.48414       -0.38155       -0.46243       -0.44858       -0.42259       -0.46445       -0.53063       -0.55717       -0.58608       -0.61676       -0.57565       -0.41087       -0.37814       -0.33069       -0.31367       -0.20871       -0.20007        0.02050        0.08271        0.11368        0.22700        0.36709        0.44004        0.51014        0.55762        0.55396        0.56524        0.69081        0.80707        0.73039        0.72986        0.65493        0.57080        0.48231        0.40847        0.49439        0.37878        0.20954        0.07704        0.05014        0.01950       -0.06085       -0.03185       -0.01114       -0.06395       -0.00881       -0.01889        0.21530        0.25107        0.28558        0.42298        0.45180        0.40301        0.54360        0.62188        0.68728        0.75185        0.68397        0.65024        0.68989        0.57513        0.49054        0.41582        0.28888        0.19717        0.15489        0.10690        0.03944        0.01024        0.00378        0.07275        0.12816        0.20622        0.27301        0.39357        0.42232        0.50088        0.59890        0.62829        0.62214        0.62291        0.55229        0.44476        0.45146        0.35184        0.22812        0.17979        0.14502        0.11960        0.12885        0.08417        0.11214        0.23842        0.26499        0.34658        0.36467        0.44450        0.51056        0.53632        0.54244        0.46786        0.43106        0.38550        0.35369        0.30142        0.25286        0.20597        0.19239        0.16888        0.19848        0.18236        0.27478        0.33430        0.36671        0.42661        0.45747        0.47551        0.43087        0.38731        0.41214        0.36857        0.27754        0.26104        0.21975        0.21971        0.19394        0.22192        0.22982        0.32520        0.37004        0.37114        0.46401        0.43073        0.43349        0.42792        0.39280        0.34088        0.32000        0.27663        0.25377        0.23811        0.27130        0.27516        0.30205        0.30415        0.33013        0.32209        0.40308        0.41649        0.37390        0.34488        0.36342        0.28061        0.28066        0.25910        0.27957        0.26136        0.28050        0.29254        0.30926        0.34556        0.36202        0.36342        0.34078        0.35055        0.29004        0.32051        0.26969        0.24231        0.29270        0.28746        0.30959        0.30665        0.32244        0.32820        0.31617        0.31777        0.28870        0.29251        0.26578        0.28499        0.26208        0.29749        0.28392        0.27103        0.30484        0.31205        0.31690        0.27562        0.30113        0.27584        0.26025        0.24882        0.21703        0.27840        0.27720        0.32855        0.30764        0.31534        0.31657        0.31217        0.27659        0.29675        0.32688        0.26410        0.25743        0.29705        0.28414        0.33657        0.32956        0.33978        0.32586        0.30102        0.27849        0.27137        0.24906        0.22487        0.27854        0.30546        0.29283        0.27960        0.29367        0.27272        0.32882        0.32525        0.25041        0.22114        0.27988        0.31959        0.27432        0.30564        0.32812        0.32461        0.30416        0.31390        0.33589        0.29572        0.27977        0.24870        0.29236        0.35534        0.36374        0.27148        0.26231        0.25595        0.29248        0.21817        0.28570        0.23777        0.24851        0.33492        0.32537        0.34505        0.29597        0.24351        0.24124        0.24048        0.23276        0.20390        0.23315        0.28207        0.30075        0.24467        0.31499        0.31668        0.26132        0.25724        0.19782        0.15827        0.21118        0.21552        0.20066        0.21511        0.22626        0.19406        0.25552        0.34817        0.31261        0.32938        0.23014        0.21350        0.20096        0.27130        0.28247        0.15025        0.22370        0.24303        0.11280        0.18162        0.12637        0.13313        0.23259        0.13096       -0.09433       -0.57263
2.605326 2.578063 2.550949 2.523982 2.497163 2.470493 2.443970 2.417596 2.391369 2.365291 2.339360 2.313578 2.287943 2.262457 2.237119 2.211928 2.186886 2.161992 2.137246 2.112648 2.088198 2.063896 2.039741 2.015735 1.991877 1.968168 1.944606 1.921192 1.897926 1.874808 1.851838 1.829017 1.806343 1.783817 1.761440 1.739210 1.717128 1.695195 1.673409 1.651772 1.630282 1.608941 1.587748 1.566702 1.545805 1.525056 1.504454 1.484001 1.463696 1.443539 1.423530 1.641982 2.051915 1.626095 1.136381 0.996664 0.421493 0.819077 0.558904 0.837149 0.776268 0.793752 0.750979 0.713779 0.567488 0.521356 0.486229 0.438544 0.214176 0.380496 0.203280 0.311483 0.232745 0.184811 0.140599 0.012669 0.038213 -0.007533 -0.057797 0.108788 0.208518 0.191182 0.154896 0.334507 0.196711 0.495358 0.587958 0.563879 0.600645 0.872333 0.812218 0.939945 0.888192 0.978723 0.944796 1.074814 1.139170 1.069463 1.126168 0.938093 0.933938 0.786543 0.652614 0.775958 0.709112 0.465538 0.311177 0.248002 0.225853 0.145266 0.095005 0.134800 0.079992 0.144926 0.056528 0.261697 0.378124 0.354425 0.477731 0.569003 0.454976 0.559502 0.700347 0.733173 0.776026 0.721134 0.728920 0.702460 0.621515 0.557246 0.420773 0.284175 0.213477 0.081034 0.126853 -0.046611 -0.037124 -0.074265 -0.044374 -0.007437 0.149423 0.079070 0.287027 0.283962 0.357171 0.452798 0.520058 0.510902 0.509677 0.501904 0.329440 0.309831 0.278654 0.095097 0.046635 -0.020884 -0.026156 -0.038505 -0.081787 -0.099526 0.003314 0.058894 0.127808 0.155975 0.228487 0.319086 0.315641 0.415753 0.389238 0.275010 0.230114 0.232530 0.186620 0.106031 0.084991 0.012577 0.004041 0.014914 -0.012819 0.063158 0.149990 0.138259 0.237593 0.252531 0.307503 0.235024 0.218093 0.170395 0.215615 0.128153 0.039491 0.023240 -0.009689 -0.010273 -0.035907 0.021589 0.015979 0.158265 0.136318 0.177531 0.236501 0.194016 0.187313 0.193311 0.143517 0.092425 0.054653 0.056317 -0.019997 0.003809 0.024329 0.059643 0.057397 0.073419 0.086780 0.117147 0.139152 0.186881 0.082974 0.094344 0.072503 0.006623 0.003444 0.008970 -0.001339 0.016357 0.011146 0.028993 0.065364 0.080282 0.131861 0.055764 0.108357 0.059670 0.018859 0.060162 -0.031983 -0.010619 0.039980 0.004706 0.058984 0.050626 0.046983 0.068269 0.058591 0.042962 0.032249 0.004912 0.023455 0.012790 -0.007277 0.064273 -0.008968 0.020277 0.061256 0.051430 0.045494 0.047557 0.041520 0.022652 0.001520 -0.025219 -0.015338 0.029840 0.044133 0.088763 0.060976 0.071832 0.088556 0.072225 0.043457 0.085122 0.094526 0.016621 0.029143 0.072343 0.056624 0.107055 0.111802 0.093551 0.125855 0.079275 0.041151 0.052715 -0.001889 0.015665 0.070297 0.088677 0.054068 0.045518 0.040553 0.027598 0.112732 0.061974 -0.030657 -0.041142 0.040278 0.091218 0.013330 0.028787 0.085834 0.085656 0.037475 0.059895 0.081344 0.037009 0.032488 -0.044730 0.047594 0.121694 0.091914 -0.033147 -0.019424 -0.034022 0.050668 -0.102246 0.039891 -0.068234 -0.027384 0.064720 0.057701 0.034035 -0.017765 -0.058049 -0.051693 -0.078756 -0.048476 -0.086824 -0.076947 -0.003612 0.067401 -0.052123 0.064583 0.012267 -0.047954 0.034598 -0.105883 -0.110420 -0.058555 -0.028189 -0.042239 -0.047834 0.009581 -0.032073 0.024443 0.199027 -0.013904 0.163997 0.020543 0.221175 0.216069 0.309865 0.272131 0.131305 0.225666 0.285765 0.072367 0.191867 0.130021 0.110728 0.331618 0.134829 -0.596515
0.072396 0.072899 0.074406 0.076918 0.080434 0.084952 0.090473 0.096994 0.104513 0.113027 0.122532 0.133026 0.144501 0.156953 0.170372 0.184751 0.200077 0.216338 0.233520 0.251604 0.270571 0.290398 0.311058 0.332524 0.354760 0.377731 0.401395 0.425705 0.450612 0.476060 0.501986 0.528325 0.555003 0.581942 0.609057 0.636255 0.663438 0.690502 0.717335 0.743817 0.769824 0.795222 0.819874 0.843634 0.866350 0.887866 0.908020 0.926645 0.943570 0.958622 0.971623 0.982396 0.990764 0.996548 0.999573 0.999670 0.996670 0.990416 0.980756 0.967551 0.950672 0.930008 0.905461 0.876955 0.844432 0.807859 0.767230 0.722564 0.673910 0.621351 0.565002 0.505013 0.441574 0.374909 0.305285 0.233007 0.158423 0.081917 0.003917 0.075111 0.154665 0.234207 0.313166 0.390942 0.466908 0.540420 0.610814 0.677420 0.739560 0.796565 0.847775 0.892549 0.930276 0.960382 0.982340 0.995679 0.999995 0.994957 0.980320 0.955934 0.921749 0.877824 0.824334 0.761577 0.689974 0.610076 0.522560 0.428234 0.328030 0.222999 0.114303 0.003211 0.108924 0.220668 0.330530 0.436980 0.538470 0.633455 0.720419 0.797904 0.864534 0.919042 0.960298 0.987340 0.999393 0.995899 0.976535 0.941236 0.890207 0.823934 0.743193 0.649049 0.542853 0.426229 0.301057 0.169453 0.033734 0.103615 0.239985 0.372691 0.499024 0.616307 0.721956 0.813539 0.888840 0.945917 0.983161 0.999346 0.993682 0.965848 0.916024 0.844915 0.753750 0.644283 0.518773 0.379943 0.230944 0.075283 0.083251 0.240671 0.392892 0.535838 0.665551 0.778311 0.870747 0.939947 0.983564 0.999905 0.988013 0.947722 0.879697 0.785451 0.667328 0.528472 0.372753 0.204687 0.029300 0.147997 0.321579 0.485784 0.635094 0.764334 0.868859 0.944735 0.988903 0.999323 0.975081 0.916468 0.825015 0.703486 0.555816 0.387013 0.203009 0.010460 0.183472 0.371386 0.545926 0.700069 0.827422 0.922503 0.980998 0.999977 0.978071 0.915577 0.814512 0.678580 0.513072 0.324689 0.121300 0.088375 0.295129 0.489658 0.662994 0.806928 0.914416 0.979948 0.999863 0.972584 0.898762 0.781315 0.625361 0.438036 0.228194 0.006023 0.217431 0.430815 0.623036 0.783852 0.904447 0.977933 0.999784 0.968156 0.884065 0.751423 0.576904 0.369660 0.140876 0.096806 0.329970 0.545170 0.729724 0.872480 0.964514 0.999739 0.975347 0.892076 0.754273 0.569720 0.349255 0.106180 0.144517 0.387055 0.605866 0.786600 0.917090 0.988221 0.994616 0.935095 0.812868 0.635448 0.414239 0.163878 0.098715 0.355435 0.588247 0.780464 0.917972 0.990309 0.991534 0.920763 0.782378 0.585836 0.345096 0.077680 0.196539 0.456825 0.683120 0.857626 0.966250 0.999798 0.954829 0.834068 0.646350 0.406057 0.132085 0.153589 0.427637 0.667288 0.852243 0.966432 0.999492 0.947781 0.814856 0.611338 0.354157 0.065217 0.230404 0.506617 0.738624 0.905181 0.990602 0.986322 0.891846 0.714983 0.471317 0.182924 0.123554 0.419332 0.676174 0.869115 0.978954 0.994244 0.912589 0.741088 0.495833 0.200526 0.115754 0.421347 0.685179 0.879961 0.985060 0.988791 0.889829 0.697578 0.431398 0.118784 0.207402 0.512342 0.762980 0.931646 0.999206 0.957337 0.809683 0.571698 0.269165 0.064481 0.391801 0.675508 0.882772 0.989071 0.981220 0.859142 0.636138 0.337604 0.001752 0.341848 0.641935 0.865508 0.984817 0.984433 0.863390 0.635592 0.328384 0.020593 0.367943 0.669845 0.887648 0.992885 0.971132 0.824146 0.569953 0.240808 0.120764
1.000000 1.000000 1.000000 1.000000 1.000000 1.000000 1.000000 1.000000 1.000000 1.000000 1.000000 1.000000 1.000000 1.000000 1.000000 1.000000 1.000000 1.000000 1.000000 1.000000 1.000000 1.000000 1.000000 1.000000 1.000000 1.000000 1.000000 1.000000 1.000000 1.000000 1.000000 1.000000 1.000000 1.000000 1.000000 1.000000 1.000000 1.000000 1.000000 1.000000 1.000000 1.000000 1.000000 1.000000 1.000000 1.000000 1.000000 1.000000 1.000000 1.000000 1.000000 1.000000 0.926069 0.926069 0.926069 0.915125 0.915125 0.915125 0.915125 0.915125 0.915125 0.915125 0.915125 0.915125 0.915125 0.915125 0.915125 0.915125 0.915125 0.915125 0.915125 0.915125 0.915125 0.915125 0.915125 0.915125 0.915125 0.915125 0.915125 0.915125 0.915125 0.915125 0.915125 0.915125 0.915125 0.915125 0.915125 0.915125 0.915125 0.915125 0.915125 0.915125 0.915125 0.915125 0.915125 0.915125 0.943150 0.944576 0.952635 0.952476 0.951924 0.949753 0.948722 0.948263 0.948148 0.948457 0.949135 0.950066 0.958845 0.960024 0.962831 0.963693 0.964416 0.965038 0.965669 0.966293 0.965457 0.964869 0.964347 0.960366 0.963110 0.962451 0.962522 0.963538 0.963417 0.965189 0.965393 0.964766 0.963831 0.963031 0.962258 0.961799 0.961515 0.962033 0.962357 0.963705 0.966915 0.966367 0.966075 0.966232 0.966334 0.966530 0.967015 0.968779 0.965012 0.965558 0.965514 0.963443 0.970069 0.967274 0.967785 0.968300 0.969730 0.969946 0.966728 0.962713 0.954886 0.954030 0.949807 0.940520 0.937920 0.939064 0.941223 0.941805 0.941032 0.934167 0.934676 0.929472 0.929071 0.932358 0.928549 0.926744 0.928074 0.926608 0.924755 0.923912 0.920974 0.916266 0.913213 0.912939 0.916353 0.918731 0.920095 0.919793 0.913786 0.902706 0.885751 0.883157 0.878451 0.882088 0.873045 0.872572 0.872715 0.869515 0.873458 0.874457 0.875588 0.871427 0.856024 0.836212 0.827474 0.830638 0.836369 0.833141 0.832356 0.825685 0.838965 0.823306 0.836476 0.848660 0.842077 0.843052 0.843000 0.839914 0.830646 0.829285 0.831964 0.833972 0.834281 0.833571 0.825588 0.812695 0.815684 0.762741 0.747043 0.743175 0.748133 0.752472 0.751853 0.750322 0.758171 0.763499 0.763996 0.750647 0.742650 0.732629 0.737387 0.742342 0.747804 0.738681 0.724529 0.709357 0.669188 0.686131 0.715711 0.667982 0.689920 0.697476 0.690300 0.689853 0.681639 0.675761 0.666348 0.669636 0.680898 0.697917 0.714465 0.737241 0.730991 0.720583 0.722428 0.702372 0.693579 0.683066 0.688777 0.669907 0.663686 0.685420 0.686025 0.678268 0.671005 0.654101 0.637425 0.640124 0.645029 0.640362 0.640714 0.624764 0.596942 0.593196 0.625072 0.644142 0.662736 0.635735 0.621230 0.614617 0.594713 0.611027 0.566639 0.566535 0.587716 0.593822 0.571950 0.542957 0.548262 0.569225 0.576420 0.568589 0.540724 0.531579 0.544798 0.572346 0.562882 0.535029 0.542658 0.539668 0.537665 0.482490 0.483802 0.452188 0.430521 0.360097 0.334123 0.332703 0.320521 0.314910 0.284454 0.279749 0.288676 0.300191 0.306136 0.302366 0.284724 0.288263 0.280577 0.268105 0.208391 0.193770 0.183730 0.173278 0.175594 0.149302 0.167478 0.226383 0.228672 0.228672 0.228672 0.228672 0.228672 0.228672 0.240126 0.240126 0.240126 0.240126 0.240126 0.240126 0.240126 0.240126 0.240126 0.251575 0.251575 0.251575 0.251575 0.251575 0.251575 0.251575 0.251575 0.251575 0.251575 0.251575 0.251575 0.251575 0.251575
0.000000 0.000000 0.000000 0.000000 0.000000 0.000000 0.000000 0.000000 0.000000 0.000000 0.000000 0.000000 0.000000 0.000000 0.000000 0.000000 0.000000 0.000000 0.000000 0.000000 0.000000 0.000000 0.000000 0.000000 0.000000 0.000000 0.000000 0.000000 0.000000 0.000000 0.000000 0.000000 0.000000 0.000000 0.000000 0.000000 0.000000 0.000000 0.000000 0.000000 0.000000 0.000000 0.000000 0.000000 0.000000 0.000000 0.000000 0.000000 0.000000 0.000000 0.000000 0.000000 0.180334 0.180334 0.180334 0.199007 0.199007 0.199007 0.199007 0.199007 0.199007 0.199007 0.199007 0.199007 0.199007 0.199007 0.199007 0.199007 0.199007 0.199007 0.199007 0.199007 0.199007 0.199007 0.199007 0.199007 0.199007 0.199007 0.199007 0.199007 0.199007 0.199007 0.199007 0.199007 0.199007 0.199007 0.199007 0.199007 0.199007 0.199007 0.199007 0.199007 0.199007 0.199007 0.199007 0.199007 0.225018 0.225018 0.225018 0.225018 0.225018 0.225018 0.225018 0.225018 0.225018 0.225018 0.225018 0.225018 0.225018 0.225018 0.225018 0.225018 0.225018 0.225018 0.225018 0.225018 0.225018 0.225018 0.225018 0.225018 0.225018 0.225018 0.225018 0.225018 0.225018 0.244339 0.244339 0.244339 0.244339 0.244339 0.244339 0.244339 0.244339 0.244339 0.244339 0.244339 0.244339 0.244339 0.244339 0.244339 0.244339 0.244339 0.244339 0.244339 0.244339 0.244339 0.244339 0.244339 0.251976 0.251976 0.251976 0.251976 0.251976 0.251976 0.251976 0.251976 0.251976 0.251976 0.251976 0.251976 0.251976 0.251976 0.251976 0.251976 0.251976 0.251976 0.251976 0.251976 0.264906 0.264906 0.264906 0.264906 0.264906 0.264906 0.264906 0.264906 0.264906 0.264906 0.264906 0.264906 0.264906 0.264906 0.264906 0.264906 0.264906 0.264906 0.264906 0.264906 0.264906 0.264906 0.264906 0.264906 0.264906 0.264906 0.264906 0.264906 0.264906 0.264906 0.264906 0.264906 0.264906 0.264906 0.264906 0.264906 0.264906 0.264906 0.264906 0.264906 0.264906 0.264906 0.264906 0.264906 0.264906 0.264906 0.264906 0.264906 0.264906 0.264906 0.264906 0.264906 0.264906 0.264906 0.264906 0.264906 0.264906 0.264906 0.264906 0.264906 0.264906 0.264906 0.256074 0.256074 0.256074 0.256074 0.256074 0.256074 0.256074 0.256074 0.256074 0.256074 0.256074 0.256074 0.256074 0.256074 0.269680 0.269680 0.269680 0.269680 0.269680 0.269680 0.269680 0.269680 0.269680 0.269680 0.269680 0.269680 0.264906 0.264906 0.264906 0.264906 0.264906 0.264906 0.264906 0.264906 0.264906 0.264906 0.264906 0.264906 0.269680 0.269680 0.269680 0.269680 0.269680 0.269680 0.269680 0.269680 0.269680 0.269680 0.269680 0.264906 0.264906 0.264906 0.264906 0.264906 0.264906 0.264906 0.264906 0.264906 0.264906 0.264906 0.256074 0.256074 0.256074 0.256074 0.256074 0.256074 0.256074 0.256074 0.256074 0.256074 0.256074 0.264906 0.264906 0.264906 0.264906 0.264906 0.264906 0.264906 0.264906 0.264906 0.264906 0.260378 0.260378 0.260378 0.260378 0.260378 0.260378 0.260378 0.260378 0.260378 0.260378 0.256074 0.256074 0.256074 0.256074 0.256074 0.256074 0.256074 0.256074 0.256074 0.256074 0.260378 0.260378 0.260378 0.260378 0.260378 0.260378 0.260378 0.260378 0.260378 0.256074 0.256074 0.256074 0.256074 0.256074 0.256074 0.256074 0.256074 0.256074 0.251976 0.251976 0.251976 0.251976 0.251976 0.251976 0.251976 0.251976 0.251976 0.251976 0.251976 0.251976 0.251976 0.251976
