# Output from CTFFind version 4.1.9, run on 2019-11-03 19:01:42
# Input file: stack11_bm3d_averaged_1_2.75_0_250_half.mrc ; Number of micrographs: 1
# Pixel size: 3.000 Angstroms ; acceleration voltage: 300.0 keV ; spherical aberration: 0.00 mm ; amplitude contrast: 0.07
# Box size: 512 pixels ; min. res.: 30.0 Angstroms ; max. res.: 5.0 Angstroms ; min. def.: 5000.0 um; max. def. 50000.0 um; num. frames averaged: 1
# 6 lines per micrograph: #1 - spatial frequency (1/Angstroms); #2 - 1D rotational average of spectrum (assuming no astigmatism); #3 - 1D rotational average of spectrum; #4 - CTF fit; #5 - cross-correlation between spectrum and CTF fit; #6 - 2sigma of expected cross correlation of noise
0.000000 0.000651 0.001302 0.001953 0.002604 0.003255 0.003906 0.004557 0.005208 0.005859 0.006510 0.007161 0.007812 0.008464 0.009115 0.009766 0.010417 0.011068 0.011719 0.012370 0.013021 0.013672 0.014323 0.014974 0.015625 0.016276 0.016927 0.017578 0.018229 0.018880 0.019531 0.020182 0.020833 0.021484 0.022135 0.022786 0.023438 0.024089 0.024740 0.025391 0.026042 0.026693 0.027344 0.027995 0.028646 0.029297 0.029948 0.030599 0.031250 0.031901 0.032552 0.033203 0.033854 0.034505 0.035156 0.035807 0.036458 0.037109 0.037760 0.038411 0.039062 0.039714 0.040365 0.041016 0.041667 0.042318 0.042969 0.043620 0.044271 0.044922 0.045573 0.046224 0.046875 0.047526 0.048177 0.048828 0.049479 0.050130 0.050781 0.051432 0.052083 0.052734 0.053385 0.054036 0.054688 0.055339 0.055990 0.056641 0.057292 0.057943 0.058594 0.059245 0.059896 0.060547 0.061198 0.061849 0.062500 0.063151 0.063802 0.064453 0.065104 0.065755 0.066406 0.067057 0.067708 0.068359 0.069010 0.069661 0.070312 0.070964 0.071615 0.072266 0.072917 0.073568 0.074219 0.074870 0.075521 0.076172 0.076823 0.077474 0.078125 0.078776 0.079427 0.080078 0.080729 0.081380 0.082031 0.082682 0.083333 0.083984 0.084635 0.085286 0.085938 0.086589 0.087240 0.087891 0.088542 0.089193 0.089844 0.090495 0.091146 0.091797 0.092448 0.093099 0.093750 0.094401 0.095052 0.095703 0.096354 0.097005 0.097656 0.098307 0.098958 0.099609 0.100260 0.100911 0.101562 0.102214 0.102865 0.103516 0.104167 0.104818 0.105469 0.106120 0.106771 0.107422 0.108073 0.108724 0.109375 0.110026 0.110677 0.111328 0.111979 0.112630 0.113281 0.113932 0.114583 0.115234 0.115885 0.116536 0.117188 0.117839 0.118490 0.119141 0.119792 0.120443 0.121094 0.121745 0.122396 0.123047 0.123698 0.124349 0.125000 0.125651 0.126302 0.126953 0.127604 0.128255 0.128906 0.129557 0.130208 0.130859 0.131510 0.132161 0.132812 0.133464 0.134115 0.134766 0.135417 0.136068 0.136719 0.137370 0.138021 0.138672 0.139323 0.139974 0.140625 0.141276 0.141927 0.142578 0.143229 0.143880 0.144531 0.145182 0.145833 0.146484 0.147135 0.147786 0.148438 0.149089 0.149740 0.150391 0.151042 0.151693 0.152344 0.152995 0.153646 0.154297 0.154948 0.155599 0.156250 0.156901 0.157552 0.158203 0.158854 0.159505 0.160156 0.160807 0.161458 0.162109 0.162760 0.163411 0.164062 0.164714 0.165365 0.166016 0.166667 0.167318 0.167969 0.168620 0.169271 0.169922 0.170573 0.171224 0.171875 0.172526 0.173177 0.173828 0.174479 0.175130 0.175781 0.176432 0.177083 0.177734 0.178385 0.179036 0.179688 0.180339 0.180990 0.181641 0.182292 0.182943 0.183594 0.184245 0.184896 0.185547 0.186198 0.186849 0.187500 0.188151 0.188802 0.189453 0.190104 0.190755 0.191406 0.192057 0.192708 0.193359 0.194010 0.194661 0.195312 0.195964 0.196615 0.197266 0.197917 0.198568 0.199219 0.199870 0.200521 0.201172 0.201823 0.202474 0.203125 0.203776 0.204427 0.205078 0.205729 0.206380 0.207031 0.207682 0.208333 0.208984 0.209635 0.210286 0.210938 0.211589 0.212240 0.212891 0.213542 0.214193 0.214844 0.215495 0.216146 0.216797 0.217448 0.218099 0.218750 0.219401 0.220052 0.220703 0.221354 0.222005 0.222656 0.223307 0.223958 0.224609 0.225260 0.225911 0.226562 0.227214 0.227865 0.228516 0.229167 0.229818 0.230469 0.231120 0.231771 0.232422 0.233073 0.233724 0.234375 0.235026 0.235677
       0.32466        0.32466        0.32466        0.32466        0.32466        0.32466        0.32466        0.32466        0.32466        0.32466        0.32466        0.32466        0.32466        0.32466        0.32466        0.32466        0.32466        0.32466        0.32466        0.32466        0.32466        0.32466        0.32466        0.32466        0.32466        0.32466        0.32466        0.32466        0.32466        0.32466        0.32466        0.32466        0.32466        0.32466        0.32466        0.32466        0.32466        0.32466        0.32466        0.32466        0.32466        0.32466        0.32466        0.32466        0.32466        0.32466        0.32466        0.32466        0.32466        0.32466        0.32466        0.68475        0.86135        0.52768        0.09659       -0.04833       -0.41131       -0.19418       -0.29404       -0.11361       -0.06551       -0.11496       -0.06109       -0.19161       -0.22129       -0.24016       -0.32261       -0.33238       -0.46846       -0.37453       -0.44852       -0.43933       -0.41186       -0.44617       -0.50164       -0.54104       -0.57400       -0.59742       -0.55971       -0.39175       -0.36447       -0.31812       -0.29691       -0.20097       -0.19481        0.03158        0.10411        0.13467        0.23928        0.37101        0.44659        0.51094        0.57045        0.56868        0.56599        0.69119        0.80479        0.71923        0.73294        0.64114        0.56608        0.48106        0.41653        0.50121        0.38510        0.23052        0.08849        0.06908        0.04444       -0.04781       -0.00749        0.01219       -0.04036        0.00236       -0.00567        0.22488        0.25668        0.28655        0.42566        0.44981        0.40619        0.56214        0.62191        0.67058        0.74082        0.68147        0.64870        0.67973        0.56900        0.47902        0.41596        0.29385        0.22121        0.16169        0.11485        0.04597        0.02522        0.02401        0.07938        0.13262        0.21694        0.27495        0.39675        0.44067        0.48789        0.59313        0.61967        0.63535        0.62158        0.55863        0.45108        0.46043        0.36342        0.24032        0.18513        0.14948        0.13725        0.13417        0.10949        0.13699        0.26922        0.28228        0.36468        0.39422        0.43411        0.50625        0.54396        0.55052        0.48007        0.44568        0.39255        0.34811        0.31131        0.27056        0.21760        0.21038        0.19482        0.21611        0.19669        0.28836        0.34824        0.37690        0.43465        0.45001        0.47555        0.42155        0.39149        0.40658        0.36299        0.28643        0.26181        0.22987        0.23218        0.20459        0.24610        0.25022        0.33071        0.36625        0.38702        0.47145        0.42601        0.43074        0.43269        0.40319        0.34277        0.31513        0.28276        0.28246        0.25246        0.28909        0.28420        0.30836        0.31680        0.33558        0.32107        0.40403        0.41688        0.37978        0.34742        0.36920        0.29218        0.28523        0.26969        0.29720        0.27671        0.29128        0.30521        0.32014        0.33984        0.36605        0.36984        0.36922        0.36366        0.30751        0.32616        0.28097        0.25330        0.31116        0.30228        0.31260        0.31442        0.32098        0.34885        0.32440        0.32098        0.29798        0.31228        0.28230        0.29176        0.26169        0.29115        0.29827        0.28580        0.30892        0.32655        0.33406        0.27096        0.30749        0.27526        0.28603        0.26577        0.22700        0.28453        0.28854        0.33923        0.31883        0.31703        0.31842        0.32386        0.28160        0.31919        0.32601        0.27809        0.26885        0.31185        0.29648        0.34223        0.32741        0.32683        0.32729        0.28894        0.27417        0.29592        0.24788        0.22163        0.30083        0.31552        0.31087        0.30224        0.31808        0.28886        0.33666        0.32910        0.25658        0.23113        0.29472        0.29918        0.28219        0.31231        0.33150        0.33712        0.31003        0.29806        0.33354        0.31389        0.28038        0.26319        0.30929        0.35163        0.38278        0.29369        0.27537        0.27307        0.30234        0.24744        0.28392        0.25872        0.24931        0.31829        0.32324        0.33589        0.31620        0.27682        0.25595        0.25632        0.24631        0.22923        0.23710        0.31833        0.29383        0.21775        0.32570        0.32131        0.25804        0.25646        0.19915        0.19296        0.24852        0.19430        0.23544        0.24950        0.22105        0.19670        0.27979        0.34494        0.34166        0.33950        0.24600        0.20191        0.17730        0.23617        0.23129        0.14801        0.17444        0.23683        0.18792        0.19463        0.15647        0.10736        0.16000        0.04155       -0.11245       -0.59196
2.655723 2.627811 2.600051 2.572443 2.544987 2.517683 2.490530 2.463530 2.436681 2.409985 2.383440 2.357047 2.330805 2.304716 2.278779 2.252993 2.227360 2.201878 2.176548 2.151370 2.126344 2.101470 2.076747 2.052177 2.027758 2.003492 1.979377 1.955414 1.931603 1.907944 1.884436 1.861081 1.837877 1.814825 1.791925 1.769178 1.746581 1.724137 1.701845 1.679704 1.657716 1.635879 1.614194 1.592661 1.571280 1.550051 1.528974 1.508048 1.487275 1.466653 1.446183 1.662488 2.078376 1.648054 1.153742 1.013655 0.432094 0.829500 0.560215 0.842035 0.790704 0.804377 0.754019 0.726388 0.579262 0.536294 0.489862 0.435212 0.227942 0.376338 0.204905 0.317731 0.230989 0.193391 0.155204 0.022799 0.032774 -0.000868 -0.062656 0.119181 0.214564 0.189484 0.165740 0.334656 0.188407 0.499293 0.602332 0.588538 0.615193 0.872160 0.821011 0.937440 0.900619 0.997828 0.959181 1.069650 1.154684 1.057533 1.136922 0.926772 0.928849 0.786147 0.655144 0.786267 0.707093 0.474757 0.319426 0.247322 0.244023 0.145656 0.108432 0.146399 0.092994 0.137677 0.063863 0.260212 0.372585 0.347345 0.478160 0.559199 0.441994 0.573149 0.711130 0.710873 0.750286 0.722410 0.726855 0.685210 0.613592 0.539504 0.402980 0.283052 0.220670 0.083157 0.123609 -0.064126 -0.040856 -0.067528 -0.055600 -0.017610 0.147754 0.071848 0.264974 0.298937 0.346700 0.432398 0.515591 0.506362 0.502027 0.505920 0.323203 0.306348 0.284197 0.095296 0.043920 -0.042368 -0.015735 -0.048504 -0.082438 -0.093625 0.025642 0.068794 0.123116 0.183352 0.229498 0.286822 0.319688 0.421220 0.395249 0.276511 0.241747 0.219732 0.171184 0.125446 0.099540 0.005081 0.010778 0.039108 -0.010800 0.069363 0.152446 0.142287 0.246052 0.248440 0.291411 0.226794 0.214477 0.153572 0.204822 0.112317 0.045518 0.002616 -0.005578 -0.007722 -0.042855 0.038632 0.019922 0.140999 0.142077 0.179100 0.224502 0.179181 0.177229 0.192559 0.142631 0.073946 0.028495 0.060263 -0.000510 -0.002649 0.026801 0.049040 0.060363 0.062568 0.069186 0.107797 0.140498 0.171239 0.076148 0.080161 0.066638 0.012765 -0.010664 0.010737 0.010965 0.010899 0.010070 0.031547 0.058584 0.077119 0.110889 0.058353 0.126328 0.062831 0.022839 0.051787 -0.033079 -0.005378 0.051554 0.003482 0.050823 0.048181 0.031352 0.107039 0.049545 0.022830 0.041550 0.014072 0.020718 0.008980 -0.014594 0.048056 0.001988 0.017644 0.061471 0.059691 0.052110 0.035176 0.040377 0.032968 0.021874 -0.014254 -0.017152 0.036858 0.058382 0.091615 0.080589 0.071101 0.089723 0.081228 0.046989 0.103386 0.101423 0.022345 0.044085 0.086111 0.074910 0.112569 0.106327 0.066616 0.138226 0.071380 0.030694 0.088448 -0.012635 0.013909 0.095284 0.085561 0.090837 0.076593 0.067508 0.032809 0.122566 0.076086 -0.010803 -0.030177 0.054375 0.073321 0.026249 0.051742 0.103691 0.096073 0.041026 0.054834 0.081259 0.065394 0.033264 -0.020126 0.075856 0.114009 0.127262 0.003618 0.004861 -0.007228 0.057664 -0.051249 0.025650 -0.024218 -0.027314 0.044662 0.057632 0.035526 0.012986 -0.022686 -0.031886 -0.064347 -0.021622 -0.070082 -0.068451 0.032265 0.081604 -0.077928 0.068959 0.016095 -0.047889 0.021271 -0.105620 -0.074903 -0.027354 -0.093342 -0.007042 -0.011426 0.005300 -0.093875 0.047712 0.182588 0.017339 0.166942 0.018698 0.214338 0.171009 0.256035 0.269095 0.149272 0.177776 0.284723 0.159834 0.218018 0.147760 0.147063 0.239724 0.041449 -0.628389
0.072396 0.072899 0.074407 0.076920 0.080437 0.084958 0.090482 0.097005 0.104528 0.113046 0.122556 0.133054 0.144535 0.156993 0.170418 0.184803 0.200137 0.216406 0.233595 0.251687 0.270663 0.290498 0.311168 0.332643 0.354889 0.377869 0.401542 0.425863 0.450779 0.476236 0.502172 0.528520 0.555206 0.582153 0.609275 0.636480 0.663670 0.690739 0.717575 0.744060 0.770067 0.795465 0.820115 0.843870 0.866580 0.888088 0.908232 0.926843 0.943752 0.958785 0.971764 0.982512 0.990851 0.996603 0.999593 0.999651 0.996609 0.990308 0.980599 0.967341 0.950406 0.929681 0.905072 0.876499 0.843908 0.807265 0.766563 0.721823 0.673095 0.620461 0.564037 0.503975 0.440464 0.373730 0.304041 0.231702 0.157062 0.080507 0.002466 0.076595 0.156173 0.235728 0.314689 0.392453 0.468396 0.541869 0.612210 0.678746 0.740802 0.797706 0.848798 0.893438 0.931015 0.960955 0.982732 0.995877 0.999985 0.994729 0.979866 0.955246 0.920822 0.876656 0.822927 0.759935 0.688105 0.607990 0.520273 0.425765 0.325401 0.220235 0.111436 0.000272 0.111897 0.223637 0.333454 0.439815 0.541172 0.635977 0.722718 0.799936 0.866255 0.920412 0.961283 0.987906 0.999514 0.995554 0.975713 0.939930 0.888420 0.821678 0.740490 0.645931 0.539359 0.422409 0.296970 0.165168 0.029325 0.108067 0.244392 0.376963 0.503070 0.620034 0.725275 0.816365 0.891095 0.947532 0.984077 0.999519 0.993082 0.964462 0.913859 0.841993 0.750117 0.640003 0.513928 0.374637 0.225293 0.069419 0.089184 0.246520 0.398500 0.541048 0.670210 0.782275 0.873884 0.942144 0.984729 0.999975 0.986951 0.945526 0.876399 0.781115 0.662057 0.522398 0.366044 0.197531 0.021914 0.155383 0.328726 0.492450 0.641043 0.769349 0.872743 0.947323 0.990071 0.998989 0.973216 0.913098 0.820222 0.697405 0.548638 0.378976 0.194391 0.001575 0.192288 0.379791 0.553580 0.706648 0.832636 0.926107 0.982804 0.999865 0.975997 0.911581 0.808714 0.671184 0.504357 0.315007 0.111051 0.098748 0.305161 0.498888 0.670980 0.813272 0.918782 0.982085 0.999617 0.969911 0.893734 0.774124 0.616312 0.427533 0.216733 0.005837 0.229097 0.441680 0.632518 0.791425 0.909666 0.980469 0.999442 0.964891 0.877992 0.742816 0.566188 0.357391 0.127713 0.110132 0.342692 0.556540 0.739049 0.879165 0.968108 0.999962 0.972115 0.885516 0.744719 0.557702 0.335474 0.091465 0.159250 0.400866 0.617847 0.795934 0.923115 0.990475 0.992875 0.929396 0.803521 0.623014 0.399513 0.147830 0.114993 0.370807 0.601609 0.790826 0.924534 0.992528 0.989164 0.913894 0.771432 0.571551 0.328480 0.059950 0.214063 0.472794 0.696273 0.866893 0.970834 0.999253 0.949106 0.823531 0.631763 0.388529 0.112996 0.172700 0.445189 0.681790 0.862425 0.971358 0.998652 0.941148 0.802901 0.595006 0.334801 0.044493 0.250687 0.524642 0.752735 0.914036 0.993309 0.982530 0.881795 0.699504 0.451765 0.161069 0.145682 0.439632 0.692669 0.880153 0.983375 0.991508 0.902852 0.725197 0.475278 0.177287 0.139374 0.442957 0.702547 0.891232 0.988971 0.984822 0.878276 0.679535 0.408679 0.093735 0.232130 0.534076 0.779313 0.940716 0.999904 0.949459 0.793975 0.549798 0.243447 0.091167 0.416427 0.695231 0.895244 0.992740 0.975529 0.844620 0.614368 0.311061 0.029973 0.368385 0.663564 0.879533 0.989419 0.978912 0.848283 0.612635 0.300335 0.050294 0.395566 0.691856 0.901160 0.996045 0.963388 0.806350 0.544290 0.210529 0.151729
1.000000 1.000000 1.000000 1.000000 1.000000 1.000000 1.000000 1.000000 1.000000 1.000000 1.000000 1.000000 1.000000 1.000000 1.000000 1.000000 1.000000 1.000000 1.000000 1.000000 1.000000 1.000000 1.000000 1.000000 1.000000 1.000000 1.000000 1.000000 1.000000 1.000000 1.000000 1.000000 1.000000 1.000000 1.000000 1.000000 1.000000 1.000000 1.000000 1.000000 1.000000 1.000000 1.000000 1.000000 1.000000 1.000000 1.000000 1.000000 1.000000 1.000000 1.000000 1.000000 0.920614 0.920614 0.920614 0.915234 0.915234 0.915234 0.915234 0.915234 0.915234 0.915234 0.915234 0.915234 0.915234 0.915234 0.915234 0.915234 0.915234 0.915234 0.915234 0.915234 0.915234 0.915234 0.915234 0.915234 0.915234 0.915234 0.915234 0.915234 0.915234 0.915234 0.915234 0.915234 0.915234 0.915234 0.915234 0.915234 0.915234 0.915234 0.915234 0.915234 0.915234 0.915234 0.915234 0.915234 0.942950 0.944346 0.952416 0.952283 0.951747 0.949698 0.948628 0.948187 0.948086 0.948406 0.949094 0.950030 0.958767 0.959924 0.962688 0.963570 0.964318 0.964976 0.965654 0.966293 0.957566 0.956452 0.955105 0.951179 0.953839 0.953086 0.953027 0.953992 0.953875 0.954165 0.954461 0.953758 0.952660 0.951686 0.950737 0.950172 0.949959 0.950694 0.951116 0.952600 0.955908 0.956493 0.956625 0.956780 0.956882 0.958172 0.957155 0.956622 0.952727 0.952890 0.952459 0.950290 0.956231 0.953696 0.954098 0.954675 0.956309 0.956616 0.954126 0.951302 0.942889 0.941987 0.937326 0.930773 0.927332 0.929220 0.931006 0.931619 0.931892 0.926296 0.926561 0.922838 0.918837 0.921712 0.919836 0.919405 0.920808 0.918233 0.915913 0.915190 0.912201 0.903023 0.894084 0.894096 0.898405 0.902855 0.904194 0.902384 0.900387 0.887381 0.867647 0.866991 0.864932 0.868918 0.862592 0.862136 0.862746 0.862805 0.866323 0.863823 0.863877 0.859701 0.846445 0.831569 0.821576 0.824832 0.831516 0.829956 0.821240 0.823706 0.836162 0.822414 0.835178 0.845080 0.834320 0.834107 0.833180 0.828718 0.812881 0.811965 0.808522 0.798192 0.797988 0.797555 0.794542 0.788681 0.794937 0.779550 0.771658 0.761168 0.763405 0.767512 0.768289 0.765742 0.765644 0.771283 0.774578 0.759036 0.747614 0.735085 0.741210 0.747588 0.752718 0.745265 0.726666 0.696115 0.647647 0.666979 0.706246 0.649790 0.671048 0.674611 0.661852 0.660181 0.650818 0.647278 0.630073 0.633523 0.640956 0.652094 0.657168 0.677332 0.661560 0.651639 0.658286 0.651023 0.650096 0.637377 0.641493 0.617699 0.613954 0.643885 0.645035 0.636204 0.646022 0.628177 0.631012 0.658085 0.667375 0.658647 0.653320 0.629327 0.585976 0.588269 0.588802 0.604547 0.633736 0.608564 0.580501 0.566889 0.566282 0.586835 0.580418 0.580755 0.581179 0.589368 0.574346 0.548703 0.553556 0.577356 0.576716 0.563230 0.530572 0.532373 0.543581 0.581797 0.571271 0.533674 0.544657 0.541093 0.541153 0.504963 0.516562 0.490943 0.478238 0.426363 0.420434 0.432710 0.422119 0.390429 0.365691 0.364246 0.368762 0.374694 0.366424 0.345762 0.322970 0.346803 0.355336 0.343110 0.286362 0.274125 0.257846 0.248657 0.249322 0.214311 0.239501 0.290866 0.292210 0.292210 0.292210 0.292210 0.292210 0.292210 0.304765 0.304765 0.304765 0.304765 0.304765 0.304765 0.304765 0.304765 0.304765 0.323428 0.323428 0.323428 0.323428 0.323428 0.323428 0.323428 0.323428 0.323428 0.323428 0.323428 0.323428 0.323428 0.323428
0.000000 0.000000 0.000000 0.000000 0.000000 0.000000 0.000000 0.000000 0.000000 0.000000 0.000000 0.000000 0.000000 0.000000 0.000000 0.000000 0.000000 0.000000 0.000000 0.000000 0.000000 0.000000 0.000000 0.000000 0.000000 0.000000 0.000000 0.000000 0.000000 0.000000 0.000000 0.000000 0.000000 0.000000 0.000000 0.000000 0.000000 0.000000 0.000000 0.000000 0.000000 0.000000 0.000000 0.000000 0.000000 0.000000 0.000000 0.000000 0.000000 0.000000 0.000000 0.000000 0.180334 0.180334 0.180334 0.199007 0.199007 0.199007 0.199007 0.199007 0.199007 0.199007 0.199007 0.199007 0.199007 0.199007 0.199007 0.199007 0.199007 0.199007 0.199007 0.199007 0.199007 0.199007 0.199007 0.199007 0.199007 0.199007 0.199007 0.199007 0.199007 0.199007 0.199007 0.199007 0.199007 0.199007 0.199007 0.199007 0.199007 0.199007 0.199007 0.199007 0.199007 0.199007 0.199007 0.199007 0.225018 0.225018 0.225018 0.225018 0.225018 0.225018 0.225018 0.225018 0.225018 0.225018 0.225018 0.225018 0.225018 0.225018 0.225018 0.225018 0.225018 0.225018 0.225018 0.225018 0.225018 0.225018 0.225018 0.225018 0.225018 0.225018 0.225018 0.225018 0.225018 0.244339 0.244339 0.244339 0.244339 0.244339 0.244339 0.244339 0.244339 0.244339 0.244339 0.244339 0.244339 0.244339 0.244339 0.244339 0.244339 0.244339 0.244339 0.244339 0.244339 0.244339 0.244339 0.244339 0.251976 0.251976 0.251976 0.251976 0.251976 0.251976 0.251976 0.251976 0.251976 0.251976 0.251976 0.251976 0.251976 0.251976 0.251976 0.251976 0.251976 0.251976 0.251976 0.251976 0.264906 0.264906 0.264906 0.264906 0.264906 0.264906 0.264906 0.264906 0.264906 0.264906 0.264906 0.264906 0.264906 0.264906 0.264906 0.264906 0.264906 0.264906 0.264906 0.264906 0.264906 0.264906 0.264906 0.264906 0.264906 0.264906 0.264906 0.264906 0.264906 0.264906 0.264906 0.264906 0.264906 0.264906 0.264906 0.264906 0.264906 0.264906 0.264906 0.264906 0.264906 0.264906 0.264906 0.264906 0.264906 0.264906 0.264906 0.264906 0.264906 0.264906 0.264906 0.264906 0.264906 0.264906 0.264906 0.264906 0.264906 0.264906 0.264906 0.264906 0.264906 0.264906 0.256074 0.256074 0.256074 0.256074 0.256074 0.256074 0.256074 0.256074 0.256074 0.256074 0.256074 0.256074 0.256074 0.256074 0.269680 0.269680 0.269680 0.269680 0.269680 0.269680 0.269680 0.269680 0.269680 0.269680 0.269680 0.269680 0.264906 0.264906 0.264906 0.264906 0.264906 0.264906 0.264906 0.264906 0.264906 0.264906 0.264906 0.264906 0.269680 0.269680 0.269680 0.269680 0.269680 0.269680 0.269680 0.269680 0.269680 0.269680 0.269680 0.264906 0.264906 0.264906 0.264906 0.264906 0.264906 0.264906 0.264906 0.264906 0.264906 0.264906 0.256074 0.256074 0.256074 0.256074 0.256074 0.256074 0.256074 0.256074 0.256074 0.256074 0.256074 0.264906 0.264906 0.264906 0.264906 0.264906 0.264906 0.264906 0.264906 0.264906 0.264906 0.260378 0.260378 0.260378 0.260378 0.260378 0.260378 0.260378 0.260378 0.260378 0.260378 0.256074 0.256074 0.256074 0.256074 0.256074 0.256074 0.256074 0.256074 0.256074 0.256074 0.260378 0.260378 0.260378 0.260378 0.260378 0.260378 0.260378 0.260378 0.260378 0.256074 0.256074 0.256074 0.256074 0.256074 0.256074 0.256074 0.256074 0.256074 0.251976 0.251976 0.251976 0.251976 0.251976 0.251976 0.251976 0.251976 0.251976 0.251976 0.251976 0.251976 0.251976 0.251976
