# Output from CTFFind version 4.1.9, run on 2019-11-03 20:09:41
# Input file: stack6_bm3d_averaged_1_10_0_2500_half.mrc ; Number of micrographs: 1
# Pixel size: 3.000 Angstroms ; acceleration voltage: 300.0 keV ; spherical aberration: 0.00 mm ; amplitude contrast: 0.07
# Box size: 512 pixels ; min. res.: 30.0 Angstroms ; max. res.: 5.0 Angstroms ; min. def.: 5000.0 um; max. def. 50000.0 um; num. frames averaged: 1
# 6 lines per micrograph: #1 - spatial frequency (1/Angstroms); #2 - 1D rotational average of spectrum (assuming no astigmatism); #3 - 1D rotational average of spectrum; #4 - CTF fit; #5 - cross-correlation between spectrum and CTF fit; #6 - 2sigma of expected cross correlation of noise
0.000000 0.000651 0.001302 0.001953 0.002604 0.003255 0.003906 0.004557 0.005208 0.005859 0.006510 0.007161 0.007812 0.008464 0.009115 0.009766 0.010417 0.011068 0.011719 0.012370 0.013021 0.013672 0.014323 0.014974 0.015625 0.016276 0.016927 0.017578 0.018229 0.018880 0.019531 0.020182 0.020833 0.021484 0.022135 0.022786 0.023438 0.024089 0.024740 0.025391 0.026042 0.026693 0.027344 0.027995 0.028646 0.029297 0.029948 0.030599 0.031250 0.031901 0.032552 0.033203 0.033854 0.034505 0.035156 0.035807 0.036458 0.037109 0.037760 0.038411 0.039062 0.039714 0.040365 0.041016 0.041667 0.042318 0.042969 0.043620 0.044271 0.044922 0.045573 0.046224 0.046875 0.047526 0.048177 0.048828 0.049479 0.050130 0.050781 0.051432 0.052083 0.052734 0.053385 0.054036 0.054688 0.055339 0.055990 0.056641 0.057292 0.057943 0.058594 0.059245 0.059896 0.060547 0.061198 0.061849 0.062500 0.063151 0.063802 0.064453 0.065104 0.065755 0.066406 0.067057 0.067708 0.068359 0.069010 0.069661 0.070312 0.070964 0.071615 0.072266 0.072917 0.073568 0.074219 0.074870 0.075521 0.076172 0.076823 0.077474 0.078125 0.078776 0.079427 0.080078 0.080729 0.081380 0.082031 0.082682 0.083333 0.083984 0.084635 0.085286 0.085938 0.086589 0.087240 0.087891 0.088542 0.089193 0.089844 0.090495 0.091146 0.091797 0.092448 0.093099 0.093750 0.094401 0.095052 0.095703 0.096354 0.097005 0.097656 0.098307 0.098958 0.099609 0.100260 0.100911 0.101562 0.102214 0.102865 0.103516 0.104167 0.104818 0.105469 0.106120 0.106771 0.107422 0.108073 0.108724 0.109375 0.110026 0.110677 0.111328 0.111979 0.112630 0.113281 0.113932 0.114583 0.115234 0.115885 0.116536 0.117188 0.117839 0.118490 0.119141 0.119792 0.120443 0.121094 0.121745 0.122396 0.123047 0.123698 0.124349 0.125000 0.125651 0.126302 0.126953 0.127604 0.128255 0.128906 0.129557 0.130208 0.130859 0.131510 0.132161 0.132812 0.133464 0.134115 0.134766 0.135417 0.136068 0.136719 0.137370 0.138021 0.138672 0.139323 0.139974 0.140625 0.141276 0.141927 0.142578 0.143229 0.143880 0.144531 0.145182 0.145833 0.146484 0.147135 0.147786 0.148438 0.149089 0.149740 0.150391 0.151042 0.151693 0.152344 0.152995 0.153646 0.154297 0.154948 0.155599 0.156250 0.156901 0.157552 0.158203 0.158854 0.159505 0.160156 0.160807 0.161458 0.162109 0.162760 0.163411 0.164062 0.164714 0.165365 0.166016 0.166667 0.167318 0.167969 0.168620 0.169271 0.169922 0.170573 0.171224 0.171875 0.172526 0.173177 0.173828 0.174479 0.175130 0.175781 0.176432 0.177083 0.177734 0.178385 0.179036 0.179688 0.180339 0.180990 0.181641 0.182292 0.182943 0.183594 0.184245 0.184896 0.185547 0.186198 0.186849 0.187500 0.188151 0.188802 0.189453 0.190104 0.190755 0.191406 0.192057 0.192708 0.193359 0.194010 0.194661 0.195312 0.195964 0.196615 0.197266 0.197917 0.198568 0.199219 0.199870 0.200521 0.201172 0.201823 0.202474 0.203125 0.203776 0.204427 0.205078 0.205729 0.206380 0.207031 0.207682 0.208333 0.208984 0.209635 0.210286 0.210938 0.211589 0.212240 0.212891 0.213542 0.214193 0.214844 0.215495 0.216146 0.216797 0.217448 0.218099 0.218750 0.219401 0.220052 0.220703 0.221354 0.222005 0.222656 0.223307 0.223958 0.224609 0.225260 0.225911 0.226562 0.227214 0.227865 0.228516 0.229167 0.229818 0.230469 0.231120 0.231771 0.232422 0.233073 0.233724 0.234375 0.235026 0.235677
       0.34236        0.34236        0.34236        0.34236        0.34236        0.34236        0.34236        0.34236        0.34236        0.34236        0.34236        0.34236        0.34236        0.34236        0.34236        0.34236        0.34236        0.34236        0.34236        0.34236        0.34236        0.34236        0.34236        0.34236        0.34236        0.34236        0.34236        0.34236        0.34236        0.34236        0.34236        0.34236        0.34236        0.34236        0.34236        0.34236        0.34236        0.34236        0.34236        0.34236        0.34236        0.34236        0.34236        0.34236        0.34236        0.34236        0.34236        0.34236        0.34236        0.34236        0.34236        0.58861        0.69397        0.36668        0.16025        0.14326       -0.12113        0.10989        0.04277        0.04432        0.08947        0.30746        0.29181        0.22783        0.13481       -0.04131       -0.00899        0.05497       -0.06869       -0.07715       -0.06510       -0.06320       -0.14690       -0.08703       -0.19750       -0.21594       -0.21975       -0.27431       -0.33814       -0.26264       -0.17574       -0.13260       -0.24540       -0.17829       -0.20541       -0.14404       -0.10090       -0.03789       -0.01672        0.03110        0.09060        0.16396        0.20447        0.24770        0.34987        0.41318        0.36721        0.49940        0.54687        0.55089        0.62258        0.54305        0.57636        0.60996        0.59615        0.56893        0.55893        0.60599        0.53387        0.40545        0.37031        0.38142        0.34044        0.22385        0.23127        0.19203        0.13725        0.12748        0.06418        0.14361        0.11374        0.09441        0.16572        0.21694        0.29449        0.33945        0.38049        0.42053        0.44945        0.47825        0.42568        0.61766        0.55153        0.47653        0.56217        0.50579        0.56727        0.51593        0.40230        0.34307        0.33238        0.29324        0.27925        0.22335        0.21033        0.19921        0.29250        0.27603        0.27819        0.25213        0.27585        0.34709        0.33541        0.45285        0.44647        0.44795        0.42513        0.48872        0.44290        0.41086        0.41632        0.38468        0.33583        0.28262        0.31816        0.28750        0.28283        0.23100        0.23817        0.26822        0.28747        0.29891        0.34605        0.39547        0.42521        0.42615        0.42815        0.51021        0.49249        0.42904        0.37695        0.42048        0.39766        0.33601        0.34739        0.33973        0.29172        0.29282        0.28389        0.27054        0.32744        0.31611        0.33449        0.35680        0.40483        0.43086        0.41457        0.44644        0.40671        0.44614        0.42521        0.36224        0.31152        0.30872        0.30941        0.28573        0.24736        0.31726        0.38968        0.34689        0.31932        0.38003        0.32074        0.36968        0.41701        0.40136        0.37091        0.36870        0.35683        0.36549        0.33277        0.32152        0.29625        0.29363        0.33524        0.34836        0.37501        0.38563        0.40020        0.37812        0.35429        0.33315        0.37082        0.37767        0.35713        0.33583        0.28625        0.29401        0.28596        0.33945        0.33803        0.36317        0.33448        0.35673        0.39818        0.34260        0.35937        0.35978        0.32410        0.32753        0.31066        0.30029        0.29297        0.28027        0.26464        0.28871        0.27969        0.29633        0.26821        0.31378        0.38075        0.27643        0.29982        0.28600        0.28437        0.33320        0.31822        0.31764        0.34053        0.33351        0.34367        0.32645        0.32271        0.32737        0.40492        0.36945        0.30287        0.32704        0.31648        0.36686        0.28618        0.29036        0.32099        0.31443        0.34243        0.38374        0.35045        0.29682        0.23711        0.30211        0.28384        0.27115        0.26865        0.30028        0.33036        0.26707        0.32279        0.34280        0.37925        0.29513        0.33648        0.30951        0.29653        0.29100        0.30008        0.31663        0.27286        0.26949        0.34876        0.35742        0.29311        0.35208        0.31906        0.26258        0.23883        0.21234        0.33838        0.31654        0.36391        0.36401        0.28582        0.23811        0.22764        0.31295        0.28205        0.27570        0.32827        0.30024        0.26059        0.29823        0.30820        0.30125        0.29938        0.29356        0.27783        0.23469        0.28124        0.32412        0.26217        0.21801        0.24058        0.27243        0.26349        0.21580        0.21220        0.27810        0.34548        0.30971        0.23840        0.17642        0.25446        0.18959        0.27415        0.26722        0.17650        0.17136        0.24555        0.22318        0.31783        0.03608       -0.19090       -0.68231       -0.96141
3.498678 3.461041 3.423611 3.386388 3.349372 3.312563 3.275961 3.239566 3.203378 3.167397 3.131623 3.096056 3.060696 3.025543 2.990597 2.955858 2.921326 2.887001 2.852883 2.818972 2.785269 2.751772 2.718482 2.685399 2.652523 2.619854 2.587392 2.555137 2.523089 2.491248 2.459615 2.428188 2.396968 2.365955 2.335149 2.304550 2.274158 2.243974 2.213996 2.184225 2.154661 2.125304 2.096154 2.067212 2.038476 2.009947 1.981625 1.953511 1.925603 1.897902 1.870408 2.226617 2.583606 1.854469 1.576283 1.355182 0.701075 1.158451 0.941507 1.063527 0.854581 1.661848 1.356153 1.375793 1.142535 0.672033 0.556723 0.852185 0.725889 0.378381 0.300928 0.553615 0.307996 0.327799 0.130609 0.008765 -0.021233 -0.021521 -0.367683 -0.141864 -0.009447 0.021083 -0.112772 -0.061828 -0.142286 -0.107504 0.010795 0.165726 0.211256 0.212304 0.350129 0.601795 0.513016 0.641060 0.772468 1.039968 0.759001 1.273305 1.174010 1.249069 1.351785 1.203338 1.129273 1.386131 1.140896 1.244464 1.126641 1.184545 1.151740 0.846882 0.638584 0.623866 0.676716 0.314508 0.338346 0.210101 0.096588 0.017451 -0.162180 0.102650 -0.001759 -0.094566 -0.012092 0.079436 0.209664 0.419809 0.438580 0.515902 0.521153 0.711570 0.424210 0.859300 0.844782 0.620639 0.763273 0.595816 0.759333 0.773052 0.470532 0.235347 0.258821 0.205315 0.020791 0.079898 -0.075172 -0.233303 0.060781 0.081834 0.060485 -0.023087 0.015757 0.134900 0.054099 0.313437 0.420789 0.403825 0.205515 0.491222 0.426302 0.224360 0.417091 0.262004 0.109777 0.107025 0.014399 0.080916 -0.128922 0.078407 -0.185716 -0.075862 -0.069309 0.124729 -0.116197 0.272746 0.246904 0.295342 0.258071 0.323611 0.615752 0.347587 0.282111 0.377376 0.193246 0.378345 0.055796 0.256358 0.049957 0.068718 0.051016 0.045019 0.031370 0.165140 0.049847 0.183164 0.260135 0.303999 0.304146 0.466498 0.333576 0.346139 0.378362 0.294253 0.175422 0.087893 0.094534 0.086683 0.024613 -0.022278 0.210547 0.294904 0.095825 0.169511 0.239282 0.134701 0.292524 0.304623 0.248306 0.185883 0.139421 0.243519 0.118224 0.127878 0.091845 -0.060986 0.071633 0.150843 0.139851 0.228928 0.206473 0.294057 0.112246 0.168268 0.184456 0.251645 0.139290 0.218793 0.117994 0.004896 0.036736 0.007296 0.149345 0.140408 0.204713 0.096183 0.200579 0.223414 0.034336 0.195144 0.095647 0.009286 0.054497 0.020819 -0.021927 -0.031532 -0.114049 -0.030184 -0.015998 -0.124332 -0.017575 -0.072692 0.073136 0.118813 -0.137531 -0.022985 -0.075168 -0.064972 0.066350 0.004939 -0.057426 0.030792 0.088743 0.017308 -0.048053 0.041993 -0.014910 0.282192 -0.002995 -0.119510 0.035764 0.004181 0.073124 -0.160266 -0.065716 0.013288 0.006368 0.075079 0.098384 0.079783 -0.105882 -0.143270 -0.029381 -0.078150 -0.071900 -0.080420 -0.039399 0.055041 -0.203721 0.159823 0.020838 0.174430 -0.033299 0.067862 0.025432 -0.057001 0.059282 0.008957 -0.032787 -0.052030 -0.055440 0.112391 0.179876 -0.138577 0.155077 0.053048 -0.128327 -0.099322 -0.209304 0.175973 -0.001296 0.179409 0.175964 0.037490 -0.174247 -0.170425 0.019759 -0.046799 -0.121806 0.054432 -0.035951 -0.151145 -0.009786 -0.019183 0.095387 -0.014954 -0.072043 -0.000324 -0.251078 0.042535 0.065372 -0.112743 -0.166956 -0.161967 -0.042356 -0.031254 -0.150277 -0.198435 0.064632 0.140246 0.014673 -0.088391 -0.336355 0.077208 -0.201951 0.641753 0.574529 0.302328 0.369343 0.677204 0.540070 0.654701 -0.191028 -0.404904 -2.098236
0.072396 0.072836 0.074156 0.076356 0.079435 0.083393 0.088228 0.093940 0.100527 0.107986 0.116316 0.125513 0.135574 0.146494 0.158267 0.170888 0.184347 0.198637 0.213748 0.229666 0.246378 0.263868 0.282119 0.301110 0.320818 0.341218 0.362280 0.383975 0.406266 0.429114 0.452479 0.476313 0.500566 0.525183 0.550106 0.575270 0.600607 0.626043 0.651499 0.676891 0.702131 0.727124 0.751771 0.775966 0.799601 0.822560 0.844723 0.865966 0.886161 0.905175 0.922871 0.939110 0.953750 0.966648 0.977657 0.986632 0.993427 0.997897 0.999900 0.999297 0.995953 0.989738 0.980531 0.968215 0.952688 0.933856 0.911637 0.885964 0.856787 0.824071 0.787803 0.747987 0.704651 0.657847 0.607651 0.554166 0.497521 0.437876 0.375419 0.310367 0.242971 0.173511 0.102298 0.029675 0.043988 0.118288 0.192797 0.267059 0.340596 0.412907 0.483474 0.551763 0.617230 0.679323 0.737489 0.791178 0.839848 0.882972 0.920043 0.950583 0.974145 0.990326 0.998768 0.999168 0.991283 0.974940 0.950038 0.916556 0.874557 0.824196 0.765719 0.699467 0.625883 0.545506 0.458973 0.367020 0.270474 0.170251 0.067351 0.037155 0.142128 0.246378 0.348672 0.447751 0.542346 0.631190 0.713042 0.786705 0.851039 0.904987 0.947595 0.978027 0.995587 0.999737 0.990113 0.966539 0.929040 0.877853 0.813433 0.736456 0.647821 0.548645 0.440254 0.324174 0.202111 0.075932 0.052361 0.180660 0.306785 0.428517 0.543643 0.649991 0.745482 0.828165 0.896265 0.948227 0.982756 0.998854 0.995853 0.973447 0.931709 0.871113 0.792534 0.697257 0.586952 0.463671 0.329803 0.188047 0.041358 0.107110 0.254068 0.396163 0.530057 0.652503 0.760434 0.851039 0.921848 0.970806 0.996338 0.997416 0.973598 0.925070 0.852664 0.757858 0.642765 0.510097 0.363117 0.205566 0.041579 0.124420 0.287829 0.444001 0.588368 0.716591 0.824687 0.909166 0.967155 0.996506 0.995893 0.964878 0.903959 0.814586 0.699151 0.560941 0.404062 0.233329 0.054138 0.127702 0.306155 0.475150 0.628792 0.761579 0.868602 0.945747 0.989862 0.998907 0.972065 0.909814 0.813945 0.687547 0.534924 0.361473 0.173511 0.021942 0.217411 0.405259 0.577975 0.728486 0.850460 0.938579 0.988802 0.998564 0.966933 0.894700 0.784393 0.640226 0.467964 0.274718 0.068671 0.141256 0.345776 0.535657 0.702132 0.837325 0.934637 0.989096 0.997633 0.959286 0.875304 0.749156 0.586416 0.394554 0.182628 0.039140 0.259824 0.468342 0.654007 0.807090 0.919350 0.984505 0.998611 0.960338 0.871112 0.735110 0.559113 0.352199 0.125309 0.109304 0.338730 0.550108 0.731352 0.871862 0.963174 0.999495 0.978121 0.899668 0.768123 0.590696 0.377460 0.140832 0.105136 0.345571 0.565669 0.751626 0.891519 0.976101 0.999460 0.959472 0.858034 0.701040 0.498095 0.261967 0.007839 0.247663 0.487527 0.695505 0.857234 0.961252 0.999859 0.969741 0.872301 0.713672 0.504392 0.258773 0.006059 0.271311 0.517843 0.727579 0.884830 0.977518 0.998161 0.944527 0.819924 0.633080 0.397592 0.130998 0.146496 0.413511 0.649155 0.834663 0.954938 0.999828 0.965051 0.852663 0.671035 0.434300 0.161329 0.125735 0.403243 0.647980 0.839130 0.960089 0.999959 0.954612 0.827182 0.627943 0.373576 0.085823 0.210303 0.488683 0.724394 0.895972 0.987412 0.989738 0.901967 0.731360 0.492920 0.208154 0.096798 0.393529 0.654008 0.853234 0.971699 0.997368 0.926984 0.766567 0.531003 0.242755 0.070198 0.377042 0.647140 0.853119 0.973695
1.000000 1.000000 1.000000 1.000000 1.000000 1.000000 1.000000 1.000000 1.000000 1.000000 1.000000 1.000000 1.000000 1.000000 1.000000 1.000000 1.000000 1.000000 1.000000 1.000000 1.000000 1.000000 1.000000 1.000000 1.000000 1.000000 1.000000 1.000000 1.000000 1.000000 1.000000 1.000000 1.000000 1.000000 1.000000 1.000000 1.000000 1.000000 1.000000 1.000000 1.000000 1.000000 1.000000 1.000000 1.000000 1.000000 1.000000 1.000000 1.000000 1.000000 1.000000 1.000000 0.748786 0.748786 0.748786 0.748786 0.748786 0.748786 0.748786 0.748345 0.748345 0.748345 0.748345 0.748345 0.748345 0.748345 0.748345 0.748345 0.748345 0.748345 0.748345 0.748345 0.748345 0.748345 0.748345 0.748345 0.748345 0.748345 0.748345 0.748345 0.748345 0.748345 0.748345 0.748345 0.748345 0.748345 0.748345 0.748345 0.748345 0.748345 0.748345 0.748345 0.748345 0.748345 0.748345 0.748345 0.748345 0.748345 0.748345 0.748345 0.748345 0.748345 0.748345 0.899494 0.900551 0.903255 0.895449 0.888730 0.887580 0.882832 0.879940 0.881813 0.881307 0.882383 0.883968 0.887807 0.895214 0.904743 0.907847 0.915250 0.919193 0.919138 0.923845 0.923817 0.928800 0.925687 0.922669 0.912886 0.916377 0.915258 0.913501 0.911554 0.904710 0.916072 0.914011 0.910930 0.901482 0.896114 0.894503 0.895201 0.893009 0.894077 0.894234 0.893451 0.891349 0.892045 0.887069 0.885988 0.871518 0.869605 0.865756 0.862820 0.860177 0.857406 0.855327 0.846260 0.844777 0.841212 0.834248 0.834077 0.834037 0.834728 0.835620 0.836544 0.839289 0.832473 0.827434 0.826337 0.821887 0.814843 0.806108 0.805719 0.809234 0.817506 0.824701 0.822763 0.820742 0.810894 0.798108 0.795840 0.800277 0.776543 0.778947 0.784655 0.787511 0.784826 0.780417 0.776679 0.773891 0.769679 0.762199 0.770799 0.768309 0.760362 0.757078 0.756897 0.758822 0.768165 0.768842 0.759000 0.745082 0.741419 0.745289 0.751418 0.756004 0.748259 0.748749 0.753186 0.758458 0.763324 0.748863 0.743752 0.735614 0.728886 0.737579 0.758418 0.748270 0.754548 0.758275 0.751336 0.750778 0.743852 0.753904 0.755910 0.763307 0.763477 0.756558 0.710113 0.685275 0.644463 0.646712 0.649765 0.607216 0.607716 0.608407 0.607957 0.552946 0.513906 0.493907 0.491471 0.496263 0.501577 0.492206 0.480930 0.478567 0.476239 0.455846 0.441960 0.439681 0.443646 0.432880 0.443288 0.444556 0.441617 0.399520 0.408429 0.427000 0.436621 0.424794 0.413391 0.416846 0.402945 0.407044 0.402086 0.394473 0.349128 0.367788 0.359422 0.378616 0.339396 0.318123 0.290615 0.326882 0.316671 0.271869 0.299624 0.258548 0.256771 0.260689 0.246707 0.221010 0.238376 0.259373 0.218653 0.223770 0.221403 0.263859 0.255113 0.270112 0.289036 0.275712 0.263432 0.280611 0.263238 0.255947 0.228231 0.224078 0.218294 0.218692 0.271390 0.259116 0.261111 0.272685 0.293831 0.301092 0.312159 0.313208 0.311757 0.323995 0.293240 0.241552 0.248650 0.241417 0.248015 0.218261 0.174573 0.154004 0.160201 0.141369 0.134954 0.103816 0.099599 0.100057 0.108892 0.087894 0.093636 0.058175 0.060008 0.038882 0.065951 0.084843 0.089212 0.019176 0.019176 0.019176 0.019176 0.019176 0.019176 0.019176 0.019176 0.019176 0.019176 0.019176 -0.014264 -0.014264 -0.014264 -0.014264 -0.014264 -0.014264 -0.014264 -0.014264 -0.014264 -0.014264 -0.014264 -0.014264 -0.014264 -0.014264 -0.014264 -0.014264 -0.014264 -0.014264 -0.014264 -0.014264
0.000000 0.000000 0.000000 0.000000 0.000000 0.000000 0.000000 0.000000 0.000000 0.000000 0.000000 0.000000 0.000000 0.000000 0.000000 0.000000 0.000000 0.000000 0.000000 0.000000 0.000000 0.000000 0.000000 0.000000 0.000000 0.000000 0.000000 0.000000 0.000000 0.000000 0.000000 0.000000 0.000000 0.000000 0.000000 0.000000 0.000000 0.000000 0.000000 0.000000 0.000000 0.000000 0.000000 0.000000 0.000000 0.000000 0.000000 0.000000 0.000000 0.000000 0.000000 0.000000 0.173422 0.173422 0.173422 0.173422 0.173422 0.173422 0.173422 0.191565 0.191565 0.191565 0.191565 0.191565 0.191565 0.191565 0.191565 0.191565 0.191565 0.191565 0.191565 0.191565 0.191565 0.191565 0.191565 0.191565 0.191565 0.191565 0.191565 0.191565 0.191565 0.191565 0.191565 0.191565 0.191565 0.191565 0.191565 0.191565 0.191565 0.191565 0.191565 0.191565 0.191565 0.191565 0.191565 0.191565 0.191565 0.191565 0.191565 0.191565 0.191565 0.191565 0.191565 0.222222 0.222222 0.222222 0.222222 0.222222 0.222222 0.222222 0.222222 0.222222 0.222222 0.222222 0.222222 0.222222 0.222222 0.222222 0.222222 0.222222 0.222222 0.222222 0.222222 0.222222 0.222222 0.222222 0.222222 0.222222 0.222222 0.222222 0.222222 0.222222 0.222222 0.234082 0.234082 0.234082 0.234082 0.234082 0.234082 0.234082 0.234082 0.234082 0.234082 0.234082 0.234082 0.234082 0.234082 0.234082 0.234082 0.234082 0.234082 0.234082 0.234082 0.234082 0.234082 0.234082 0.234082 0.234082 0.244339 0.244339 0.244339 0.244339 0.244339 0.244339 0.244339 0.244339 0.244339 0.244339 0.244339 0.244339 0.244339 0.244339 0.244339 0.244339 0.244339 0.244339 0.244339 0.244339 0.244339 0.248069 0.248069 0.248069 0.248069 0.248069 0.248069 0.248069 0.248069 0.248069 0.248069 0.248069 0.248069 0.248069 0.248069 0.248069 0.248069 0.248069 0.248069 0.248069 0.256074 0.256074 0.256074 0.256074 0.256074 0.256074 0.256074 0.256074 0.256074 0.256074 0.256074 0.256074 0.256074 0.256074 0.256074 0.256074 0.256074 0.256074 0.256074 0.256074 0.256074 0.256074 0.256074 0.256074 0.256074 0.256074 0.256074 0.256074 0.256074 0.256074 0.256074 0.256074 0.256074 0.256074 0.256074 0.256074 0.256074 0.256074 0.256074 0.256074 0.256074 0.256074 0.256074 0.256074 0.256074 0.256074 0.256074 0.256074 0.256074 0.256074 0.256074 0.256074 0.256074 0.256074 0.256074 0.256074 0.256074 0.256074 0.256074 0.256074 0.256074 0.256074 0.251976 0.251976 0.251976 0.251976 0.251976 0.251976 0.251976 0.251976 0.251976 0.251976 0.251976 0.251976 0.251976 0.251976 0.264906 0.264906 0.264906 0.264906 0.264906 0.264906 0.264906 0.264906 0.264906 0.264906 0.264906 0.264906 0.248069 0.248069 0.248069 0.248069 0.248069 0.248069 0.248069 0.248069 0.248069 0.248069 0.248069 0.248069 0.248069 0.264906 0.264906 0.264906 0.264906 0.264906 0.264906 0.264906 0.264906 0.264906 0.264906 0.264906 0.248069 0.248069 0.248069 0.248069 0.248069 0.248069 0.248069 0.248069 0.248069 0.248069 0.248069 0.248069 0.264906 0.264906 0.264906 0.264906 0.264906 0.264906 0.264906 0.264906 0.264906 0.264906 0.248069 0.248069 0.248069 0.248069 0.248069 0.248069 0.248069 0.248069 0.248069 0.248069 0.248069 0.256074 0.256074 0.256074 0.256074 0.256074 0.256074 0.256074 0.256074 0.256074 0.256074 0.256074 0.256074 0.256074 0.256074 0.256074 0.256074 0.256074 0.256074 0.256074 0.256074
