# Output from CTFFind version 4.1.9, run on 2019-11-03 19:00:08
# Input file: stack1_bm3d_averaged_1_2.75_0_2000_half.mrc ; Number of micrographs: 1
# Pixel size: 3.000 Angstroms ; acceleration voltage: 300.0 keV ; spherical aberration: 0.00 mm ; amplitude contrast: 0.07
# Box size: 512 pixels ; min. res.: 30.0 Angstroms ; max. res.: 5.0 Angstroms ; min. def.: 5000.0 um; max. def. 50000.0 um; num. frames averaged: 1
# 6 lines per micrograph: #1 - spatial frequency (1/Angstroms); #2 - 1D rotational average of spectrum (assuming no astigmatism); #3 - 1D rotational average of spectrum; #4 - CTF fit; #5 - cross-correlation between spectrum and CTF fit; #6 - 2sigma of expected cross correlation of noise
0.000000 0.000651 0.001302 0.001953 0.002604 0.003255 0.003906 0.004557 0.005208 0.005859 0.006510 0.007161 0.007812 0.008464 0.009115 0.009766 0.010417 0.011068 0.011719 0.012370 0.013021 0.013672 0.014323 0.014974 0.015625 0.016276 0.016927 0.017578 0.018229 0.018880 0.019531 0.020182 0.020833 0.021484 0.022135 0.022786 0.023438 0.024089 0.024740 0.025391 0.026042 0.026693 0.027344 0.027995 0.028646 0.029297 0.029948 0.030599 0.031250 0.031901 0.032552 0.033203 0.033854 0.034505 0.035156 0.035807 0.036458 0.037109 0.037760 0.038411 0.039062 0.039714 0.040365 0.041016 0.041667 0.042318 0.042969 0.043620 0.044271 0.044922 0.045573 0.046224 0.046875 0.047526 0.048177 0.048828 0.049479 0.050130 0.050781 0.051432 0.052083 0.052734 0.053385 0.054036 0.054688 0.055339 0.055990 0.056641 0.057292 0.057943 0.058594 0.059245 0.059896 0.060547 0.061198 0.061849 0.062500 0.063151 0.063802 0.064453 0.065104 0.065755 0.066406 0.067057 0.067708 0.068359 0.069010 0.069661 0.070312 0.070964 0.071615 0.072266 0.072917 0.073568 0.074219 0.074870 0.075521 0.076172 0.076823 0.077474 0.078125 0.078776 0.079427 0.080078 0.080729 0.081380 0.082031 0.082682 0.083333 0.083984 0.084635 0.085286 0.085938 0.086589 0.087240 0.087891 0.088542 0.089193 0.089844 0.090495 0.091146 0.091797 0.092448 0.093099 0.093750 0.094401 0.095052 0.095703 0.096354 0.097005 0.097656 0.098307 0.098958 0.099609 0.100260 0.100911 0.101562 0.102214 0.102865 0.103516 0.104167 0.104818 0.105469 0.106120 0.106771 0.107422 0.108073 0.108724 0.109375 0.110026 0.110677 0.111328 0.111979 0.112630 0.113281 0.113932 0.114583 0.115234 0.115885 0.116536 0.117188 0.117839 0.118490 0.119141 0.119792 0.120443 0.121094 0.121745 0.122396 0.123047 0.123698 0.124349 0.125000 0.125651 0.126302 0.126953 0.127604 0.128255 0.128906 0.129557 0.130208 0.130859 0.131510 0.132161 0.132812 0.133464 0.134115 0.134766 0.135417 0.136068 0.136719 0.137370 0.138021 0.138672 0.139323 0.139974 0.140625 0.141276 0.141927 0.142578 0.143229 0.143880 0.144531 0.145182 0.145833 0.146484 0.147135 0.147786 0.148438 0.149089 0.149740 0.150391 0.151042 0.151693 0.152344 0.152995 0.153646 0.154297 0.154948 0.155599 0.156250 0.156901 0.157552 0.158203 0.158854 0.159505 0.160156 0.160807 0.161458 0.162109 0.162760 0.163411 0.164062 0.164714 0.165365 0.166016 0.166667 0.167318 0.167969 0.168620 0.169271 0.169922 0.170573 0.171224 0.171875 0.172526 0.173177 0.173828 0.174479 0.175130 0.175781 0.176432 0.177083 0.177734 0.178385 0.179036 0.179688 0.180339 0.180990 0.181641 0.182292 0.182943 0.183594 0.184245 0.184896 0.185547 0.186198 0.186849 0.187500 0.188151 0.188802 0.189453 0.190104 0.190755 0.191406 0.192057 0.192708 0.193359 0.194010 0.194661 0.195312 0.195964 0.196615 0.197266 0.197917 0.198568 0.199219 0.199870 0.200521 0.201172 0.201823 0.202474 0.203125 0.203776 0.204427 0.205078 0.205729 0.206380 0.207031 0.207682 0.208333 0.208984 0.209635 0.210286 0.210938 0.211589 0.212240 0.212891 0.213542 0.214193 0.214844 0.215495 0.216146 0.216797 0.217448 0.218099 0.218750 0.219401 0.220052 0.220703 0.221354 0.222005 0.222656 0.223307 0.223958 0.224609 0.225260 0.225911 0.226562 0.227214 0.227865 0.228516 0.229167 0.229818 0.230469 0.231120 0.231771 0.232422 0.233073 0.233724 0.234375 0.235026 0.235677
       0.35070        0.35070        0.35070        0.35070        0.35070        0.35070        0.35070        0.35070        0.35070        0.35070        0.35070        0.35070        0.35070        0.35070        0.35070        0.35070        0.35070        0.35070        0.35070        0.35070        0.35070        0.35070        0.35070        0.35070        0.35070        0.35070        0.35070        0.35070        0.35070        0.35070        0.35070        0.35070        0.35070        0.35070        0.35070        0.35070        0.35070        0.35070        0.35070        0.35070        0.35070        0.35070        0.35070        0.35070        0.35070        0.35070        0.35070        0.35070        0.35070        0.35070        0.35070        0.50341        0.71642        0.42733        0.21800       -0.04226       -0.22940       -0.04460       -0.10310       -0.06173        0.02081       -0.11537       -0.09158       -0.03081       -0.01076       -0.12548       -0.15641       -0.28756       -0.45940       -0.56642       -0.50047       -0.44784       -0.35357       -0.55260       -0.41295       -0.55730       -0.45705       -0.46616       -0.36421       -0.33621       -0.29828       -0.20857       -0.12036       -0.12061        0.02707        0.00737        0.15968        0.19523        0.33637        0.43371        0.51320        0.55887        0.56986        0.59091        0.71214        0.66154        0.68709        0.59119        0.55447        0.64394        0.51517        0.46890        0.42378        0.31679        0.27866        0.30590        0.26755        0.11647        0.09709       -0.00560        0.02129        0.05217        0.01446        0.10388        0.13797        0.22199        0.29432        0.30308        0.42908        0.57344        0.57107        0.57449        0.67106        0.65321        0.63259        0.68596        0.65398        0.55119        0.55627        0.42049        0.36282        0.27544        0.19012        0.11779        0.15495        0.13076        0.14592        0.14123        0.23113        0.23794        0.32363        0.36836        0.42110        0.51612        0.53681        0.56262        0.57346        0.60658        0.56308        0.49701        0.49342        0.35782        0.28599        0.28024        0.26234        0.18535        0.17557        0.19314        0.24071        0.27938        0.36508        0.40190        0.42373        0.45651        0.46202        0.48408        0.44862        0.49676        0.45022        0.39179        0.35987        0.36463        0.33387        0.30551        0.23180        0.24666        0.23840        0.28186        0.28748        0.37052        0.41039        0.38945        0.43143        0.45414        0.45434        0.44767        0.45501        0.36983        0.36841        0.30284        0.26121        0.30374        0.29564        0.32762        0.34112        0.37139        0.35890        0.43275        0.41842        0.45568        0.41021        0.44270        0.39581        0.37213        0.32134        0.30194        0.30191        0.28961        0.30085        0.35757        0.36750        0.36367        0.37443        0.36715        0.36879        0.43373        0.41647        0.37819        0.35852        0.31885        0.30602        0.35123        0.32294        0.34719        0.31187        0.33419        0.36387        0.39417        0.37066        0.34458        0.34644        0.35795        0.33319        0.31444        0.34553        0.33246        0.35065        0.34180        0.35396        0.38366        0.33529        0.32943        0.35191        0.31999        0.29364        0.28814        0.29695        0.32303        0.34369        0.37131        0.31855        0.31998        0.34497        0.31614        0.33901        0.31238        0.31812        0.31048        0.30448        0.30463        0.34090        0.33609        0.34749        0.33814        0.37507        0.36151        0.33153        0.34391        0.34285        0.26268        0.28733        0.34790        0.28869        0.31140        0.36893        0.33839        0.34036        0.36735        0.33820        0.28252        0.27601        0.31495        0.35388        0.37907        0.36493        0.32313        0.31224        0.30054        0.31051        0.28012        0.31777        0.30920        0.34543        0.33735        0.32113        0.29579        0.34793        0.34433        0.34142        0.29796        0.29992        0.35532        0.40291        0.36570        0.36173        0.34689        0.31092        0.31679        0.30959        0.31025        0.30720        0.21955        0.26987        0.33188        0.31438        0.31124        0.30802        0.26109        0.23483        0.24754        0.30356        0.32909        0.30263        0.29383        0.31672        0.39454        0.31839        0.24277        0.33001        0.29688        0.26860        0.29988        0.36458        0.32401        0.32740        0.30032        0.26713        0.29885        0.31113        0.24378        0.20055        0.26440        0.27187        0.21906        0.31579        0.26896        0.35914        0.30940        0.25060        0.25552        0.23046        0.29594        0.32546        0.25787        0.14964        0.18549        0.28943        0.25651        0.29147        0.14712        0.14503       -0.54243       -1.14574
2.695236 2.666971 2.638858 2.610895 2.583084 2.555425 2.527917 2.500560 2.473354 2.446300 2.419398 2.392646 2.366046 2.339597 2.313300 2.287154 2.261159 2.235316 2.209624 2.184083 2.158694 2.133456 2.108369 2.083434 2.058650 2.034017 2.009536 1.985206 1.961027 1.937000 1.913124 1.889399 1.865826 1.842404 1.819134 1.796015 1.773047 1.750230 1.727565 1.705052 1.682689 1.660478 1.638418 1.616510 1.594753 1.573147 1.551693 1.530390 1.509238 1.488238 1.467389 1.514822 1.835779 1.497103 1.246420 0.961744 0.557740 0.924375 0.666063 0.847876 0.913116 0.640728 0.678225 0.800836 0.794395 0.625088 0.601970 0.411751 0.103760 0.046360 0.049045 0.047719 0.313912 -0.042223 0.067491 -0.062860 0.018034 -0.019585 0.094469 0.096730 0.146423 0.192386 0.326967 0.273412 0.462461 0.381579 0.590182 0.562222 0.787156 0.810135 0.917916 1.006800 0.961030 0.987351 1.135478 0.962483 1.149440 0.926506 0.874866 0.982171 0.830357 0.784925 0.679961 0.558749 0.501930 0.485189 0.505221 0.266701 0.216876 0.149070 0.027182 0.202379 0.015038 0.134536 0.222878 0.250701 0.320542 0.352581 0.466600 0.568849 0.699113 0.532078 0.732019 0.798724 0.611367 0.754583 0.701901 0.606092 0.502284 0.480852 0.309423 0.232198 0.101261 0.010146 -0.000107 0.030479 -0.044772 -0.022071 0.087453 0.060959 0.120748 0.211820 0.253778 0.354205 0.407106 0.415371 0.476285 0.426125 0.474433 0.344947 0.333732 0.250136 0.081471 0.066832 0.037519 -0.037647 -0.066107 -0.077205 -0.009332 -0.028133 0.101422 0.143208 0.166271 0.238476 0.228874 0.262962 0.272086 0.236358 0.249811 0.210440 0.122205 0.104064 0.097582 0.041530 0.012959 -0.086873 -0.015385 0.002754 0.020653 0.012461 0.130643 0.121312 0.142192 0.178155 0.265434 0.155679 0.228232 0.099530 0.146039 0.039568 -0.040390 0.015051 -0.006303 0.018622 0.020029 0.079731 0.067806 0.085303 0.161868 0.152773 0.133239 0.101165 0.150649 0.054009 0.051699 -0.024420 -0.032990 -0.026716 -0.052198 -0.013292 0.052956 0.065164 0.019908 0.048964 0.076003 0.055691 0.153560 0.066400 0.074261 0.043309 -0.046695 0.018197 0.026851 -0.014823 0.044049 -0.003437 0.018102 0.039111 0.061296 0.046738 0.021841 -0.018238 0.054571 -0.025728 0.004825 0.021044 -0.009251 0.052716 0.029558 0.033485 0.060005 0.005878 0.013626 0.023044 -0.013138 -0.051850 -0.023890 -0.016810 -0.007751 0.032868 0.077955 -0.019737 0.026844 0.079760 -0.017780 0.067880 0.037826 0.025875 0.021078 0.038876 0.028487 0.067589 0.037972 0.101206 0.075613 0.124531 0.100247 0.072856 0.113255 0.054182 -0.023507 0.043056 0.094981 0.014769 0.070745 0.107506 0.015851 0.075457 0.078608 0.030098 -0.004168 -0.057617 0.052173 0.084983 0.109364 0.062593 0.039732 0.001985 0.020449 0.028626 -0.040726 0.048411 0.036530 0.063342 0.094173 -0.004144 0.011265 0.070771 0.030807 0.008584 -0.012791 -0.026944 0.096339 0.107326 0.057512 0.040256 0.044430 -0.005904 -0.004979 0.008287 -0.033802 0.006395 -0.145267 -0.020982 0.024826 0.027258 -0.015799 -0.017320 -0.042130 -0.068538 -0.019767 -0.014684 0.072573 0.014621 0.030607 0.030375 0.141872 0.048210 -0.025672 0.078354 0.038923 0.016879 0.035818 0.144502 0.078075 0.061001 0.053449 0.028096 0.039799 0.082947 -0.017630 -0.105843 0.024377 0.033289 -0.057171 0.107007 -0.021572 0.182434 0.033818 0.007366 0.012873 -0.007009 0.030382 0.092746 0.309312 0.167903 0.231245 0.365828 0.294081 0.348270 0.062236 0.177437 -1.356483
0.072396 0.072910 0.074452 0.077022 0.080618 0.085241 0.090888 0.097558 0.105249 0.113958 0.123681 0.134414 0.146151 0.158885 0.172608 0.187310 0.202980 0.219603 0.237165 0.255646 0.275026 0.295279 0.316379 0.338293 0.360987 0.384420 0.408550 0.433327 0.458696 0.484599 0.510970 0.537738 0.564825 0.592148 0.619616 0.647131 0.674589 0.701879 0.728881 0.755470 0.781513 0.806870 0.831394 0.854932 0.877325 0.898407 0.918009 0.935955 0.952067 0.966164 0.978061 0.987575 0.994522 0.998720 0.999990 0.998157 0.993054 0.984522 0.972411 0.956585 0.936923 0.913318 0.885684 0.853956 0.818092 0.778078 0.733925 0.685679 0.633415 0.577244 0.517314 0.453813 0.386965 0.317039 0.244344 0.169232 0.092095 0.013370 0.066466 0.146898 0.227373 0.307303 0.386069 0.463026 0.537506 0.608825 0.676287 0.739194 0.796852 0.848578 0.893709 0.931615 0.961703 0.983429 0.996311 0.999934 0.993964 0.978156 0.952364 0.916549 0.870787 0.815276 0.750344 0.676446 0.594175 0.504258 0.407555 0.305055 0.197873 0.087236 0.025521 0.138975 0.251625 0.361915 0.468256 0.569042 0.662684 0.747628 0.822390 0.885583 0.935943 0.972360 0.993910 0.999874 0.989771 0.963373 0.920730 0.862177 0.788353 0.700195 0.598946 0.486139 0.363590 0.233368 0.097773 0.040699 0.179405 0.315595 0.446471 0.569240 0.681182 0.779709 0.862433 0.927229 0.972296 0.996219 0.998017 0.977189 0.933751 0.868258 0.781820 0.676092 0.553267 0.416041 0.267561 0.111374 0.048662 0.208459 0.363804 0.510467 0.644324 0.761471 0.858353 0.931877 0.979525 0.999451 0.990569 0.952615 0.886194 0.792792 0.674774 0.535340 0.378459 0.208773 0.031474 0.147849 0.323376 0.489250 0.639766 0.769583 0.873922 0.948755 0.990977 0.998559 0.970661 0.907707 0.811419 0.684804 0.532086 0.358593 0.170586 0.024936 0.220507 0.408455 0.581213 0.731627 0.853270 0.940729 0.989872 0.998068 0.964353 0.889529 0.776197 0.628697 0.452987 0.256421 0.047474 0.164614 0.370228 0.559824 0.724372 0.855804 0.947432 0.994319 0.993573 0.944563 0.849020 0.711030 0.536907 0.334939 0.115028 0.111772 0.333794 0.539358 0.717395 0.858053 0.953278 0.997306 0.987053 0.922371 0.806145 0.644227 0.445189 0.219917 0.018958 0.257737 0.482432 0.679594 0.837134 0.945088 0.996299 0.986932 0.916810 0.789536 0.612371 0.395883 0.153364 0.099949 0.347811 0.574004 0.763403 0.903033 0.982978 0.997151 0.943816 0.825822 0.650540 0.429463 0.177526 0.087875 0.348036 0.584282 0.779299 0.918443 0.990894 0.990550 0.916619 0.773810 0.572127 0.326249 0.054508 0.222417 0.483064 0.706852 0.875737 0.975703 0.998010 0.940020 0.805577 0.604846 0.353648 0.072270 0.216113 0.487328 0.718230 0.888706 0.983485 0.993585 0.917249 0.760275 0.535689 0.262760 0.034584 0.329805 0.596098 0.808853 0.947969 0.999831 0.958733 0.827603 0.617924 0.348856 0.045554 0.263109 0.547260 0.778931 0.934861 0.998896 0.963779 0.832070 0.616113 0.337012 0.022648 0.295014 0.583166 0.811551 0.955696 0.999623 0.937739 0.775656 0.529846 0.226080 0.103163 0.422113 0.695584 0.892889 0.991359 0.979061 0.856380 0.636233 0.342860 0.009285 0.326332 0.625019 0.851543 0.978636 0.990389 0.884390 0.672288 0.378683 0.038415 0.307494 0.616722 0.850859 0.980244 0.987857 0.871699 0.645359 0.336590 0.015932 0.367382 0.672427 0.891118 0.994212 0.967222 0.812625 0.549859 0.213079 0.153177 0.499758 0.779512 0.953753 0.997735
1.000000 1.000000 1.000000 1.000000 1.000000 1.000000 1.000000 1.000000 1.000000 1.000000 1.000000 1.000000 1.000000 1.000000 1.000000 1.000000 1.000000 1.000000 1.000000 1.000000 1.000000 1.000000 1.000000 1.000000 1.000000 1.000000 1.000000 1.000000 1.000000 1.000000 1.000000 1.000000 1.000000 1.000000 1.000000 1.000000 1.000000 1.000000 1.000000 1.000000 1.000000 1.000000 1.000000 1.000000 1.000000 1.000000 1.000000 1.000000 1.000000 1.000000 1.000000 1.000000 0.920617 0.920617 0.906653 0.906653 0.906653 0.906653 0.906653 0.906653 0.906653 0.906653 0.906653 0.906653 0.906653 0.906653 0.906653 0.906653 0.906653 0.906653 0.906653 0.906653 0.906653 0.906653 0.906653 0.906653 0.906653 0.906653 0.906653 0.906653 0.906653 0.906653 0.906653 0.906653 0.906653 0.906653 0.906653 0.906653 0.906653 0.906653 0.906653 0.906653 0.906653 0.906653 0.906653 0.898678 0.905357 0.908440 0.906896 0.910444 0.910837 0.908745 0.908243 0.908095 0.908425 0.909432 0.917179 0.931567 0.938950 0.942616 0.946105 0.953009 0.956297 0.955949 0.962324 0.970345 0.969099 0.968701 0.969346 0.970702 0.972778 0.971501 0.971060 0.974344 0.974958 0.973483 0.971248 0.970684 0.970126 0.969901 0.969531 0.969662 0.970264 0.970737 0.970432 0.970566 0.970705 0.970758 0.971774 0.972917 0.975244 0.976148 0.975996 0.974982 0.973222 0.974789 0.978337 0.975417 0.975279 0.974813 0.975076 0.964173 0.957227 0.957298 0.951287 0.949863 0.947342 0.945494 0.945341 0.945606 0.944683 0.945759 0.944253 0.936428 0.930723 0.915984 0.929971 0.926636 0.911947 0.896447 0.898687 0.900349 0.900649 0.898621 0.891514 0.888577 0.885349 0.887001 0.890529 0.893589 0.888420 0.882511 0.881540 0.878450 0.855674 0.834963 0.823421 0.817857 0.814825 0.815521 0.813254 0.809534 0.817448 0.809465 0.804355 0.793847 0.787116 0.760712 0.738894 0.739513 0.747279 0.750441 0.743796 0.716304 0.678170 0.692175 0.688044 0.685815 0.685620 0.677749 0.670672 0.670742 0.676837 0.661895 0.659015 0.659904 0.659287 0.667631 0.669021 0.656531 0.652845 0.638443 0.627980 0.603972 0.607940 0.624061 0.583365 0.574924 0.561631 0.551778 0.547322 0.534227 0.535200 0.532953 0.519439 0.509771 0.504437 0.508496 0.515864 0.517085 0.498305 0.517837 0.513405 0.548206 0.537727 0.522804 0.517321 0.522209 0.506841 0.489709 0.494216 0.495830 0.497190 0.534134 0.534867 0.540215 0.537576 0.526649 0.518236 0.492575 0.494133 0.514574 0.487580 0.464630 0.448758 0.446838 0.427072 0.415357 0.383641 0.377324 0.385101 0.369263 0.353695 0.333962 0.331699 0.251694 0.209263 0.196229 0.194303 0.203743 0.240749 0.247035 0.229400 0.253017 0.299110 0.287502 0.274726 0.268754 0.235867 0.196984 0.194434 0.197278 0.152042 0.156861 0.140326 0.130298 0.130352 0.107558 0.120469 0.051168 0.018389 0.027189 0.043684 0.079097 0.076752 0.083738 0.067247 0.078932 0.068260 0.030020 0.044857 0.055273 0.026383 0.030900 0.058728 0.077707 0.091742 0.018826 0.043542 0.077581 0.089074 0.079781 0.077013 0.106225 0.128847 0.128650 0.136693 0.138137 0.115924 0.113074 0.108215 0.066281 0.078530 0.003653 -0.020788 -0.020788 -0.029155 -0.029155 -0.029155 -0.029155 -0.029155 -0.029155 -0.029155 -0.029155 -0.029155 -0.035154 -0.035154 -0.035154 -0.035154 -0.035154 -0.035154 -0.035154 -0.035154 -0.035154 0.006124 0.006124 0.006124 0.006124 0.006124 0.006124 0.006124 0.006124 0.006124
0.000000 0.000000 0.000000 0.000000 0.000000 0.000000 0.000000 0.000000 0.000000 0.000000 0.000000 0.000000 0.000000 0.000000 0.000000 0.000000 0.000000 0.000000 0.000000 0.000000 0.000000 0.000000 0.000000 0.000000 0.000000 0.000000 0.000000 0.000000 0.000000 0.000000 0.000000 0.000000 0.000000 0.000000 0.000000 0.000000 0.000000 0.000000 0.000000 0.000000 0.000000 0.000000 0.000000 0.000000 0.000000 0.000000 0.000000 0.000000 0.000000 0.000000 0.000000 0.000000 0.181818 0.181818 0.199007 0.199007 0.199007 0.199007 0.199007 0.199007 0.199007 0.199007 0.199007 0.199007 0.199007 0.199007 0.199007 0.199007 0.199007 0.199007 0.199007 0.199007 0.199007 0.199007 0.199007 0.199007 0.199007 0.199007 0.199007 0.199007 0.199007 0.199007 0.199007 0.199007 0.199007 0.199007 0.199007 0.199007 0.199007 0.199007 0.199007 0.199007 0.199007 0.199007 0.199007 0.230940 0.230940 0.230940 0.230940 0.230940 0.230940 0.230940 0.230940 0.230940 0.230940 0.230940 0.230940 0.230940 0.230940 0.230940 0.230940 0.230940 0.230940 0.230940 0.230940 0.230940 0.230940 0.230940 0.230940 0.230940 0.230940 0.230940 0.230940 0.244339 0.244339 0.244339 0.244339 0.244339 0.244339 0.244339 0.244339 0.244339 0.244339 0.244339 0.244339 0.244339 0.244339 0.244339 0.244339 0.244339 0.244339 0.244339 0.244339 0.244339 0.244339 0.244339 0.251976 0.251976 0.251976 0.251976 0.251976 0.251976 0.251976 0.251976 0.251976 0.251976 0.251976 0.251976 0.251976 0.251976 0.251976 0.251976 0.251976 0.251976 0.251976 0.251976 0.264906 0.264906 0.264906 0.264906 0.264906 0.264906 0.264906 0.264906 0.264906 0.264906 0.264906 0.264906 0.264906 0.264906 0.264906 0.264906 0.264906 0.264906 0.264906 0.264906 0.264906 0.264906 0.264906 0.264906 0.264906 0.264906 0.264906 0.264906 0.264906 0.264906 0.264906 0.264906 0.264906 0.264906 0.264906 0.264906 0.264906 0.264906 0.264906 0.264906 0.264906 0.264906 0.264906 0.264906 0.264906 0.264906 0.264906 0.264906 0.264906 0.264906 0.264906 0.264906 0.264906 0.264906 0.264906 0.264906 0.264906 0.264906 0.264906 0.264906 0.264906 0.264906 0.264906 0.264906 0.264906 0.264906 0.264906 0.264906 0.264906 0.264906 0.264906 0.264906 0.264906 0.264906 0.264906 0.269680 0.269680 0.269680 0.269680 0.269680 0.269680 0.269680 0.269680 0.269680 0.269680 0.269680 0.269680 0.264906 0.264906 0.264906 0.264906 0.264906 0.264906 0.264906 0.264906 0.264906 0.264906 0.264906 0.264906 0.269680 0.269680 0.269680 0.269680 0.269680 0.269680 0.269680 0.269680 0.269680 0.269680 0.269680 0.264906 0.264906 0.264906 0.264906 0.264906 0.264906 0.264906 0.264906 0.264906 0.264906 0.264906 0.256074 0.256074 0.256074 0.256074 0.256074 0.256074 0.256074 0.256074 0.256074 0.256074 0.256074 0.264906 0.264906 0.264906 0.264906 0.264906 0.264906 0.264906 0.264906 0.264906 0.264906 0.269680 0.269680 0.269680 0.269680 0.269680 0.269680 0.269680 0.269680 0.269680 0.256074 0.256074 0.256074 0.256074 0.256074 0.256074 0.256074 0.256074 0.256074 0.256074 0.260378 0.260378 0.260378 0.260378 0.260378 0.260378 0.260378 0.260378 0.260378 0.256074 0.256074 0.256074 0.256074 0.256074 0.256074 0.256074 0.256074 0.256074 0.251976 0.251976 0.251976 0.251976 0.251976 0.251976 0.251976 0.251976 0.251976 0.264906 0.264906 0.264906 0.264906 0.264906 0.264906 0.264906 0.264906 0.264906
