# Output from CTFFind version 4.1.9, run on 2019-11-03 19:34:05
# Input file: stack16_bm3d_averaged_1_4.25_0_1000_half.mrc ; Number of micrographs: 1
# Pixel size: 3.000 Angstroms ; acceleration voltage: 300.0 keV ; spherical aberration: 0.00 mm ; amplitude contrast: 0.07
# Box size: 512 pixels ; min. res.: 30.0 Angstroms ; max. res.: 5.0 Angstroms ; min. def.: 5000.0 um; max. def. 50000.0 um; num. frames averaged: 1
# 6 lines per micrograph: #1 - spatial frequency (1/Angstroms); #2 - 1D rotational average of spectrum (assuming no astigmatism); #3 - 1D rotational average of spectrum; #4 - CTF fit; #5 - cross-correlation between spectrum and CTF fit; #6 - 2sigma of expected cross correlation of noise
0.000000 0.000651 0.001302 0.001953 0.002604 0.003255 0.003906 0.004557 0.005208 0.005859 0.006510 0.007161 0.007812 0.008464 0.009115 0.009766 0.010417 0.011068 0.011719 0.012370 0.013021 0.013672 0.014323 0.014974 0.015625 0.016276 0.016927 0.017578 0.018229 0.018880 0.019531 0.020182 0.020833 0.021484 0.022135 0.022786 0.023438 0.024089 0.024740 0.025391 0.026042 0.026693 0.027344 0.027995 0.028646 0.029297 0.029948 0.030599 0.031250 0.031901 0.032552 0.033203 0.033854 0.034505 0.035156 0.035807 0.036458 0.037109 0.037760 0.038411 0.039062 0.039714 0.040365 0.041016 0.041667 0.042318 0.042969 0.043620 0.044271 0.044922 0.045573 0.046224 0.046875 0.047526 0.048177 0.048828 0.049479 0.050130 0.050781 0.051432 0.052083 0.052734 0.053385 0.054036 0.054688 0.055339 0.055990 0.056641 0.057292 0.057943 0.058594 0.059245 0.059896 0.060547 0.061198 0.061849 0.062500 0.063151 0.063802 0.064453 0.065104 0.065755 0.066406 0.067057 0.067708 0.068359 0.069010 0.069661 0.070312 0.070964 0.071615 0.072266 0.072917 0.073568 0.074219 0.074870 0.075521 0.076172 0.076823 0.077474 0.078125 0.078776 0.079427 0.080078 0.080729 0.081380 0.082031 0.082682 0.083333 0.083984 0.084635 0.085286 0.085938 0.086589 0.087240 0.087891 0.088542 0.089193 0.089844 0.090495 0.091146 0.091797 0.092448 0.093099 0.093750 0.094401 0.095052 0.095703 0.096354 0.097005 0.097656 0.098307 0.098958 0.099609 0.100260 0.100911 0.101562 0.102214 0.102865 0.103516 0.104167 0.104818 0.105469 0.106120 0.106771 0.107422 0.108073 0.108724 0.109375 0.110026 0.110677 0.111328 0.111979 0.112630 0.113281 0.113932 0.114583 0.115234 0.115885 0.116536 0.117188 0.117839 0.118490 0.119141 0.119792 0.120443 0.121094 0.121745 0.122396 0.123047 0.123698 0.124349 0.125000 0.125651 0.126302 0.126953 0.127604 0.128255 0.128906 0.129557 0.130208 0.130859 0.131510 0.132161 0.132812 0.133464 0.134115 0.134766 0.135417 0.136068 0.136719 0.137370 0.138021 0.138672 0.139323 0.139974 0.140625 0.141276 0.141927 0.142578 0.143229 0.143880 0.144531 0.145182 0.145833 0.146484 0.147135 0.147786 0.148438 0.149089 0.149740 0.150391 0.151042 0.151693 0.152344 0.152995 0.153646 0.154297 0.154948 0.155599 0.156250 0.156901 0.157552 0.158203 0.158854 0.159505 0.160156 0.160807 0.161458 0.162109 0.162760 0.163411 0.164062 0.164714 0.165365 0.166016 0.166667 0.167318 0.167969 0.168620 0.169271 0.169922 0.170573 0.171224 0.171875 0.172526 0.173177 0.173828 0.174479 0.175130 0.175781 0.176432 0.177083 0.177734 0.178385 0.179036 0.179688 0.180339 0.180990 0.181641 0.182292 0.182943 0.183594 0.184245 0.184896 0.185547 0.186198 0.186849 0.187500 0.188151 0.188802 0.189453 0.190104 0.190755 0.191406 0.192057 0.192708 0.193359 0.194010 0.194661 0.195312 0.195964 0.196615 0.197266 0.197917 0.198568 0.199219 0.199870 0.200521 0.201172 0.201823 0.202474 0.203125 0.203776 0.204427 0.205078 0.205729 0.206380 0.207031 0.207682 0.208333 0.208984 0.209635 0.210286 0.210938 0.211589 0.212240 0.212891 0.213542 0.214193 0.214844 0.215495 0.216146 0.216797 0.217448 0.218099 0.218750 0.219401 0.220052 0.220703 0.221354 0.222005 0.222656 0.223307 0.223958 0.224609 0.225260 0.225911 0.226562 0.227214 0.227865 0.228516 0.229167 0.229818 0.230469 0.231120 0.231771 0.232422 0.233073 0.233724 0.234375 0.235026 0.235677
       0.33218        0.33218        0.33218        0.33218        0.33218        0.33218        0.33218        0.33218        0.33218        0.33218        0.33218        0.33218        0.33218        0.33218        0.33218        0.33218        0.33218        0.33218        0.33218        0.33218        0.33218        0.33218        0.33218        0.33218        0.33218        0.33218        0.33218        0.33218        0.33218        0.33218        0.33218        0.33218        0.33218        0.33218        0.33218        0.33218        0.33218        0.33218        0.33218        0.33218        0.33218        0.33218        0.33218        0.33218        0.33218        0.33218        0.33218        0.33218        0.33218        0.33218        0.33218        0.42056        0.56640        0.35415       -0.19118       -0.45479       -0.56007       -0.65624       -0.72957       -0.74915       -0.85689       -0.91471       -0.71389       -0.87737       -0.84803       -0.99920       -1.03651       -0.92034       -0.87873       -0.82093       -0.75238       -0.67423       -0.58790       -0.49540       -0.42327       -0.19974       -0.08944        0.00306        0.23192        0.24126        0.30090        0.36653        0.39291        0.49704        0.53857        0.57241        0.53536        0.47418        0.51188        0.49974        0.42158        0.31706        0.18709        0.16518        0.10116       -0.03145       -0.04515       -0.04858        0.02937       -0.00921        0.04763        0.02704        0.14131        0.18530        0.40213        0.45720        0.55367        0.65726        0.69980        0.71834        0.64177        0.61946        0.52813        0.43860        0.37769        0.25723        0.20296        0.19023        0.07814        0.06840        0.05005        0.06092        0.08051        0.29240        0.40489        0.50542        0.54180        0.58169        0.61987        0.59503        0.59176        0.58875        0.56338        0.46460        0.28439        0.24611        0.21826        0.11829        0.06567        0.12566        0.14964        0.26398        0.34844        0.40718        0.47145        0.53649        0.60850        0.55474        0.51157        0.48949        0.35488        0.23376        0.22627        0.15613        0.14056        0.18922        0.23817        0.26340        0.30784        0.41339        0.43624        0.50771        0.46063        0.45203        0.46950        0.37189        0.31553        0.27068        0.22928        0.20802        0.21788        0.22863        0.31960        0.42245        0.41652        0.48488        0.54358        0.44809        0.41616        0.35448        0.29365        0.24083        0.24648        0.26460        0.27852        0.30831        0.32497        0.40901        0.46605        0.43642        0.44670        0.35011        0.36558        0.34853        0.23436        0.22633        0.23270        0.28855        0.35534        0.36561        0.38892        0.43394        0.43267        0.36159        0.33902        0.30833        0.32875        0.29001        0.26820        0.26655        0.32360        0.35899        0.37045        0.39566        0.37415        0.39967        0.37209        0.28793        0.27531        0.30327        0.33084        0.35351        0.35223        0.40417        0.33609        0.36801        0.37892        0.31863        0.33750        0.29014        0.28632        0.33468        0.32106        0.31605        0.32854        0.35136        0.31430        0.33341        0.29551        0.30414        0.27435        0.29302        0.28974        0.33356        0.36993        0.35321        0.33553        0.28945        0.27319        0.27645        0.31368        0.28526        0.30127        0.35442        0.36812        0.33022        0.30312        0.30443        0.29940        0.26702        0.27808        0.28318        0.31204        0.34271        0.31577        0.27789        0.32428        0.30208        0.29648        0.34318        0.33241        0.30727        0.32996        0.28938        0.31651        0.27488        0.29750        0.29465        0.30887        0.38103        0.32246        0.34016        0.30018        0.30380        0.30981        0.31327        0.28673        0.28270        0.31288        0.30903        0.31581        0.30005        0.30705        0.28814        0.29270        0.31190        0.32602        0.32045        0.32921        0.32510        0.29129        0.26969        0.27288        0.25923        0.34207        0.31311        0.35003        0.29500        0.26735        0.29466        0.34229        0.30230        0.28570        0.26673        0.30393        0.27805        0.25793        0.30486        0.27184        0.26929        0.30495        0.29972        0.33009        0.33585        0.29400        0.26115        0.24544        0.25320        0.26837        0.27392        0.31302        0.27060        0.21752        0.28425        0.26685        0.28116        0.22998        0.30615        0.29327        0.28649        0.26047        0.25769        0.26909        0.22533        0.27733        0.32391        0.36244        0.25572        0.26446        0.23634        0.23711        0.20203        0.31569        0.22769        0.22577        0.14581        0.24504        0.23288        0.22522        0.09917        0.03363       -0.60709       -0.99501
3.025707 2.987949 2.950435 2.913164 2.876136 2.839352 2.802810 2.766512 2.730457 2.694645 2.659077 2.623751 2.588669 2.553830 2.519235 2.484882 2.450773 2.416907 2.383284 2.349904 2.316768 2.283875 2.251225 2.218818 2.186655 2.154734 2.123057 2.091624 2.060433 2.029485 1.998781 1.968320 1.938102 1.908128 1.878397 1.848908 1.819664 1.790662 1.761904 1.733388 1.705116 1.677087 1.649302 1.621759 1.594460 1.567404 1.540592 1.514022 1.487696 1.461613 1.435773 1.470553 1.575001 1.515846 0.852120 0.581876 0.435416 0.369019 0.278976 0.194432 0.149163 -0.063740 0.180272 0.043528 -0.049560 -0.128899 -0.248478 -0.162987 -0.080539 -0.095547 -0.094266 0.024799 0.017918 0.206576 0.097528 0.337982 0.450266 0.467218 0.742617 0.684395 0.677892 0.827776 0.796164 0.820701 0.916424 0.868566 0.897382 0.729757 0.811507 0.840868 0.666853 0.597742 0.442327 0.417533 0.364416 0.177863 0.172599 0.117709 0.214345 0.119852 0.215463 0.105118 0.236841 0.238637 0.469467 0.418763 0.600094 0.633944 0.673374 0.733667 0.650183 0.622414 0.478235 0.430818 0.316091 0.282936 0.115040 0.178796 -0.010930 0.032597 -0.036592 -0.036669 -0.024224 0.046247 0.296944 0.315857 0.396859 0.346287 0.426654 0.468814 0.439964 0.448806 0.378735 0.373535 0.149205 0.101881 0.070010 0.005644 -0.145581 -0.031217 -0.077063 0.045548 0.114468 0.180037 0.257049 0.258416 0.351320 0.447440 0.337416 0.390889 0.281309 0.147572 0.065933 0.065237 0.012395 0.036181 0.076499 0.113113 0.123917 0.212908 0.255916 0.302784 0.337848 0.248682 0.274341 0.239708 0.116142 0.099827 0.041988 0.041898 0.011491 0.015804 0.049827 0.176277 0.197628 0.196913 0.332313 0.199766 0.232340 0.103312 0.089462 -0.009185 -0.006366 0.006538 0.017654 0.040978 0.043260 0.089375 0.161334 0.167561 0.212278 0.116452 0.078542 0.105059 0.040090 -0.077824 -0.023651 0.008470 0.045273 0.064905 0.090913 0.160733 0.126424 0.163314 0.043164 0.061330 0.044330 0.047461 0.019172 -0.013246 0.026922 0.043214 0.084644 0.106033 0.109370 0.106578 0.124168 0.060336 -0.000466 0.005700 0.026014 0.079807 0.056974 0.108623 0.115802 0.047569 0.103433 0.067878 0.036773 0.066017 -0.031098 0.027589 0.060671 0.030093 0.027003 0.105199 0.041953 0.047525 0.044897 0.008153 0.024100 -0.020332 0.017606 0.002256 0.078189 0.074846 0.052369 0.037068 -0.015694 -0.015513 -0.007428 0.023935 -0.003938 0.015657 0.077341 0.069336 -0.007918 0.021956 -0.002464 0.006807 -0.033816 -0.020385 -0.010808 0.036373 0.005437 0.018349 -0.015555 0.017976 -0.010381 0.003097 0.045245 0.025658 0.032311 -0.031883 0.004194 0.005492 -0.043539 -0.004293 -0.007737 0.028679 0.086623 0.011808 0.019610 0.005180 0.018624 -0.002296 0.032269 -0.013156 -0.014367 0.021656 0.005424 0.029794 0.003620 0.055545 -0.027474 -0.002059 0.031159 0.029846 0.027905 0.057995 0.016476 0.016622 -0.001044 -0.026993 -0.001818 0.061780 0.040334 0.053380 0.003199 -0.013573 -0.000076 0.074803 0.001819 0.016548 -0.018657 0.019168 -0.015565 -0.016353 0.009240 0.002877 -0.026802 0.025680 0.024765 0.078484 0.047289 0.018786 -0.002297 -0.039547 -0.021525 0.010644 -0.008945 0.073199 -0.027216 -0.081403 0.037084 -0.020039 -0.081313 -0.067195 -0.001652 -0.037036 -0.050245 -0.069421 -0.054869 -0.034491 -0.099378 -0.022186 0.010200 0.055384 -0.105329 -0.013388 0.007149 -0.037874 -0.096688 0.109828 0.011255 0.066046 -0.040768 0.278285 0.210268 0.225903 0.020359 0.037071 -0.928423
0.072396 0.073048 0.075002 0.078258 0.082814 0.088671 0.095825 0.104272 0.114011 0.125034 0.137336 0.150908 0.165740 0.181820 0.199131 0.217655 0.237370 0.258250 0.280265 0.303378 0.327548 0.352728 0.378864 0.405896 0.433755 0.462363 0.491636 0.521479 0.551786 0.582444 0.613327 0.644299 0.675213 0.705909 0.736218 0.765958 0.794935 0.822947 0.849777 0.875202 0.898986 0.920888 0.940657 0.958038 0.972770 0.984592 0.993240 0.998455 0.999979 0.997565 0.990974 0.979982 0.964383 0.943991 0.918646 0.888217 0.852607 0.811755 0.765644 0.714303 0.657809 0.596296 0.529953 0.459032 0.383848 0.304780 0.222276 0.136853 0.049093 0.040353 0.130772 0.221388 0.311369 0.399834 0.485858 0.568481 0.646723 0.719587 0.786079 0.845222 0.896066 0.937709 0.969317 0.990133 0.999503 0.996893 0.981903 0.954289 0.913975 0.861072 0.795883 0.718923 0.630914 0.532798 0.425731 0.311081 0.190415 0.065487 0.061786 0.189339 0.315003 0.436529 0.551632 0.658037 0.753523 0.835975 0.903435 0.954156 0.986656 0.999762 0.992663 0.964948 0.916643 0.848237 0.760699 0.655486 0.534533 0.400240 0.255433 0.103321 0.052564 0.208451 0.360401 0.504422 0.636563 0.753033 0.850319 0.925302 0.975366 0.998511 0.993442 0.959647 0.897458 0.808087 0.693629 0.557047 0.402119 0.233357 0.055892 0.124668 0.302403 0.471278 0.625344 0.758957 0.867003 0.945102 0.989817 0.998823 0.971052 0.906795 0.807757 0.677050 0.519147 0.339750 0.145625 0.055641 0.255911 0.446827 0.620161 0.768176 0.883991 0.961931 0.997832 0.989302 0.935905 0.839272 0.703110 0.533111 0.336765 0.123064 0.097873 0.315272 0.518216 0.696199 0.839695 0.940690 0.993176 0.993548 0.940901 0.837186 0.687214 0.498504 0.280957 0.046386 0.192091 0.420769 0.626146 0.795731 0.918841 0.987317 0.996122 0.943773 0.832564 0.668558 0.461347 0.223543 0.029917 0.282690 0.518057 0.720044 0.874528 0.970274 0.999824 0.960143 0.852992 0.684973 0.467213 0.214713 0.054620 0.321201 0.565183 0.767938 0.913533 0.990029 0.990555 0.914010 0.765339 0.555336 0.299970 0.019246 0.264293 0.527364 0.747856 0.906730 0.989738 0.988792 0.902859 0.738278 0.508417 0.232715 0.064868 0.357883 0.619727 0.826068 0.957180 0.999920 0.949161 0.808521 0.590279 0.314439 0.007023 0.302320 0.583134 0.807172 0.951297 0.999982 0.947115 0.796892 0.563686 0.270816 0.051641 0.369877 0.649856 0.860994 0.979578 0.991563 0.894388 0.697576 0.422004 0.097836 0.238652 0.549071 0.797314 0.953824 0.999235 0.926942 0.744225 0.471738 0.141367 0.207366 0.531960 0.792105 0.954773 0.998540 0.916601 0.718005 0.426903 0.079805 0.278844 0.602300 0.847614 0.981447 0.984765 0.855752 0.610495 0.281217 0.087757 0.445836 0.743072 0.937195 0.999761 0.920546 0.709443 0.395518 0.023252 0.353617 0.679755 0.906419 0.998874 0.941936 0.742724 0.430102 0.050754 0.337596 0.674882 0.908028 0.999449 0.933345 0.718716 0.388479 0.005301 0.399423 0.729628 0.941137 0.997908 0.889063 0.631261 0.266496 0.144470 0.532040 0.829578 0.984935 0.969855 0.785421 0.462495 0.056902 0.359979 0.713679 0.939966 0.996735 0.872142 0.587404 0.193603 0.237210 0.624994 0.896613 0.999790 0.913474 0.652504 0.265507 0.173856 0.580640 0.875078 0.998329 0.924577 0.666808 0.275026 0.173121 0.587459 0.883433 0.999516 0.910335 0.632634 0.222619 0.235034 0.644463 0.918663 0.998227 0.864550 0.544648 0.106180 0.356502 0.742455
1.000000 1.000000 1.000000 1.000000 1.000000 1.000000 1.000000 1.000000 1.000000 1.000000 1.000000 1.000000 1.000000 1.000000 1.000000 1.000000 1.000000 1.000000 1.000000 1.000000 1.000000 1.000000 1.000000 1.000000 1.000000 1.000000 1.000000 1.000000 1.000000 1.000000 1.000000 1.000000 1.000000 1.000000 1.000000 1.000000 1.000000 1.000000 1.000000 1.000000 1.000000 1.000000 1.000000 1.000000 1.000000 1.000000 1.000000 1.000000 1.000000 1.000000 1.000000 1.000000 0.934634 0.934634 0.934634 0.934634 0.934634 0.934634 0.934634 0.934634 0.934634 0.934634 0.934634 0.934634 0.934634 0.934634 0.934634 0.934634 0.934634 0.934634 0.934634 0.934634 0.934634 0.934634 0.934634 0.934634 0.934634 0.934634 0.934634 0.934634 0.934634 0.934634 0.934634 0.934634 0.934634 0.922764 0.920722 0.923511 0.924465 0.924360 0.923896 0.923626 0.923926 0.925396 0.927192 0.948515 0.950790 0.951384 0.952523 0.952589 0.955217 0.953566 0.958283 0.968969 0.968333 0.969252 0.963735 0.964499 0.964174 0.963634 0.965478 0.965119 0.963887 0.962416 0.961298 0.960997 0.960789 0.962324 0.962767 0.963082 0.963428 0.963403 0.963319 0.960995 0.958681 0.961132 0.960567 0.959469 0.964927 0.963631 0.965640 0.965640 0.966318 0.967134 0.967350 0.967521 0.962077 0.961093 0.959626 0.945902 0.940234 0.937085 0.939711 0.942644 0.939875 0.934844 0.933109 0.935523 0.927829 0.927338 0.917774 0.916560 0.900717 0.893469 0.883742 0.885260 0.886695 0.887266 0.884527 0.873972 0.863066 0.859601 0.862827 0.856631 0.852862 0.869040 0.864515 0.866363 0.869522 0.871604 0.877469 0.870629 0.866142 0.861964 0.857775 0.856034 0.858272 0.861812 0.863644 0.858200 0.850336 0.853876 0.845979 0.845102 0.850666 0.850852 0.844753 0.841947 0.843305 0.844205 0.839977 0.845615 0.832488 0.827760 0.827907 0.824187 0.821569 0.814528 0.813837 0.814424 0.817220 0.805658 0.810595 0.773752 0.785839 0.779732 0.788541 0.788500 0.781736 0.782890 0.763980 0.753390 0.749587 0.761580 0.772745 0.756245 0.753181 0.749896 0.728101 0.735427 0.743710 0.737448 0.731959 0.717902 0.728137 0.728596 0.731211 0.722471 0.703728 0.708892 0.720069 0.727387 0.704299 0.699491 0.693444 0.696069 0.694373 0.687088 0.694766 0.666823 0.656515 0.624935 0.624219 0.637543 0.628216 0.602916 0.584028 0.534525 0.533071 0.531741 0.530209 0.512082 0.515728 0.502812 0.507611 0.540561 0.526991 0.541498 0.544548 0.538209 0.549548 0.436803 0.443997 0.422299 0.422605 0.432222 0.424332 0.389580 0.402568 0.405677 0.417437 0.406898 0.391524 0.408739 0.394404 0.394975 0.411000 0.391116 0.383915 0.392730 0.406411 0.405801 0.392694 0.384582 0.392216 0.414819 0.354400 0.342960 0.365460 0.322238 0.310046 0.285558 0.301223 0.287516 0.304740 0.293771 0.301814 0.309319 0.271929 0.288067 0.273203 0.297850 0.308142 0.306787 0.284801 0.280330 0.296114 0.224200 0.235273 0.264764 0.253668 0.320950 0.264136 0.258214 0.174072 0.235415 0.210223 0.221925 0.190114 0.147865 0.138591 0.139698 0.113299 0.111803 0.113528 0.097768 0.069959 0.025197 0.029135 0.022946 0.033227 0.048756 0.020843 0.018883 0.018883 0.018883 0.018883 -0.005244 -0.005244 -0.005244 -0.005244 -0.005244 -0.005244 -0.005244 -0.005244 -0.005244 -0.005244 -0.005244 -0.005244 -0.005244 -0.005244 -0.109291 -0.109291 -0.109291 -0.109291 -0.109291 -0.109291 -0.109291 -0.109291 -0.109291 -0.109291 -0.109291 -0.109291
0.000000 0.000000 0.000000 0.000000 0.000000 0.000000 0.000000 0.000000 0.000000 0.000000 0.000000 0.000000 0.000000 0.000000 0.000000 0.000000 0.000000 0.000000 0.000000 0.000000 0.000000 0.000000 0.000000 0.000000 0.000000 7.000000 4.000000 0.000000 0.000000 0.000000 0.000000 0.000000 0.000000 0.000000 0.000000 0.000000 0.000000 0.000000 0.000000 0.000000 0.000000 0.000000 0.000000 0.000000 0.000000 0.000000 0.000000 0.000000 0.000000 0.000000 0.000000 0.000000 0.209657 0.209657 0.209657 0.209657 0.209657 0.209657 0.209657 0.209657 0.209657 0.209657 0.209657 0.209657 0.209657 0.209657 0.209657 0.209657 0.209657 0.209657 0.209657 0.209657 0.209657 0.209657 0.209657 0.209657 0.209657 0.209657 0.209657 0.209657 0.209657 0.209657 0.209657 0.209657 0.209657 0.244339 0.244339 0.244339 0.244339 0.244339 0.244339 0.244339 0.244339 0.244339 0.244339 0.244339 0.244339 0.244339 0.244339 0.244339 0.244339 0.244339 0.244339 0.244339 0.244339 0.244339 0.244339 0.244339 0.244339 0.244339 0.260378 0.260378 0.260378 0.260378 0.260378 0.260378 0.260378 0.260378 0.260378 0.260378 0.260378 0.260378 0.260378 0.260378 0.260378 0.260378 0.260378 0.260378 0.260378 0.260378 0.269680 0.269680 0.269680 0.269680 0.269680 0.269680 0.269680 0.269680 0.269680 0.269680 0.269680 0.269680 0.269680 0.269680 0.269680 0.269680 0.269680 0.269680 0.269680 0.269680 0.269680 0.269680 0.269680 0.269680 0.269680 0.269680 0.269680 0.269680 0.269680 0.269680 0.269680 0.269680 0.269680 0.280056 0.280056 0.280056 0.280056 0.280056 0.280056 0.280056 0.280056 0.280056 0.280056 0.280056 0.280056 0.280056 0.280056 0.280056 0.280056 0.280056 0.280056 0.280056 0.280056 0.280056 0.280056 0.280056 0.280056 0.280056 0.280056 0.280056 0.285714 0.285714 0.285714 0.285714 0.285714 0.285714 0.285714 0.285714 0.285714 0.285714 0.285714 0.285714 0.274721 0.274721 0.274721 0.274721 0.274721 0.274721 0.274721 0.274721 0.274721 0.274721 0.274721 0.274721 0.280056 0.280056 0.280056 0.280056 0.280056 0.280056 0.280056 0.280056 0.280056 0.280056 0.280056 0.285714 0.285714 0.285714 0.285714 0.285714 0.285714 0.285714 0.285714 0.285714 0.285714 0.280056 0.280056 0.280056 0.280056 0.280056 0.280056 0.280056 0.280056 0.280056 0.280056 0.274721 0.274721 0.274721 0.274721 0.274721 0.274721 0.274721 0.274721 0.274721 0.274721 0.280056 0.280056 0.280056 0.280056 0.280056 0.280056 0.280056 0.280056 0.280056 0.274721 0.274721 0.274721 0.274721 0.274721 0.274721 0.274721 0.274721 0.274721 0.269680 0.269680 0.269680 0.269680 0.269680 0.269680 0.269680 0.269680 0.269680 0.280056 0.280056 0.280056 0.280056 0.280056 0.280056 0.280056 0.280056 0.260378 0.260378 0.260378 0.260378 0.260378 0.260378 0.260378 0.260378 0.260378 0.269680 0.269680 0.269680 0.269680 0.269680 0.269680 0.269680 0.269680 0.285714 0.285714 0.285714 0.285714 0.285714 0.285714 0.285714 0.264906 0.264906 0.264906 0.264906 0.264906 0.264906 0.264906 0.264906 0.274721 0.274721 0.274721 0.274721 0.274721 0.274721 0.274721 0.256074 0.256074 0.256074 0.256074 0.256074 0.256074 0.256074 0.256074 0.264906 0.264906 0.264906 0.264906 0.264906 0.264906 0.264906 0.264906 0.264906 0.264906 0.264906 0.264906 0.264906 0.264906 0.280056 0.280056 0.280056 0.280056 0.280056 0.280056 0.280056 0.280056 0.280056 0.280056 0.280056 0.280056
