# Output from CTFFind version 4.1.9, run on 2019-11-02 17:50:32
# Input file: stack16_bm3d_averaged_1_0.75_0_3000_half.mrc ; Number of micrographs: 1
# Pixel size: 3.000 Angstroms ; acceleration voltage: 300.0 keV ; spherical aberration: 0.00 mm ; amplitude contrast: 0.07
# Box size: 512 pixels ; min. res.: 30.0 Angstroms ; max. res.: 5.0 Angstroms ; min. def.: 5000.0 um; max. def. 50000.0 um; num. frames averaged: 1
# 6 lines per micrograph: #1 - spatial frequency (1/Angstroms); #2 - 1D rotational average of spectrum (assuming no astigmatism); #3 - 1D rotational average of spectrum; #4 - CTF fit; #5 - cross-correlation between spectrum and CTF fit; #6 - 2sigma of expected cross correlation of noise
0.000000 0.000651 0.001302 0.001953 0.002604 0.003255 0.003906 0.004557 0.005208 0.005859 0.006510 0.007161 0.007812 0.008464 0.009115 0.009766 0.010417 0.011068 0.011719 0.012370 0.013021 0.013672 0.014323 0.014974 0.015625 0.016276 0.016927 0.017578 0.018229 0.018880 0.019531 0.020182 0.020833 0.021484 0.022135 0.022786 0.023438 0.024089 0.024740 0.025391 0.026042 0.026693 0.027344 0.027995 0.028646 0.029297 0.029948 0.030599 0.031250 0.031901 0.032552 0.033203 0.033854 0.034505 0.035156 0.035807 0.036458 0.037109 0.037760 0.038411 0.039062 0.039714 0.040365 0.041016 0.041667 0.042318 0.042969 0.043620 0.044271 0.044922 0.045573 0.046224 0.046875 0.047526 0.048177 0.048828 0.049479 0.050130 0.050781 0.051432 0.052083 0.052734 0.053385 0.054036 0.054688 0.055339 0.055990 0.056641 0.057292 0.057943 0.058594 0.059245 0.059896 0.060547 0.061198 0.061849 0.062500 0.063151 0.063802 0.064453 0.065104 0.065755 0.066406 0.067057 0.067708 0.068359 0.069010 0.069661 0.070312 0.070964 0.071615 0.072266 0.072917 0.073568 0.074219 0.074870 0.075521 0.076172 0.076823 0.077474 0.078125 0.078776 0.079427 0.080078 0.080729 0.081380 0.082031 0.082682 0.083333 0.083984 0.084635 0.085286 0.085938 0.086589 0.087240 0.087891 0.088542 0.089193 0.089844 0.090495 0.091146 0.091797 0.092448 0.093099 0.093750 0.094401 0.095052 0.095703 0.096354 0.097005 0.097656 0.098307 0.098958 0.099609 0.100260 0.100911 0.101562 0.102214 0.102865 0.103516 0.104167 0.104818 0.105469 0.106120 0.106771 0.107422 0.108073 0.108724 0.109375 0.110026 0.110677 0.111328 0.111979 0.112630 0.113281 0.113932 0.114583 0.115234 0.115885 0.116536 0.117188 0.117839 0.118490 0.119141 0.119792 0.120443 0.121094 0.121745 0.122396 0.123047 0.123698 0.124349 0.125000 0.125651 0.126302 0.126953 0.127604 0.128255 0.128906 0.129557 0.130208 0.130859 0.131510 0.132161 0.132812 0.133464 0.134115 0.134766 0.135417 0.136068 0.136719 0.137370 0.138021 0.138672 0.139323 0.139974 0.140625 0.141276 0.141927 0.142578 0.143229 0.143880 0.144531 0.145182 0.145833 0.146484 0.147135 0.147786 0.148438 0.149089 0.149740 0.150391 0.151042 0.151693 0.152344 0.152995 0.153646 0.154297 0.154948 0.155599 0.156250 0.156901 0.157552 0.158203 0.158854 0.159505 0.160156 0.160807 0.161458 0.162109 0.162760 0.163411 0.164062 0.164714 0.165365 0.166016 0.166667 0.167318 0.167969 0.168620 0.169271 0.169922 0.170573 0.171224 0.171875 0.172526 0.173177 0.173828 0.174479 0.175130 0.175781 0.176432 0.177083 0.177734 0.178385 0.179036 0.179688 0.180339 0.180990 0.181641 0.182292 0.182943 0.183594 0.184245 0.184896 0.185547 0.186198 0.186849 0.187500 0.188151 0.188802 0.189453 0.190104 0.190755 0.191406 0.192057 0.192708 0.193359 0.194010 0.194661 0.195312 0.195964 0.196615 0.197266 0.197917 0.198568 0.199219 0.199870 0.200521 0.201172 0.201823 0.202474 0.203125 0.203776 0.204427 0.205078 0.205729 0.206380 0.207031 0.207682 0.208333 0.208984 0.209635 0.210286 0.210938 0.211589 0.212240 0.212891 0.213542 0.214193 0.214844 0.215495 0.216146 0.216797 0.217448 0.218099 0.218750 0.219401 0.220052 0.220703 0.221354 0.222005 0.222656 0.223307 0.223958 0.224609 0.225260 0.225911 0.226562 0.227214 0.227865 0.228516 0.229167 0.229818 0.230469 0.231120 0.231771 0.232422 0.233073 0.233724 0.234375 0.235026 0.235677
       0.34396        0.34396        0.34396        0.34396        0.34396        0.34396        0.34396        0.34396        0.34396        0.34396        0.34396        0.34396        0.34396        0.34396        0.34396        0.34396        0.34396        0.34396        0.34396        0.34396        0.34396        0.34396        0.34396        0.34396        0.34396        0.34396        0.34396        0.34396        0.34396        0.34396        0.34396        0.34396        0.34396        0.34396        0.34396        0.34396        0.34396        0.34396        0.34396        0.34396        0.34396        0.34396        0.34396        0.34396        0.34396        0.34396        0.34396        0.34396        0.34396        0.34396        0.34396        0.48976        0.70495        0.45680       -0.10878       -0.41429       -0.57002       -0.65927       -0.74543       -0.76118       -0.86892       -0.91294       -0.76078       -0.92463       -0.87159       -1.02437       -1.09450       -0.98838       -0.95984       -0.88337       -0.86347       -0.75131       -0.64061       -0.49898       -0.42175       -0.21801       -0.11915       -0.02392        0.20326        0.24415        0.30989        0.38715        0.44042        0.51724        0.58217        0.59805        0.59509        0.50307        0.54695        0.48659        0.39036        0.32492        0.20872        0.17553        0.10323       -0.06309       -0.11291       -0.09248        0.00930       -0.01721        0.00891        0.03045        0.21215        0.21991        0.39013        0.45839        0.56362        0.70358        0.76267        0.72771        0.70951        0.70761        0.58738        0.54474        0.40091        0.27444        0.19410        0.14394        0.06678        0.02164        0.02434        0.06238        0.08069        0.27396        0.41841        0.50408        0.58730        0.64055        0.70809        0.66238        0.65178        0.67373        0.61195        0.48017        0.28478        0.23243        0.20539        0.13169        0.04911        0.09438        0.12301        0.25020        0.34097        0.41615        0.50287        0.54232        0.66518        0.61084        0.55642        0.50719        0.36707        0.21045        0.21188        0.15293        0.11314        0.11913        0.21387        0.25599        0.36419        0.44510        0.44083        0.56911        0.51448        0.44552        0.45279        0.38712        0.32427        0.27774        0.22086        0.23832        0.21089        0.21423        0.32701        0.44963        0.48987        0.48081        0.55241        0.49696        0.45722        0.39590        0.29161        0.22430        0.23304        0.24765        0.26811        0.27013        0.32617        0.44247        0.49795        0.48850        0.45884        0.41933        0.38609        0.36259        0.25034        0.23173        0.24892        0.29552        0.35441        0.36597        0.39639        0.40843        0.44680        0.37229        0.34800        0.31331        0.30323        0.26610        0.26176        0.31474        0.34732        0.41773        0.41797        0.39969        0.39565        0.40875        0.35169        0.28839        0.29120        0.27474        0.31033        0.36075        0.36524        0.41596        0.36260        0.36695        0.39003        0.34485        0.31440        0.28088        0.29708        0.34127        0.33504        0.32797        0.37818        0.39655        0.33766        0.35377        0.29496        0.30875        0.29185        0.28247        0.30208        0.33083        0.38330        0.36821        0.34940        0.33103        0.28826        0.27795        0.29791        0.28223        0.31389        0.37044        0.39465        0.33816        0.31777        0.31356        0.29787        0.28349        0.27935        0.29937        0.34285        0.33629        0.34774        0.31955        0.34410        0.32598        0.29067        0.31466        0.32120        0.33047        0.33344        0.31795        0.31835        0.30934        0.33031        0.31734        0.33545        0.39188        0.34099        0.36152        0.32397        0.31568        0.28841        0.31144        0.28994        0.31080        0.32013        0.35385        0.36666        0.31935        0.32118        0.31262        0.29606        0.29444        0.28959        0.33729        0.33947        0.36075        0.33997        0.32780        0.25726        0.27024        0.31363        0.35331        0.31473        0.30063        0.29202        0.29166        0.32376        0.30562        0.30442        0.33327        0.34491        0.31735        0.24657        0.28650        0.28306        0.28857        0.31988        0.32238        0.34837        0.34036        0.28072        0.26478        0.29282        0.26317        0.28807        0.27441        0.24533        0.26702        0.24420        0.27841        0.27480        0.27657        0.27235        0.31353        0.33013        0.31866        0.29850        0.31735        0.25004        0.27506        0.25451        0.33592        0.34118        0.23873        0.26620        0.28098        0.25141        0.24776        0.30111        0.22902        0.13975        0.16567        0.25290        0.27969        0.23735        0.15599        0.02853       -0.40147       -0.75783
3.056381 3.018432 2.980726 2.943264 2.906045 2.869070 2.832339 2.795851 2.759608 2.723607 2.687850 2.652337 2.617068 2.582042 2.547259 2.512721 2.478426 2.444374 2.410566 2.377002 2.343682 2.310605 2.277771 2.245182 2.212835 2.180733 2.148874 2.117259 2.085887 2.054759 2.023875 1.993234 1.962836 1.932683 1.902773 1.873107 1.843684 1.814505 1.785569 1.756877 1.728429 1.700224 1.672263 1.644546 1.617072 1.589842 1.562855 1.536112 1.509613 1.483357 1.457345 1.512826 1.705474 1.615386 0.970028 0.681684 0.478039 0.434302 0.320809 0.265900 0.200419 0.022555 0.196419 0.081149 -0.005791 -0.059706 -0.196246 -0.150614 -0.089860 -0.091272 -0.099161 0.010039 0.032043 0.235170 0.151653 0.365903 0.446205 0.476703 0.716845 0.701486 0.711569 0.840878 0.824740 0.856552 0.924681 0.895976 0.943970 0.754788 0.838499 0.843038 0.620905 0.610096 0.459622 0.440063 0.389260 0.208312 0.120110 0.100636 0.205873 0.147500 0.191745 0.112285 0.317145 0.289797 0.456716 0.418709 0.582197 0.648042 0.769997 0.691801 0.664641 0.674184 0.537462 0.506960 0.372541 0.294846 0.118612 0.146812 0.002435 -0.013687 -0.037652 -0.027544 0.000683 0.036865 0.275103 0.332938 0.383004 0.400839 0.472477 0.534437 0.457814 0.507898 0.403339 0.389768 0.156336 0.065237 0.071694 0.000894 -0.121918 -0.040922 -0.108479 0.017607 0.136372 0.157675 0.254263 0.259439 0.386520 0.462483 0.358266 0.387478 0.284229 0.128375 0.049697 0.052488 0.011697 0.002163 0.005288 0.107397 0.133899 0.265883 0.238034 0.307108 0.375141 0.234740 0.242206 0.220073 0.134107 0.080910 0.056070 0.026435 0.039313 -0.012897 0.030160 0.186864 0.223437 0.251522 0.278481 0.234512 0.238043 0.149822 0.103442 -0.025684 -0.015649 -0.006456 0.018353 0.005869 0.027742 0.106190 0.183843 0.202965 0.218650 0.138612 0.144856 0.078804 0.054384 -0.056012 -0.011552 -0.008586 0.053868 0.065629 0.081658 0.151854 0.084020 0.171794 0.067527 0.052851 0.042822 0.026293 0.001182 0.011848 0.056893 0.083237 0.135741 0.142501 0.066487 0.132742 0.101056 0.019712 0.006451 0.004404 -0.006825 0.058152 0.060450 0.097833 0.099212 0.076824 0.064082 0.082399 0.032704 0.011924 -0.010465 0.013088 0.058761 0.031826 0.041382 0.084026 0.084392 0.057888 0.032685 0.005531 0.014946 -0.004388 -0.013646 0.015376 0.051733 0.102420 0.060430 0.059641 0.041089 -0.014050 -0.000611 0.013595 0.008739 0.025936 0.106487 0.052830 0.021291 0.042909 0.002642 0.023968 -0.012044 -0.006603 0.022181 0.064405 0.032160 0.045840 0.029129 0.051785 0.027915 -0.004383 0.025242 0.042155 0.035390 0.028284 0.025587 0.006786 -0.004979 0.027607 0.011618 0.042287 0.080280 0.048649 0.025026 0.017255 0.001203 -0.001639 0.006561 0.002092 0.012061 0.000378 0.086392 0.056651 0.033302 0.037937 0.003817 0.012071 0.011770 -0.005603 0.056656 0.061984 0.088681 0.053025 0.051492 -0.026630 0.019483 0.037152 0.080480 0.025555 0.038343 0.014578 0.009440 0.047061 0.043346 0.035291 0.060176 0.078415 0.063045 -0.018384 0.017591 0.044239 0.025975 0.045017 0.076271 0.077405 0.072326 0.017191 0.002732 0.016548 -0.003264 0.017671 -0.014728 -0.031698 -0.006502 -0.048196 0.000857 -0.008806 0.004549 -0.065725 -0.002474 0.018766 0.004652 -0.026926 0.037182 -0.089449 -0.016357 -0.040181 0.035736 0.066141 -0.095696 -0.009426 0.045876 0.020328 -0.041694 0.049477 0.032164 -0.002979 -0.045554 0.078242 0.241242 0.213966 0.121446 0.027759 -0.665940
0.072396 0.073046 0.074994 0.078242 0.082786 0.088627 0.095761 0.104186 0.113898 0.124891 0.137160 0.150695 0.165488 0.181524 0.198789 0.217265 0.236928 0.257754 0.279712 0.302766 0.326876 0.351994 0.378068 0.405036 0.432832 0.461378 0.490589 0.520372 0.550623 0.581228 0.612062 0.642991 0.673869 0.704536 0.734825 0.764556 0.793535 0.821562 0.848421 0.873890 0.897737 0.919719 0.939588 0.957090 0.971967 0.983956 0.992797 0.998229 0.999997 0.997854 0.991560 0.980892 0.965643 0.945627 0.920682 0.890675 0.855507 0.815115 0.769478 0.718621 0.662617 0.601594 0.535737 0.465290 0.390562 0.311926 0.229821 0.144755 0.057303 0.031894 0.122130 0.212639 0.302597 0.391132 0.477325 0.560225 0.638856 0.712227 0.779347 0.839240 0.890956 0.933593 0.966309 0.988342 0.999029 0.997822 0.984308 0.958225 0.919476 0.868147 0.804520 0.729078 0.642518 0.545748 0.439894 0.326291 0.206475 0.082170 0.044734 0.172200 0.298079 0.420140 0.536109 0.643718 0.740742 0.825057 0.894690 0.947866 0.983067 0.999078 0.995034 0.970465 0.925329 0.860041 0.775494 0.673061 0.554598 0.422423 0.279288 0.128330 0.026982 0.182923 0.335593 0.481016 0.615243 0.734465 0.835127 0.914048 0.968528 0.996461 0.996429 0.967779 0.910691 0.826211 0.716269 0.583661 0.432006 0.265672 0.089661 0.090515 0.269009 0.439813 0.596970 0.734787 0.848046 0.932229 0.983712 0.999949 0.979616 0.922725 0.830687 0.706321 0.553809 0.378590 0.187200 0.012953 0.213855 0.407204 0.584742 0.738630 0.861804 0.948319 0.993676 0.995087 0.951674 0.864598 0.737091 0.574391 0.383572 0.173279 0.046629 0.265530 0.472533 0.657032 0.809259 0.920832 0.985250 0.998321 0.958478 0.866968 0.727900 0.548125 0.336958 0.105748 0.132704 0.364822 0.577031 0.756562 0.892244 0.975249 0.999714 0.963217 0.867057 0.716308 0.519639 0.288881 0.038373 0.215880 0.457226 0.669441 0.837854 0.950403 0.998554 0.978028 0.889242 0.737451 0.532530 0.288427 0.022274 0.246757 0.498826 0.714885 0.878147 0.975459 0.998426 0.944230 0.816037 0.622937 0.379410 0.104333 0.180422 0.451688 0.686889 0.865951 0.973071 0.998209 0.938130 0.796891 0.585723 0.322255 0.029141 0.267815 0.541899 0.767907 0.924508 0.996341 0.975634 0.863164 0.668445 0.409064 0.109218 0.202448 0.495539 0.740863 0.913399 0.994931 0.976099 0.857612 0.650466 0.375075 0.059427 0.263706 0.560081 0.797665 0.950126 0.999897 0.940325 0.776721 0.526098 0.215558 0.120490 0.444066 0.717902 0.909773 0.996407 0.966452 0.822151 0.579419 0.266294 0.080137 0.418050 0.705885 0.907523 0.996923 0.961656 0.804832 0.545098 0.214632 0.144672 0.486412 0.765666 0.944962 0.999443 0.920516 0.717420 0.416397 0.057533 0.310438 0.636674 0.875271 0.991861 0.968724 0.807739 0.530570 0.176015 0.205235 0.557727 0.829320 0.978988 0.983213 0.839929 0.569335 0.211333 0.180135 0.545081 0.826664 0.980131 0.980146 0.825238 0.538576 0.164811 0.236651 0.600960 0.868311 0.993888 0.955608 0.758313 0.433550 0.034817 0.370992 0.714762 0.936949 0.998090 0.886104 0.618987 0.242295 0.178329 0.568443 0.857937 0.993777 0.949983 0.732950 0.380937 0.042322 0.458916 0.791048 0.975629 0.976520 0.791963 0.455606 0.030795 0.401144 0.756298 0.964568 0.983758 0.808471 0.471921 0.040080 0.400985 0.762113 0.969176 0.978517 0.786578 0.431412 0.014445 0.458445 0.807174 0.986080 0.955729 0.720913 0.330472 0.132419 0.567713
1.000000 1.000000 1.000000 1.000000 1.000000 1.000000 1.000000 1.000000 1.000000 1.000000 1.000000 1.000000 1.000000 1.000000 1.000000 1.000000 1.000000 1.000000 1.000000 1.000000 1.000000 1.000000 1.000000 1.000000 1.000000 1.000000 1.000000 1.000000 1.000000 1.000000 1.000000 1.000000 1.000000 1.000000 1.000000 1.000000 1.000000 1.000000 1.000000 1.000000 1.000000 1.000000 1.000000 1.000000 1.000000 1.000000 1.000000 1.000000 1.000000 1.000000 1.000000 1.000000 0.932707 0.932707 0.932707 0.932707 0.932707 0.932707 0.932707 0.932707 0.932707 0.932707 0.932707 0.932707 0.932707 0.932707 0.932707 0.932707 0.932707 0.932707 0.932707 0.932707 0.932707 0.932707 0.932707 0.932707 0.932707 0.932707 0.932707 0.932707 0.932707 0.932707 0.932707 0.932707 0.932707 0.922166 0.923655 0.926651 0.927733 0.927693 0.927230 0.926907 0.927119 0.928835 0.931161 0.947800 0.949977 0.950550 0.951853 0.952098 0.954624 0.952864 0.952590 0.963170 0.961952 0.962643 0.955611 0.957230 0.956281 0.955328 0.955857 0.956134 0.954166 0.951982 0.950262 0.949604 0.949220 0.950994 0.951476 0.951422 0.952913 0.952861 0.952571 0.949152 0.947768 0.949248 0.951332 0.950493 0.956208 0.956023 0.964050 0.964813 0.963370 0.963284 0.963482 0.963682 0.952402 0.945266 0.939462 0.927594 0.917808 0.915843 0.918832 0.920914 0.920148 0.915837 0.914718 0.912021 0.906597 0.905723 0.905964 0.907642 0.904480 0.900852 0.884379 0.884031 0.886402 0.885372 0.883284 0.875366 0.871028 0.871652 0.874840 0.872196 0.868707 0.884714 0.879813 0.884812 0.887760 0.891089 0.894947 0.891236 0.890635 0.886936 0.883284 0.878624 0.879986 0.865895 0.868897 0.862417 0.852525 0.844693 0.848079 0.857839 0.866023 0.874208 0.873068 0.873297 0.872441 0.863999 0.865202 0.858579 0.859648 0.864978 0.871349 0.867106 0.864213 0.868290 0.866296 0.869426 0.870973 0.867315 0.865559 0.856000 0.855830 0.858680 0.875807 0.875438 0.864652 0.860206 0.851060 0.857130 0.860072 0.859612 0.861366 0.851371 0.852393 0.842322 0.832299 0.834073 0.838668 0.833895 0.836056 0.833439 0.836736 0.838987 0.837067 0.831663 0.830391 0.834741 0.809945 0.817869 0.821319 0.817977 0.822007 0.813957 0.807905 0.802884 0.802282 0.798428 0.810914 0.809059 0.777342 0.762488 0.770472 0.755821 0.747190 0.742004 0.742161 0.703710 0.680069 0.654404 0.648821 0.640620 0.641081 0.640905 0.631240 0.611427 0.597782 0.600835 0.617912 0.617444 0.586684 0.586431 0.580378 0.574790 0.569890 0.572047 0.570914 0.574898 0.579141 0.546323 0.541992 0.547323 0.521073 0.522197 0.521411 0.511162 0.481076 0.486342 0.485674 0.504070 0.519488 0.491446 0.490237 0.497161 0.510079 0.522390 0.522277 0.508935 0.493144 0.497026 0.473595 0.456582 0.473507 0.491948 0.485719 0.500715 0.489940 0.515993 0.510135 0.502461 0.528895 0.546009 0.543726 0.524918 0.538038 0.516277 0.519507 0.498887 0.461169 0.472161 0.462003 0.413428 0.400219 0.415803 0.401147 0.398669 0.372287 0.375563 0.351731 0.318066 0.329025 0.322736 0.289201 0.252641 0.254917 0.257039 0.225345 0.198273 0.218906 0.169631 0.163042 0.180234 0.189408 0.194744 0.181634 0.204406 0.204406 0.204406 0.204406 0.204406 0.204406 0.204406 0.204406 0.204406 0.204406 0.204406 0.204406 0.204406 0.204406 0.229608 0.229608 0.229608 0.229608 0.229608 0.229608 0.229608 0.229608 0.229608 0.229608 0.229608 0.229608
0.000000 0.000000 0.000000 0.000000 0.000000 0.000000 0.000000 0.000000 0.000000 0.000000 0.000000 0.000000 0.000000 0.000000 0.000000 0.000000 0.000000 0.000000 0.000000 0.000000 0.000000 0.000000 0.000000 0.000000 0.000000 7.000000 4.000000 0.000000 0.000000 0.000000 0.000000 0.000000 0.000000 0.000000 0.000000 0.000000 0.000000 0.000000 0.000000 0.000000 0.000000 0.000000 0.000000 0.000000 0.000000 0.000000 0.000000 0.000000 0.000000 0.000000 0.000000 0.000000 0.209657 0.209657 0.209657 0.209657 0.209657 0.209657 0.209657 0.209657 0.209657 0.209657 0.209657 0.209657 0.209657 0.209657 0.209657 0.209657 0.209657 0.209657 0.209657 0.209657 0.209657 0.209657 0.209657 0.209657 0.209657 0.209657 0.209657 0.209657 0.209657 0.209657 0.209657 0.209657 0.209657 0.244339 0.244339 0.244339 0.244339 0.244339 0.244339 0.244339 0.244339 0.244339 0.244339 0.244339 0.244339 0.244339 0.244339 0.244339 0.244339 0.244339 0.244339 0.244339 0.244339 0.244339 0.244339 0.244339 0.244339 0.244339 0.260378 0.260378 0.260378 0.260378 0.260378 0.260378 0.260378 0.260378 0.260378 0.260378 0.260378 0.260378 0.260378 0.260378 0.260378 0.260378 0.260378 0.260378 0.260378 0.260378 0.269680 0.269680 0.269680 0.269680 0.269680 0.269680 0.269680 0.269680 0.269680 0.269680 0.269680 0.269680 0.269680 0.269680 0.269680 0.269680 0.269680 0.269680 0.269680 0.269680 0.269680 0.269680 0.269680 0.269680 0.269680 0.269680 0.269680 0.269680 0.269680 0.269680 0.269680 0.269680 0.269680 0.280056 0.280056 0.280056 0.280056 0.280056 0.280056 0.280056 0.280056 0.280056 0.280056 0.280056 0.280056 0.280056 0.280056 0.280056 0.280056 0.280056 0.280056 0.280056 0.280056 0.280056 0.280056 0.280056 0.280056 0.280056 0.280056 0.280056 0.274721 0.274721 0.274721 0.274721 0.274721 0.274721 0.274721 0.274721 0.274721 0.274721 0.274721 0.274721 0.274721 0.285714 0.285714 0.285714 0.285714 0.285714 0.285714 0.285714 0.285714 0.285714 0.285714 0.285714 0.280056 0.280056 0.280056 0.280056 0.280056 0.280056 0.280056 0.280056 0.280056 0.280056 0.280056 0.274721 0.274721 0.274721 0.274721 0.274721 0.274721 0.274721 0.274721 0.274721 0.274721 0.274721 0.280056 0.280056 0.280056 0.280056 0.280056 0.280056 0.280056 0.280056 0.280056 0.280056 0.285714 0.285714 0.285714 0.285714 0.285714 0.285714 0.285714 0.285714 0.285714 0.269680 0.269680 0.269680 0.269680 0.269680 0.269680 0.269680 0.269680 0.269680 0.269680 0.274721 0.274721 0.274721 0.274721 0.274721 0.274721 0.274721 0.274721 0.274721 0.285714 0.285714 0.285714 0.285714 0.285714 0.285714 0.285714 0.285714 0.264906 0.264906 0.264906 0.264906 0.264906 0.264906 0.264906 0.264906 0.264906 0.274721 0.274721 0.274721 0.274721 0.274721 0.274721 0.274721 0.274721 0.269680 0.269680 0.269680 0.269680 0.269680 0.269680 0.269680 0.269680 0.269680 0.269680 0.269680 0.269680 0.269680 0.269680 0.269680 0.269680 0.280056 0.280056 0.280056 0.280056 0.280056 0.280056 0.280056 0.260378 0.260378 0.260378 0.260378 0.260378 0.260378 0.260378 0.260378 0.269680 0.269680 0.269680 0.269680 0.269680 0.269680 0.269680 0.264906 0.264906 0.264906 0.264906 0.264906 0.264906 0.264906 0.264906 0.264906 0.264906 0.264906 0.264906 0.264906 0.264906 0.260378 0.260378 0.260378 0.260378 0.260378 0.260378 0.260378 0.260378 0.260378 0.260378 0.260378 0.260378
