# Output from CTFFind version 4.1.9, run on 2019-11-03 19:49:27
# Input file: stack11_bm3d_averaged_1_5.25_0_2500_half.mrc ; Number of micrographs: 1
# Pixel size: 3.000 Angstroms ; acceleration voltage: 300.0 keV ; spherical aberration: 0.00 mm ; amplitude contrast: 0.07
# Box size: 512 pixels ; min. res.: 30.0 Angstroms ; max. res.: 5.0 Angstroms ; min. def.: 5000.0 um; max. def. 50000.0 um; num. frames averaged: 1
# 6 lines per micrograph: #1 - spatial frequency (1/Angstroms); #2 - 1D rotational average of spectrum (assuming no astigmatism); #3 - 1D rotational average of spectrum; #4 - CTF fit; #5 - cross-correlation between spectrum and CTF fit; #6 - 2sigma of expected cross correlation of noise
0.000000 0.000651 0.001302 0.001953 0.002604 0.003255 0.003906 0.004557 0.005208 0.005859 0.006510 0.007161 0.007812 0.008464 0.009115 0.009766 0.010417 0.011068 0.011719 0.012370 0.013021 0.013672 0.014323 0.014974 0.015625 0.016276 0.016927 0.017578 0.018229 0.018880 0.019531 0.020182 0.020833 0.021484 0.022135 0.022786 0.023438 0.024089 0.024740 0.025391 0.026042 0.026693 0.027344 0.027995 0.028646 0.029297 0.029948 0.030599 0.031250 0.031901 0.032552 0.033203 0.033854 0.034505 0.035156 0.035807 0.036458 0.037109 0.037760 0.038411 0.039062 0.039714 0.040365 0.041016 0.041667 0.042318 0.042969 0.043620 0.044271 0.044922 0.045573 0.046224 0.046875 0.047526 0.048177 0.048828 0.049479 0.050130 0.050781 0.051432 0.052083 0.052734 0.053385 0.054036 0.054688 0.055339 0.055990 0.056641 0.057292 0.057943 0.058594 0.059245 0.059896 0.060547 0.061198 0.061849 0.062500 0.063151 0.063802 0.064453 0.065104 0.065755 0.066406 0.067057 0.067708 0.068359 0.069010 0.069661 0.070312 0.070964 0.071615 0.072266 0.072917 0.073568 0.074219 0.074870 0.075521 0.076172 0.076823 0.077474 0.078125 0.078776 0.079427 0.080078 0.080729 0.081380 0.082031 0.082682 0.083333 0.083984 0.084635 0.085286 0.085938 0.086589 0.087240 0.087891 0.088542 0.089193 0.089844 0.090495 0.091146 0.091797 0.092448 0.093099 0.093750 0.094401 0.095052 0.095703 0.096354 0.097005 0.097656 0.098307 0.098958 0.099609 0.100260 0.100911 0.101562 0.102214 0.102865 0.103516 0.104167 0.104818 0.105469 0.106120 0.106771 0.107422 0.108073 0.108724 0.109375 0.110026 0.110677 0.111328 0.111979 0.112630 0.113281 0.113932 0.114583 0.115234 0.115885 0.116536 0.117188 0.117839 0.118490 0.119141 0.119792 0.120443 0.121094 0.121745 0.122396 0.123047 0.123698 0.124349 0.125000 0.125651 0.126302 0.126953 0.127604 0.128255 0.128906 0.129557 0.130208 0.130859 0.131510 0.132161 0.132812 0.133464 0.134115 0.134766 0.135417 0.136068 0.136719 0.137370 0.138021 0.138672 0.139323 0.139974 0.140625 0.141276 0.141927 0.142578 0.143229 0.143880 0.144531 0.145182 0.145833 0.146484 0.147135 0.147786 0.148438 0.149089 0.149740 0.150391 0.151042 0.151693 0.152344 0.152995 0.153646 0.154297 0.154948 0.155599 0.156250 0.156901 0.157552 0.158203 0.158854 0.159505 0.160156 0.160807 0.161458 0.162109 0.162760 0.163411 0.164062 0.164714 0.165365 0.166016 0.166667 0.167318 0.167969 0.168620 0.169271 0.169922 0.170573 0.171224 0.171875 0.172526 0.173177 0.173828 0.174479 0.175130 0.175781 0.176432 0.177083 0.177734 0.178385 0.179036 0.179688 0.180339 0.180990 0.181641 0.182292 0.182943 0.183594 0.184245 0.184896 0.185547 0.186198 0.186849 0.187500 0.188151 0.188802 0.189453 0.190104 0.190755 0.191406 0.192057 0.192708 0.193359 0.194010 0.194661 0.195312 0.195964 0.196615 0.197266 0.197917 0.198568 0.199219 0.199870 0.200521 0.201172 0.201823 0.202474 0.203125 0.203776 0.204427 0.205078 0.205729 0.206380 0.207031 0.207682 0.208333 0.208984 0.209635 0.210286 0.210938 0.211589 0.212240 0.212891 0.213542 0.214193 0.214844 0.215495 0.216146 0.216797 0.217448 0.218099 0.218750 0.219401 0.220052 0.220703 0.221354 0.222005 0.222656 0.223307 0.223958 0.224609 0.225260 0.225911 0.226562 0.227214 0.227865 0.228516 0.229167 0.229818 0.230469 0.231120 0.231771 0.232422 0.233073 0.233724 0.234375 0.235026 0.235677
       0.33976        0.33976        0.33976        0.33976        0.33976        0.33976        0.33976        0.33976        0.33976        0.33976        0.33976        0.33976        0.33976        0.33976        0.33976        0.33976        0.33976        0.33976        0.33976        0.33976        0.33976        0.33976        0.33976        0.33976        0.33976        0.33976        0.33976        0.33976        0.33976        0.33976        0.33976        0.33976        0.33976        0.33976        0.33976        0.33976        0.33976        0.33976        0.33976        0.33976        0.33976        0.33976        0.33976        0.33976        0.33976        0.33976        0.33976        0.33976        0.33976        0.33976        0.33976        0.69634        0.85910        0.53484        0.10426       -0.03132       -0.39360       -0.18261       -0.28750       -0.11381       -0.05629       -0.11114       -0.05388       -0.17352       -0.20941       -0.21981       -0.31009       -0.32241       -0.45004       -0.36392       -0.43244       -0.42579       -0.39903       -0.41872       -0.46068       -0.51558       -0.56180       -0.56154       -0.53542       -0.36484       -0.33669       -0.29858       -0.27860       -0.18949       -0.17645        0.05524        0.13356        0.16583        0.25910        0.38073        0.45616        0.52154        0.59227        0.59000        0.57884        0.69714        0.80660        0.70773        0.74108        0.62610        0.56774        0.48254        0.42758        0.51074        0.39450        0.25774        0.11099        0.10245        0.07964       -0.02339        0.02923        0.04135       -0.00096        0.02211        0.01917        0.23714        0.26874        0.29377        0.43060        0.45101        0.41095        0.58810        0.62440        0.64723        0.72958        0.67813        0.64863        0.66443        0.56329        0.46605        0.41905        0.30073        0.25573        0.17650        0.13259        0.05282        0.05613        0.06130        0.09477        0.15197        0.23817        0.28963        0.41121        0.46104        0.48273        0.57302        0.60613        0.63747        0.62113        0.56225        0.45840        0.47160        0.37723        0.26651        0.20600        0.15837        0.16598        0.14835        0.14592        0.17393        0.30959        0.32249        0.39698        0.43585        0.42770        0.48802        0.55893        0.55282        0.49639        0.45508        0.40872        0.36291        0.33322        0.29929        0.25024        0.23996        0.23772        0.24794        0.22055        0.30518        0.36077        0.38711        0.43884        0.45602        0.47173        0.42513        0.40547        0.40267        0.36010        0.32199        0.27205        0.26840        0.26207        0.23428        0.28304        0.28317        0.34621        0.37741        0.42327        0.47666        0.41087        0.42423        0.43208        0.40733        0.34700        0.32406        0.29233        0.31609        0.26962        0.31318        0.30613        0.32480        0.33279        0.35675        0.31818        0.39405        0.41554        0.37847        0.34733        0.37106        0.31347        0.29160        0.29940        0.32059        0.30451        0.31720        0.33579        0.34820        0.33994        0.36782        0.36751        0.40915        0.38320        0.33375        0.34156        0.29595        0.28470        0.32118        0.31575        0.32693        0.33607        0.33332        0.37791        0.32814        0.32841        0.33339        0.33863        0.30219        0.30969        0.27531        0.30049        0.32387        0.30336        0.32402        0.34850        0.35618        0.29123        0.32901        0.29306        0.30002        0.27992        0.24268        0.29870        0.30029        0.34181        0.33605        0.33682        0.32388        0.34820        0.30952        0.34309        0.31479        0.31386        0.28238        0.32893        0.31633        0.35833        0.32302        0.33506        0.34149        0.29428        0.27351        0.30860        0.24633        0.22584        0.33810        0.32012        0.35412        0.33870        0.35573        0.32624        0.33684        0.34395        0.26223        0.25313        0.31091        0.30346        0.30900        0.31947        0.33871        0.33348        0.29635        0.29143        0.34288        0.32019        0.30682        0.28381        0.32229        0.34431        0.39625        0.34539        0.30736        0.27597        0.30265        0.28147        0.29407        0.26924        0.25817        0.31244        0.33326        0.34367        0.35206        0.32189        0.28430        0.29784        0.26494        0.26923        0.24898        0.31259        0.27363        0.23318        0.30664        0.30421        0.26734        0.29089        0.21002        0.21334        0.24827        0.18831        0.26043        0.33112        0.24486        0.22569        0.31512        0.31834        0.32034        0.31794        0.26065        0.23259        0.18860        0.21751        0.19148        0.23220        0.22283        0.27051        0.33122        0.31463        0.22960        0.12553        0.06321       -0.01407       -0.09575       -0.60527
2.749206 2.720033 2.691021 2.662167 2.633474 2.604940 2.576566 2.548351 2.520296 2.492400 2.464664 2.437088 2.409671 2.382414 2.355317 2.328379 2.301600 2.274982 2.248523 2.222223 2.196083 2.170103 2.144282 2.118621 2.093119 2.067777 2.042595 2.017572 1.992709 1.968005 1.943461 1.919077 1.894852 1.870787 1.846882 1.823136 1.799549 1.776122 1.752855 1.729748 1.706800 1.684011 1.661382 1.638913 1.616604 1.594454 1.572463 1.550632 1.528961 1.507450 1.486098 1.702907 2.121825 1.682246 1.175792 1.041965 0.444964 0.843228 0.561902 0.843520 0.806122 0.814424 0.755889 0.743686 0.590893 0.553160 0.498434 0.428304 0.243468 0.369379 0.199134 0.327415 0.222496 0.203215 0.177700 0.038915 0.012808 0.016227 -0.068105 0.129753 0.228431 0.186978 0.174539 0.327575 0.184584 0.513871 0.618015 0.620513 0.637383 0.873615 0.829507 0.939044 0.922366 1.020680 0.987557 1.076681 1.164732 1.039573 1.151622 0.910257 0.925173 0.790528 0.648211 0.798536 0.698238 0.482535 0.329723 0.250513 0.261084 0.146893 0.126934 0.159384 0.105916 0.126202 0.075122 0.252682 0.358353 0.342416 0.471725 0.544833 0.418006 0.586255 0.724323 0.667407 0.727991 0.708399 0.717759 0.655277 0.598500 0.504362 0.376568 0.277778 0.220067 0.084393 0.119931 -0.095669 -0.045421 -0.060202 -0.074596 -0.018534 0.135994 0.070824 0.241910 0.306289 0.338844 0.387752 0.500591 0.472506 0.480373 0.492338 0.306191 0.292307 0.283939 0.086290 0.042187 -0.070292 -0.009689 -0.060848 -0.092243 -0.083115 0.037462 0.086494 0.123069 0.216557 0.227781 0.236303 0.289576 0.441944 0.389626 0.266723 0.240260 0.225012 0.150969 0.147521 0.117383 0.003122 0.020425 0.071540 0.000536 0.059312 0.143228 0.146886 0.231499 0.246622 0.273509 0.195814 0.219307 0.147359 0.162407 0.121752 0.051085 -0.006183 0.015004 -0.000686 -0.039129 0.065381 0.024613 0.123797 0.153000 0.199798 0.187196 0.152503 0.158804 0.177771 0.127547 0.057465 -0.001485 0.050701 0.031093 -0.020848 0.039161 0.038110 0.059667 0.050198 0.063391 0.065081 0.137909 0.144592 0.054844 0.052923 0.053823 0.016686 -0.022884 0.016679 0.020019 0.007160 0.016274 0.049411 0.060617 0.055556 0.083365 0.056043 0.148421 0.061144 0.031921 0.039369 -0.035537 0.004301 0.040848 0.003062 0.034321 0.049891 0.024586 0.117108 0.028863 0.002362 0.056338 0.004211 0.010351 0.003362 -0.025158 0.022982 0.006744 0.002414 0.052661 0.054417 0.056562 0.033159 0.037483 0.028841 0.019902 -0.019195 -0.026420 0.029531 0.051378 0.080159 0.084657 0.062356 0.075205 0.112270 0.054209 0.109444 0.082319 0.043491 0.035214 0.105682 0.070855 0.115930 0.092602 0.064529 0.124887 0.051412 0.012767 0.091695 -0.032208 -0.010313 0.109623 0.053410 0.153466 0.092871 0.101965 0.051424 0.077323 0.093049 -0.018077 -0.029126 0.056656 0.056278 0.043017 0.038016 0.104849 0.059585 -0.008068 0.056558 0.054175 0.054402 0.052526 -0.016865 0.070507 0.071874 0.131746 0.039612 0.013889 -0.027515 -0.002362 -0.016913 -0.001158 -0.050553 -0.032360 0.008490 0.039518 0.016615 0.037578 -0.001736 -0.043785 -0.038245 -0.027531 -0.074928 -0.062172 -0.015317 0.005584 -0.096348 -0.000428 -0.038065 -0.069238 0.001204 -0.139292 -0.084230 -0.094266 -0.195137 -0.037969 0.054147 -0.053050 -0.156402 0.042436 0.053135 -0.042681 0.055786 -0.062624 0.253775 0.159540 0.225899 0.250175 0.276302 0.240509 0.306720 0.325310 0.359239 0.208101 0.232184 0.081509 -0.019848 -0.660973
0.072396 0.072899 0.074407 0.076920 0.080438 0.084959 0.090482 0.097006 0.104529 0.113047 0.122558 0.133056 0.144537 0.156995 0.170421 0.184807 0.200141 0.216410 0.233600 0.251692 0.270668 0.290505 0.311175 0.332650 0.354897 0.377878 0.401552 0.425873 0.450790 0.476247 0.502184 0.528532 0.555219 0.582167 0.609289 0.636494 0.663684 0.690754 0.717590 0.744075 0.770083 0.795481 0.820130 0.843885 0.866595 0.888102 0.908245 0.926856 0.943764 0.958795 0.971773 0.982520 0.990856 0.996607 0.999595 0.999650 0.996605 0.990302 0.980589 0.967327 0.950389 0.929661 0.905047 0.876470 0.843875 0.807227 0.766521 0.721776 0.673043 0.620405 0.563976 0.503910 0.440394 0.373656 0.303962 0.231620 0.156976 0.080418 0.002375 0.076689 0.156268 0.235824 0.314785 0.392549 0.468490 0.541961 0.612298 0.678830 0.740881 0.797778 0.848862 0.893494 0.931061 0.960991 0.982757 0.995889 0.999984 0.994715 0.979837 0.955202 0.920763 0.876582 0.822838 0.759831 0.687986 0.607858 0.520129 0.425609 0.325234 0.220060 0.111255 0.000086 0.112086 0.223825 0.333639 0.439995 0.541342 0.636137 0.722863 0.800064 0.866364 0.920499 0.961344 0.987941 0.999521 0.995532 0.975660 0.939847 0.888306 0.821535 0.740319 0.645733 0.539137 0.422166 0.296712 0.164896 0.029046 0.108348 0.244671 0.377234 0.503325 0.620270 0.725484 0.816543 0.891237 0.947633 0.984134 0.999529 0.993043 0.964374 0.913721 0.841808 0.749887 0.639732 0.513621 0.374301 0.224936 0.069048 0.089559 0.246890 0.398854 0.541376 0.670504 0.782525 0.874081 0.942281 0.984801 0.999977 0.986883 0.945386 0.876188 0.780840 0.661722 0.522013 0.365619 0.197078 0.021447 0.155850 0.329178 0.492870 0.641419 0.769665 0.872987 0.947485 0.990143 0.998966 0.973097 0.912883 0.819917 0.697018 0.548182 0.378467 0.193845 0.001013 0.192846 0.380322 0.554063 0.707063 0.832963 0.926332 0.982915 0.999855 0.975863 0.911325 0.808344 0.670714 0.503805 0.314393 0.110403 0.099404 0.305795 0.499470 0.671482 0.813670 0.919055 0.982216 0.999597 0.969738 0.893412 0.773666 0.615736 0.426868 0.216007 0.006589 0.229834 0.442365 0.633115 0.791899 0.909992 0.980624 0.999415 0.964679 0.877604 0.742268 0.565507 0.356612 0.126879 0.110973 0.343495 0.557255 0.739633 0.879582 0.968329 0.999969 0.971904 0.885095 0.744109 0.556937 0.334599 0.090533 0.160180 0.401736 0.618600 0.796518 0.923488 0.990610 0.992757 0.929028 0.802921 0.622223 0.398579 0.146811 0.116020 0.371774 0.602447 0.791475 0.924940 0.992658 0.989005 0.913450 0.770732 0.570643 0.327428 0.058827 0.215170 0.473798 0.697099 0.867468 0.971112 0.999207 0.948732 0.822855 0.630834 0.387415 0.111787 0.173906 0.446295 0.682700 0.863057 0.971656 0.998585 0.940715 0.802134 0.593966 0.333571 0.043182 0.251965 0.525775 0.753615 0.914583 0.993465 0.982274 0.881146 0.698514 0.450522 0.159683 0.147082 0.440910 0.693700 0.880836 0.983637 0.991317 0.902219 0.724179 0.473968 0.175815 0.140866 0.444318 0.703632 0.891926 0.989199 0.984552 0.877527 0.678378 0.407230 0.092148 0.233688 0.535439 0.780330 0.941268 0.999925 0.948939 0.792963 0.548402 0.241815 0.092853 0.417977 0.696461 0.896011 0.992947 0.975145 0.843679 0.612977 0.309375 0.031757 0.370051 0.664912 0.880396 0.989683 0.978535 0.847302 0.611166 0.298551 0.052172 0.397299 0.693229 0.901987 0.996214 0.962867 0.805197 0.542650 0.208604 0.153682
1.000000 1.000000 1.000000 1.000000 1.000000 1.000000 1.000000 1.000000 1.000000 1.000000 1.000000 1.000000 1.000000 1.000000 1.000000 1.000000 1.000000 1.000000 1.000000 1.000000 1.000000 1.000000 1.000000 1.000000 1.000000 1.000000 1.000000 1.000000 1.000000 1.000000 1.000000 1.000000 1.000000 1.000000 1.000000 1.000000 1.000000 1.000000 1.000000 1.000000 1.000000 1.000000 1.000000 1.000000 1.000000 1.000000 1.000000 1.000000 1.000000 1.000000 1.000000 1.000000 0.920352 0.920352 0.920352 0.912337 0.912337 0.912337 0.912337 0.912337 0.912337 0.912337 0.912337 0.912337 0.912337 0.912337 0.912337 0.912337 0.912337 0.912337 0.912337 0.912337 0.912337 0.912337 0.912337 0.912337 0.912337 0.912337 0.912337 0.912337 0.912337 0.912337 0.912337 0.912337 0.912337 0.912337 0.912337 0.912337 0.912337 0.912337 0.912337 0.912337 0.912337 0.912337 0.912337 0.912337 0.941486 0.942921 0.951118 0.950739 0.950144 0.948080 0.946897 0.946544 0.946442 0.946772 0.947478 0.948440 0.954687 0.955916 0.960349 0.962013 0.962767 0.963423 0.964091 0.963686 0.955055 0.954844 0.953466 0.952897 0.955423 0.954472 0.953684 0.954652 0.954537 0.955222 0.955144 0.954452 0.953369 0.952274 0.951332 0.950916 0.950708 0.951437 0.951853 0.953325 0.956621 0.957204 0.957335 0.957490 0.957592 0.958881 0.957856 0.957307 0.945288 0.945049 0.943927 0.944011 0.947202 0.947197 0.947771 0.948373 0.950084 0.950434 0.945959 0.944818 0.936929 0.934443 0.931421 0.925937 0.921279 0.923181 0.924752 0.925490 0.925877 0.921016 0.920897 0.918749 0.915346 0.917882 0.917805 0.919118 0.920501 0.918887 0.918240 0.917173 0.915479 0.907781 0.895633 0.894575 0.893110 0.897908 0.898794 0.897767 0.900788 0.889185 0.873537 0.852489 0.854883 0.858219 0.848818 0.845410 0.845655 0.846407 0.850124 0.842782 0.840242 0.835751 0.825620 0.818777 0.812744 0.804396 0.804294 0.796206 0.786816 0.783338 0.808201 0.801941 0.811654 0.816234 0.815847 0.813749 0.808468 0.800418 0.776282 0.775861 0.762062 0.739128 0.739645 0.738275 0.737251 0.734716 0.740644 0.730999 0.728753 0.711754 0.710256 0.714918 0.718514 0.716404 0.715281 0.719898 0.724608 0.707768 0.697422 0.687702 0.692336 0.696596 0.695967 0.698291 0.674492 0.648633 0.631136 0.644025 0.651396 0.625024 0.642040 0.655636 0.629806 0.626535 0.616958 0.619358 0.609672 0.612811 0.611850 0.611554 0.616648 0.630702 0.619724 0.617490 0.628252 0.631370 0.643349 0.643038 0.645531 0.612418 0.613903 0.635369 0.639690 0.623772 0.639749 0.628413 0.641680 0.678250 0.674282 0.634562 0.629060 0.614969 0.575798 0.561794 0.557087 0.566357 0.598569 0.595244 0.567824 0.541272 0.545369 0.556806 0.562739 0.563656 0.550412 0.557228 0.546893 0.523680 0.531461 0.537960 0.535900 0.522835 0.506600 0.508441 0.513072 0.528941 0.525422 0.487701 0.508022 0.503691 0.492203 0.426660 0.440586 0.427017 0.415376 0.373061 0.383744 0.392328 0.377386 0.297977 0.281861 0.282594 0.282724 0.271208 0.249681 0.225916 0.218496 0.186481 0.191028 0.177165 0.151907 0.150488 0.134619 0.124754 0.129263 0.097878 0.153186 0.215153 0.216932 0.216932 0.216932 0.216932 0.216932 0.216932 0.200727 0.200727 0.200727 0.200727 0.200727 0.200727 0.200727 0.200727 0.200727 0.224427 0.224427 0.224427 0.224427 0.224427 0.224427 0.224427 0.224427 0.224427 0.224427 0.224427 0.224427 0.224427 0.224427
0.000000 0.000000 0.000000 0.000000 0.000000 0.000000 0.000000 0.000000 0.000000 0.000000 0.000000 0.000000 0.000000 0.000000 0.000000 0.000000 0.000000 0.000000 0.000000 0.000000 0.000000 0.000000 0.000000 0.000000 0.000000 7.000000 4.000000 0.000000 0.000000 0.000000 0.000000 0.000000 0.000000 0.000000 0.000000 0.000000 0.000000 0.000000 0.000000 0.000000 0.000000 0.000000 0.000000 0.000000 0.000000 0.000000 0.000000 0.000000 0.000000 0.000000 0.000000 0.000000 0.180334 0.180334 0.180334 0.199007 0.199007 0.199007 0.199007 0.199007 0.199007 0.199007 0.199007 0.199007 0.199007 0.199007 0.199007 0.199007 0.199007 0.199007 0.199007 0.199007 0.199007 0.199007 0.199007 0.199007 0.199007 0.199007 0.199007 0.199007 0.199007 0.199007 0.199007 0.199007 0.199007 0.199007 0.199007 0.199007 0.199007 0.199007 0.199007 0.199007 0.199007 0.199007 0.199007 0.199007 0.225018 0.225018 0.225018 0.225018 0.225018 0.225018 0.225018 0.225018 0.225018 0.225018 0.225018 0.225018 0.225018 0.225018 0.225018 0.225018 0.225018 0.225018 0.225018 0.225018 0.225018 0.225018 0.225018 0.225018 0.225018 0.225018 0.225018 0.225018 0.225018 0.244339 0.244339 0.244339 0.244339 0.244339 0.244339 0.244339 0.244339 0.244339 0.244339 0.244339 0.244339 0.244339 0.244339 0.244339 0.244339 0.244339 0.244339 0.244339 0.244339 0.244339 0.244339 0.244339 0.251976 0.251976 0.251976 0.251976 0.251976 0.251976 0.251976 0.251976 0.251976 0.251976 0.251976 0.251976 0.251976 0.251976 0.251976 0.251976 0.251976 0.251976 0.251976 0.251976 0.264906 0.264906 0.264906 0.264906 0.264906 0.264906 0.264906 0.264906 0.264906 0.264906 0.264906 0.264906 0.264906 0.264906 0.264906 0.264906 0.264906 0.264906 0.264906 0.264906 0.264906 0.264906 0.264906 0.264906 0.264906 0.264906 0.264906 0.264906 0.264906 0.264906 0.264906 0.264906 0.264906 0.264906 0.264906 0.264906 0.264906 0.264906 0.264906 0.264906 0.264906 0.264906 0.264906 0.264906 0.264906 0.264906 0.264906 0.264906 0.264906 0.264906 0.264906 0.264906 0.264906 0.264906 0.264906 0.264906 0.264906 0.264906 0.264906 0.264906 0.264906 0.264906 0.256074 0.256074 0.256074 0.256074 0.256074 0.256074 0.256074 0.256074 0.256074 0.256074 0.256074 0.256074 0.256074 0.256074 0.269680 0.269680 0.269680 0.269680 0.269680 0.269680 0.269680 0.269680 0.269680 0.269680 0.269680 0.269680 0.264906 0.264906 0.264906 0.264906 0.264906 0.264906 0.264906 0.264906 0.264906 0.264906 0.264906 0.264906 0.269680 0.269680 0.269680 0.269680 0.269680 0.269680 0.269680 0.269680 0.269680 0.269680 0.269680 0.264906 0.264906 0.264906 0.264906 0.264906 0.264906 0.264906 0.264906 0.264906 0.264906 0.264906 0.256074 0.256074 0.256074 0.256074 0.256074 0.256074 0.256074 0.256074 0.256074 0.256074 0.256074 0.264906 0.264906 0.264906 0.264906 0.264906 0.264906 0.264906 0.264906 0.264906 0.264906 0.260378 0.260378 0.260378 0.260378 0.260378 0.260378 0.260378 0.260378 0.260378 0.260378 0.256074 0.256074 0.256074 0.256074 0.256074 0.256074 0.256074 0.256074 0.256074 0.256074 0.260378 0.260378 0.260378 0.260378 0.260378 0.260378 0.260378 0.260378 0.260378 0.256074 0.256074 0.256074 0.256074 0.256074 0.256074 0.256074 0.256074 0.256074 0.251976 0.251976 0.251976 0.251976 0.251976 0.251976 0.251976 0.251976 0.251976 0.251976 0.251976 0.251976 0.251976 0.251976
