# Output from CTFFind version 4.1.9, run on 2019-11-03 19:00:07
# Input file: stack1_bm3d_averaged_1_2.25_0_750_half.mrc ; Number of micrographs: 1
# Pixel size: 3.000 Angstroms ; acceleration voltage: 300.0 keV ; spherical aberration: 0.00 mm ; amplitude contrast: 0.07
# Box size: 512 pixels ; min. res.: 30.0 Angstroms ; max. res.: 5.0 Angstroms ; min. def.: 5000.0 um; max. def. 50000.0 um; num. frames averaged: 1
# 6 lines per micrograph: #1 - spatial frequency (1/Angstroms); #2 - 1D rotational average of spectrum (assuming no astigmatism); #3 - 1D rotational average of spectrum; #4 - CTF fit; #5 - cross-correlation between spectrum and CTF fit; #6 - 2sigma of expected cross correlation of noise
0.000000 0.000651 0.001302 0.001953 0.002604 0.003255 0.003906 0.004557 0.005208 0.005859 0.006510 0.007161 0.007812 0.008464 0.009115 0.009766 0.010417 0.011068 0.011719 0.012370 0.013021 0.013672 0.014323 0.014974 0.015625 0.016276 0.016927 0.017578 0.018229 0.018880 0.019531 0.020182 0.020833 0.021484 0.022135 0.022786 0.023438 0.024089 0.024740 0.025391 0.026042 0.026693 0.027344 0.027995 0.028646 0.029297 0.029948 0.030599 0.031250 0.031901 0.032552 0.033203 0.033854 0.034505 0.035156 0.035807 0.036458 0.037109 0.037760 0.038411 0.039062 0.039714 0.040365 0.041016 0.041667 0.042318 0.042969 0.043620 0.044271 0.044922 0.045573 0.046224 0.046875 0.047526 0.048177 0.048828 0.049479 0.050130 0.050781 0.051432 0.052083 0.052734 0.053385 0.054036 0.054688 0.055339 0.055990 0.056641 0.057292 0.057943 0.058594 0.059245 0.059896 0.060547 0.061198 0.061849 0.062500 0.063151 0.063802 0.064453 0.065104 0.065755 0.066406 0.067057 0.067708 0.068359 0.069010 0.069661 0.070312 0.070964 0.071615 0.072266 0.072917 0.073568 0.074219 0.074870 0.075521 0.076172 0.076823 0.077474 0.078125 0.078776 0.079427 0.080078 0.080729 0.081380 0.082031 0.082682 0.083333 0.083984 0.084635 0.085286 0.085938 0.086589 0.087240 0.087891 0.088542 0.089193 0.089844 0.090495 0.091146 0.091797 0.092448 0.093099 0.093750 0.094401 0.095052 0.095703 0.096354 0.097005 0.097656 0.098307 0.098958 0.099609 0.100260 0.100911 0.101562 0.102214 0.102865 0.103516 0.104167 0.104818 0.105469 0.106120 0.106771 0.107422 0.108073 0.108724 0.109375 0.110026 0.110677 0.111328 0.111979 0.112630 0.113281 0.113932 0.114583 0.115234 0.115885 0.116536 0.117188 0.117839 0.118490 0.119141 0.119792 0.120443 0.121094 0.121745 0.122396 0.123047 0.123698 0.124349 0.125000 0.125651 0.126302 0.126953 0.127604 0.128255 0.128906 0.129557 0.130208 0.130859 0.131510 0.132161 0.132812 0.133464 0.134115 0.134766 0.135417 0.136068 0.136719 0.137370 0.138021 0.138672 0.139323 0.139974 0.140625 0.141276 0.141927 0.142578 0.143229 0.143880 0.144531 0.145182 0.145833 0.146484 0.147135 0.147786 0.148438 0.149089 0.149740 0.150391 0.151042 0.151693 0.152344 0.152995 0.153646 0.154297 0.154948 0.155599 0.156250 0.156901 0.157552 0.158203 0.158854 0.159505 0.160156 0.160807 0.161458 0.162109 0.162760 0.163411 0.164062 0.164714 0.165365 0.166016 0.166667 0.167318 0.167969 0.168620 0.169271 0.169922 0.170573 0.171224 0.171875 0.172526 0.173177 0.173828 0.174479 0.175130 0.175781 0.176432 0.177083 0.177734 0.178385 0.179036 0.179688 0.180339 0.180990 0.181641 0.182292 0.182943 0.183594 0.184245 0.184896 0.185547 0.186198 0.186849 0.187500 0.188151 0.188802 0.189453 0.190104 0.190755 0.191406 0.192057 0.192708 0.193359 0.194010 0.194661 0.195312 0.195964 0.196615 0.197266 0.197917 0.198568 0.199219 0.199870 0.200521 0.201172 0.201823 0.202474 0.203125 0.203776 0.204427 0.205078 0.205729 0.206380 0.207031 0.207682 0.208333 0.208984 0.209635 0.210286 0.210938 0.211589 0.212240 0.212891 0.213542 0.214193 0.214844 0.215495 0.216146 0.216797 0.217448 0.218099 0.218750 0.219401 0.220052 0.220703 0.221354 0.222005 0.222656 0.223307 0.223958 0.224609 0.225260 0.225911 0.226562 0.227214 0.227865 0.228516 0.229167 0.229818 0.230469 0.231120 0.231771 0.232422 0.233073 0.233724 0.234375 0.235026 0.235677
       0.33599        0.33599        0.33599        0.33599        0.33599        0.33599        0.33599        0.33599        0.33599        0.33599        0.33599        0.33599        0.33599        0.33599        0.33599        0.33599        0.33599        0.33599        0.33599        0.33599        0.33599        0.33599        0.33599        0.33599        0.33599        0.33599        0.33599        0.33599        0.33599        0.33599        0.33599        0.33599        0.33599        0.33599        0.33599        0.33599        0.33599        0.33599        0.33599        0.33599        0.33599        0.33599        0.33599        0.33599        0.33599        0.33599        0.33599        0.33599        0.33599        0.33599        0.33599        0.50254        0.72023        0.42169        0.19733       -0.06920       -0.25006       -0.06415       -0.12445       -0.06520        0.00086       -0.14861       -0.10787       -0.04202        0.00182       -0.15136       -0.22487       -0.33454       -0.46697       -0.57762       -0.52760       -0.46271       -0.37278       -0.56157       -0.45271       -0.61584       -0.50497       -0.47615       -0.40222       -0.37525       -0.32392       -0.23799       -0.16698       -0.13682        0.02850       -0.01513        0.11615        0.17514        0.32381        0.43007        0.47971        0.51401        0.55347        0.56190        0.69869        0.65278        0.68200        0.59126        0.56256        0.64738        0.52484        0.44647        0.40903        0.30395        0.24861        0.26663        0.25325        0.09742        0.08139        0.00750       -0.00323        0.02588       -0.01821        0.06645        0.09571        0.22205        0.28727        0.28951        0.40228        0.57339        0.55157        0.57371        0.67013        0.68818        0.63199        0.65049        0.64401        0.54004        0.56676        0.39924        0.36014        0.27129        0.18269        0.08345        0.14401        0.11218        0.11574        0.12535        0.20732        0.19027        0.31698        0.35193        0.40633        0.49774        0.55178        0.55001        0.55746        0.60894        0.53759        0.47566        0.48378        0.32678        0.25903        0.25978        0.24701        0.14625        0.14703        0.15701        0.22825        0.26403        0.34127        0.38688        0.41268        0.45134        0.44765        0.48420        0.44369        0.47934        0.44312        0.38679        0.36548        0.37263        0.33860        0.29570        0.21224        0.21903        0.22445        0.27345        0.26350        0.35506        0.38755        0.36236        0.41393        0.44783        0.44021        0.43339        0.44164        0.36065        0.33758        0.28907        0.25425        0.30082        0.26430        0.29848        0.31331        0.34662        0.33335        0.40158        0.39461        0.44007        0.40098        0.46090        0.41171        0.36984        0.28227        0.28029        0.28559        0.27675        0.27799        0.33615        0.35907        0.33174        0.36589        0.37476        0.35198        0.42094        0.40389        0.36889        0.34903        0.29963        0.30218        0.32189        0.31590        0.31625        0.29791        0.34022        0.36098        0.37712        0.34407        0.33236        0.33041        0.35414        0.32302        0.30093        0.32328        0.32018        0.32921        0.33247        0.34100        0.36818        0.33110        0.32405        0.34513        0.31831        0.27069        0.26043        0.27716        0.30765        0.31696        0.35875        0.29473        0.30666        0.33091        0.29879        0.32333        0.29020        0.27838        0.27547        0.27900        0.29156        0.34322        0.31947        0.33222        0.31983        0.34350        0.35178        0.31668        0.32400        0.33681        0.27202        0.29385        0.31855        0.28635        0.32971        0.32518        0.33114        0.32665        0.35431        0.33788        0.29054        0.24717        0.28272        0.34002        0.35340        0.34948        0.31059        0.30122        0.30189        0.30796        0.26530        0.29368        0.30787        0.33322        0.30948        0.28677        0.26443        0.34224        0.33251        0.34455        0.29500        0.29877        0.31094        0.39802        0.35170        0.33572        0.32757        0.30305        0.29324        0.31320        0.31867        0.29497        0.22569        0.26469        0.30955        0.30795        0.29788        0.26717        0.26088        0.23399        0.22547        0.29529        0.31717        0.30177        0.30576        0.31517        0.35902        0.23951        0.21307        0.25016        0.24895        0.27598        0.28936        0.32932        0.25771        0.28779        0.27760        0.22983        0.28836        0.28878        0.24479        0.20148        0.24764        0.23717        0.23808        0.30041        0.28304        0.36579        0.34670        0.28442        0.26375        0.19631        0.27077        0.31123        0.25573        0.19202        0.24752        0.25453        0.17909        0.21839        0.15564        0.09240       -0.49412       -0.80159
2.694559 2.665961 2.637519 2.609232 2.581100 2.553123 2.525302 2.497635 2.470124 2.442769 2.415568 2.388523 2.361634 2.334899 2.308320 2.281896 2.255627 2.229514 2.203556 2.177753 2.152105 2.126613 2.101276 2.076094 2.051068 2.026196 2.001480 1.976920 1.952514 1.928264 1.904169 1.880230 1.856446 1.832816 1.809343 1.786024 1.762861 1.739853 1.717001 1.694303 1.671761 1.649374 1.627143 1.605067 1.583146 1.561380 1.539769 1.518314 1.497014 1.475870 1.454880 1.517723 1.834764 1.500040 1.196968 0.943075 0.550932 0.913321 0.643943 0.849510 0.914830 0.593660 0.677612 0.781641 0.824191 0.614570 0.522176 0.361439 0.094440 0.051873 0.032391 0.045381 0.295125 -0.051231 0.058856 -0.125294 -0.031779 -0.017323 0.052155 0.065265 0.116366 0.182348 0.273136 0.243661 0.468119 0.390985 0.538274 0.533047 0.782974 0.795623 0.889938 0.953289 0.931727 0.963323 1.114298 0.953970 1.138564 0.936441 0.861642 1.004535 0.841011 0.763409 0.657309 0.567748 0.466922 0.424900 0.500163 0.255978 0.192139 0.165697 0.017995 0.185323 -0.023490 0.110741 0.164470 0.249726 0.337003 0.333328 0.438226 0.553693 0.688863 0.530336 0.732122 0.850997 0.626636 0.717374 0.685623 0.582772 0.523781 0.466463 0.315153 0.215946 0.120848 -0.023001 -0.021139 0.042047 -0.068355 -0.046365 0.073470 0.031634 0.094297 0.223685 0.230079 0.324862 0.426501 0.428698 0.457656 0.452548 0.460554 0.330787 0.341470 0.244158 0.051706 0.072210 0.023464 -0.042507 -0.097351 -0.086645 -0.021773 -0.019893 0.088552 0.144101 0.168244 0.247555 0.225894 0.247314 0.288785 0.232695 0.242245 0.215125 0.141077 0.121751 0.136987 0.038784 0.028430 -0.103129 -0.026073 0.004375 0.012838 0.019406 0.130605 0.094338 0.137633 0.200042 0.275313 0.167706 0.220878 0.126671 0.141882 0.046047 -0.018548 0.022162 0.012280 0.008647 0.019965 0.067651 0.069367 0.080748 0.164139 0.143080 0.175816 0.111338 0.214532 0.107500 0.024202 -0.020952 -0.021908 -0.014877 -0.039656 -0.012650 0.076316 0.076382 0.003942 0.119909 0.095694 0.086759 0.177794 0.096454 0.106492 0.067097 -0.014089 0.045398 0.030438 0.033414 0.046830 0.029499 0.068482 0.075267 0.089647 0.055766 0.055140 0.019085 0.097313 0.017589 0.016450 0.042086 0.024112 0.070941 0.057986 0.070653 0.079501 0.043157 0.028651 0.054490 0.014096 -0.045425 -0.024717 -0.007641 0.006151 0.027591 0.103616 -0.020400 0.054285 0.048749 0.004383 0.057750 0.012443 -0.004165 0.007188 0.021417 0.028227 0.087408 0.027343 0.083218 0.064584 0.107326 0.088952 0.079331 0.089456 0.066142 -0.001153 0.066235 0.060656 0.037162 0.104282 0.080634 0.031971 0.073167 0.095373 0.043636 0.027781 -0.064241 0.027083 0.107299 0.084282 0.073388 0.045961 0.011823 0.039634 0.038364 -0.038362 0.042746 0.040311 0.079728 0.061395 -0.033139 -0.008774 0.106014 0.039521 0.047796 0.006669 -0.014407 0.065415 0.128195 0.052545 0.022111 0.052500 0.012103 -0.034110 0.010672 0.011979 -0.030906 -0.108787 -0.036483 -0.009530 0.015241 -0.035233 -0.044703 -0.027541 -0.063061 -0.035264 -0.028517 0.055489 0.021964 0.033019 0.041169 0.100336 -0.068688 -0.072422 -0.043219 -0.048333 0.024076 -0.000183 0.085209 -0.054371 0.007373 0.019807 -0.053518 0.039611 0.052235 -0.041917 -0.098927 -0.011284 -0.000991 -0.024463 0.044264 0.032026 0.174091 0.093966 0.061721 0.026356 -0.033701 0.015274 0.084202 0.303244 0.233948 0.302155 0.267212 0.228992 0.245485 0.090810 0.115855 -0.940497
0.072396 0.072910 0.074453 0.077023 0.080620 0.085243 0.090891 0.097563 0.105255 0.113965 0.123690 0.134425 0.146163 0.158899 0.172625 0.187329 0.203002 0.219628 0.237193 0.255677 0.275060 0.295316 0.316419 0.338337 0.361034 0.384471 0.408605 0.433385 0.458758 0.484664 0.511038 0.537809 0.564900 0.592226 0.619696 0.647214 0.674674 0.701965 0.728969 0.755558 0.781601 0.806958 0.831481 0.855017 0.877407 0.898486 0.918083 0.936024 0.952129 0.966218 0.978107 0.987611 0.994547 0.998733 0.999988 0.998141 0.993021 0.984471 0.972342 0.956496 0.936812 0.913184 0.885526 0.853773 0.817884 0.777843 0.733664 0.685390 0.633098 0.576900 0.516944 0.453416 0.386543 0.316593 0.243875 0.168742 0.091587 0.012847 0.067002 0.147444 0.227924 0.307854 0.386617 0.463566 0.538032 0.609331 0.676768 0.739645 0.797265 0.848948 0.894031 0.931881 0.961908 0.983568 0.996378 0.999925 0.993874 0.977983 0.952105 0.916202 0.870352 0.814754 0.749735 0.675755 0.593406 0.503417 0.406648 0.304091 0.196862 0.086190 0.026590 0.140053 0.252697 0.362967 0.469270 0.570003 0.663574 0.748430 0.823090 0.886164 0.936390 0.972662 0.994054 0.999852 0.989576 0.963002 0.920181 0.861455 0.787461 0.699145 0.597749 0.484814 0.362155 0.231847 0.096194 0.042309 0.181013 0.317169 0.447976 0.570643 0.682449 0.780808 0.863334 0.927904 0.972723 0.996379 0.997896 0.976781 0.933056 0.867284 0.780578 0.674606 0.551565 0.414159 0.265542 0.109264 0.050810 0.210589 0.365858 0.512387 0.646052 0.762954 0.859540 0.932727 0.980000 0.999528 0.990232 0.951863 0.885035 0.791252 0.672887 0.533156 0.376038 0.206186 0.028799 0.150525 0.325966 0.491663 0.641915 0.771389 0.875311 0.949666 0.991365 0.998396 0.969938 0.906434 0.809629 0.682548 0.529439 0.355644 0.167443 0.028158 0.223683 0.411456 0.583915 0.733914 0.855035 0.941887 0.990358 0.997845 0.963412 0.887893 0.773919 0.625862 0.449705 0.252830 0.043728 0.168347 0.373776 0.563018 0.727053 0.857833 0.948696 0.994738 0.993107 0.943214 0.846834 0.708098 0.533359 0.330943 0.110777 0.116060 0.337895 0.543053 0.720476 0.860341 0.954632 0.997630 0.986306 0.920571 0.803370 0.640614 0.440925 0.215233 0.023796 0.262448 0.486737 0.683227 0.839861 0.946725 0.996724 0.986092 0.914732 0.786323 0.608204 0.391006 0.148077 0.105313 0.352903 0.578480 0.766960 0.905410 0.983993 0.996709 0.941916 0.822568 0.646128 0.424185 0.171734 0.093779 0.353630 0.589157 0.783085 0.920845 0.991704 0.989680 0.914101 0.769803 0.566912 0.320199 0.048073 0.228739 0.488778 0.711497 0.878920 0.977145 0.997563 0.937686 0.801512 0.599355 0.347159 0.065309 0.222969 0.493498 0.723173 0.891974 0.984767 0.992736 0.914304 0.755459 0.529400 0.255531 0.042116 0.336958 0.602212 0.813351 0.950406 0.999944 0.956472 0.823142 0.611654 0.341341 0.037501 0.270928 0.554077 0.784060 0.937766 0.999253 0.961509 0.827360 0.609402 0.328951 0.014048 0.303273 0.590222 0.816644 0.958256 0.999340 0.934597 0.769950 0.522151 0.217201 0.112269 0.430450 0.702219 0.897053 0.992547 0.977094 0.851433 0.628823 0.333804 0.000397 0.335522 0.632639 0.856671 0.980627 0.988960 0.879661 0.664779 0.369265 0.028205 0.317257 0.624826 0.856274 0.982259 0.986168 0.866467 0.637193 0.326495 0.026695 0.377430 0.680445 0.896034 0.995335 0.964352 0.806083 0.540470 0.202056 0.164363 0.509592 0.786634 0.957153 0.996889
1.000000 1.000000 1.000000 1.000000 1.000000 1.000000 1.000000 1.000000 1.000000 1.000000 1.000000 1.000000 1.000000 1.000000 1.000000 1.000000 1.000000 1.000000 1.000000 1.000000 1.000000 1.000000 1.000000 1.000000 1.000000 1.000000 1.000000 1.000000 1.000000 1.000000 1.000000 1.000000 1.000000 1.000000 1.000000 1.000000 1.000000 1.000000 1.000000 1.000000 1.000000 1.000000 1.000000 1.000000 1.000000 1.000000 1.000000 1.000000 1.000000 1.000000 1.000000 1.000000 0.912406 0.912406 0.901868 0.901868 0.901868 0.901868 0.901868 0.901868 0.901868 0.901868 0.901868 0.901868 0.901868 0.901868 0.901868 0.901868 0.901868 0.901868 0.901868 0.901868 0.901868 0.901868 0.901868 0.901868 0.901868 0.901868 0.901868 0.901868 0.901868 0.901868 0.901868 0.901868 0.901868 0.901868 0.901868 0.901868 0.901868 0.901868 0.901868 0.901868 0.901868 0.901868 0.901868 0.898168 0.903151 0.905711 0.904248 0.907830 0.907894 0.905792 0.905251 0.904891 0.905237 0.906681 0.917209 0.928246 0.938651 0.940737 0.945932 0.950209 0.952591 0.953344 0.957001 0.967024 0.964374 0.963904 0.964631 0.966166 0.968328 0.968542 0.969938 0.969075 0.969782 0.969898 0.969475 0.968875 0.968286 0.968396 0.968037 0.967921 0.969002 0.969486 0.969063 0.968701 0.968845 0.966810 0.965419 0.960701 0.963356 0.964718 0.964617 0.963280 0.960888 0.964666 0.964983 0.964739 0.964741 0.964408 0.964740 0.950683 0.945241 0.945354 0.938756 0.937687 0.934866 0.933655 0.932851 0.933750 0.934708 0.935945 0.931349 0.920145 0.909600 0.891751 0.914212 0.905727 0.887032 0.865988 0.863240 0.858752 0.858513 0.851563 0.842730 0.838821 0.835715 0.838131 0.843718 0.848946 0.846107 0.837448 0.839581 0.832942 0.795879 0.785406 0.774272 0.767099 0.766204 0.767668 0.763508 0.759349 0.767965 0.758705 0.754936 0.746718 0.734917 0.713255 0.703188 0.709256 0.717006 0.729487 0.723323 0.696107 0.644562 0.660481 0.681965 0.685790 0.687709 0.685073 0.677840 0.681233 0.683242 0.679326 0.676090 0.677029 0.676801 0.685452 0.688356 0.674527 0.669105 0.660003 0.646025 0.621720 0.633886 0.642956 0.620077 0.615934 0.605712 0.600368 0.606456 0.608647 0.608777 0.582162 0.567773 0.562340 0.559967 0.563951 0.571400 0.572444 0.560967 0.581864 0.567779 0.592308 0.566393 0.561309 0.562777 0.572498 0.559256 0.556557 0.557211 0.556121 0.557759 0.575170 0.581677 0.567098 0.562052 0.556731 0.567813 0.554984 0.568660 0.599668 0.578303 0.530434 0.490323 0.487663 0.452563 0.446624 0.408212 0.384644 0.399181 0.378645 0.372081 0.355252 0.348926 0.317487 0.278481 0.260213 0.253983 0.269309 0.295916 0.293151 0.287439 0.316980 0.356987 0.360261 0.350282 0.320539 0.292218 0.243793 0.227374 0.235208 0.196011 0.198495 0.185947 0.186845 0.187857 0.140512 0.182492 0.091845 0.073982 0.075805 0.100110 0.081485 0.078518 0.077929 0.042674 0.045201 0.046407 0.012848 0.004462 0.018553 -0.008853 -0.003207 0.012184 0.019925 0.016990 -0.017221 -0.015612 -0.014941 -0.008849 -0.020910 -0.024323 0.017539 0.056127 0.060155 0.066703 0.063671 0.061655 0.064219 0.063712 0.025389 0.005678 -0.036565 -0.062075 -0.062075 -0.044054 -0.044054 -0.044054 -0.044054 -0.044054 -0.044054 -0.044054 -0.044054 -0.044054 -0.044749 -0.044749 -0.044749 -0.044749 -0.044749 -0.044749 -0.044749 -0.044749 -0.044749 -0.035826 -0.035826 -0.035826 -0.035826 -0.035826 -0.035826 -0.035826 -0.035826 -0.035826
0.000000 0.000000 0.000000 0.000000 0.000000 0.000000 0.000000 0.000000 0.000000 0.000000 0.000000 0.000000 0.000000 0.000000 0.000000 0.000000 0.000000 0.000000 0.000000 0.000000 0.000000 0.000000 0.000000 0.000000 0.000000 0.000000 0.000000 0.000000 0.000000 0.000000 0.000000 0.000000 0.000000 0.000000 0.000000 0.000000 0.000000 0.000000 0.000000 0.000000 0.000000 0.000000 0.000000 0.000000 0.000000 0.000000 0.000000 0.000000 0.000000 0.000000 0.000000 0.000000 0.181818 0.181818 0.199007 0.199007 0.199007 0.199007 0.199007 0.199007 0.199007 0.199007 0.199007 0.199007 0.199007 0.199007 0.199007 0.199007 0.199007 0.199007 0.199007 0.199007 0.199007 0.199007 0.199007 0.199007 0.199007 0.199007 0.199007 0.199007 0.199007 0.199007 0.199007 0.199007 0.199007 0.199007 0.199007 0.199007 0.199007 0.199007 0.199007 0.199007 0.199007 0.199007 0.199007 0.230940 0.230940 0.230940 0.230940 0.230940 0.230940 0.230940 0.230940 0.230940 0.230940 0.230940 0.230940 0.230940 0.230940 0.230940 0.230940 0.230940 0.230940 0.230940 0.230940 0.230940 0.230940 0.230940 0.230940 0.230940 0.230940 0.230940 0.230940 0.244339 0.244339 0.244339 0.244339 0.244339 0.244339 0.244339 0.244339 0.244339 0.244339 0.244339 0.244339 0.244339 0.244339 0.244339 0.244339 0.244339 0.244339 0.244339 0.244339 0.244339 0.244339 0.244339 0.251976 0.251976 0.251976 0.251976 0.251976 0.251976 0.251976 0.251976 0.251976 0.251976 0.251976 0.251976 0.251976 0.251976 0.251976 0.251976 0.251976 0.251976 0.251976 0.251976 0.264906 0.264906 0.264906 0.264906 0.264906 0.264906 0.264906 0.264906 0.264906 0.264906 0.264906 0.264906 0.264906 0.264906 0.264906 0.264906 0.264906 0.264906 0.264906 0.264906 0.264906 0.264906 0.264906 0.264906 0.264906 0.264906 0.264906 0.264906 0.264906 0.264906 0.264906 0.264906 0.264906 0.264906 0.264906 0.264906 0.264906 0.264906 0.264906 0.264906 0.264906 0.264906 0.264906 0.264906 0.264906 0.264906 0.264906 0.264906 0.264906 0.264906 0.264906 0.264906 0.264906 0.264906 0.264906 0.264906 0.264906 0.264906 0.264906 0.264906 0.264906 0.264906 0.264906 0.264906 0.264906 0.264906 0.264906 0.264906 0.264906 0.264906 0.264906 0.264906 0.264906 0.264906 0.264906 0.269680 0.269680 0.269680 0.269680 0.269680 0.269680 0.269680 0.269680 0.269680 0.269680 0.269680 0.269680 0.264906 0.264906 0.264906 0.264906 0.264906 0.264906 0.264906 0.264906 0.264906 0.264906 0.264906 0.264906 0.269680 0.269680 0.269680 0.269680 0.269680 0.269680 0.269680 0.269680 0.269680 0.269680 0.269680 0.264906 0.264906 0.264906 0.264906 0.264906 0.264906 0.264906 0.264906 0.264906 0.264906 0.264906 0.256074 0.256074 0.256074 0.256074 0.256074 0.256074 0.256074 0.256074 0.256074 0.256074 0.256074 0.264906 0.264906 0.264906 0.264906 0.264906 0.264906 0.264906 0.264906 0.264906 0.264906 0.269680 0.269680 0.269680 0.269680 0.269680 0.269680 0.269680 0.269680 0.269680 0.256074 0.256074 0.256074 0.256074 0.256074 0.256074 0.256074 0.256074 0.256074 0.256074 0.260378 0.260378 0.260378 0.260378 0.260378 0.260378 0.260378 0.260378 0.260378 0.256074 0.256074 0.256074 0.256074 0.256074 0.256074 0.256074 0.256074 0.256074 0.251976 0.251976 0.251976 0.251976 0.251976 0.251976 0.251976 0.251976 0.251976 0.264906 0.264906 0.264906 0.264906 0.264906 0.264906 0.264906 0.264906 0.264906
