# Output from CTFFind version 4.1.9, run on 2019-11-02 17:58:57
# Input file: stack11_bm3d_averaged_1_1.75_0_2500_half.mrc ; Number of micrographs: 1
# Pixel size: 3.000 Angstroms ; acceleration voltage: 300.0 keV ; spherical aberration: 0.00 mm ; amplitude contrast: 0.07
# Box size: 512 pixels ; min. res.: 30.0 Angstroms ; max. res.: 5.0 Angstroms ; min. def.: 5000.0 um; max. def. 50000.0 um; num. frames averaged: 1
# 6 lines per micrograph: #1 - spatial frequency (1/Angstroms); #2 - 1D rotational average of spectrum (assuming no astigmatism); #3 - 1D rotational average of spectrum; #4 - CTF fit; #5 - cross-correlation between spectrum and CTF fit; #6 - 2sigma of expected cross correlation of noise
0.000000 0.000651 0.001302 0.001953 0.002604 0.003255 0.003906 0.004557 0.005208 0.005859 0.006510 0.007161 0.007812 0.008464 0.009115 0.009766 0.010417 0.011068 0.011719 0.012370 0.013021 0.013672 0.014323 0.014974 0.015625 0.016276 0.016927 0.017578 0.018229 0.018880 0.019531 0.020182 0.020833 0.021484 0.022135 0.022786 0.023438 0.024089 0.024740 0.025391 0.026042 0.026693 0.027344 0.027995 0.028646 0.029297 0.029948 0.030599 0.031250 0.031901 0.032552 0.033203 0.033854 0.034505 0.035156 0.035807 0.036458 0.037109 0.037760 0.038411 0.039062 0.039714 0.040365 0.041016 0.041667 0.042318 0.042969 0.043620 0.044271 0.044922 0.045573 0.046224 0.046875 0.047526 0.048177 0.048828 0.049479 0.050130 0.050781 0.051432 0.052083 0.052734 0.053385 0.054036 0.054688 0.055339 0.055990 0.056641 0.057292 0.057943 0.058594 0.059245 0.059896 0.060547 0.061198 0.061849 0.062500 0.063151 0.063802 0.064453 0.065104 0.065755 0.066406 0.067057 0.067708 0.068359 0.069010 0.069661 0.070312 0.070964 0.071615 0.072266 0.072917 0.073568 0.074219 0.074870 0.075521 0.076172 0.076823 0.077474 0.078125 0.078776 0.079427 0.080078 0.080729 0.081380 0.082031 0.082682 0.083333 0.083984 0.084635 0.085286 0.085938 0.086589 0.087240 0.087891 0.088542 0.089193 0.089844 0.090495 0.091146 0.091797 0.092448 0.093099 0.093750 0.094401 0.095052 0.095703 0.096354 0.097005 0.097656 0.098307 0.098958 0.099609 0.100260 0.100911 0.101562 0.102214 0.102865 0.103516 0.104167 0.104818 0.105469 0.106120 0.106771 0.107422 0.108073 0.108724 0.109375 0.110026 0.110677 0.111328 0.111979 0.112630 0.113281 0.113932 0.114583 0.115234 0.115885 0.116536 0.117188 0.117839 0.118490 0.119141 0.119792 0.120443 0.121094 0.121745 0.122396 0.123047 0.123698 0.124349 0.125000 0.125651 0.126302 0.126953 0.127604 0.128255 0.128906 0.129557 0.130208 0.130859 0.131510 0.132161 0.132812 0.133464 0.134115 0.134766 0.135417 0.136068 0.136719 0.137370 0.138021 0.138672 0.139323 0.139974 0.140625 0.141276 0.141927 0.142578 0.143229 0.143880 0.144531 0.145182 0.145833 0.146484 0.147135 0.147786 0.148438 0.149089 0.149740 0.150391 0.151042 0.151693 0.152344 0.152995 0.153646 0.154297 0.154948 0.155599 0.156250 0.156901 0.157552 0.158203 0.158854 0.159505 0.160156 0.160807 0.161458 0.162109 0.162760 0.163411 0.164062 0.164714 0.165365 0.166016 0.166667 0.167318 0.167969 0.168620 0.169271 0.169922 0.170573 0.171224 0.171875 0.172526 0.173177 0.173828 0.174479 0.175130 0.175781 0.176432 0.177083 0.177734 0.178385 0.179036 0.179688 0.180339 0.180990 0.181641 0.182292 0.182943 0.183594 0.184245 0.184896 0.185547 0.186198 0.186849 0.187500 0.188151 0.188802 0.189453 0.190104 0.190755 0.191406 0.192057 0.192708 0.193359 0.194010 0.194661 0.195312 0.195964 0.196615 0.197266 0.197917 0.198568 0.199219 0.199870 0.200521 0.201172 0.201823 0.202474 0.203125 0.203776 0.204427 0.205078 0.205729 0.206380 0.207031 0.207682 0.208333 0.208984 0.209635 0.210286 0.210938 0.211589 0.212240 0.212891 0.213542 0.214193 0.214844 0.215495 0.216146 0.216797 0.217448 0.218099 0.218750 0.219401 0.220052 0.220703 0.221354 0.222005 0.222656 0.223307 0.223958 0.224609 0.225260 0.225911 0.226562 0.227214 0.227865 0.228516 0.229167 0.229818 0.230469 0.231120 0.231771 0.232422 0.233073 0.233724 0.234375 0.235026 0.235677
       0.31596        0.31596        0.31596        0.31596        0.31596        0.31596        0.31596        0.31596        0.31596        0.31596        0.31596        0.31596        0.31596        0.31596        0.31596        0.31596        0.31596        0.31596        0.31596        0.31596        0.31596        0.31596        0.31596        0.31596        0.31596        0.31596        0.31596        0.31596        0.31596        0.31596        0.31596        0.31596        0.31596        0.31596        0.31596        0.31596        0.31596        0.31596        0.31596        0.31596        0.31596        0.31596        0.31596        0.31596        0.31596        0.31596        0.31596        0.31596        0.31596        0.31596        0.31596        0.68236        0.86706        0.52075        0.08637       -0.06551       -0.42827       -0.20507       -0.29818       -0.12019       -0.07777       -0.12008       -0.07065       -0.20965       -0.23725       -0.25826       -0.33299       -0.34045       -0.49184       -0.38335       -0.46605       -0.45119       -0.42175       -0.46834       -0.54084       -0.56290       -0.58763       -0.62177       -0.57898       -0.41525       -0.37836       -0.33206       -0.31663       -0.21163       -0.19815        0.02010        0.07320        0.10521        0.22377        0.36983        0.44225        0.51418        0.55726        0.55292        0.57056        0.69523        0.81137        0.74088        0.73293        0.66762        0.57736        0.48225        0.40357        0.49353        0.37448        0.20051        0.07593        0.04353        0.00974       -0.06191       -0.03995       -0.02062       -0.07048       -0.00926       -0.02221        0.21194        0.25066        0.28932        0.42575        0.45707        0.40173        0.53229        0.62503        0.69544        0.76304        0.68643        0.65651        0.69502        0.58269        0.49903        0.41787        0.28886        0.19115        0.15652        0.11083        0.03518        0.01025        0.00212        0.07406        0.13195        0.20462        0.27846        0.39677        0.41680        0.50363        0.59929        0.63244        0.61485        0.62806        0.55233        0.44449        0.44702        0.35182        0.22647        0.18344        0.14632        0.10855        0.12238        0.07150        0.10281        0.22683        0.26356        0.34298        0.35343        0.44760        0.51058        0.53717        0.54792        0.46822        0.42796        0.38898        0.36767        0.30539        0.25058        0.20375        0.18625        0.16495        0.19491        0.17704        0.26941        0.33248        0.36641        0.42333        0.46020        0.47549        0.43848        0.39075        0.40914        0.37200        0.28481        0.26885        0.22492        0.21352        0.19342        0.21474        0.22882        0.32628        0.37208        0.37087        0.45927        0.43329        0.43807        0.42810        0.39314        0.34248        0.32650        0.27954        0.23940        0.23535        0.26846        0.27260        0.29988        0.30138        0.33525        0.32715        0.40643        0.41658        0.37628        0.34612        0.36338        0.27948        0.27874        0.26109        0.27725        0.26132        0.28092        0.29017        0.30945        0.34548        0.35765        0.36068        0.33752        0.35214        0.28858        0.32437        0.26675        0.24245        0.28262        0.28521        0.30959        0.31180        0.32572        0.32396        0.31267        0.31752        0.28431        0.28486        0.25946        0.28189        0.26688        0.30710        0.28220        0.26386        0.30554        0.30919        0.31428        0.28380        0.29797        0.28480        0.25009        0.24510        0.21668        0.27797        0.27446        0.31875        0.31038        0.32225        0.31701        0.30826        0.27456        0.28505        0.32934        0.26668        0.25866        0.29105        0.28841        0.34163        0.33760        0.35509        0.33169        0.30675        0.28319        0.26719        0.25726        0.22290        0.26782        0.30569        0.29713        0.27911        0.29623        0.26810        0.32212        0.33387        0.25059        0.21968        0.26932        0.33352        0.27664        0.30843        0.32579        0.32268        0.29561        0.31846        0.34187        0.29755        0.28862        0.25369        0.28197        0.34937        0.35733        0.26199        0.26572        0.25193        0.27886        0.21854        0.28761        0.22602        0.25076        0.32956        0.32023        0.35240        0.30180        0.23420        0.23140        0.24220        0.23332        0.18681        0.22189        0.26557        0.29620        0.26619        0.30999        0.29878        0.26950        0.27725        0.20837        0.17106        0.19289        0.22908        0.18963        0.21224        0.22904        0.19696        0.25348        0.35125        0.30127        0.31848        0.22617        0.24903        0.21927        0.28636        0.29655        0.14938        0.23823        0.22867        0.10996        0.22496        0.11478        0.14921        0.23653        0.13854       -0.13929       -0.64336
2.580162 2.553267 2.526517 2.499913 2.473455 2.447142 2.420975 2.394954 2.369078 2.343348 2.317764 2.292326 2.267033 2.241886 2.216885 2.192029 2.167319 2.142754 2.118336 2.094063 2.069935 2.045954 2.022118 1.998428 1.974883 1.951484 1.928231 1.905124 1.882162 1.859346 1.836675 1.814151 1.791772 1.769538 1.747451 1.725509 1.703712 1.682062 1.660557 1.639197 1.617984 1.596916 1.575994 1.555217 1.534587 1.514101 1.493762 1.473568 1.453520 1.433618 1.413861 1.635259 2.041032 1.613814 1.126404 0.987170 0.414997 0.813312 0.556563 0.831159 0.770475 0.785891 0.747693 0.708596 0.559032 0.512271 0.481910 0.439367 0.203608 0.377530 0.200176 0.306286 0.234384 0.180806 0.133565 0.004756 0.038359 -0.011200 -0.056881 0.104036 0.207838 0.191445 0.152681 0.332028 0.198667 0.498135 0.579454 0.551277 0.593340 0.875985 0.811085 0.944035 0.887268 0.975822 0.943188 1.079331 1.139995 1.074531 1.130336 0.951196 0.940847 0.785281 0.648681 0.771766 0.708377 0.459559 0.308231 0.250708 0.214107 0.148765 0.089612 0.130929 0.073249 0.152254 0.052512 0.262618 0.380005 0.361834 0.478135 0.577208 0.464225 0.547157 0.698755 0.741903 0.782060 0.731273 0.734670 0.713039 0.627496 0.567660 0.430698 0.286575 0.212398 0.081077 0.136969 -0.042241 -0.032276 -0.074385 -0.037367 0.004262 0.150678 0.088630 0.298394 0.280118 0.362682 0.452044 0.526912 0.510945 0.519085 0.505806 0.335602 0.310011 0.283655 0.098404 0.051665 -0.007488 -0.028896 -0.040809 -0.084512 -0.099936 -0.005302 0.056186 0.139104 0.146765 0.228492 0.329577 0.313049 0.411346 0.398637 0.286326 0.231576 0.248949 0.205031 0.103995 0.081740 0.021446 0.002284 0.016234 -0.013429 0.060950 0.150036 0.143308 0.236435 0.253794 0.308416 0.251234 0.220312 0.179159 0.212936 0.142917 0.042843 0.042708 -0.009055 -0.011504 -0.031910 0.017419 0.018981 0.165666 0.133057 0.183988 0.235767 0.200622 0.191957 0.194619 0.140436 0.102205 0.063324 0.052802 -0.036217 0.008435 0.022025 0.056275 0.053974 0.075561 0.096314 0.120015 0.138824 0.186669 0.081692 0.097574 0.073278 -0.000813 0.004283 0.009461 -0.006003 0.018166 0.007548 0.028822 0.064727 0.082414 0.114368 0.054815 0.105051 0.057777 0.018541 0.063251 -0.035611 -0.016324 0.026073 0.006716 0.057647 0.054261 0.046617 0.065174 0.052787 0.046594 0.023134 -0.001118 0.015374 0.017078 -0.006768 0.072222 -0.013842 0.014985 0.058957 0.050963 0.037079 0.046046 0.040215 0.021999 -0.012821 -0.031020 -0.017353 0.024051 0.032611 0.075945 0.061197 0.064063 0.092339 0.069002 0.025085 0.071012 0.089309 0.016228 0.021633 0.061348 0.055783 0.106670 0.114807 0.110781 0.120289 0.069911 0.048541 0.039292 0.003955 0.001941 0.053176 0.089071 0.052715 0.036440 0.035231 0.023127 0.097181 0.067357 -0.043699 -0.047867 0.031556 0.097437 0.007923 0.026240 0.071977 0.081915 0.024499 0.059058 0.084620 0.035856 0.035599 -0.035232 0.021570 0.109626 0.075479 -0.045591 -0.022431 -0.047115 0.020834 -0.108873 0.037785 -0.099943 -0.029200 0.052138 0.037929 0.038241 -0.037450 -0.072826 -0.090344 -0.083981 -0.068610 -0.125522 -0.090207 -0.031077 0.033706 -0.043052 0.049160 -0.020467 -0.053393 0.049936 -0.108306 -0.104199 -0.090273 -0.011063 -0.070189 -0.028465 -0.018316 -0.005898 0.020783 0.198547 -0.018998 0.152637 0.013409 0.255429 0.232902 0.329808 0.271825 0.112613 0.241644 0.272431 0.028078 0.244865 0.117637 0.122562 0.325207 0.142405 -0.666629
0.072396 0.072899 0.074405 0.076917 0.080432 0.084949 0.090469 0.096988 0.104505 0.113017 0.122521 0.133012 0.144484 0.156933 0.170349 0.184724 0.200047 0.216305 0.233482 0.251562 0.270525 0.290348 0.311004 0.332464 0.354696 0.377662 0.401321 0.425627 0.450529 0.475972 0.501894 0.528228 0.554902 0.581837 0.608948 0.636143 0.663324 0.690385 0.717216 0.743697 0.769703 0.795101 0.819754 0.843516 0.866235 0.887756 0.907915 0.926547 0.943480 0.958541 0.971553 0.982339 0.990720 0.996520 0.999563 0.999679 0.996700 0.990469 0.980834 0.967655 0.950804 0.930170 0.905654 0.877180 0.844691 0.808154 0.767561 0.722931 0.674315 0.621793 0.565480 0.505529 0.442124 0.375494 0.305902 0.233655 0.159098 0.082617 0.004638 0.074374 0.153916 0.233451 0.312409 0.390190 0.466169 0.539700 0.610121 0.676760 0.738943 0.795998 0.847266 0.892106 0.929908 0.960096 0.982144 0.995580 0.999998 0.995068 0.980544 0.956275 0.922208 0.878402 0.825031 0.762391 0.690901 0.611109 0.523694 0.429459 0.329335 0.224370 0.115727 0.004670 0.107447 0.219192 0.329077 0.435571 0.537127 0.632199 0.719274 0.796892 0.863676 0.918357 0.959805 0.987054 0.999328 0.996064 0.976938 0.941880 0.891089 0.825049 0.744531 0.650595 0.544585 0.428123 0.303084 0.171580 0.035923 0.101404 0.237795 0.370567 0.497011 0.614451 0.720301 0.812128 0.887712 0.945106 0.982696 0.999251 0.993970 0.966526 0.917090 0.846356 0.755545 0.646401 0.521172 0.382574 0.233747 0.078194 0.080305 0.237765 0.390102 0.533243 0.663228 0.776332 0.869177 0.938842 0.982969 0.999854 0.988523 0.948796 0.881320 0.787590 0.669933 0.531477 0.376078 0.208235 0.032967 0.144327 0.318025 0.482465 0.632125 0.761826 0.866910 0.943427 0.988300 0.999464 0.975981 0.918117 0.827373 0.706486 0.559366 0.390993 0.207280 0.014871 0.179088 0.367201 0.542109 0.696779 0.824806 0.920682 0.980067 0.999998 0.979066 0.917529 0.817362 0.682228 0.517379 0.329486 0.126384 0.083222 0.290135 0.485053 0.658999 0.803742 0.912207 0.978842 0.999939 0.973866 0.901215 0.784847 0.629824 0.443227 0.233872 0.011912 0.211628 0.425397 0.618292 0.780049 0.901804 0.976616 0.999895 0.969719 0.887026 0.755650 0.582189 0.375729 0.147404 0.090185 0.323630 0.539486 0.725044 0.869098 0.962660 0.999555 0.976878 0.895266 0.758960 0.575643 0.356071 0.113477 0.137188 0.380164 0.599867 0.781897 0.914017 0.987013 0.995391 0.937838 0.817435 0.641563 0.421513 0.171832 0.090622 0.347768 0.581552 0.775238 0.914615 0.989102 0.992603 0.924073 0.787726 0.592863 0.353306 0.086478 0.187812 0.448839 0.676503 0.852918 0.963851 0.999941 0.957547 0.839189 0.653508 0.414708 0.141547 0.144075 0.418862 0.659992 0.847063 0.963844 0.999760 0.950932 0.820668 0.619352 0.363709 0.075498 0.220295 0.497581 0.731493 0.900629 0.989088 0.988034 0.896679 0.722542 0.480941 0.193744 0.112543 0.409173 0.667855 0.863467 0.976569 0.995406 0.917242 0.748826 0.505939 0.212023 0.104000 0.410524 0.676409 0.874173 0.982899 0.990539 0.895365 0.706378 0.442581 0.131195 0.195075 0.501428 0.754682 0.926912 0.998608 0.961005 0.817274 0.582421 0.281867 0.051213 0.379465 0.665529 0.876335 0.986972 0.983769 0.866108 0.646764 0.350684 0.012263 0.328568 0.630999 0.858277 0.982225 0.986866 0.870619 0.646789 0.342209 0.005839 0.354101 0.658688 0.880637 0.990975 0.974641 0.832696 0.582499 0.255759 0.105346
1.000000 1.000000 1.000000 1.000000 1.000000 1.000000 1.000000 1.000000 1.000000 1.000000 1.000000 1.000000 1.000000 1.000000 1.000000 1.000000 1.000000 1.000000 1.000000 1.000000 1.000000 1.000000 1.000000 1.000000 1.000000 1.000000 1.000000 1.000000 1.000000 1.000000 1.000000 1.000000 1.000000 1.000000 1.000000 1.000000 1.000000 1.000000 1.000000 1.000000 1.000000 1.000000 1.000000 1.000000 1.000000 1.000000 1.000000 1.000000 1.000000 1.000000 1.000000 1.000000 0.928897 0.928897 0.928897 0.918842 0.918842 0.918842 0.918842 0.918842 0.918842 0.918842 0.918842 0.918842 0.918842 0.918842 0.918842 0.918842 0.918842 0.918842 0.918842 0.918842 0.918842 0.918842 0.918842 0.918842 0.918842 0.918842 0.918842 0.918842 0.918842 0.918842 0.918842 0.918842 0.918842 0.918842 0.918842 0.918842 0.918842 0.918842 0.918842 0.918842 0.918842 0.918842 0.918842 0.918842 0.949230 0.950506 0.958419 0.958257 0.957750 0.955630 0.954709 0.953569 0.953116 0.953390 0.954002 0.954846 0.963584 0.964669 0.966262 0.967092 0.967805 0.968439 0.968248 0.968937 0.968114 0.967522 0.966986 0.962947 0.965741 0.965099 0.965191 0.966221 0.966094 0.968141 0.968337 0.967717 0.966813 0.966050 0.965317 0.964883 0.964595 0.965104 0.965400 0.966716 0.969910 0.969318 0.969035 0.969192 0.969291 0.969468 0.969901 0.971599 0.967799 0.968453 0.966768 0.964557 0.968795 0.965887 0.965680 0.967044 0.967423 0.967823 0.965954 0.961924 0.954993 0.953971 0.950840 0.941281 0.939806 0.940636 0.943107 0.943730 0.942543 0.935846 0.936384 0.930727 0.931014 0.934367 0.929940 0.930122 0.931270 0.930756 0.929666 0.929015 0.926426 0.923561 0.921850 0.921202 0.924205 0.924352 0.925574 0.925516 0.920549 0.911752 0.899097 0.896643 0.891652 0.894787 0.884651 0.884291 0.884268 0.879014 0.882554 0.882988 0.884042 0.880492 0.864647 0.845615 0.836465 0.841018 0.846190 0.844420 0.841922 0.835084 0.847200 0.825865 0.838501 0.850175 0.845484 0.846357 0.845194 0.843171 0.836119 0.836840 0.839676 0.841056 0.839690 0.837696 0.834352 0.816361 0.816097 0.753872 0.736777 0.731180 0.736296 0.742281 0.741400 0.739953 0.749375 0.754447 0.753877 0.739797 0.732562 0.724390 0.729357 0.730633 0.736616 0.724555 0.699836 0.693073 0.662525 0.679431 0.694482 0.655573 0.678458 0.688722 0.686523 0.686567 0.679234 0.675119 0.669161 0.672019 0.679414 0.694734 0.713788 0.739419 0.735482 0.725351 0.722203 0.702810 0.695255 0.686416 0.699642 0.679127 0.673723 0.692927 0.691883 0.677816 0.655869 0.641541 0.630583 0.629969 0.637356 0.627755 0.625897 0.615302 0.591510 0.586242 0.624199 0.639892 0.658119 0.632908 0.620380 0.613095 0.595803 0.609004 0.550625 0.550895 0.570871 0.578032 0.557235 0.535651 0.543726 0.552751 0.556465 0.548316 0.534441 0.521031 0.534767 0.564858 0.555440 0.531204 0.534356 0.533976 0.531813 0.452017 0.449023 0.419956 0.389647 0.330415 0.314053 0.306785 0.289176 0.271393 0.235285 0.232334 0.241099 0.251029 0.261820 0.262348 0.247888 0.250290 0.240426 0.226907 0.165770 0.153749 0.146710 0.135706 0.136159 0.110952 0.134042 0.202385 0.204907 0.204907 0.204907 0.204907 0.204907 0.204907 0.212667 0.212667 0.212667 0.212667 0.212667 0.212667 0.212667 0.212667 0.212667 0.224057 0.224057 0.224057 0.224057 0.224057 0.224057 0.224057 0.224057 0.224057 0.224057 0.224057 0.224057 0.224057 0.224057
0.000000 0.000000 0.000000 0.000000 0.000000 0.000000 0.000000 0.000000 0.000000 0.000000 0.000000 0.000000 0.000000 0.000000 0.000000 0.000000 0.000000 0.000000 0.000000 0.000000 0.000000 0.000000 0.000000 0.000000 0.000000 7.000000 4.000000 0.000000 0.000000 0.000000 0.000000 0.000000 0.000000 0.000000 0.000000 0.000000 0.000000 0.000000 0.000000 0.000000 0.000000 0.000000 0.000000 0.000000 0.000000 0.000000 0.000000 0.000000 0.000000 0.000000 0.000000 0.000000 0.180334 0.180334 0.180334 0.199007 0.199007 0.199007 0.199007 0.199007 0.199007 0.199007 0.199007 0.199007 0.199007 0.199007 0.199007 0.199007 0.199007 0.199007 0.199007 0.199007 0.199007 0.199007 0.199007 0.199007 0.199007 0.199007 0.199007 0.199007 0.199007 0.199007 0.199007 0.199007 0.199007 0.199007 0.199007 0.199007 0.199007 0.199007 0.199007 0.199007 0.199007 0.199007 0.199007 0.199007 0.225018 0.225018 0.225018 0.225018 0.225018 0.225018 0.225018 0.225018 0.225018 0.225018 0.225018 0.225018 0.225018 0.225018 0.225018 0.225018 0.225018 0.225018 0.225018 0.225018 0.225018 0.225018 0.225018 0.225018 0.225018 0.225018 0.225018 0.225018 0.225018 0.244339 0.244339 0.244339 0.244339 0.244339 0.244339 0.244339 0.244339 0.244339 0.244339 0.244339 0.244339 0.244339 0.244339 0.244339 0.244339 0.244339 0.244339 0.244339 0.244339 0.244339 0.244339 0.244339 0.251976 0.251976 0.251976 0.251976 0.251976 0.251976 0.251976 0.251976 0.251976 0.251976 0.251976 0.251976 0.251976 0.251976 0.251976 0.251976 0.251976 0.251976 0.251976 0.251976 0.264906 0.264906 0.264906 0.264906 0.264906 0.264906 0.264906 0.264906 0.264906 0.264906 0.264906 0.264906 0.264906 0.264906 0.264906 0.264906 0.264906 0.264906 0.264906 0.264906 0.264906 0.264906 0.264906 0.264906 0.264906 0.264906 0.264906 0.264906 0.264906 0.264906 0.264906 0.264906 0.264906 0.264906 0.264906 0.264906 0.264906 0.264906 0.264906 0.264906 0.264906 0.264906 0.264906 0.264906 0.264906 0.264906 0.264906 0.264906 0.264906 0.264906 0.264906 0.264906 0.264906 0.264906 0.264906 0.264906 0.264906 0.264906 0.264906 0.264906 0.264906 0.264906 0.256074 0.256074 0.256074 0.256074 0.256074 0.256074 0.256074 0.256074 0.256074 0.256074 0.256074 0.256074 0.256074 0.256074 0.269680 0.269680 0.269680 0.269680 0.269680 0.269680 0.269680 0.269680 0.269680 0.269680 0.269680 0.269680 0.264906 0.264906 0.264906 0.264906 0.264906 0.264906 0.264906 0.264906 0.264906 0.264906 0.264906 0.264906 0.269680 0.269680 0.269680 0.269680 0.269680 0.269680 0.269680 0.269680 0.269680 0.269680 0.269680 0.264906 0.264906 0.264906 0.264906 0.264906 0.264906 0.264906 0.264906 0.264906 0.264906 0.264906 0.256074 0.256074 0.256074 0.256074 0.256074 0.256074 0.256074 0.256074 0.256074 0.256074 0.256074 0.264906 0.264906 0.264906 0.264906 0.264906 0.264906 0.264906 0.264906 0.264906 0.264906 0.260378 0.260378 0.260378 0.260378 0.260378 0.260378 0.260378 0.260378 0.260378 0.260378 0.256074 0.256074 0.256074 0.256074 0.256074 0.256074 0.256074 0.256074 0.256074 0.256074 0.260378 0.260378 0.260378 0.260378 0.260378 0.260378 0.260378 0.260378 0.260378 0.256074 0.256074 0.256074 0.256074 0.256074 0.256074 0.256074 0.256074 0.256074 0.251976 0.251976 0.251976 0.251976 0.251976 0.251976 0.251976 0.251976 0.251976 0.251976 0.251976 0.251976 0.251976 0.251976
