# Output from CTFFind version 4.1.9, run on 2019-11-02 17:59:15
# Input file: stack16_bm3d_averaged_1_1.75_0_1000_half.mrc ; Number of micrographs: 1
# Pixel size: 3.000 Angstroms ; acceleration voltage: 300.0 keV ; spherical aberration: 0.00 mm ; amplitude contrast: 0.07
# Box size: 512 pixels ; min. res.: 30.0 Angstroms ; max. res.: 5.0 Angstroms ; min. def.: 5000.0 um; max. def. 50000.0 um; num. frames averaged: 1
# 6 lines per micrograph: #1 - spatial frequency (1/Angstroms); #2 - 1D rotational average of spectrum (assuming no astigmatism); #3 - 1D rotational average of spectrum; #4 - CTF fit; #5 - cross-correlation between spectrum and CTF fit; #6 - 2sigma of expected cross correlation of noise
0.000000 0.000651 0.001302 0.001953 0.002604 0.003255 0.003906 0.004557 0.005208 0.005859 0.006510 0.007161 0.007812 0.008464 0.009115 0.009766 0.010417 0.011068 0.011719 0.012370 0.013021 0.013672 0.014323 0.014974 0.015625 0.016276 0.016927 0.017578 0.018229 0.018880 0.019531 0.020182 0.020833 0.021484 0.022135 0.022786 0.023438 0.024089 0.024740 0.025391 0.026042 0.026693 0.027344 0.027995 0.028646 0.029297 0.029948 0.030599 0.031250 0.031901 0.032552 0.033203 0.033854 0.034505 0.035156 0.035807 0.036458 0.037109 0.037760 0.038411 0.039062 0.039714 0.040365 0.041016 0.041667 0.042318 0.042969 0.043620 0.044271 0.044922 0.045573 0.046224 0.046875 0.047526 0.048177 0.048828 0.049479 0.050130 0.050781 0.051432 0.052083 0.052734 0.053385 0.054036 0.054688 0.055339 0.055990 0.056641 0.057292 0.057943 0.058594 0.059245 0.059896 0.060547 0.061198 0.061849 0.062500 0.063151 0.063802 0.064453 0.065104 0.065755 0.066406 0.067057 0.067708 0.068359 0.069010 0.069661 0.070312 0.070964 0.071615 0.072266 0.072917 0.073568 0.074219 0.074870 0.075521 0.076172 0.076823 0.077474 0.078125 0.078776 0.079427 0.080078 0.080729 0.081380 0.082031 0.082682 0.083333 0.083984 0.084635 0.085286 0.085938 0.086589 0.087240 0.087891 0.088542 0.089193 0.089844 0.090495 0.091146 0.091797 0.092448 0.093099 0.093750 0.094401 0.095052 0.095703 0.096354 0.097005 0.097656 0.098307 0.098958 0.099609 0.100260 0.100911 0.101562 0.102214 0.102865 0.103516 0.104167 0.104818 0.105469 0.106120 0.106771 0.107422 0.108073 0.108724 0.109375 0.110026 0.110677 0.111328 0.111979 0.112630 0.113281 0.113932 0.114583 0.115234 0.115885 0.116536 0.117188 0.117839 0.118490 0.119141 0.119792 0.120443 0.121094 0.121745 0.122396 0.123047 0.123698 0.124349 0.125000 0.125651 0.126302 0.126953 0.127604 0.128255 0.128906 0.129557 0.130208 0.130859 0.131510 0.132161 0.132812 0.133464 0.134115 0.134766 0.135417 0.136068 0.136719 0.137370 0.138021 0.138672 0.139323 0.139974 0.140625 0.141276 0.141927 0.142578 0.143229 0.143880 0.144531 0.145182 0.145833 0.146484 0.147135 0.147786 0.148438 0.149089 0.149740 0.150391 0.151042 0.151693 0.152344 0.152995 0.153646 0.154297 0.154948 0.155599 0.156250 0.156901 0.157552 0.158203 0.158854 0.159505 0.160156 0.160807 0.161458 0.162109 0.162760 0.163411 0.164062 0.164714 0.165365 0.166016 0.166667 0.167318 0.167969 0.168620 0.169271 0.169922 0.170573 0.171224 0.171875 0.172526 0.173177 0.173828 0.174479 0.175130 0.175781 0.176432 0.177083 0.177734 0.178385 0.179036 0.179688 0.180339 0.180990 0.181641 0.182292 0.182943 0.183594 0.184245 0.184896 0.185547 0.186198 0.186849 0.187500 0.188151 0.188802 0.189453 0.190104 0.190755 0.191406 0.192057 0.192708 0.193359 0.194010 0.194661 0.195312 0.195964 0.196615 0.197266 0.197917 0.198568 0.199219 0.199870 0.200521 0.201172 0.201823 0.202474 0.203125 0.203776 0.204427 0.205078 0.205729 0.206380 0.207031 0.207682 0.208333 0.208984 0.209635 0.210286 0.210938 0.211589 0.212240 0.212891 0.213542 0.214193 0.214844 0.215495 0.216146 0.216797 0.217448 0.218099 0.218750 0.219401 0.220052 0.220703 0.221354 0.222005 0.222656 0.223307 0.223958 0.224609 0.225260 0.225911 0.226562 0.227214 0.227865 0.228516 0.229167 0.229818 0.230469 0.231120 0.231771 0.232422 0.233073 0.233724 0.234375 0.235026 0.235677
       0.34320        0.34320        0.34320        0.34320        0.34320        0.34320        0.34320        0.34320        0.34320        0.34320        0.34320        0.34320        0.34320        0.34320        0.34320        0.34320        0.34320        0.34320        0.34320        0.34320        0.34320        0.34320        0.34320        0.34320        0.34320        0.34320        0.34320        0.34320        0.34320        0.34320        0.34320        0.34320        0.34320        0.34320        0.34320        0.34320        0.34320        0.34320        0.34320        0.34320        0.34320        0.34320        0.34320        0.34320        0.34320        0.34320        0.34320        0.34320        0.34320        0.34320        0.34320        0.48696        0.69597        0.45642       -0.11231       -0.41076       -0.57031       -0.66017       -0.74106       -0.75881       -0.87044       -0.91635       -0.75728       -0.92510       -0.87186       -1.02533       -1.09840       -0.98725       -0.95889       -0.88210       -0.84853       -0.74553       -0.63772       -0.49761       -0.42145       -0.22005       -0.11498       -0.02317        0.19889        0.24133        0.30767        0.38112        0.43377        0.51043        0.57951        0.60076        0.58838        0.50062        0.54741        0.48427        0.39488        0.32746        0.20282        0.17087        0.09662       -0.05283       -0.11297       -0.08722        0.01671       -0.01623        0.02221        0.02684        0.20145        0.21695        0.39283        0.45716        0.56379        0.70073        0.76427        0.73604        0.70071        0.69191        0.58158        0.53587        0.39612        0.27951        0.19726        0.15509        0.07061        0.03255        0.02242        0.06427        0.08428        0.27838        0.41474        0.50613        0.58900        0.63731        0.70047        0.65707        0.65522        0.66861        0.60389        0.48676        0.28951        0.24255        0.20710        0.12603        0.04120        0.09331        0.10943        0.25238        0.35190        0.41730        0.50485        0.54391        0.65160        0.60001        0.55102        0.51321        0.36256        0.20366        0.21332        0.15846        0.12816        0.12607        0.21511        0.25523        0.35685        0.44019        0.43349        0.54657        0.50910        0.46037        0.46058        0.37985        0.32660        0.26909        0.20825        0.22974        0.21504        0.20784        0.31248        0.45208        0.48320        0.48584        0.55346        0.49970        0.45058        0.39992        0.29971        0.23261        0.23613        0.23745        0.26167        0.27806        0.33159        0.44096        0.50460        0.49583        0.46295        0.41014        0.38651        0.35803        0.24720        0.22392        0.25324        0.29620        0.36038        0.36314        0.39368        0.41864        0.44390        0.37724        0.34900        0.31735        0.31651        0.27114        0.25929        0.30308        0.34806        0.41096        0.41879        0.39270        0.38792        0.40164        0.34786        0.28852        0.30086        0.29232        0.30607        0.35761        0.37767        0.41414        0.35589        0.36206        0.38795        0.34619        0.31001        0.28400        0.28823        0.33604        0.32655        0.32530        0.36643        0.39459        0.33824        0.35466        0.30246        0.30578        0.28131        0.28092        0.30306        0.32885        0.38346        0.36300        0.34709        0.32093        0.28289        0.27391        0.29678        0.28334        0.31743        0.36682        0.39633        0.33513        0.32195        0.30682        0.30438        0.29992        0.28056        0.31268        0.33859        0.32980        0.34045        0.32015        0.35382        0.32697        0.29186        0.31236        0.32480        0.35079        0.35046        0.31916        0.31550        0.29812        0.32249        0.30986        0.33601        0.39292        0.32977        0.35835        0.31075        0.30820        0.29473        0.31045        0.29490        0.31130        0.32036        0.34241        0.35626        0.30045        0.32336        0.32116        0.30059        0.29142        0.30138        0.32307        0.34827        0.35245        0.33089        0.31027        0.27418        0.24913        0.31295        0.34894        0.31730        0.29588        0.27790        0.29201        0.32790        0.31656        0.29887        0.34457        0.32900        0.30540        0.24024        0.28132        0.29060        0.28900        0.33492        0.32849        0.34947        0.34903        0.28913        0.28194        0.29747        0.28095        0.30738        0.27246        0.25812        0.26299        0.28012        0.29398        0.29307        0.29079        0.26614        0.31761        0.32311        0.31248        0.26565        0.26254        0.22822        0.25474        0.24323        0.29893        0.35816        0.23542        0.23867        0.28754        0.23511        0.22891        0.31644        0.25530        0.12703        0.17246        0.21692        0.28993        0.26731        0.11828        0.06368       -0.41068       -0.78902
3.050663 3.012667 2.974915 2.937408 2.900146 2.863128 2.826354 2.789826 2.753541 2.717502 2.681707 2.646157 2.610851 2.575789 2.540973 2.506401 2.472074 2.437991 2.404153 2.370559 2.337210 2.304106 2.271246 2.238631 2.206261 2.174135 2.142253 2.110616 2.079224 2.048077 2.017174 1.986515 1.956102 1.925933 1.896008 1.866328 1.836893 1.807702 1.778756 1.750054 1.721597 1.693385 1.665417 1.637694 1.610215 1.582982 1.555992 1.529247 1.502747 1.476492 1.450481 1.509562 1.685833 1.608569 0.960493 0.680962 0.475136 0.427508 0.323774 0.264221 0.198376 0.015825 0.197311 0.079250 -0.011961 -0.060963 -0.202059 -0.154478 -0.088198 -0.093265 -0.089362 0.010712 0.034447 0.229613 0.150558 0.361230 0.442408 0.475553 0.706444 0.694310 0.703792 0.830669 0.813730 0.839063 0.916792 0.894276 0.931014 0.745876 0.833036 0.832792 0.623354 0.603781 0.452737 0.433638 0.371209 0.213474 0.118889 0.097670 0.211026 0.139762 0.204408 0.112881 0.297390 0.281666 0.456084 0.409843 0.580630 0.640341 0.756105 0.712843 0.650044 0.655378 0.520873 0.500931 0.353267 0.295161 0.120987 0.151561 0.004188 -0.005855 -0.040063 -0.030343 -0.001311 0.036460 0.275616 0.324137 0.388114 0.390629 0.462096 0.510780 0.473222 0.501846 0.389799 0.393146 0.154222 0.075476 0.076571 -0.009000 -0.129130 -0.043727 -0.118822 0.013020 0.140500 0.161241 0.254210 0.261982 0.373102 0.458181 0.346702 0.392569 0.285011 0.122024 0.048797 0.054630 0.027638 0.010449 0.011524 0.111199 0.123923 0.268503 0.233844 0.295726 0.356431 0.251483 0.250704 0.221372 0.129489 0.085769 0.039549 0.025259 0.038663 -0.011791 0.025470 0.180259 0.219915 0.252267 0.284383 0.233725 0.239807 0.145267 0.114409 -0.015308 -0.009638 -0.008992 0.012112 0.010154 0.032234 0.104492 0.192584 0.207366 0.225065 0.133323 0.138983 0.077784 0.057786 -0.064312 -0.015793 0.006851 0.055298 0.067496 0.074714 0.151329 0.097947 0.162193 0.064022 0.048217 0.048409 0.030142 0.003510 0.001435 0.040132 0.085158 0.122223 0.133807 0.060641 0.117298 0.093362 0.006227 0.011286 0.010987 -0.000785 0.042562 0.060029 0.101546 0.092523 0.052925 0.071381 0.077440 0.032631 0.009167 -0.011040 0.000372 0.058837 0.020155 0.032726 0.074942 0.084803 0.063202 0.033680 0.015015 0.009306 -0.009901 -0.009328 0.012376 0.050818 0.105604 0.059387 0.059660 0.026900 -0.012094 -0.004774 0.019676 0.012447 0.029931 0.103732 0.068554 0.013208 0.048675 0.000154 0.033262 -0.002399 -0.002068 0.036144 0.054125 0.025500 0.041148 0.025302 0.057625 0.020220 -0.005143 0.021679 0.037707 0.053218 0.045903 0.021031 -0.006171 -0.014103 0.018163 0.005266 0.044794 0.072949 0.032610 0.020968 0.002783 0.002445 -0.011491 0.011306 0.002025 0.011830 -0.001833 0.063867 0.039251 0.017460 0.042593 -0.000682 0.011151 -0.001217 0.001333 0.033182 0.070091 0.068446 0.041499 0.030544 -0.019139 -0.012026 0.022094 0.070928 0.025028 0.036027 -0.013691 0.009336 0.044024 0.051190 0.013078 0.065398 0.046653 0.033534 -0.041850 0.004456 0.037154 0.004331 0.034329 0.077099 0.066772 0.055880 0.007572 0.007066 0.003686 -0.007088 0.029544 -0.037887 -0.021984 -0.035512 -0.025248 -0.004951 -0.014968 0.012292 -0.093878 -0.004402 -0.010589 -0.020777 -0.077709 -0.036123 -0.118984 -0.045760 -0.080915 -0.020699 0.065273 -0.113438 -0.056643 0.028787 -0.022562 -0.072100 0.048628 0.029721 -0.064114 -0.055920 0.023193 0.257848 0.249474 0.045740 0.058880 -0.691148
0.072396 0.073046 0.074995 0.078243 0.082788 0.088629 0.095765 0.104191 0.113905 0.124900 0.137171 0.150709 0.165504 0.181543 0.198811 0.217290 0.236957 0.257786 0.279748 0.302806 0.326919 0.352042 0.378120 0.405092 0.432892 0.461442 0.490657 0.520444 0.550699 0.581307 0.612145 0.643077 0.673956 0.704626 0.734916 0.764647 0.793627 0.821652 0.848509 0.873976 0.897818 0.919795 0.939658 0.957152 0.972019 0.983998 0.992826 0.998244 0.999997 0.997835 0.991522 0.980834 0.965562 0.945521 0.920550 0.890516 0.855319 0.814897 0.769230 0.718341 0.662305 0.601250 0.535361 0.464884 0.390126 0.311462 0.229331 0.144241 0.056769 0.032444 0.122692 0.213208 0.303168 0.391699 0.477881 0.560764 0.639369 0.712708 0.779787 0.839632 0.891292 0.933865 0.966509 0.988463 0.999065 0.997767 0.984157 0.957974 0.919123 0.867692 0.803964 0.728423 0.641767 0.544910 0.438976 0.325305 0.205433 0.081086 0.045843 0.173317 0.299183 0.421210 0.537125 0.644656 0.741581 0.825777 0.895269 0.948287 0.983314 0.999136 0.994894 0.970120 0.924778 0.859287 0.774544 0.671929 0.553302 0.420989 0.277742 0.126706 0.028646 0.184587 0.337213 0.482548 0.616643 0.735689 0.836136 0.914802 0.968997 0.996621 0.996262 0.967278 0.909857 0.825057 0.714818 0.581948 0.430077 0.263578 0.087467 0.092740 0.271191 0.441877 0.598839 0.736388 0.849314 0.933106 0.984152 0.999920 0.979104 0.921733 0.829236 0.704453 0.551583 0.376084 0.184506 0.015730 0.216603 0.409805 0.587081 0.740598 0.863301 0.949265 0.994013 0.994778 0.950714 0.863012 0.734934 0.571748 0.380556 0.170026 0.049967 0.268786 0.475544 0.659637 0.811310 0.922207 0.985857 0.998105 0.957426 0.865116 0.725327 0.544953 0.333349 0.101895 0.136584 0.368504 0.580293 0.759200 0.894082 0.976155 0.999606 0.962075 0.864925 0.713297 0.515917 0.284669 0.033934 0.220260 0.461253 0.672835 0.840370 0.951845 0.998797 0.977023 0.887031 0.734160 0.528371 0.283679 0.017274 0.251648 0.503240 0.718474 0.880621 0.976600 0.998115 0.942457 0.812908 0.618668 0.374320 0.098815 0.185923 0.456719 0.691020 0.868811 0.974392 0.997842 0.936068 0.793277 0.580840 0.316508 0.023025 0.273753 0.547118 0.771914 0.926903 0.996866 0.974200 0.859868 0.663560 0.403030 0.102595 0.209022 0.501409 0.745432 0.916180 0.995605 0.974554 0.853963 0.645045 0.368421 0.052210 0.270724 0.566149 0.802106 0.952427 0.999760 0.937719 0.771889 0.519536 0.207975 0.128246 0.451110 0.723403 0.913065 0.997057 0.964336 0.817465 0.572680 0.258280 0.088473 0.425690 0.711875 0.911083 0.997561 0.959240 0.799612 0.537693 0.205957 0.153506 0.494254 0.771467 0.947910 0.999094 0.916860 0.710891 0.407840 0.048086 0.319478 0.644039 0.879902 0.993052 0.966249 0.801889 0.522130 0.166168 0.215073 0.566108 0.834977 0.981030 0.981274 0.834236 0.560692 0.201012 0.190567 0.554011 0.832670 0.982221 0.977927 0.818993 0.529241 0.153841 0.247499 0.609916 0.873875 0.995082 0.952167 0.750738 0.423051 0.023126 0.381899 0.722993 0.941047 0.997278 0.880449 0.609408 0.230434 0.190410 0.578574 0.864263 0.995093 0.945977 0.724276 0.369126 0.055124 0.470340 0.798920 0.978410 0.973607 0.783825 0.443742 0.017432 0.413422 0.765073 0.968068 0.981211 0.800295 0.459675 0.026164 0.413770 0.771156 0.972567 0.975481 0.777650 0.418366 0.028929 0.471347 0.815734 0.988424 0.951265 0.710507 0.316293 0.147339 0.580121
1.000000 1.000000 1.000000 1.000000 1.000000 1.000000 1.000000 1.000000 1.000000 1.000000 1.000000 1.000000 1.000000 1.000000 1.000000 1.000000 1.000000 1.000000 1.000000 1.000000 1.000000 1.000000 1.000000 1.000000 1.000000 1.000000 1.000000 1.000000 1.000000 1.000000 1.000000 1.000000 1.000000 1.000000 1.000000 1.000000 1.000000 1.000000 1.000000 1.000000 1.000000 1.000000 1.000000 1.000000 1.000000 1.000000 1.000000 1.000000 1.000000 1.000000 1.000000 1.000000 0.936747 0.936747 0.936747 0.936747 0.936747 0.936747 0.936747 0.936747 0.936747 0.936747 0.936747 0.936747 0.936747 0.936747 0.936747 0.936747 0.936747 0.936747 0.936747 0.936747 0.936747 0.936747 0.936747 0.936747 0.936747 0.936747 0.936747 0.936747 0.936747 0.936747 0.936747 0.936747 0.936747 0.929125 0.930488 0.933224 0.934211 0.934184 0.933779 0.933504 0.933720 0.935372 0.937582 0.954145 0.956121 0.956598 0.957832 0.956582 0.959578 0.958048 0.958020 0.968729 0.967645 0.968203 0.961209 0.962671 0.961780 0.960860 0.961652 0.961817 0.959979 0.957963 0.956386 0.955806 0.955459 0.957169 0.957589 0.957563 0.958085 0.957926 0.957649 0.954281 0.952841 0.954252 0.956163 0.955438 0.961278 0.959605 0.962905 0.963702 0.962307 0.962210 0.962419 0.962624 0.956231 0.951924 0.947757 0.936290 0.927945 0.924527 0.927245 0.928929 0.927746 0.922658 0.921670 0.919487 0.915184 0.914393 0.913841 0.915172 0.909920 0.906549 0.890146 0.889468 0.892623 0.893105 0.890841 0.882541 0.878449 0.879485 0.882468 0.880293 0.877189 0.893361 0.887649 0.892157 0.895113 0.898089 0.901845 0.896901 0.893793 0.889948 0.886564 0.880913 0.882019 0.875579 0.878333 0.871600 0.861378 0.854986 0.857694 0.866169 0.874108 0.881706 0.880747 0.881342 0.880573 0.867485 0.869598 0.855397 0.856108 0.859987 0.865573 0.864003 0.861428 0.865643 0.863799 0.861088 0.864379 0.861080 0.859093 0.849121 0.849755 0.852345 0.867979 0.869420 0.855817 0.844521 0.831906 0.839242 0.842965 0.842418 0.844045 0.839190 0.841138 0.832414 0.819525 0.820776 0.826351 0.820349 0.823926 0.824444 0.829839 0.831793 0.830431 0.826374 0.825042 0.828566 0.793489 0.801131 0.802079 0.794199 0.798966 0.792143 0.784674 0.782767 0.779524 0.764597 0.776293 0.771138 0.737396 0.738007 0.744948 0.735302 0.724180 0.722733 0.723486 0.714029 0.702370 0.673210 0.669884 0.660355 0.657031 0.657835 0.645749 0.638168 0.627207 0.591407 0.602737 0.607594 0.592850 0.593848 0.585829 0.580227 0.571494 0.557156 0.557347 0.563436 0.565992 0.535117 0.526643 0.537761 0.507675 0.506612 0.507074 0.497993 0.482372 0.487910 0.478868 0.506119 0.516730 0.478616 0.466757 0.482464 0.500043 0.510162 0.511736 0.497563 0.477387 0.502377 0.480863 0.465032 0.479814 0.476567 0.467983 0.476087 0.470810 0.500347 0.488048 0.457417 0.483717 0.463023 0.459550 0.470674 0.465444 0.464873 0.463247 0.461631 0.414126 0.427898 0.408625 0.353319 0.373447 0.376446 0.364890 0.360456 0.334327 0.337944 0.305171 0.284846 0.280070 0.276825 0.232052 0.186893 0.193393 0.193725 0.167133 0.132546 0.140506 0.098887 0.091344 0.113777 0.114114 0.110615 0.111914 0.137557 0.137557 0.137557 0.137557 0.137557 0.137557 0.137557 0.137557 0.137557 0.137557 0.137557 0.137557 0.137557 0.137557 0.163409 0.163409 0.163409 0.163409 0.163409 0.163409 0.163409 0.163409 0.163409 0.163409 0.163409 0.163409
0.000000 0.000000 0.000000 0.000000 0.000000 0.000000 0.000000 0.000000 0.000000 0.000000 0.000000 0.000000 0.000000 0.000000 0.000000 0.000000 0.000000 0.000000 0.000000 0.000000 0.000000 0.000000 0.000000 0.000000 0.000000 7.000000 4.000000 0.000000 0.000000 0.000000 0.000000 0.000000 0.000000 0.000000 0.000000 0.000000 0.000000 0.000000 0.000000 0.000000 0.000000 0.000000 0.000000 0.000000 0.000000 0.000000 0.000000 0.000000 0.000000 0.000000 0.000000 0.000000 0.209657 0.209657 0.209657 0.209657 0.209657 0.209657 0.209657 0.209657 0.209657 0.209657 0.209657 0.209657 0.209657 0.209657 0.209657 0.209657 0.209657 0.209657 0.209657 0.209657 0.209657 0.209657 0.209657 0.209657 0.209657 0.209657 0.209657 0.209657 0.209657 0.209657 0.209657 0.209657 0.209657 0.244339 0.244339 0.244339 0.244339 0.244339 0.244339 0.244339 0.244339 0.244339 0.244339 0.244339 0.244339 0.244339 0.244339 0.244339 0.244339 0.244339 0.244339 0.244339 0.244339 0.244339 0.244339 0.244339 0.244339 0.244339 0.260378 0.260378 0.260378 0.260378 0.260378 0.260378 0.260378 0.260378 0.260378 0.260378 0.260378 0.260378 0.260378 0.260378 0.260378 0.260378 0.260378 0.260378 0.260378 0.260378 0.269680 0.269680 0.269680 0.269680 0.269680 0.269680 0.269680 0.269680 0.269680 0.269680 0.269680 0.269680 0.269680 0.269680 0.269680 0.269680 0.269680 0.269680 0.269680 0.269680 0.269680 0.269680 0.269680 0.269680 0.269680 0.269680 0.269680 0.269680 0.269680 0.269680 0.269680 0.269680 0.269680 0.280056 0.280056 0.280056 0.280056 0.280056 0.280056 0.280056 0.280056 0.280056 0.280056 0.280056 0.280056 0.280056 0.280056 0.280056 0.280056 0.280056 0.280056 0.280056 0.280056 0.280056 0.280056 0.280056 0.280056 0.280056 0.280056 0.280056 0.274721 0.274721 0.274721 0.274721 0.274721 0.274721 0.274721 0.274721 0.274721 0.274721 0.274721 0.274721 0.274721 0.285714 0.285714 0.285714 0.285714 0.285714 0.285714 0.285714 0.285714 0.285714 0.285714 0.285714 0.280056 0.280056 0.280056 0.280056 0.280056 0.280056 0.280056 0.280056 0.280056 0.280056 0.280056 0.274721 0.274721 0.274721 0.274721 0.274721 0.274721 0.274721 0.274721 0.274721 0.274721 0.274721 0.280056 0.280056 0.280056 0.280056 0.280056 0.280056 0.280056 0.280056 0.280056 0.280056 0.285714 0.285714 0.285714 0.285714 0.285714 0.285714 0.285714 0.285714 0.285714 0.269680 0.269680 0.269680 0.269680 0.269680 0.269680 0.269680 0.269680 0.269680 0.269680 0.274721 0.274721 0.274721 0.274721 0.274721 0.274721 0.274721 0.274721 0.274721 0.285714 0.285714 0.285714 0.285714 0.285714 0.285714 0.285714 0.285714 0.264906 0.264906 0.264906 0.264906 0.264906 0.264906 0.264906 0.264906 0.264906 0.274721 0.274721 0.274721 0.274721 0.274721 0.274721 0.274721 0.274721 0.269680 0.269680 0.269680 0.269680 0.269680 0.269680 0.269680 0.269680 0.269680 0.269680 0.269680 0.269680 0.269680 0.269680 0.269680 0.269680 0.280056 0.280056 0.280056 0.280056 0.280056 0.280056 0.280056 0.260378 0.260378 0.260378 0.260378 0.260378 0.260378 0.260378 0.260378 0.269680 0.269680 0.269680 0.269680 0.269680 0.269680 0.269680 0.264906 0.264906 0.264906 0.264906 0.264906 0.264906 0.264906 0.264906 0.264906 0.264906 0.264906 0.264906 0.264906 0.264906 0.260378 0.260378 0.260378 0.260378 0.260378 0.260378 0.260378 0.260378 0.260378 0.260378 0.260378 0.260378
