# Output from CTFFind version 4.1.9, run on 2019-11-03 19:00:54
# Input file: stack6_bm3d_averaged_1_3.25_0_1000_half.mrc ; Number of micrographs: 1
# Pixel size: 3.000 Angstroms ; acceleration voltage: 300.0 keV ; spherical aberration: 0.00 mm ; amplitude contrast: 0.07
# Box size: 512 pixels ; min. res.: 30.0 Angstroms ; max. res.: 5.0 Angstroms ; min. def.: 5000.0 um; max. def. 50000.0 um; num. frames averaged: 1
# 6 lines per micrograph: #1 - spatial frequency (1/Angstroms); #2 - 1D rotational average of spectrum (assuming no astigmatism); #3 - 1D rotational average of spectrum; #4 - CTF fit; #5 - cross-correlation between spectrum and CTF fit; #6 - 2sigma of expected cross correlation of noise
0.000000 0.000651 0.001302 0.001953 0.002604 0.003255 0.003906 0.004557 0.005208 0.005859 0.006510 0.007161 0.007812 0.008464 0.009115 0.009766 0.010417 0.011068 0.011719 0.012370 0.013021 0.013672 0.014323 0.014974 0.015625 0.016276 0.016927 0.017578 0.018229 0.018880 0.019531 0.020182 0.020833 0.021484 0.022135 0.022786 0.023438 0.024089 0.024740 0.025391 0.026042 0.026693 0.027344 0.027995 0.028646 0.029297 0.029948 0.030599 0.031250 0.031901 0.032552 0.033203 0.033854 0.034505 0.035156 0.035807 0.036458 0.037109 0.037760 0.038411 0.039062 0.039714 0.040365 0.041016 0.041667 0.042318 0.042969 0.043620 0.044271 0.044922 0.045573 0.046224 0.046875 0.047526 0.048177 0.048828 0.049479 0.050130 0.050781 0.051432 0.052083 0.052734 0.053385 0.054036 0.054688 0.055339 0.055990 0.056641 0.057292 0.057943 0.058594 0.059245 0.059896 0.060547 0.061198 0.061849 0.062500 0.063151 0.063802 0.064453 0.065104 0.065755 0.066406 0.067057 0.067708 0.068359 0.069010 0.069661 0.070312 0.070964 0.071615 0.072266 0.072917 0.073568 0.074219 0.074870 0.075521 0.076172 0.076823 0.077474 0.078125 0.078776 0.079427 0.080078 0.080729 0.081380 0.082031 0.082682 0.083333 0.083984 0.084635 0.085286 0.085938 0.086589 0.087240 0.087891 0.088542 0.089193 0.089844 0.090495 0.091146 0.091797 0.092448 0.093099 0.093750 0.094401 0.095052 0.095703 0.096354 0.097005 0.097656 0.098307 0.098958 0.099609 0.100260 0.100911 0.101562 0.102214 0.102865 0.103516 0.104167 0.104818 0.105469 0.106120 0.106771 0.107422 0.108073 0.108724 0.109375 0.110026 0.110677 0.111328 0.111979 0.112630 0.113281 0.113932 0.114583 0.115234 0.115885 0.116536 0.117188 0.117839 0.118490 0.119141 0.119792 0.120443 0.121094 0.121745 0.122396 0.123047 0.123698 0.124349 0.125000 0.125651 0.126302 0.126953 0.127604 0.128255 0.128906 0.129557 0.130208 0.130859 0.131510 0.132161 0.132812 0.133464 0.134115 0.134766 0.135417 0.136068 0.136719 0.137370 0.138021 0.138672 0.139323 0.139974 0.140625 0.141276 0.141927 0.142578 0.143229 0.143880 0.144531 0.145182 0.145833 0.146484 0.147135 0.147786 0.148438 0.149089 0.149740 0.150391 0.151042 0.151693 0.152344 0.152995 0.153646 0.154297 0.154948 0.155599 0.156250 0.156901 0.157552 0.158203 0.158854 0.159505 0.160156 0.160807 0.161458 0.162109 0.162760 0.163411 0.164062 0.164714 0.165365 0.166016 0.166667 0.167318 0.167969 0.168620 0.169271 0.169922 0.170573 0.171224 0.171875 0.172526 0.173177 0.173828 0.174479 0.175130 0.175781 0.176432 0.177083 0.177734 0.178385 0.179036 0.179688 0.180339 0.180990 0.181641 0.182292 0.182943 0.183594 0.184245 0.184896 0.185547 0.186198 0.186849 0.187500 0.188151 0.188802 0.189453 0.190104 0.190755 0.191406 0.192057 0.192708 0.193359 0.194010 0.194661 0.195312 0.195964 0.196615 0.197266 0.197917 0.198568 0.199219 0.199870 0.200521 0.201172 0.201823 0.202474 0.203125 0.203776 0.204427 0.205078 0.205729 0.206380 0.207031 0.207682 0.208333 0.208984 0.209635 0.210286 0.210938 0.211589 0.212240 0.212891 0.213542 0.214193 0.214844 0.215495 0.216146 0.216797 0.217448 0.218099 0.218750 0.219401 0.220052 0.220703 0.221354 0.222005 0.222656 0.223307 0.223958 0.224609 0.225260 0.225911 0.226562 0.227214 0.227865 0.228516 0.229167 0.229818 0.230469 0.231120 0.231771 0.232422 0.233073 0.233724 0.234375 0.235026 0.235677
       0.29984        0.29984        0.29984        0.29984        0.29984        0.29984        0.29984        0.29984        0.29984        0.29984        0.29984        0.29984        0.29984        0.29984        0.29984        0.29984        0.29984        0.29984        0.29984        0.29984        0.29984        0.29984        0.29984        0.29984        0.29984        0.29984        0.29984        0.29984        0.29984        0.29984        0.29984        0.29984        0.29984        0.29984        0.29984        0.29984        0.29984        0.29984        0.29984        0.29984        0.29984        0.29984        0.29984        0.29984        0.29984        0.29984        0.29984        0.29984        0.29984        0.29984        0.29984        0.61451        0.76621        0.37301        0.23860        0.14572       -0.14051        0.11826        0.02365        0.03510        0.10141        0.33662        0.38168        0.32428        0.19107       -0.02607        0.01635        0.05523       -0.16758       -0.17835       -0.09179       -0.12163       -0.28051       -0.17157       -0.30822       -0.29166       -0.30614       -0.38427       -0.45568       -0.43784       -0.36183       -0.31651       -0.40768       -0.30872       -0.37781       -0.31291       -0.25055       -0.19176       -0.15800       -0.07077       -0.04122        0.07194        0.11069        0.21840        0.32083        0.38437        0.37639        0.48585        0.56122        0.58674        0.67111        0.64127        0.69934        0.61306        0.64693        0.64818        0.58759        0.58411        0.59700        0.40333        0.35058        0.35891        0.33886        0.17987        0.12228        0.06935        0.07456        0.04815       -0.05128        0.01297       -0.02938       -0.06893        0.05517        0.15435        0.25715        0.33128        0.32269        0.38480        0.50278        0.53300        0.48294        0.65557        0.52850        0.50898        0.55757        0.54141        0.51521        0.46766        0.39034        0.34652        0.23384        0.18918        0.13938        0.14517        0.11593        0.06111        0.09430        0.14920        0.16806        0.16482        0.21893        0.25870        0.33497        0.45227        0.43143        0.43991        0.49497        0.54824        0.53785        0.49132        0.37876        0.40390        0.35990        0.28376        0.22868        0.21648        0.17446        0.17770        0.17506        0.17367        0.14847        0.20443        0.25479        0.33728        0.37809        0.39812        0.46005        0.48235        0.43660        0.43893        0.40271        0.40501        0.40104        0.33918        0.27843        0.27120        0.21464        0.23486        0.22142        0.19164        0.22104        0.23061        0.25107        0.31887        0.35749        0.37301        0.38282        0.39321        0.42437        0.41846        0.41245        0.30649        0.29560        0.26848        0.28480        0.24170        0.20029        0.25256        0.29983        0.28895        0.28216        0.32654        0.29504        0.37948        0.33859        0.34723        0.35857        0.35429        0.31744        0.30539        0.27824        0.28259        0.25511        0.24237        0.25268        0.27440        0.28793        0.30860        0.34097        0.35892        0.32440        0.31635        0.34606        0.31056        0.26436        0.27948        0.26933        0.25881        0.26707        0.29347        0.27610        0.26773        0.30105        0.30256        0.31401        0.32096        0.32876        0.27177        0.27561        0.29296        0.27746        0.25880        0.25006        0.22761        0.24427        0.25488        0.25779        0.27620        0.27311        0.31224        0.33433        0.30522        0.30796        0.23331        0.23614        0.26275        0.23248        0.21278        0.25298        0.30238        0.24580        0.29304        0.29484        0.29350        0.30849        0.26001        0.27734        0.28640        0.28093        0.25812        0.22852        0.23307        0.24812        0.28932        0.28732        0.30784        0.29443        0.31880        0.26925        0.30283        0.27985        0.21578        0.29341        0.27426        0.27765        0.28418        0.31182        0.29961        0.33863        0.28380        0.24347        0.24525        0.23453        0.25137        0.29111        0.29521        0.25941        0.28133        0.26451        0.27958        0.26639        0.27045        0.23302        0.27461        0.25806        0.24463        0.24919        0.29547        0.30020        0.26406        0.26605        0.22752        0.27739        0.22372        0.19823        0.22004        0.26347        0.27071        0.31424        0.24293        0.22810        0.25995        0.22967        0.21945        0.19032        0.21300        0.20370        0.26144        0.26422        0.19342        0.26046        0.23924        0.29491        0.23753        0.20376        0.22929        0.21013        0.13323        0.18863        0.13049        0.16385        0.18061        0.09440        0.28145        0.10391        0.06699        0.13518        0.12556        0.19788        0.20044       -0.02829       -0.66836       -1.02426
2.881826 2.853608 2.825534 2.797603 2.769816 2.742172 2.714671 2.687314 2.660100 2.633029 2.606101 2.579317 2.552677 2.526179 2.499825 2.473615 2.447547 2.421624 2.395843 2.370206 2.344712 2.319361 2.294154 2.269090 2.244170 2.219393 2.194759 2.170268 2.145921 2.121717 2.097657 2.073740 2.049966 2.026336 2.002849 1.979505 1.956305 1.933248 1.910334 1.887564 1.864937 1.842453 1.820113 1.797916 1.775863 1.753952 1.732186 1.710562 1.689082 1.667745 1.646552 1.979122 2.306242 1.695586 1.659878 1.348755 0.845421 1.201135 1.067848 1.100045 0.977002 1.557916 1.491660 1.494090 1.237771 0.915396 0.764071 0.996881 0.725724 0.422349 0.559648 0.649777 0.388556 0.454596 0.281805 0.248698 0.162100 0.157793 -0.091265 -0.035376 0.048315 0.042461 0.009887 0.116108 -0.054664 -0.000397 0.119518 0.201328 0.246740 0.312087 0.344628 0.612100 0.510453 0.667077 0.888606 0.932537 0.898303 1.163581 1.151847 1.232369 1.320001 1.194593 1.408447 1.184892 1.171089 1.331218 1.130698 1.065151 1.183657 0.916229 0.682077 0.691384 0.736578 0.436045 0.380797 0.246206 0.205408 0.157540 0.009416 0.131799 0.022902 -0.071203 0.081125 0.204840 0.330678 0.493935 0.510424 0.516459 0.717320 0.798286 0.604338 0.978156 0.840548 0.655640 0.773828 0.703637 0.721717 0.703071 0.450710 0.480828 0.251155 0.196482 0.118110 -0.003973 0.057006 -0.082283 -0.048328 -0.023822 0.100950 -0.042616 0.210395 0.144086 0.200135 0.403982 0.472831 0.421978 0.391253 0.599898 0.625007 0.498134 0.345350 0.342938 0.321905 0.177824 0.086300 0.036050 0.014359 -0.027282 -0.040897 -0.032309 -0.117971 0.000239 0.010808 0.130045 0.243884 0.232929 0.366026 0.353647 0.394276 0.347205 0.428030 0.360967 0.268268 0.332862 0.125991 0.183920 0.039537 0.081577 0.024232 0.037114 -0.054473 0.049290 0.050970 0.114079 0.226821 0.244483 0.238967 0.270938 0.312638 0.308092 0.322001 0.195429 0.094018 0.127741 0.056898 0.068724 -0.032420 -0.032505 0.072113 0.087604 0.087166 0.087958 0.102595 0.178698 0.204847 0.172349 0.168135 0.201782 0.142559 0.119557 0.073453 0.060915 0.079945 -0.034621 0.031399 0.056657 0.018482 0.106616 0.111009 0.183257 0.186584 0.140006 0.117355 0.180090 0.075891 0.041211 0.080093 0.027325 0.018214 0.069311 0.077697 0.054531 0.031146 0.118910 0.092134 0.110595 0.146295 0.105106 0.072525 0.032928 0.083398 0.046902 0.032786 -0.014859 -0.034555 0.011889 -0.000216 0.021144 0.074815 0.007958 0.091447 0.148659 0.041090 0.077018 -0.049964 -0.001354 -0.000960 -0.051714 -0.072869 0.042707 0.059684 -0.045635 0.069160 0.047168 0.075281 0.050271 -0.010255 0.006505 0.098531 -0.031828 0.014102 -0.049444 -0.029642 -0.038644 0.061438 0.041031 0.062600 0.005367 0.108072 -0.018635 0.060248 -0.035721 -0.076844 0.042289 -0.019434 0.019477 -0.019771 0.119411 0.034209 0.061637 0.016046 -0.113459 -0.015999 -0.089638 -0.003926 0.027889 0.015232 -0.027163 -0.011503 -0.028822 -0.019586 -0.032103 -0.021913 -0.106954 -0.015214 -0.040733 -0.059059 -0.024077 0.019431 0.006602 -0.018722 0.013895 -0.044837 0.034905 -0.054866 -0.095258 -0.055497 0.028311 0.066786 0.108272 -0.011008 -0.000206 0.073371 -0.019471 -0.079395 -0.003481 -0.070382 0.007204 0.087660 0.087835 -0.029019 0.111598 0.055830 0.187661 0.067172 0.065424 0.107012 0.075258 -0.111533 0.079229 -0.105627 0.121003 0.043272 -0.017486 0.436906 0.099306 0.105357 0.261487 0.178797 0.286178 0.295492 -0.033928 -1.577629
0.072396 0.072835 0.074150 0.076343 0.079412 0.083356 0.088176 0.093868 0.100433 0.107868 0.116171 0.125338 0.135365 0.146249 0.157984 0.170563 0.183979 0.198223 0.213285 0.229152 0.245811 0.263246 0.281440 0.300372 0.320020 0.340358 0.361359 0.382990 0.405218 0.428003 0.451305 0.475076 0.499269 0.523827 0.548693 0.573804 0.599090 0.624480 0.649895 0.675252 0.700463 0.725434 0.750067 0.774258 0.797897 0.820872 0.843062 0.864346 0.884594 0.903676 0.921456 0.937796 0.952554 0.965587 0.976752 0.985901 0.992891 0.997578 0.999819 0.999475 0.996412 0.990501 0.981619 0.969651 0.954492 0.936048 0.914237 0.888990 0.860255 0.827996 0.792197 0.752860 0.710011 0.663698 0.613993 0.560996 0.504832 0.445656 0.383651 0.319032 0.252041 0.182954 0.112076 0.039745 0.033675 0.107788 0.182171 0.256374 0.329925 0.402328 0.473070 0.541622 0.607443 0.669986 0.728700 0.783036 0.832454 0.876428 0.914448 0.946034 0.970737 0.988146 0.997897 0.999680 0.993243 0.978401 0.955039 0.923124 0.882703 0.833912 0.776981 0.712232 0.640086 0.561062 0.475777 0.384944 0.289368 0.189945 0.087655 0.016450 0.121250 0.225569 0.328187 0.427857 0.523315 0.613300 0.696571 0.771924 0.838212 0.894365 0.939409 0.972486 0.992872 0.999996 0.993455 0.973033 0.938708 0.890669 0.829317 0.755277 0.669391 0.572721 0.466540 0.352319 0.231717 0.106554 0.021206 0.149490 0.276140 0.398956 0.515732 0.624291 0.722537 0.808493 0.880344 0.936484 0.975554 0.996480 0.998510 0.981244 0.944652 0.889101 0.815354 0.724579 0.618340 0.498574 0.367574 0.227943 0.082558 0.065494 0.212970 0.356543 0.492880 0.618716 0.730939 0.826672 0.903350 0.958799 0.991308 0.999686 0.983318 0.942201 0.876966 0.788894 0.679897 0.552497 0.409780 0.255330 0.093152 0.072433 0.236885 0.395580 0.543935 0.677547 0.792319 0.884611 0.951353 0.990163 0.999445 0.978467 0.927415 0.847420 0.740552 0.609790 0.458958 0.292621 0.115972 0.065334 0.245341 0.418001 0.577363 0.717793 0.834176 0.922121 0.978135 0.999783 0.985807 0.936219 0.852329 0.736753 0.593346 0.427100 0.243990 0.050771 0.145257 0.336517 0.515456 0.674835 0.808044 0.909378 0.974308 0.999701 0.983995 0.927312 0.831501 0.700121 0.538325 0.352697 0.150995 0.058150 0.265593 0.462075 0.638639 0.787045 0.900169 0.972373 0.999806 0.980638 0.915208 0.806065 0.657912 0.477434 0.273029 0.054445 0.167680 0.382320 0.578602 0.746376 0.876752 0.962593 0.998935 0.983312 0.915948 0.799822 0.640582 0.446305 0.227131 0.005252 0.238202 0.458810 0.654616 0.814330 0.928501 0.990106 0.995028 0.942363 0.834555 0.677346 0.479507 0.252395 0.009339 0.235134 0.466147 0.669386 0.832008 0.943463 0.996238 0.986386 0.913883 0.782716 0.600723 0.379186 0.132161 0.124376 0.373545 0.598669 0.784396 0.917795 0.989265 0.993295 0.928935 0.799967 0.614757 0.385761 0.128752 0.138248 0.396199 0.626407 0.811887 0.938651 0.996810 0.981399 0.892861 0.737135 0.525329 0.272996 0.000972 0.275712 0.529971 0.743761 0.899958 0.985712 0.993565 0.922171 0.776533 0.567735 0.312175 0.030326 0.254859 0.519796 0.742235 0.903157 0.988443 0.990181 0.907477 0.746678 0.520970 0.249380 0.044771 0.335832 0.598056 0.807875 0.946070 0.999588 0.962856 0.838435 0.636955 0.376305 0.080096 0.224390 0.508720 0.745947 0.913211 0.993991 0.979825 0.871282 0.678083 0.418341 0.116934 0.196801 0.491897 0.738823 0.912459
1.000000 1.000000 1.000000 1.000000 1.000000 1.000000 1.000000 1.000000 1.000000 1.000000 1.000000 1.000000 1.000000 1.000000 1.000000 1.000000 1.000000 1.000000 1.000000 1.000000 1.000000 1.000000 1.000000 1.000000 1.000000 1.000000 1.000000 1.000000 1.000000 1.000000 1.000000 1.000000 1.000000 1.000000 1.000000 1.000000 1.000000 1.000000 1.000000 1.000000 1.000000 1.000000 1.000000 1.000000 1.000000 1.000000 1.000000 1.000000 1.000000 1.000000 1.000000 1.000000 0.827004 0.827004 0.827004 0.827004 0.827004 0.827004 0.827004 0.802844 0.802844 0.802844 0.802844 0.802844 0.802844 0.802844 0.802844 0.802844 0.802844 0.802844 0.802844 0.802844 0.802844 0.802844 0.802844 0.802844 0.802844 0.802844 0.802844 0.802844 0.802844 0.802844 0.802844 0.802844 0.802844 0.802844 0.802844 0.802844 0.802844 0.802844 0.802844 0.802844 0.802844 0.802844 0.802844 0.802844 0.802844 0.802844 0.802844 0.802844 0.802844 0.802844 0.802844 0.948209 0.949059 0.949423 0.948470 0.946992 0.943407 0.941721 0.940906 0.943598 0.943825 0.943835 0.944807 0.945391 0.946562 0.948056 0.949961 0.949950 0.958125 0.961820 0.961172 0.960917 0.959906 0.973732 0.973267 0.973151 0.970661 0.970774 0.970742 0.970643 0.970555 0.970140 0.970071 0.970528 0.970413 0.969979 0.969297 0.967573 0.967155 0.966556 0.966896 0.967691 0.967793 0.968348 0.971014 0.970169 0.970805 0.969501 0.968689 0.964183 0.962070 0.962355 0.958924 0.958257 0.958130 0.957651 0.956567 0.956624 0.956562 0.956534 0.956373 0.956527 0.954432 0.954336 0.954229 0.954956 0.950693 0.938341 0.935892 0.933420 0.934623 0.937254 0.940107 0.940354 0.940510 0.937896 0.931435 0.926806 0.915755 0.913145 0.911386 0.914507 0.914902 0.915854 0.915887 0.916506 0.915239 0.914499 0.906438 0.909659 0.907206 0.905675 0.900888 0.900186 0.899266 0.900648 0.902920 0.900585 0.890577 0.885425 0.871816 0.848668 0.847229 0.848766 0.856838 0.853780 0.851796 0.850988 0.834414 0.830967 0.820031 0.812349 0.813905 0.814108 0.815681 0.817403 0.818559 0.800169 0.801424 0.796139 0.793865 0.802981 0.813111 0.815754 0.812832 0.804036 0.801468 0.773433 0.771705 0.774922 0.769680 0.775542 0.763232 0.763009 0.760194 0.757080 0.752552 0.747822 0.745898 0.724331 0.729665 0.735203 0.739459 0.737926 0.717896 0.709799 0.666714 0.671459 0.652413 0.662190 0.663316 0.661933 0.649999 0.653060 0.656497 0.644732 0.650364 0.642269 0.632199 0.616055 0.618010 0.626998 0.599608 0.612593 0.611981 0.598784 0.589851 0.605089 0.619103 0.621256 0.601154 0.598205 0.572350 0.524543 0.504666 0.488070 0.480077 0.475449 0.495090 0.503561 0.511101 0.491688 0.460640 0.426380 0.420665 0.424667 0.405746 0.405663 0.400269 0.381795 0.393543 0.373314 0.389079 0.374213 0.363982 0.346245 0.296186 0.275705 0.238327 0.260390 0.252972 0.238631 0.232159 0.233410 0.219467 0.165134 0.156949 0.157317 0.181233 0.156161 0.122416 0.136181 0.143633 0.139564 0.136642 0.133358 0.187637 0.170207 0.184309 0.186070 0.135887 0.108514 0.048170 0.053240 0.056281 0.088556 0.114787 0.101441 0.072644 -0.023613 0.004754 0.041099 0.041099 0.041099 0.041099 0.041099 0.041099 0.041099 0.041099 0.041099 0.041099 0.041099 -0.035872 -0.035872 -0.035872 -0.035872 -0.035872 -0.035872 -0.035872 -0.035872 -0.035872 -0.035872 -0.035872 -0.035872 -0.035872 -0.035872 -0.035872 -0.035872 -0.035872 -0.035872 -0.035872
0.000000 0.000000 0.000000 0.000000 0.000000 0.000000 0.000000 0.000000 0.000000 0.000000 0.000000 0.000000 0.000000 0.000000 0.000000 0.000000 0.000000 0.000000 0.000000 0.000000 0.000000 0.000000 0.000000 0.000000 0.000000 0.000000 0.000000 0.000000 0.000000 0.000000 0.000000 0.000000 0.000000 0.000000 0.000000 0.000000 0.000000 0.000000 0.000000 0.000000 0.000000 0.000000 0.000000 0.000000 0.000000 0.000000 0.000000 0.000000 0.000000 0.000000 0.000000 0.000000 0.173422 0.173422 0.173422 0.173422 0.173422 0.173422 0.173422 0.191565 0.191565 0.191565 0.191565 0.191565 0.191565 0.191565 0.191565 0.191565 0.191565 0.191565 0.191565 0.191565 0.191565 0.191565 0.191565 0.191565 0.191565 0.191565 0.191565 0.191565 0.191565 0.191565 0.191565 0.191565 0.191565 0.191565 0.191565 0.191565 0.191565 0.191565 0.191565 0.191565 0.191565 0.191565 0.191565 0.191565 0.191565 0.191565 0.191565 0.191565 0.191565 0.191565 0.191565 0.219529 0.219529 0.219529 0.219529 0.219529 0.219529 0.219529 0.219529 0.219529 0.219529 0.219529 0.219529 0.219529 0.219529 0.219529 0.219529 0.219529 0.219529 0.219529 0.219529 0.219529 0.219529 0.219529 0.219529 0.219529 0.219529 0.219529 0.219529 0.219529 0.219529 0.219529 0.237356 0.237356 0.237356 0.237356 0.237356 0.237356 0.237356 0.237356 0.237356 0.237356 0.237356 0.237356 0.237356 0.237356 0.237356 0.237356 0.237356 0.237356 0.237356 0.237356 0.237356 0.237356 0.237356 0.237356 0.244339 0.244339 0.244339 0.244339 0.244339 0.244339 0.244339 0.244339 0.244339 0.244339 0.244339 0.244339 0.244339 0.244339 0.244339 0.244339 0.244339 0.244339 0.244339 0.244339 0.244339 0.248069 0.248069 0.248069 0.248069 0.248069 0.248069 0.248069 0.248069 0.248069 0.248069 0.248069 0.248069 0.248069 0.248069 0.248069 0.248069 0.248069 0.248069 0.248069 0.248069 0.248069 0.248069 0.248069 0.248069 0.248069 0.248069 0.248069 0.248069 0.248069 0.248069 0.248069 0.248069 0.248069 0.248069 0.248069 0.248069 0.248069 0.256074 0.256074 0.256074 0.256074 0.256074 0.256074 0.256074 0.256074 0.256074 0.256074 0.256074 0.256074 0.256074 0.256074 0.256074 0.256074 0.256074 0.256074 0.256074 0.256074 0.256074 0.256074 0.256074 0.256074 0.256074 0.256074 0.256074 0.256074 0.256074 0.256074 0.256074 0.256074 0.256074 0.256074 0.256074 0.256074 0.256074 0.256074 0.256074 0.256074 0.256074 0.256074 0.256074 0.256074 0.256074 0.260378 0.260378 0.260378 0.260378 0.260378 0.260378 0.260378 0.260378 0.260378 0.260378 0.260378 0.260378 0.260378 0.256074 0.256074 0.256074 0.256074 0.256074 0.256074 0.256074 0.256074 0.256074 0.256074 0.256074 0.256074 0.256074 0.260378 0.260378 0.260378 0.260378 0.260378 0.260378 0.260378 0.260378 0.260378 0.260378 0.260378 0.260378 0.251976 0.251976 0.251976 0.251976 0.251976 0.251976 0.251976 0.251976 0.251976 0.251976 0.251976 0.251976 0.256074 0.256074 0.256074 0.256074 0.256074 0.256074 0.256074 0.256074 0.256074 0.256074 0.256074 0.251976 0.251976 0.251976 0.251976 0.251976 0.251976 0.251976 0.251976 0.251976 0.251976 0.251976 0.248069 0.248069 0.248069 0.248069 0.248069 0.248069 0.248069 0.248069 0.248069 0.248069 0.248069 0.256074 0.256074 0.256074 0.256074 0.256074 0.256074 0.256074 0.256074 0.256074 0.256074 0.256074 0.256074 0.256074 0.256074 0.256074 0.256074 0.256074 0.256074 0.256074
