# Output from CTFFind version 4.1.9, run on 2019-11-03 20:08:03
# Input file: stack11_bm3d_averaged_1_7.5_0_1500_half.mrc ; Number of micrographs: 1
# Pixel size: 3.000 Angstroms ; acceleration voltage: 300.0 keV ; spherical aberration: 0.00 mm ; amplitude contrast: 0.07
# Box size: 512 pixels ; min. res.: 30.0 Angstroms ; max. res.: 5.0 Angstroms ; min. def.: 5000.0 um; max. def. 50000.0 um; num. frames averaged: 1
# 6 lines per micrograph: #1 - spatial frequency (1/Angstroms); #2 - 1D rotational average of spectrum (assuming no astigmatism); #3 - 1D rotational average of spectrum; #4 - CTF fit; #5 - cross-correlation between spectrum and CTF fit; #6 - 2sigma of expected cross correlation of noise
0.000000 0.000651 0.001302 0.001953 0.002604 0.003255 0.003906 0.004557 0.005208 0.005859 0.006510 0.007161 0.007812 0.008464 0.009115 0.009766 0.010417 0.011068 0.011719 0.012370 0.013021 0.013672 0.014323 0.014974 0.015625 0.016276 0.016927 0.017578 0.018229 0.018880 0.019531 0.020182 0.020833 0.021484 0.022135 0.022786 0.023438 0.024089 0.024740 0.025391 0.026042 0.026693 0.027344 0.027995 0.028646 0.029297 0.029948 0.030599 0.031250 0.031901 0.032552 0.033203 0.033854 0.034505 0.035156 0.035807 0.036458 0.037109 0.037760 0.038411 0.039062 0.039714 0.040365 0.041016 0.041667 0.042318 0.042969 0.043620 0.044271 0.044922 0.045573 0.046224 0.046875 0.047526 0.048177 0.048828 0.049479 0.050130 0.050781 0.051432 0.052083 0.052734 0.053385 0.054036 0.054688 0.055339 0.055990 0.056641 0.057292 0.057943 0.058594 0.059245 0.059896 0.060547 0.061198 0.061849 0.062500 0.063151 0.063802 0.064453 0.065104 0.065755 0.066406 0.067057 0.067708 0.068359 0.069010 0.069661 0.070312 0.070964 0.071615 0.072266 0.072917 0.073568 0.074219 0.074870 0.075521 0.076172 0.076823 0.077474 0.078125 0.078776 0.079427 0.080078 0.080729 0.081380 0.082031 0.082682 0.083333 0.083984 0.084635 0.085286 0.085938 0.086589 0.087240 0.087891 0.088542 0.089193 0.089844 0.090495 0.091146 0.091797 0.092448 0.093099 0.093750 0.094401 0.095052 0.095703 0.096354 0.097005 0.097656 0.098307 0.098958 0.099609 0.100260 0.100911 0.101562 0.102214 0.102865 0.103516 0.104167 0.104818 0.105469 0.106120 0.106771 0.107422 0.108073 0.108724 0.109375 0.110026 0.110677 0.111328 0.111979 0.112630 0.113281 0.113932 0.114583 0.115234 0.115885 0.116536 0.117188 0.117839 0.118490 0.119141 0.119792 0.120443 0.121094 0.121745 0.122396 0.123047 0.123698 0.124349 0.125000 0.125651 0.126302 0.126953 0.127604 0.128255 0.128906 0.129557 0.130208 0.130859 0.131510 0.132161 0.132812 0.133464 0.134115 0.134766 0.135417 0.136068 0.136719 0.137370 0.138021 0.138672 0.139323 0.139974 0.140625 0.141276 0.141927 0.142578 0.143229 0.143880 0.144531 0.145182 0.145833 0.146484 0.147135 0.147786 0.148438 0.149089 0.149740 0.150391 0.151042 0.151693 0.152344 0.152995 0.153646 0.154297 0.154948 0.155599 0.156250 0.156901 0.157552 0.158203 0.158854 0.159505 0.160156 0.160807 0.161458 0.162109 0.162760 0.163411 0.164062 0.164714 0.165365 0.166016 0.166667 0.167318 0.167969 0.168620 0.169271 0.169922 0.170573 0.171224 0.171875 0.172526 0.173177 0.173828 0.174479 0.175130 0.175781 0.176432 0.177083 0.177734 0.178385 0.179036 0.179688 0.180339 0.180990 0.181641 0.182292 0.182943 0.183594 0.184245 0.184896 0.185547 0.186198 0.186849 0.187500 0.188151 0.188802 0.189453 0.190104 0.190755 0.191406 0.192057 0.192708 0.193359 0.194010 0.194661 0.195312 0.195964 0.196615 0.197266 0.197917 0.198568 0.199219 0.199870 0.200521 0.201172 0.201823 0.202474 0.203125 0.203776 0.204427 0.205078 0.205729 0.206380 0.207031 0.207682 0.208333 0.208984 0.209635 0.210286 0.210938 0.211589 0.212240 0.212891 0.213542 0.214193 0.214844 0.215495 0.216146 0.216797 0.217448 0.218099 0.218750 0.219401 0.220052 0.220703 0.221354 0.222005 0.222656 0.223307 0.223958 0.224609 0.225260 0.225911 0.226562 0.227214 0.227865 0.228516 0.229167 0.229818 0.230469 0.231120 0.231771 0.232422 0.233073 0.233724 0.234375 0.235026 0.235677
       0.34621        0.34621        0.34621        0.34621        0.34621        0.34621        0.34621        0.34621        0.34621        0.34621        0.34621        0.34621        0.34621        0.34621        0.34621        0.34621        0.34621        0.34621        0.34621        0.34621        0.34621        0.34621        0.34621        0.34621        0.34621        0.34621        0.34621        0.34621        0.34621        0.34621        0.34621        0.34621        0.34621        0.34621        0.34621        0.34621        0.34621        0.34621        0.34621        0.34621        0.34621        0.34621        0.34621        0.34621        0.34621        0.34621        0.34621        0.34621        0.34621        0.34621        0.34621        0.69965        0.85729        0.53868        0.10550       -0.02876       -0.38347       -0.17936       -0.28825       -0.11679       -0.05465       -0.11310       -0.05326       -0.16461       -0.20464       -0.21236       -0.30591       -0.31724       -0.44220       -0.36138       -0.42415       -0.41944       -0.39186       -0.40349       -0.44330       -0.50473       -0.55718       -0.54663       -0.52053       -0.35434       -0.32304       -0.28864       -0.26870       -0.18462       -0.16805        0.06287        0.14448        0.17818        0.26816        0.38157        0.45821        0.52362        0.60264        0.59979        0.58571        0.70122        0.80244        0.70202        0.74496        0.61825        0.56861        0.48399        0.43401        0.51286        0.39903        0.27513        0.11872        0.11647        0.09730       -0.01038        0.04904        0.05543        0.01516        0.02898        0.03410        0.23673        0.27224        0.29692        0.43630        0.45426        0.41549        0.60251        0.61712        0.63266        0.72279        0.67512        0.64743        0.65470        0.55991        0.45969        0.41928        0.30523        0.27364        0.18730        0.13804        0.05277        0.06908        0.08004        0.10179        0.16301        0.24821        0.30161        0.42604        0.46651        0.48163        0.56252        0.60117        0.63656        0.61384        0.55719        0.46344        0.47373        0.37898        0.28016        0.21411        0.15644        0.17507        0.15499        0.16523        0.19523        0.32630        0.34111        0.41085        0.44910        0.42508        0.47887        0.56412        0.55655        0.50504        0.45791        0.41538        0.37596        0.34474        0.31248        0.26839        0.24843        0.25917        0.25903        0.22793        0.31221        0.36644        0.38499        0.43953        0.45623        0.46722        0.42927        0.41454        0.40268        0.36448        0.34178        0.27586        0.28476        0.27103        0.25074        0.29873        0.29627        0.35442        0.38540        0.43824        0.47686        0.40661        0.42254        0.43294        0.41316        0.35191        0.33132        0.29323        0.32916        0.27830        0.32636        0.31799        0.33610        0.34416        0.36681        0.31245        0.38740        0.41185        0.38175        0.35362        0.36997        0.32085        0.29726        0.31052        0.32023        0.30916        0.32147        0.34792        0.36035        0.34209        0.36408        0.36266        0.42688        0.39292        0.34193        0.35110        0.30122        0.29676        0.32827        0.32152        0.33209        0.34533        0.34597        0.38995        0.33198        0.33098        0.33985        0.35184        0.30565        0.31370        0.28407        0.30386        0.33387        0.30467        0.33422        0.36114        0.37432        0.30143        0.34680        0.30153        0.29194        0.28026        0.24858        0.31044        0.30970        0.34371        0.34098        0.34746        0.32949        0.35067        0.31699        0.34683        0.30537        0.32821        0.29602        0.33908        0.33535        0.37701        0.33459        0.33787        0.33705        0.29404        0.27788        0.31499        0.25284        0.23177        0.34128        0.32517        0.36990        0.34849        0.36552        0.33857        0.33451        0.35425        0.26796        0.27316        0.32138        0.30216        0.31185        0.31326        0.33984        0.32927        0.28896        0.29283        0.34662        0.32361        0.32539        0.30317        0.32148        0.33738        0.39170        0.36647        0.32291        0.28470        0.30385        0.29115        0.31130        0.28190        0.27467        0.31316        0.32915        0.34697        0.35726        0.33444        0.29853        0.30252        0.27314        0.28132        0.25830        0.30624        0.25921        0.25169        0.28611        0.28115        0.26252        0.29333        0.22231        0.21883        0.23690        0.19535        0.27675        0.35133        0.25507        0.24899        0.32035        0.29996        0.30700        0.31471        0.27704        0.25465        0.19693        0.21152        0.21353        0.29194        0.23763        0.28591        0.36831        0.37825        0.26103        0.18893        0.14159       -0.01817       -0.14335       -0.62758
2.730579 2.701590 2.672759 2.644086 2.615570 2.587213 2.559013 2.530971 2.503087 2.475361 2.447793 2.420383 2.393130 2.366036 2.339099 2.312320 2.285699 2.259236 2.232931 2.206784 2.180794 2.154963 2.129289 2.103773 2.078415 2.053215 2.028173 2.003289 1.978563 1.953994 1.929583 1.905331 1.881236 1.857299 1.833520 1.809898 1.786435 1.763129 1.739982 1.716992 1.694160 1.671486 1.648970 1.626612 1.604412 1.582369 1.560485 1.538758 1.517189 1.495778 1.474525 1.686513 2.101341 1.668916 1.159705 1.025961 0.443368 0.827439 0.545076 0.821509 0.794674 0.796198 0.736362 0.737162 0.581342 0.546267 0.488094 0.414877 0.243036 0.352808 0.192826 0.321220 0.211495 0.205887 0.181085 0.040741 -0.000476 0.018258 -0.068517 0.129570 0.227233 0.183687 0.175362 0.314408 0.178491 0.508949 0.609580 0.620739 0.637097 0.854480 0.814870 0.920029 0.918970 1.012242 0.983998 1.063010 1.142665 1.017592 1.139529 0.886860 0.906263 0.777065 0.638081 0.790213 0.676948 0.486974 0.325670 0.245323 0.264499 0.145772 0.136379 0.162979 0.107172 0.114230 0.082049 0.240892 0.339766 0.331962 0.465145 0.530658 0.405521 0.580417 0.714230 0.624545 0.700479 0.691193 0.700729 0.627742 0.580220 0.474904 0.356185 0.270253 0.213904 0.091508 0.113108 -0.116832 -0.048093 -0.061565 -0.083092 -0.016568 0.124877 0.070560 0.237554 0.299713 0.327725 0.360729 0.481031 0.451189 0.465616 0.475782 0.296355 0.285112 0.278740 0.083650 0.044802 -0.081458 -0.016464 -0.061666 -0.095049 -0.065620 0.039926 0.092996 0.124159 0.221630 0.215828 0.211959 0.306006 0.332224 0.435252 0.248645 0.225692 0.221981 0.139649 0.142338 0.117262 -0.004462 0.014131 0.077184 -0.011047 0.042819 0.130144 0.131493 0.206134 0.226700 0.247896 0.158513 0.205938 0.125694 0.119456 0.113593 0.024839 -0.025713 -0.001630 -0.019897 -0.049914 0.054573 0.003289 0.104038 0.134480 0.189980 0.157165 0.111935 0.135629 0.153847 0.106194 0.033590 -0.025872 0.025377 0.029556 -0.044428 0.038523 0.018461 0.046744 0.038434 0.053173 0.018318 0.127829 0.112330 0.044284 0.034919 0.039852 0.004035 -0.029829 0.007462 0.002084 -0.005588 0.001310 0.057886 0.052089 0.036761 0.069485 0.060449 0.162598 0.062923 0.041901 0.043153 -0.033936 0.012946 0.047277 0.008241 0.031935 0.055533 0.076696 0.057791 0.041318 0.008222 0.078655 0.029257 0.019942 0.025371 -0.004633 0.031213 0.027511 0.020745 0.069277 0.074529 0.079785 0.042234 0.054050 0.021181 0.017730 -0.026539 -0.023100 0.037974 0.051780 0.078552 0.078850 0.065443 0.069084 0.094390 0.041505 0.085725 0.053265 0.045189 0.017985 0.102411 0.063212 0.124745 0.061107 0.068951 0.089906 0.027150 0.002483 0.083034 -0.038669 -0.029992 0.087210 0.041490 0.154069 0.087367 0.085416 0.063204 0.025688 0.086470 -0.028083 -0.023713 0.043305 0.028599 0.028344 0.011844 0.097567 0.025706 -0.014971 0.046956 0.036697 0.051301 0.053704 -0.007394 0.051087 0.044768 0.110202 0.059724 0.027997 -0.029511 -0.031275 -0.004193 0.011016 -0.055706 -0.019203 -0.000717 0.006248 0.041923 0.060272 0.005629 -0.029855 -0.027283 -0.017638 -0.062420 -0.043140 -0.037168 -0.127613 -0.092088 -0.064233 -0.098369 -0.105841 -0.030309 -0.149999 -0.100207 -0.115918 -0.194034 -0.069571 0.058980 -0.075939 -0.129061 0.049451 0.020378 -0.031621 0.067499 -0.023451 -0.004604 -0.078600 -0.042028 0.050688 0.134542 0.050516 0.135761 0.162601 0.473386 0.208385 0.326297 0.177998 -0.023278 -0.683849
0.072396 0.072899 0.074408 0.076923 0.080443 0.084967 0.090494 0.097023 0.104550 0.113074 0.122591 0.133097 0.144586 0.157052 0.170487 0.184882 0.200226 0.216505 0.233706 0.251811 0.270799 0.290648 0.311331 0.332819 0.355079 0.378074 0.401762 0.426096 0.451027 0.476498 0.502447 0.528808 0.555508 0.582467 0.609600 0.636815 0.664013 0.691089 0.717931 0.744419 0.770429 0.795826 0.820472 0.844221 0.866922 0.888418 0.908545 0.927137 0.944022 0.959026 0.971973 0.982683 0.990980 0.996684 0.999622 0.999622 0.996517 0.990148 0.980365 0.967027 0.950008 0.929195 0.904492 0.875822 0.843129 0.806381 0.765572 0.720722 0.671883 0.619138 0.562603 0.502432 0.438815 0.371979 0.302193 0.229764 0.155042 0.078415 0.000312 0.078799 0.158411 0.237985 0.316948 0.394696 0.470602 0.544018 0.614279 0.680712 0.742642 0.799394 0.850311 0.894751 0.932104 0.961798 0.983307 0.996162 0.999962 0.994382 0.979181 0.954213 0.919435 0.874912 0.820828 0.757487 0.685320 0.604886 0.516871 0.422093 0.321492 0.216130 0.107177 0.004091 0.116311 0.228042 0.337789 0.444017 0.545173 0.639711 0.726117 0.802935 0.868791 0.922427 0.962722 0.988722 0.999669 0.995018 0.974466 0.937965 0.885742 0.818306 0.736455 0.641279 0.534153 0.416722 0.290892 0.158798 0.022777 0.114672 0.250927 0.383292 0.509056 0.625543 0.730173 0.820526 0.894404 0.949886 0.985391 0.999727 0.992142 0.962355 0.910594 0.837610 0.744681 0.633611 0.506706 0.366735 0.216888 0.060708 0.097985 0.255186 0.406798 0.548744 0.677078 0.788101 0.878474 0.945332 0.986381 0.999996 0.985293 0.942185 0.871424 0.774608 0.654168 0.513331 0.356045 0.186888 0.010946 0.166333 0.339302 0.502294 0.649808 0.776708 0.878409 0.951055 0.991685 0.998371 0.970327 0.907979 0.812997 0.688284 0.537904 0.366989 0.181568 0.011616 0.205350 0.392213 0.564857 0.716305 0.840245 0.931307 0.985321 0.999528 0.972748 0.905484 0.799958 0.660077 0.491324 0.300569 0.095812 0.114130 0.319996 0.512490 0.682697 0.822515 0.925064 0.985038 0.999023 0.965717 0.886059 0.763262 0.602724 0.411835 0.199662 0.023446 0.246357 0.457692 0.646423 0.802446 0.917158 0.983952 0.998641 0.959756 0.868710 0.729808 0.550099 0.339057 0.108127 0.129879 0.361467 0.573231 0.752635 0.888779 0.973095 0.999926 0.966955 0.875441 0.730246 0.539640 0.314876 0.069580 0.181059 0.421204 0.635371 0.809451 0.931659 0.993383 0.989842 0.920509 0.789266 0.604256 0.377453 0.123930 0.139103 0.393441 0.621139 0.805800 0.933792 0.995292 0.985111 0.903192 0.754751 0.550021 0.303625 0.033586 0.239957 0.496222 0.715381 0.880116 0.977031 0.997809 0.939997 0.807349 0.609686 0.362243 0.084572 0.200959 0.470938 0.702837 0.876919 0.977960 0.996663 0.930591 0.784539 0.570302 0.305806 0.013688 0.280600 0.550976 0.773062 0.926419 0.996485 0.976054 0.866106 0.675904 0.422332 0.128474 0.178403 0.469361 0.716505 0.895697 0.988984 0.986473 0.887496 0.700876 0.444274 0.142600 0.174297 0.474575 0.727576 0.906994 0.993691 0.977835 0.860130 0.651973 0.374473 0.056436 0.268565 0.565698 0.802617 0.953023 0.999696 0.936568 0.769645 0.516582 0.204950 0.130660 0.452435 0.723570 0.912534 0.996812 0.965714 0.821866 0.581170 0.271206 0.071820 0.407231 0.694675 0.899018 0.994730 0.969193 0.824520 0.577581 0.258204 0.094303 0.435920 0.723382 0.919703 0.999040 0.950232 0.778527 0.505226 0.165205 0.197414
1.000000 1.000000 1.000000 1.000000 1.000000 1.000000 1.000000 1.000000 1.000000 1.000000 1.000000 1.000000 1.000000 1.000000 1.000000 1.000000 1.000000 1.000000 1.000000 1.000000 1.000000 1.000000 1.000000 1.000000 1.000000 1.000000 1.000000 1.000000 1.000000 1.000000 1.000000 1.000000 1.000000 1.000000 1.000000 1.000000 1.000000 1.000000 1.000000 1.000000 1.000000 1.000000 1.000000 1.000000 1.000000 1.000000 1.000000 1.000000 1.000000 1.000000 1.000000 1.000000 0.914196 0.914196 0.914196 0.911298 0.911298 0.911298 0.911298 0.911298 0.911298 0.911298 0.911298 0.911298 0.911298 0.911298 0.911298 0.911298 0.911298 0.911298 0.911298 0.911298 0.911298 0.911298 0.911298 0.911298 0.911298 0.911298 0.911298 0.911298 0.911298 0.911298 0.911298 0.911298 0.911298 0.911298 0.911298 0.911298 0.911298 0.911298 0.911298 0.911298 0.911298 0.911298 0.911298 0.911298 0.939728 0.941156 0.949512 0.949035 0.948492 0.946515 0.945249 0.945039 0.944953 0.945307 0.946043 0.947038 0.953254 0.954190 0.958596 0.961318 0.961290 0.963034 0.965008 0.964651 0.956368 0.956121 0.954682 0.953960 0.956074 0.954720 0.953495 0.953971 0.951622 0.955967 0.955536 0.954330 0.952693 0.951102 0.947514 0.947011 0.946046 0.946870 0.946965 0.948576 0.951629 0.951804 0.951551 0.948817 0.948417 0.949627 0.949182 0.950981 0.938810 0.938056 0.936490 0.936434 0.938933 0.938810 0.938695 0.939609 0.939307 0.939227 0.939379 0.933626 0.933319 0.926275 0.922415 0.921165 0.915594 0.911583 0.914301 0.917039 0.918244 0.918641 0.909165 0.906250 0.907233 0.905984 0.907450 0.907060 0.908233 0.908641 0.908559 0.903487 0.894097 0.892536 0.883616 0.886376 0.882587 0.879897 0.877047 0.868537 0.860149 0.871954 0.858967 0.817734 0.821332 0.825941 0.818718 0.815130 0.819510 0.821049 0.825866 0.819784 0.818619 0.812507 0.799018 0.795246 0.788593 0.774065 0.770288 0.760922 0.750629 0.744538 0.767853 0.761567 0.773337 0.777615 0.777211 0.773402 0.763733 0.752388 0.752567 0.751497 0.747422 0.723606 0.715075 0.715110 0.712838 0.699747 0.702649 0.691214 0.691458 0.678604 0.683669 0.689573 0.693009 0.688477 0.682468 0.674248 0.669419 0.683329 0.696648 0.688765 0.685325 0.694236 0.685101 0.679560 0.670929 0.674582 0.666113 0.661516 0.663032 0.696324 0.669843 0.659616 0.665882 0.666303 0.663871 0.663822 0.642737 0.637131 0.613734 0.631175 0.635908 0.651571 0.653790 0.657194 0.667926 0.673830 0.684486 0.689207 0.687130 0.646544 0.651017 0.668404 0.676362 0.666103 0.656349 0.650646 0.640881 0.677753 0.662246 0.620652 0.616445 0.617090 0.571372 0.550343 0.548641 0.549953 0.577287 0.575177 0.558626 0.532619 0.534495 0.534707 0.530719 0.529863 0.509306 0.519517 0.503134 0.480270 0.493186 0.501652 0.500358 0.484441 0.478235 0.492024 0.472546 0.496525 0.474817 0.457881 0.474032 0.473225 0.461072 0.389690 0.396334 0.387283 0.372118 0.329362 0.338639 0.348709 0.328307 0.252057 0.246500 0.247301 0.243603 0.221769 0.195995 0.182685 0.172956 0.150339 0.091609 0.042244 0.045171 0.049152 0.075568 0.037616 0.091377 0.161170 0.157742 0.157742 0.157742 0.157742 0.157742 0.157742 0.157742 0.157742 0.134329 0.134329 0.134329 0.134329 0.134329 0.134329 0.134329 0.134329 0.134329 0.157742 0.157742 0.157742 0.157742 0.157742 0.157742 0.157742 0.157742 0.157742 0.157742 0.157742 0.157742 0.157742 0.157742
0.000000 0.000000 0.000000 0.000000 0.000000 0.000000 0.000000 0.000000 0.000000 0.000000 0.000000 0.000000 0.000000 0.000000 0.000000 0.000000 0.000000 0.000000 0.000000 0.000000 0.000000 0.000000 0.000000 0.000000 0.000000 0.000000 0.000000 0.000000 0.000000 0.000000 0.000000 0.000000 0.000000 0.000000 0.000000 0.000000 0.000000 0.000000 0.000000 0.000000 0.000000 0.000000 0.000000 0.000000 0.000000 0.000000 0.000000 0.000000 0.000000 0.000000 0.000000 0.000000 0.180334 0.180334 0.180334 0.199007 0.199007 0.199007 0.199007 0.199007 0.199007 0.199007 0.199007 0.199007 0.199007 0.199007 0.199007 0.199007 0.199007 0.199007 0.199007 0.199007 0.199007 0.199007 0.199007 0.199007 0.199007 0.199007 0.199007 0.199007 0.199007 0.199007 0.199007 0.199007 0.199007 0.199007 0.199007 0.199007 0.199007 0.199007 0.199007 0.199007 0.199007 0.199007 0.199007 0.199007 0.225018 0.225018 0.225018 0.225018 0.225018 0.225018 0.225018 0.225018 0.225018 0.225018 0.225018 0.225018 0.225018 0.225018 0.225018 0.225018 0.225018 0.225018 0.225018 0.225018 0.225018 0.225018 0.225018 0.225018 0.225018 0.225018 0.225018 0.225018 0.225018 0.244339 0.244339 0.244339 0.244339 0.244339 0.244339 0.244339 0.244339 0.244339 0.244339 0.244339 0.244339 0.244339 0.244339 0.244339 0.244339 0.244339 0.244339 0.244339 0.244339 0.244339 0.244339 0.244339 0.256074 0.256074 0.256074 0.256074 0.256074 0.256074 0.256074 0.256074 0.256074 0.256074 0.256074 0.256074 0.256074 0.256074 0.256074 0.256074 0.256074 0.256074 0.256074 0.256074 0.256074 0.256074 0.256074 0.256074 0.256074 0.256074 0.256074 0.256074 0.256074 0.256074 0.256074 0.256074 0.256074 0.256074 0.256074 0.256074 0.256074 0.264906 0.264906 0.264906 0.264906 0.264906 0.264906 0.264906 0.264906 0.264906 0.264906 0.264906 0.264906 0.264906 0.264906 0.264906 0.264906 0.264906 0.264906 0.264906 0.264906 0.264906 0.264906 0.264906 0.264906 0.264906 0.264906 0.264906 0.264906 0.264906 0.264906 0.264906 0.264906 0.264906 0.264906 0.264906 0.264906 0.264906 0.264906 0.264906 0.264906 0.264906 0.264906 0.264906 0.264906 0.264906 0.264906 0.264906 0.264906 0.264906 0.264906 0.264906 0.264906 0.264906 0.264906 0.264906 0.264906 0.264906 0.264906 0.260378 0.260378 0.260378 0.260378 0.260378 0.260378 0.260378 0.260378 0.260378 0.260378 0.260378 0.260378 0.260378 0.264906 0.264906 0.264906 0.264906 0.264906 0.264906 0.264906 0.264906 0.264906 0.264906 0.264906 0.264906 0.269680 0.269680 0.269680 0.269680 0.269680 0.269680 0.269680 0.269680 0.269680 0.269680 0.269680 0.264906 0.264906 0.264906 0.264906 0.264906 0.264906 0.264906 0.264906 0.264906 0.264906 0.264906 0.256074 0.256074 0.256074 0.256074 0.256074 0.256074 0.256074 0.256074 0.256074 0.256074 0.256074 0.264906 0.264906 0.264906 0.264906 0.264906 0.264906 0.264906 0.264906 0.264906 0.264906 0.260378 0.260378 0.260378 0.260378 0.260378 0.260378 0.260378 0.260378 0.260378 0.260378 0.264906 0.264906 0.264906 0.264906 0.264906 0.264906 0.264906 0.264906 0.264906 0.251976 0.251976 0.251976 0.251976 0.251976 0.251976 0.251976 0.251976 0.251976 0.251976 0.256074 0.256074 0.256074 0.256074 0.256074 0.256074 0.256074 0.256074 0.256074 0.251976 0.251976 0.251976 0.251976 0.251976 0.251976 0.251976 0.251976 0.251976 0.251976 0.251976 0.251976 0.251976 0.251976
