# Output from CTFFind version 4.1.9, run on 2019-11-02 17:46:51
# Input file: stack11_bm3d_averaged_1_0.5_0_1250_half.mrc ; Number of micrographs: 1
# Pixel size: 3.000 Angstroms ; acceleration voltage: 300.0 keV ; spherical aberration: 0.00 mm ; amplitude contrast: 0.07
# Box size: 512 pixels ; min. res.: 30.0 Angstroms ; max. res.: 5.0 Angstroms ; min. def.: 5000.0 um; max. def. 50000.0 um; num. frames averaged: 1
# 6 lines per micrograph: #1 - spatial frequency (1/Angstroms); #2 - 1D rotational average of spectrum (assuming no astigmatism); #3 - 1D rotational average of spectrum; #4 - CTF fit; #5 - cross-correlation between spectrum and CTF fit; #6 - 2sigma of expected cross correlation of noise
0.000000 0.000651 0.001302 0.001953 0.002604 0.003255 0.003906 0.004557 0.005208 0.005859 0.006510 0.007161 0.007812 0.008464 0.009115 0.009766 0.010417 0.011068 0.011719 0.012370 0.013021 0.013672 0.014323 0.014974 0.015625 0.016276 0.016927 0.017578 0.018229 0.018880 0.019531 0.020182 0.020833 0.021484 0.022135 0.022786 0.023438 0.024089 0.024740 0.025391 0.026042 0.026693 0.027344 0.027995 0.028646 0.029297 0.029948 0.030599 0.031250 0.031901 0.032552 0.033203 0.033854 0.034505 0.035156 0.035807 0.036458 0.037109 0.037760 0.038411 0.039062 0.039714 0.040365 0.041016 0.041667 0.042318 0.042969 0.043620 0.044271 0.044922 0.045573 0.046224 0.046875 0.047526 0.048177 0.048828 0.049479 0.050130 0.050781 0.051432 0.052083 0.052734 0.053385 0.054036 0.054688 0.055339 0.055990 0.056641 0.057292 0.057943 0.058594 0.059245 0.059896 0.060547 0.061198 0.061849 0.062500 0.063151 0.063802 0.064453 0.065104 0.065755 0.066406 0.067057 0.067708 0.068359 0.069010 0.069661 0.070312 0.070964 0.071615 0.072266 0.072917 0.073568 0.074219 0.074870 0.075521 0.076172 0.076823 0.077474 0.078125 0.078776 0.079427 0.080078 0.080729 0.081380 0.082031 0.082682 0.083333 0.083984 0.084635 0.085286 0.085938 0.086589 0.087240 0.087891 0.088542 0.089193 0.089844 0.090495 0.091146 0.091797 0.092448 0.093099 0.093750 0.094401 0.095052 0.095703 0.096354 0.097005 0.097656 0.098307 0.098958 0.099609 0.100260 0.100911 0.101562 0.102214 0.102865 0.103516 0.104167 0.104818 0.105469 0.106120 0.106771 0.107422 0.108073 0.108724 0.109375 0.110026 0.110677 0.111328 0.111979 0.112630 0.113281 0.113932 0.114583 0.115234 0.115885 0.116536 0.117188 0.117839 0.118490 0.119141 0.119792 0.120443 0.121094 0.121745 0.122396 0.123047 0.123698 0.124349 0.125000 0.125651 0.126302 0.126953 0.127604 0.128255 0.128906 0.129557 0.130208 0.130859 0.131510 0.132161 0.132812 0.133464 0.134115 0.134766 0.135417 0.136068 0.136719 0.137370 0.138021 0.138672 0.139323 0.139974 0.140625 0.141276 0.141927 0.142578 0.143229 0.143880 0.144531 0.145182 0.145833 0.146484 0.147135 0.147786 0.148438 0.149089 0.149740 0.150391 0.151042 0.151693 0.152344 0.152995 0.153646 0.154297 0.154948 0.155599 0.156250 0.156901 0.157552 0.158203 0.158854 0.159505 0.160156 0.160807 0.161458 0.162109 0.162760 0.163411 0.164062 0.164714 0.165365 0.166016 0.166667 0.167318 0.167969 0.168620 0.169271 0.169922 0.170573 0.171224 0.171875 0.172526 0.173177 0.173828 0.174479 0.175130 0.175781 0.176432 0.177083 0.177734 0.178385 0.179036 0.179688 0.180339 0.180990 0.181641 0.182292 0.182943 0.183594 0.184245 0.184896 0.185547 0.186198 0.186849 0.187500 0.188151 0.188802 0.189453 0.190104 0.190755 0.191406 0.192057 0.192708 0.193359 0.194010 0.194661 0.195312 0.195964 0.196615 0.197266 0.197917 0.198568 0.199219 0.199870 0.200521 0.201172 0.201823 0.202474 0.203125 0.203776 0.204427 0.205078 0.205729 0.206380 0.207031 0.207682 0.208333 0.208984 0.209635 0.210286 0.210938 0.211589 0.212240 0.212891 0.213542 0.214193 0.214844 0.215495 0.216146 0.216797 0.217448 0.218099 0.218750 0.219401 0.220052 0.220703 0.221354 0.222005 0.222656 0.223307 0.223958 0.224609 0.225260 0.225911 0.226562 0.227214 0.227865 0.228516 0.229167 0.229818 0.230469 0.231120 0.231771 0.232422 0.233073 0.233724 0.234375 0.235026 0.235677
       0.31656        0.31656        0.31656        0.31656        0.31656        0.31656        0.31656        0.31656        0.31656        0.31656        0.31656        0.31656        0.31656        0.31656        0.31656        0.31656        0.31656        0.31656        0.31656        0.31656        0.31656        0.31656        0.31656        0.31656        0.31656        0.31656        0.31656        0.31656        0.31656        0.31656        0.31656        0.31656        0.31656        0.31656        0.31656        0.31656        0.31656        0.31656        0.31656        0.31656        0.31656        0.31656        0.31656        0.31656        0.31656        0.31656        0.31656        0.31656        0.31656        0.31656        0.31656        0.68466        0.87171        0.52206        0.08627       -0.06727       -0.42573       -0.20960       -0.29739       -0.11830       -0.07906       -0.11875       -0.06893       -0.21031       -0.23747       -0.26125       -0.33014       -0.33721       -0.49218       -0.38433       -0.46788       -0.45126       -0.42160       -0.47156       -0.54908       -0.56444       -0.59015       -0.62963       -0.58096       -0.41842       -0.37981       -0.32997       -0.31680       -0.21479       -0.20125        0.01845        0.06789        0.10157        0.22334        0.37204        0.44149        0.51592        0.55928        0.55443        0.57084        0.69898        0.81482        0.74535        0.73491        0.67440        0.58382        0.48632        0.40729        0.49282        0.37288        0.20102        0.07624        0.04566        0.00764       -0.06161       -0.04114       -0.02840       -0.07564       -0.00713       -0.02200        0.20913        0.24840        0.29128        0.43111        0.46783        0.40408        0.53322        0.63123        0.70374        0.76804        0.69170        0.65994        0.70050        0.58836        0.50714        0.41837        0.28790        0.18361        0.15605        0.10684        0.03734        0.01296       -0.00264        0.07467        0.13083        0.20236        0.28384        0.40269        0.41667        0.51295        0.60373        0.63614        0.61359        0.63016        0.55335        0.44532        0.44332        0.35048        0.23020        0.18497        0.14876        0.10491        0.11804        0.06347        0.09723        0.22082        0.26248        0.33979        0.34639        0.45277        0.51218        0.53624        0.55137        0.46869        0.42736        0.39340        0.37486        0.30791        0.25036        0.19937        0.18469        0.16030        0.18923        0.17669        0.26935        0.33198        0.36302        0.42195        0.46183        0.47841        0.44665        0.39256        0.41499        0.37465        0.28965        0.27428        0.22824        0.21239        0.19376        0.21148        0.23066        0.32907        0.37224        0.36487        0.45757        0.44021        0.43918        0.43130        0.39545        0.34383        0.32934        0.27629        0.23368        0.23596        0.26778        0.26799        0.29995        0.29928        0.34005        0.32813        0.41058        0.41713        0.37429        0.34371        0.36303        0.27897        0.28000        0.26266        0.27674        0.25957        0.27980        0.29144        0.31414        0.35275        0.35916        0.35973        0.33108        0.35121        0.28519        0.32164        0.26763        0.24949        0.28265        0.27928        0.30586        0.31444        0.33294        0.32601        0.31256        0.31655        0.28748        0.28651        0.26026        0.28080        0.26660        0.31084        0.28330        0.26174        0.30724        0.31072        0.31747        0.29128        0.29857        0.29252        0.24347        0.23640        0.21970        0.27878        0.27182        0.30816        0.31793        0.31965        0.31382        0.30338        0.27610        0.28280        0.33117        0.27475        0.26830        0.29515        0.29642        0.34126        0.33749        0.36289        0.33150        0.31244        0.27921        0.26293        0.26346        0.22663        0.26747        0.29798        0.29571        0.27718        0.29530        0.27073        0.32211        0.32940        0.25101        0.21683        0.27020        0.33748        0.27722        0.31521        0.32555        0.32771        0.29898        0.32097        0.34379        0.29842        0.29563        0.26465        0.27718        0.35211        0.35052        0.25694        0.26712        0.25398        0.27831        0.22641        0.28951        0.21988        0.25292        0.32559        0.31718        0.34208        0.29607        0.23984        0.24083        0.24201        0.24453        0.18242        0.22081        0.25888        0.29422        0.27940        0.29990        0.29231        0.28089        0.28190        0.20916        0.17823        0.18576        0.23527        0.20146        0.21849        0.23228        0.20960        0.24500        0.33270        0.29569        0.30447        0.22228        0.25933        0.23775        0.28553        0.30485        0.14739        0.21266        0.22409        0.12914        0.23167        0.10612        0.16244        0.17866        0.11756       -0.11072       -0.60621
2.592968 2.565875 2.538928 2.512129 2.485477 2.458972 2.432613 2.406402 2.380337 2.354420 2.328649 2.303026 2.277549 2.252219 2.227037 2.202001 2.177112 2.152371 2.127776 2.103328 2.079027 2.054873 2.030866 2.007007 1.983293 1.959727 1.936308 1.913036 1.889911 1.866933 1.844102 1.821418 1.798880 1.776490 1.754247 1.732150 1.710201 1.688399 1.666743 1.645235 1.623873 1.602659 1.581591 1.560671 1.539897 1.519270 1.498791 1.478458 1.458272 1.438233 1.418341 1.640514 2.045524 1.618122 1.131390 0.988730 0.427136 0.812040 0.565406 0.837036 0.774497 0.789204 0.755681 0.711504 0.563718 0.513383 0.488764 0.448750 0.207197 0.382399 0.206008 0.306026 0.241604 0.182239 0.130582 0.005929 0.044467 -0.015301 -0.055010 0.105031 0.207466 0.199445 0.155352 0.331137 0.198400 0.498520 0.574368 0.546887 0.591849 0.878280 0.807824 0.946303 0.889243 0.974163 0.940100 1.080298 1.142220 1.078692 1.125960 0.955329 0.945502 0.785245 0.652628 0.769363 0.702833 0.461776 0.306184 0.253843 0.212123 0.147726 0.088594 0.124908 0.065070 0.153805 0.050514 0.260435 0.376880 0.358860 0.478659 0.585375 0.469435 0.541735 0.699039 0.747581 0.780944 0.734447 0.732271 0.716653 0.626964 0.572447 0.429837 0.283564 0.204409 0.075119 0.131089 -0.044746 -0.027400 -0.083063 -0.038382 0.004459 0.140846 0.092372 0.301901 0.276875 0.366045 0.455559 0.523443 0.505854 0.517790 0.504813 0.331140 0.306795 0.274789 0.100900 0.047020 -0.002050 -0.037426 -0.042722 -0.095404 -0.105587 -0.019658 0.055473 0.133955 0.134275 0.225900 0.332126 0.303738 0.410926 0.395511 0.281683 0.231549 0.249238 0.208624 0.101084 0.070183 0.015721 0.002681 0.002283 -0.019783 0.058375 0.147088 0.141261 0.222637 0.251453 0.303932 0.262678 0.219669 0.189510 0.208756 0.150092 0.044143 0.048118 -0.008907 -0.010757 -0.031928 0.016245 0.016113 0.172973 0.122254 0.181506 0.236537 0.201376 0.192807 0.199544 0.135651 0.105279 0.065823 0.042458 -0.039812 0.006906 0.019986 0.051633 0.048259 0.079653 0.097706 0.119194 0.139232 0.185841 0.076832 0.097810 0.069188 -0.000540 0.006696 0.008480 -0.009798 0.019391 0.002433 0.029976 0.070589 0.083607 0.117732 0.050806 0.095921 0.055733 0.010919 0.062385 -0.034673 -0.013164 0.021428 -0.002366 0.051227 0.054829 0.051400 0.053098 0.050784 0.046057 0.019927 -0.000647 0.005092 0.013865 -0.014650 0.069569 -0.015658 0.005741 0.053300 0.046934 0.032990 0.042906 0.035407 0.015515 -0.027794 -0.049329 -0.018011 0.014709 0.016822 0.057566 0.060656 0.053276 0.076774 0.059174 0.018593 0.058787 0.084301 0.020450 0.022278 0.055073 0.053470 0.100083 0.107687 0.113294 0.108319 0.060828 0.037437 0.027199 0.005272 -0.007343 0.044437 0.071974 0.041273 0.028689 0.025974 0.025406 0.082115 0.061002 -0.048599 -0.054767 0.028090 0.092649 0.006164 0.033478 0.055207 0.089498 0.021841 0.055607 0.083894 0.033974 0.041133 -0.033106 0.015169 0.110764 0.065988 -0.059169 -0.021293 -0.049927 0.014797 -0.104076 0.033283 -0.111181 -0.030944 0.048081 0.025674 0.026065 -0.043608 -0.063487 -0.087068 -0.080287 -0.063998 -0.129451 -0.097346 -0.038456 0.015535 -0.026872 0.032790 -0.019295 -0.040146 0.053564 -0.110561 -0.092979 -0.098576 -0.004980 -0.051701 -0.039006 0.004341 0.014645 0.009996 0.176204 -0.006749 0.142518 0.008072 0.266076 0.253732 0.324457 0.283313 0.112696 0.215418 0.268623 0.052873 0.255106 0.111595 0.138563 0.235590 0.119377 -0.625322
0.072396 0.072899 0.074406 0.076917 0.080432 0.084951 0.090470 0.096990 0.104508 0.113021 0.122525 0.133017 0.144491 0.156941 0.170359 0.184735 0.200059 0.216318 0.233497 0.251579 0.270543 0.290368 0.311026 0.332488 0.354722 0.377690 0.401351 0.425658 0.450563 0.476007 0.501931 0.528267 0.554943 0.581879 0.608991 0.636188 0.663369 0.690432 0.717263 0.743745 0.769751 0.795150 0.819802 0.843563 0.866281 0.887800 0.907957 0.926586 0.943516 0.958573 0.971581 0.982362 0.990738 0.996531 0.999567 0.999675 0.996688 0.990448 0.980803 0.967613 0.950752 0.930105 0.905577 0.877090 0.844588 0.808037 0.767429 0.722785 0.674153 0.621616 0.565290 0.505323 0.441905 0.375261 0.305656 0.233397 0.158828 0.082338 0.004351 0.074668 0.154215 0.233753 0.312711 0.390490 0.466464 0.539988 0.610398 0.677023 0.739189 0.796224 0.847469 0.892283 0.930055 0.960210 0.982222 0.995620 0.999997 0.995024 0.980455 0.956139 0.922025 0.878171 0.824753 0.762066 0.690531 0.610697 0.523242 0.428971 0.328815 0.223823 0.115159 0.004088 0.108036 0.219781 0.329657 0.436133 0.537663 0.632700 0.719731 0.797296 0.864019 0.918630 0.960002 0.987168 0.999354 0.995999 0.976778 0.941624 0.890738 0.824605 0.743997 0.649978 0.543895 0.427367 0.302276 0.170731 0.035050 0.102286 0.238669 0.371415 0.497815 0.615192 0.720962 0.812691 0.888163 0.945431 0.982882 0.999290 0.993856 0.966256 0.916666 0.845782 0.754829 0.645556 0.520215 0.381524 0.232630 0.077032 0.081481 0.238924 0.391217 0.534280 0.664156 0.777123 0.869805 0.939284 0.983208 0.999876 0.988321 0.948369 0.880674 0.786737 0.668895 0.530278 0.374752 0.206819 0.031504 0.145792 0.319444 0.483789 0.633311 0.762829 0.867690 0.943951 0.988543 0.999410 0.975623 0.917460 0.826434 0.705291 0.557950 0.389406 0.205576 0.013111 0.180839 0.368871 0.543632 0.698094 0.825851 0.921412 0.980441 0.999992 0.978671 0.916753 0.816227 0.680773 0.515661 0.327573 0.124355 0.085278 0.292128 0.486891 0.660596 0.805016 0.913091 0.979287 0.999913 0.973358 0.900239 0.783441 0.628045 0.441157 0.231607 0.009563 0.213945 0.427560 0.620188 0.781569 0.902862 0.977146 0.999855 0.969100 0.885849 0.753967 0.580082 0.373310 0.144800 0.092827 0.326161 0.541756 0.726916 0.870452 0.963405 0.999634 0.976273 0.893999 0.757094 0.573284 0.353353 0.110566 0.140112 0.382917 0.602266 0.783779 0.915249 0.987502 0.995089 0.936750 0.815619 0.639128 0.418615 0.168659 0.093851 0.350827 0.584230 0.777330 0.915963 0.989592 0.992185 0.922760 0.785599 0.590064 0.350032 0.082969 0.191296 0.452030 0.679148 0.854804 0.964819 0.999894 0.956471 0.837155 0.650660 0.411262 0.137773 0.147872 0.422367 0.662913 0.849139 0.964887 0.999665 0.949686 0.818359 0.616163 0.359901 0.071397 0.224331 0.501194 0.734348 0.902458 0.989705 0.987364 0.894762 0.719537 0.477107 0.189431 0.116939 0.413234 0.671185 0.865734 0.977535 0.994958 0.915400 0.745751 0.501916 0.207439 0.108692 0.414850 0.679921 0.876499 0.983778 0.989859 0.893173 0.702878 0.438128 0.126246 0.199996 0.505791 0.758006 0.928820 0.998867 0.959561 0.814260 0.578152 0.276805 0.056508 0.384393 0.669526 0.878924 0.987832 0.982774 0.863347 0.642541 0.345474 0.006670 0.333873 0.635377 0.861182 0.983284 0.985920 0.867757 0.642338 0.336701 0.011729 0.359635 0.663159 0.883459 0.991764 0.973268 0.829309 0.577508 0.249802 0.111497
1.000000 1.000000 1.000000 1.000000 1.000000 1.000000 1.000000 1.000000 1.000000 1.000000 1.000000 1.000000 1.000000 1.000000 1.000000 1.000000 1.000000 1.000000 1.000000 1.000000 1.000000 1.000000 1.000000 1.000000 1.000000 1.000000 1.000000 1.000000 1.000000 1.000000 1.000000 1.000000 1.000000 1.000000 1.000000 1.000000 1.000000 1.000000 1.000000 1.000000 1.000000 1.000000 1.000000 1.000000 1.000000 1.000000 1.000000 1.000000 1.000000 1.000000 1.000000 1.000000 0.933313 0.933313 0.933313 0.924178 0.924178 0.924178 0.924178 0.924178 0.924178 0.924178 0.924178 0.924178 0.924178 0.924178 0.924178 0.924178 0.924178 0.924178 0.924178 0.924178 0.924178 0.924178 0.924178 0.924178 0.924178 0.924178 0.924178 0.924178 0.924178 0.924178 0.924178 0.924178 0.924178 0.924178 0.924178 0.924178 0.924178 0.924178 0.924178 0.924178 0.924178 0.924178 0.924178 0.924178 0.950141 0.951347 0.959195 0.959025 0.958521 0.956417 0.955510 0.954385 0.953935 0.954207 0.954811 0.955641 0.967389 0.968402 0.969935 0.970734 0.971440 0.972093 0.971947 0.972743 0.971994 0.971460 0.970959 0.967010 0.967636 0.968226 0.968398 0.969446 0.969330 0.971576 0.971696 0.971124 0.970292 0.969603 0.968940 0.968549 0.968278 0.968767 0.969032 0.970293 0.973431 0.972847 0.972534 0.972692 0.972795 0.972964 0.973356 0.974119 0.970233 0.968734 0.967075 0.964895 0.969100 0.966237 0.966018 0.967381 0.967762 0.968160 0.967215 0.963268 0.957977 0.956887 0.954484 0.945256 0.944153 0.944871 0.947115 0.947498 0.946100 0.938869 0.939428 0.932509 0.934400 0.937639 0.931734 0.931641 0.932783 0.932297 0.931268 0.930725 0.927854 0.925337 0.923843 0.923648 0.926582 0.926554 0.927728 0.927560 0.922000 0.914167 0.902095 0.900040 0.895341 0.898342 0.887091 0.886919 0.886643 0.882206 0.885559 0.885406 0.886309 0.883133 0.866394 0.848794 0.842150 0.846218 0.851165 0.847119 0.845994 0.839064 0.850279 0.830346 0.842824 0.853925 0.851169 0.851103 0.850504 0.848744 0.843141 0.843969 0.845783 0.847250 0.845548 0.844060 0.843779 0.826737 0.828873 0.765034 0.747915 0.738396 0.744158 0.750891 0.753108 0.752130 0.758181 0.762963 0.752343 0.733988 0.726565 0.720114 0.724209 0.721895 0.723828 0.707643 0.676018 0.671369 0.641146 0.657882 0.669615 0.630267 0.653270 0.664026 0.663370 0.662009 0.655667 0.652928 0.648706 0.651354 0.658167 0.670757 0.687854 0.710793 0.706790 0.697149 0.694964 0.676494 0.668539 0.664337 0.677956 0.656891 0.653058 0.671041 0.670728 0.656094 0.633941 0.623750 0.616976 0.610184 0.620122 0.608210 0.602954 0.591341 0.565579 0.559577 0.593995 0.609951 0.632910 0.602907 0.589511 0.577319 0.557006 0.569725 0.512393 0.512323 0.534806 0.542719 0.521386 0.512509 0.524266 0.529651 0.528586 0.518328 0.507194 0.498467 0.515447 0.551948 0.541715 0.523271 0.524864 0.523730 0.515490 0.425181 0.418699 0.392194 0.357592 0.299574 0.277119 0.269746 0.254337 0.245733 0.210522 0.206690 0.216928 0.223205 0.236809 0.239260 0.219889 0.229833 0.225598 0.212131 0.149717 0.138809 0.130842 0.120388 0.118442 0.096552 0.122587 0.189609 0.191736 0.191736 0.191736 0.191736 0.191736 0.191736 0.200617 0.200617 0.200617 0.200617 0.200617 0.200617 0.200617 0.200617 0.200617 0.209975 0.209975 0.209975 0.209975 0.209975 0.209975 0.209975 0.209975 0.209975 0.209975 0.209975 0.209975 0.209975 0.209975
0.000000 0.000000 0.000000 0.000000 0.000000 0.000000 0.000000 0.000000 0.000000 0.000000 0.000000 0.000000 0.000000 0.000000 0.000000 0.000000 0.000000 0.000000 0.000000 0.000000 0.000000 0.000000 0.000000 0.000000 0.000000 0.000000 0.000000 0.000000 0.000000 0.000000 0.000000 0.000000 0.000000 0.000000 0.000000 0.000000 0.000000 0.000000 0.000000 0.000000 0.000000 0.000000 0.000000 0.000000 0.000000 0.000000 0.000000 0.000000 0.000000 0.000000 0.000000 0.000000 0.180334 0.180334 0.180334 0.199007 0.199007 0.199007 0.199007 0.199007 0.199007 0.199007 0.199007 0.199007 0.199007 0.199007 0.199007 0.199007 0.199007 0.199007 0.199007 0.199007 0.199007 0.199007 0.199007 0.199007 0.199007 0.199007 0.199007 0.199007 0.199007 0.199007 0.199007 0.199007 0.199007 0.199007 0.199007 0.199007 0.199007 0.199007 0.199007 0.199007 0.199007 0.199007 0.199007 0.199007 0.225018 0.225018 0.225018 0.225018 0.225018 0.225018 0.225018 0.225018 0.225018 0.225018 0.225018 0.225018 0.225018 0.225018 0.225018 0.225018 0.225018 0.225018 0.225018 0.225018 0.225018 0.225018 0.225018 0.225018 0.225018 0.225018 0.225018 0.225018 0.225018 0.244339 0.244339 0.244339 0.244339 0.244339 0.244339 0.244339 0.244339 0.244339 0.244339 0.244339 0.244339 0.244339 0.244339 0.244339 0.244339 0.244339 0.244339 0.244339 0.244339 0.244339 0.244339 0.244339 0.251976 0.251976 0.251976 0.251976 0.251976 0.251976 0.251976 0.251976 0.251976 0.251976 0.251976 0.251976 0.251976 0.251976 0.251976 0.251976 0.251976 0.251976 0.251976 0.251976 0.264906 0.264906 0.264906 0.264906 0.264906 0.264906 0.264906 0.264906 0.264906 0.264906 0.264906 0.264906 0.264906 0.264906 0.264906 0.264906 0.264906 0.264906 0.264906 0.264906 0.264906 0.264906 0.264906 0.264906 0.264906 0.264906 0.264906 0.264906 0.264906 0.264906 0.264906 0.264906 0.264906 0.264906 0.264906 0.264906 0.264906 0.264906 0.264906 0.264906 0.264906 0.264906 0.264906 0.264906 0.264906 0.264906 0.264906 0.264906 0.264906 0.264906 0.264906 0.264906 0.264906 0.264906 0.264906 0.264906 0.264906 0.264906 0.264906 0.264906 0.264906 0.264906 0.256074 0.256074 0.256074 0.256074 0.256074 0.256074 0.256074 0.256074 0.256074 0.256074 0.256074 0.256074 0.256074 0.256074 0.269680 0.269680 0.269680 0.269680 0.269680 0.269680 0.269680 0.269680 0.269680 0.269680 0.269680 0.269680 0.264906 0.264906 0.264906 0.264906 0.264906 0.264906 0.264906 0.264906 0.264906 0.264906 0.264906 0.264906 0.269680 0.269680 0.269680 0.269680 0.269680 0.269680 0.269680 0.269680 0.269680 0.269680 0.269680 0.264906 0.264906 0.264906 0.264906 0.264906 0.264906 0.264906 0.264906 0.264906 0.264906 0.264906 0.256074 0.256074 0.256074 0.256074 0.256074 0.256074 0.256074 0.256074 0.256074 0.256074 0.256074 0.264906 0.264906 0.264906 0.264906 0.264906 0.264906 0.264906 0.264906 0.264906 0.264906 0.260378 0.260378 0.260378 0.260378 0.260378 0.260378 0.260378 0.260378 0.260378 0.260378 0.256074 0.256074 0.256074 0.256074 0.256074 0.256074 0.256074 0.256074 0.256074 0.256074 0.260378 0.260378 0.260378 0.260378 0.260378 0.260378 0.260378 0.260378 0.260378 0.256074 0.256074 0.256074 0.256074 0.256074 0.256074 0.256074 0.256074 0.256074 0.251976 0.251976 0.251976 0.251976 0.251976 0.251976 0.251976 0.251976 0.251976 0.251976 0.251976 0.251976 0.251976 0.251976
