# Output from CTFFind version 4.1.9, run on 2019-11-03 20:08:47
# Input file: stack6_bm3d_averaged_1_10_0_2000_half.mrc ; Number of micrographs: 1
# Pixel size: 3.000 Angstroms ; acceleration voltage: 300.0 keV ; spherical aberration: 0.00 mm ; amplitude contrast: 0.07
# Box size: 512 pixels ; min. res.: 30.0 Angstroms ; max. res.: 5.0 Angstroms ; min. def.: 5000.0 um; max. def. 50000.0 um; num. frames averaged: 1
# 6 lines per micrograph: #1 - spatial frequency (1/Angstroms); #2 - 1D rotational average of spectrum (assuming no astigmatism); #3 - 1D rotational average of spectrum; #4 - CTF fit; #5 - cross-correlation between spectrum and CTF fit; #6 - 2sigma of expected cross correlation of noise
0.000000 0.000651 0.001302 0.001953 0.002604 0.003255 0.003906 0.004557 0.005208 0.005859 0.006510 0.007161 0.007812 0.008464 0.009115 0.009766 0.010417 0.011068 0.011719 0.012370 0.013021 0.013672 0.014323 0.014974 0.015625 0.016276 0.016927 0.017578 0.018229 0.018880 0.019531 0.020182 0.020833 0.021484 0.022135 0.022786 0.023438 0.024089 0.024740 0.025391 0.026042 0.026693 0.027344 0.027995 0.028646 0.029297 0.029948 0.030599 0.031250 0.031901 0.032552 0.033203 0.033854 0.034505 0.035156 0.035807 0.036458 0.037109 0.037760 0.038411 0.039062 0.039714 0.040365 0.041016 0.041667 0.042318 0.042969 0.043620 0.044271 0.044922 0.045573 0.046224 0.046875 0.047526 0.048177 0.048828 0.049479 0.050130 0.050781 0.051432 0.052083 0.052734 0.053385 0.054036 0.054688 0.055339 0.055990 0.056641 0.057292 0.057943 0.058594 0.059245 0.059896 0.060547 0.061198 0.061849 0.062500 0.063151 0.063802 0.064453 0.065104 0.065755 0.066406 0.067057 0.067708 0.068359 0.069010 0.069661 0.070312 0.070964 0.071615 0.072266 0.072917 0.073568 0.074219 0.074870 0.075521 0.076172 0.076823 0.077474 0.078125 0.078776 0.079427 0.080078 0.080729 0.081380 0.082031 0.082682 0.083333 0.083984 0.084635 0.085286 0.085938 0.086589 0.087240 0.087891 0.088542 0.089193 0.089844 0.090495 0.091146 0.091797 0.092448 0.093099 0.093750 0.094401 0.095052 0.095703 0.096354 0.097005 0.097656 0.098307 0.098958 0.099609 0.100260 0.100911 0.101562 0.102214 0.102865 0.103516 0.104167 0.104818 0.105469 0.106120 0.106771 0.107422 0.108073 0.108724 0.109375 0.110026 0.110677 0.111328 0.111979 0.112630 0.113281 0.113932 0.114583 0.115234 0.115885 0.116536 0.117188 0.117839 0.118490 0.119141 0.119792 0.120443 0.121094 0.121745 0.122396 0.123047 0.123698 0.124349 0.125000 0.125651 0.126302 0.126953 0.127604 0.128255 0.128906 0.129557 0.130208 0.130859 0.131510 0.132161 0.132812 0.133464 0.134115 0.134766 0.135417 0.136068 0.136719 0.137370 0.138021 0.138672 0.139323 0.139974 0.140625 0.141276 0.141927 0.142578 0.143229 0.143880 0.144531 0.145182 0.145833 0.146484 0.147135 0.147786 0.148438 0.149089 0.149740 0.150391 0.151042 0.151693 0.152344 0.152995 0.153646 0.154297 0.154948 0.155599 0.156250 0.156901 0.157552 0.158203 0.158854 0.159505 0.160156 0.160807 0.161458 0.162109 0.162760 0.163411 0.164062 0.164714 0.165365 0.166016 0.166667 0.167318 0.167969 0.168620 0.169271 0.169922 0.170573 0.171224 0.171875 0.172526 0.173177 0.173828 0.174479 0.175130 0.175781 0.176432 0.177083 0.177734 0.178385 0.179036 0.179688 0.180339 0.180990 0.181641 0.182292 0.182943 0.183594 0.184245 0.184896 0.185547 0.186198 0.186849 0.187500 0.188151 0.188802 0.189453 0.190104 0.190755 0.191406 0.192057 0.192708 0.193359 0.194010 0.194661 0.195312 0.195964 0.196615 0.197266 0.197917 0.198568 0.199219 0.199870 0.200521 0.201172 0.201823 0.202474 0.203125 0.203776 0.204427 0.205078 0.205729 0.206380 0.207031 0.207682 0.208333 0.208984 0.209635 0.210286 0.210938 0.211589 0.212240 0.212891 0.213542 0.214193 0.214844 0.215495 0.216146 0.216797 0.217448 0.218099 0.218750 0.219401 0.220052 0.220703 0.221354 0.222005 0.222656 0.223307 0.223958 0.224609 0.225260 0.225911 0.226562 0.227214 0.227865 0.228516 0.229167 0.229818 0.230469 0.231120 0.231771 0.232422 0.233073 0.233724 0.234375 0.235026 0.235677
       0.34236        0.34236        0.34236        0.34236        0.34236        0.34236        0.34236        0.34236        0.34236        0.34236        0.34236        0.34236        0.34236        0.34236        0.34236        0.34236        0.34236        0.34236        0.34236        0.34236        0.34236        0.34236        0.34236        0.34236        0.34236        0.34236        0.34236        0.34236        0.34236        0.34236        0.34236        0.34236        0.34236        0.34236        0.34236        0.34236        0.34236        0.34236        0.34236        0.34236        0.34236        0.34236        0.34236        0.34236        0.34236        0.34236        0.34236        0.34236        0.34236        0.34236        0.34236        0.58861        0.69397        0.36668        0.16025        0.14326       -0.12113        0.10989        0.04277        0.04432        0.08947        0.30746        0.29181        0.22783        0.13481       -0.04131       -0.00899        0.05497       -0.06869       -0.07715       -0.06510       -0.06320       -0.14690       -0.08703       -0.19750       -0.21594       -0.21975       -0.27431       -0.33814       -0.26264       -0.17574       -0.13260       -0.24540       -0.17829       -0.20540       -0.14404       -0.10090       -0.03789       -0.01672        0.03110        0.09060        0.16396        0.20447        0.24770        0.34987        0.41318        0.36721        0.49940        0.54687        0.55089        0.62258        0.54305        0.57636        0.60996        0.59615        0.56893        0.55893        0.60599        0.53387        0.40545        0.37031        0.38141        0.34043        0.22385        0.23127        0.19203        0.13725        0.12748        0.06418        0.14361        0.11374        0.09441        0.16572        0.21694        0.29449        0.33945        0.38049        0.42053        0.44945        0.47825        0.42568        0.61765        0.55153        0.47653        0.56217        0.50579        0.56727        0.51593        0.40230        0.34307        0.33238        0.29324        0.27925        0.22335        0.21033        0.19921        0.29250        0.27603        0.27819        0.25213        0.27585        0.34709        0.33541        0.45285        0.44647        0.44795        0.42513        0.48872        0.44290        0.41086        0.41632        0.38468        0.33583        0.28262        0.31816        0.28750        0.28283        0.23100        0.23817        0.26822        0.28747        0.29891        0.34605        0.39547        0.42521        0.42615        0.42815        0.51021        0.49249        0.42904        0.37695        0.42048        0.39766        0.33601        0.34739        0.33973        0.29172        0.29282        0.28389        0.27054        0.32744        0.31611        0.33449        0.35680        0.40483        0.43086        0.41457        0.44643        0.40671        0.44614        0.42521        0.36224        0.31152        0.30872        0.30941        0.28573        0.24736        0.31726        0.38968        0.34689        0.31932        0.38003        0.32074        0.36968        0.41701        0.40136        0.37091        0.36870        0.35683        0.36549        0.33277        0.32152        0.29625        0.29363        0.33524        0.34836        0.37501        0.38563        0.40020        0.37812        0.35429        0.33315        0.37082        0.37767        0.35713        0.33583        0.28625        0.29401        0.28596        0.33945        0.33803        0.36317        0.33448        0.35673        0.39818        0.34260        0.35937        0.35978        0.32410        0.32753        0.31066        0.30029        0.29297        0.28027        0.26464        0.28871        0.27969        0.29633        0.26821        0.31378        0.38075        0.27643        0.29982        0.28600        0.28437        0.33320        0.31822        0.31764        0.34053        0.33351        0.34367        0.32645        0.32271        0.32737        0.40492        0.36945        0.30287        0.32704        0.31648        0.36686        0.28618        0.29036        0.32099        0.31443        0.34243        0.38374        0.35045        0.29682        0.23711        0.30211        0.28384        0.27115        0.26865        0.30028        0.33036        0.26707        0.32279        0.34280        0.37925        0.29513        0.33648        0.30951        0.29653        0.29100        0.30008        0.31663        0.27286        0.26949        0.34876        0.35742        0.29311        0.35208        0.31906        0.26258        0.23883        0.21235        0.33837        0.31654        0.36391        0.36401        0.28582        0.23811        0.22764        0.31295        0.28205        0.27569        0.32827        0.30024        0.26059        0.29823        0.30820        0.30125        0.29938        0.29356        0.27783        0.23469        0.28124        0.32412        0.26217        0.21801        0.24057        0.27243        0.26349        0.21580        0.21220        0.27810        0.34548        0.30971        0.23840        0.17642        0.25446        0.18959        0.27416        0.26721        0.17650        0.17136        0.24555        0.22318        0.31783        0.03609       -0.19090       -0.68231       -0.96139
3.498686 3.461049 3.423619 3.386396 3.349379 3.312570 3.275968 3.239573 3.203385 3.167404 3.131630 3.096063 3.060702 3.025550 2.990603 2.955864 2.921332 2.887007 2.852889 2.818978 2.785274 2.751777 2.718487 2.685404 2.652528 2.619859 2.587397 2.555142 2.523094 2.491253 2.459619 2.428192 2.396972 2.365959 2.335154 2.304555 2.274163 2.243978 2.214000 2.184229 2.154665 2.125308 2.096158 2.067215 2.038480 2.009951 1.981629 1.953514 1.925606 1.897906 1.870412 2.226620 2.583608 1.854473 1.576283 1.355184 0.701076 1.158452 0.941508 1.063525 0.854581 1.661848 1.356153 1.375793 1.142535 0.672031 0.556723 0.852186 0.725889 0.378381 0.300926 0.553614 0.307996 0.327800 0.130609 0.008767 -0.021234 -0.021522 -0.367683 -0.141864 -0.009447 0.021085 -0.112771 -0.061828 -0.142285 -0.107501 0.010797 0.165726 0.211256 0.212304 0.350129 0.601794 0.513017 0.641061 0.772468 1.039968 0.759001 1.273306 1.174010 1.249069 1.351784 1.203339 1.129273 1.386131 1.140894 1.244461 1.126640 1.184546 1.151739 0.846881 0.638585 0.623865 0.676716 0.314507 0.338348 0.210101 0.096589 0.017450 -0.162180 0.102652 -0.001760 -0.094564 -0.012090 0.079436 0.209665 0.419808 0.438581 0.515904 0.521150 0.711568 0.424210 0.859299 0.844783 0.620637 0.763271 0.595814 0.759335 0.773054 0.470532 0.235349 0.258821 0.205314 0.020790 0.079900 -0.075172 -0.233303 0.060781 0.081835 0.060485 -0.023086 0.015755 0.134899 0.054098 0.313435 0.420789 0.403826 0.205516 0.491222 0.426302 0.224359 0.417093 0.262002 0.109775 0.107022 0.014399 0.080915 -0.128921 0.078407 -0.185716 -0.075862 -0.069310 0.124729 -0.116198 0.272745 0.246903 0.295341 0.258071 0.323612 0.615752 0.347588 0.282109 0.377373 0.193247 0.378347 0.055796 0.256358 0.049957 0.068719 0.051016 0.045018 0.031371 0.165139 0.049848 0.183165 0.260135 0.303999 0.304144 0.466497 0.333577 0.346141 0.378363 0.294254 0.175424 0.087894 0.094535 0.086684 0.024613 -0.022277 0.210548 0.294904 0.095823 0.169510 0.239286 0.134701 0.292523 0.304623 0.248307 0.185880 0.139419 0.243517 0.118222 0.127876 0.091845 -0.060986 0.071634 0.150841 0.139852 0.228929 0.206474 0.294057 0.112245 0.168267 0.184456 0.251644 0.139290 0.218793 0.117993 0.004895 0.036736 0.007295 0.149344 0.140405 0.204712 0.096182 0.204291 0.220387 0.034334 0.195145 0.095648 0.009285 0.054496 0.020818 -0.021926 -0.031532 -0.114049 -0.030184 -0.015998 -0.124332 -0.017578 -0.072693 0.073136 0.118814 -0.137530 -0.022988 -0.075169 -0.064971 0.066351 0.004939 -0.057425 0.030792 0.088741 0.017309 -0.048056 0.062027 -0.026176 0.282195 -0.002996 -0.119511 0.035764 0.004178 0.073122 -0.160266 -0.065717 0.013290 0.006368 0.075077 0.098383 0.079780 -0.105883 -0.143269 -0.029382 -0.078149 -0.071898 -0.080423 -0.039398 0.055041 -0.203719 0.159821 -0.014484 0.189338 -0.033303 0.067861 0.025431 -0.057004 0.059282 0.008958 -0.032788 -0.052033 -0.055444 0.112390 0.171110 -0.122317 0.155076 0.053047 -0.128329 -0.099323 -0.209302 0.175967 -0.001299 0.167724 0.189013 0.037482 -0.174249 -0.170429 0.019758 -0.046801 -0.121811 0.054431 -0.035953 -0.151147 -0.009790 -0.023898 0.100875 -0.014957 -0.072047 -0.000331 -0.251085 0.042535 0.065372 -0.112747 -0.166959 -0.161977 -0.042360 -0.031257 -0.150284 -0.198440 0.064629 0.140246 0.014677 -0.088388 -0.336348 0.077204 -0.201954 0.641759 0.574524 0.302334 0.369351 0.677210 0.540065 0.654709 -0.191016 -0.404909 -2.098196
0.072396 0.072836 0.074156 0.076356 0.079435 0.083393 0.088228 0.093940 0.100527 0.107987 0.116317 0.125515 0.135576 0.146496 0.158269 0.170890 0.184350 0.198641 0.213751 0.229670 0.246382 0.263873 0.282125 0.301116 0.320824 0.341224 0.362288 0.383983 0.406274 0.429123 0.452488 0.476323 0.500576 0.525194 0.550117 0.575282 0.600619 0.626055 0.651511 0.676904 0.702144 0.727137 0.751784 0.775980 0.799614 0.822573 0.844736 0.865979 0.886173 0.905186 0.922882 0.939120 0.953760 0.966656 0.977664 0.986638 0.993431 0.997899 0.999901 0.999296 0.995949 0.989732 0.980522 0.968204 0.952674 0.933838 0.911616 0.885940 0.856759 0.824040 0.787768 0.747948 0.704609 0.657801 0.607601 0.554112 0.497463 0.437814 0.375353 0.310298 0.242899 0.173436 0.102221 0.029595 0.044070 0.118371 0.192881 0.267143 0.340680 0.412991 0.483556 0.551843 0.617307 0.679397 0.737558 0.791242 0.839906 0.883023 0.920086 0.950618 0.974172 0.990343 0.998774 0.999163 0.991267 0.974912 0.949997 0.916503 0.874492 0.824118 0.765628 0.699365 0.625770 0.545381 0.458839 0.366877 0.270324 0.170095 0.067189 0.037319 0.142293 0.246543 0.348834 0.447908 0.542495 0.631330 0.713172 0.786820 0.851138 0.905069 0.947657 0.978068 0.995606 0.999732 0.990084 0.966485 0.928961 0.877749 0.813304 0.736305 0.647648 0.548452 0.440044 0.323950 0.201876 0.075688 0.052608 0.180907 0.307027 0.428750 0.543861 0.650192 0.745661 0.828317 0.896387 0.948316 0.982809 0.998868 0.995827 0.973379 0.931601 0.870965 0.792349 0.697036 0.586700 0.463391 0.329501 0.187730 0.041031 0.107439 0.254392 0.396474 0.530347 0.652766 0.760662 0.851225 0.921987 0.970893 0.996370 0.997389 0.973512 0.924926 0.852464 0.757605 0.642464 0.509756 0.362744 0.205169 0.041169 0.124831 0.288230 0.444379 0.588713 0.716892 0.824934 0.909350 0.967268 0.996544 0.995852 0.964757 0.903760 0.814314 0.698813 0.560546 0.403620 0.232855 0.053647 0.128196 0.306633 0.475595 0.629189 0.761914 0.868861 0.945918 0.989937 0.998882 0.971939 0.909587 0.813625 0.687143 0.534450 0.360944 0.172947 0.022518 0.217979 0.405795 0.578459 0.728895 0.850777 0.938789 0.988893 0.998531 0.966774 0.894419 0.783999 0.639734 0.467394 0.274091 0.068014 0.141911 0.346403 0.536225 0.702616 0.837699 0.934883 0.989198 0.997584 0.959086 0.874960 0.748680 0.585829 0.393884 0.181904 0.039882 0.260546 0.469008 0.654581 0.807542 0.919654 0.984641 0.998569 0.960118 0.870721 0.734567 0.558442 0.351436 0.124495 0.110125 0.339513 0.550808 0.731929 0.872280 0.963404 0.999522 0.977940 0.899286 0.767559 0.589979 0.376630 0.139937 0.106042 0.346430 0.566430 0.752240 0.891942 0.976306 0.999428 0.959203 0.857540 0.700349 0.497248 0.261018 0.006847 0.248627 0.488399 0.696229 0.857758 0.961533 0.999876 0.969488 0.871790 0.712934 0.503479 0.257745 0.007131 0.272346 0.518773 0.728330 0.885342 0.977751 0.998093 0.944158 0.819277 0.632202 0.396542 0.129856 0.147643 0.414573 0.650045 0.835312 0.955289 0.999850 0.964735 0.852030 0.670132 0.433196 0.160113 0.126964 0.404384 0.648935 0.839816 0.960443 0.999947 0.954228 0.826454 0.626931 0.372362 0.084511 0.211597 0.489844 0.725317 0.896570 0.987625 0.989542 0.901373 0.730417 0.491712 0.206788 0.098195 0.394830 0.655081 0.853977 0.972038 0.997262 0.926438 0.765628 0.529755 0.241319 0.071682 0.378427 0.648285 0.853906 0.974041
1.000000 1.000000 1.000000 1.000000 1.000000 1.000000 1.000000 1.000000 1.000000 1.000000 1.000000 1.000000 1.000000 1.000000 1.000000 1.000000 1.000000 1.000000 1.000000 1.000000 1.000000 1.000000 1.000000 1.000000 1.000000 1.000000 1.000000 1.000000 1.000000 1.000000 1.000000 1.000000 1.000000 1.000000 1.000000 1.000000 1.000000 1.000000 1.000000 1.000000 1.000000 1.000000 1.000000 1.000000 1.000000 1.000000 1.000000 1.000000 1.000000 1.000000 1.000000 1.000000 0.748833 0.748833 0.748833 0.748833 0.748833 0.748833 0.748833 0.748377 0.748377 0.748377 0.748377 0.748377 0.748377 0.748377 0.748377 0.748377 0.748377 0.748377 0.748377 0.748377 0.748377 0.748377 0.748377 0.748377 0.748377 0.748377 0.748377 0.748377 0.748377 0.748377 0.748377 0.748377 0.748377 0.748377 0.748377 0.748377 0.748377 0.748377 0.748377 0.748377 0.748377 0.748377 0.748377 0.748377 0.748377 0.748377 0.748377 0.748377 0.748377 0.748377 0.748377 0.899527 0.900586 0.903293 0.895498 0.888790 0.887642 0.882886 0.879985 0.881860 0.881353 0.882431 0.884017 0.887854 0.895258 0.904783 0.907885 0.915286 0.919224 0.919169 0.923884 0.923857 0.928858 0.925751 0.922741 0.912945 0.916437 0.915325 0.913573 0.911633 0.904772 0.916134 0.914080 0.911007 0.901543 0.896185 0.894573 0.895275 0.893082 0.894150 0.894308 0.893525 0.891426 0.892122 0.887153 0.886060 0.871610 0.869689 0.865855 0.862908 0.860253 0.857488 0.855398 0.846340 0.844853 0.841292 0.834340 0.834162 0.834125 0.834816 0.835708 0.836632 0.839377 0.832563 0.827528 0.826433 0.821990 0.814961 0.806249 0.805875 0.809391 0.817657 0.824833 0.822905 0.820892 0.811023 0.798220 0.795943 0.800359 0.776610 0.779025 0.784740 0.787591 0.784913 0.780512 0.776757 0.773971 0.769748 0.762254 0.770838 0.768357 0.760431 0.757154 0.756983 0.758913 0.768249 0.768927 0.759084 0.745159 0.741490 0.745354 0.751488 0.756072 0.748296 0.748778 0.753247 0.758516 0.763357 0.748928 0.743830 0.735722 0.728971 0.737829 0.758552 0.748411 0.754654 0.758392 0.751490 0.750922 0.744004 0.754022 0.756047 0.763392 0.763534 0.756584 0.710082 0.685215 0.644394 0.646644 0.649694 0.607202 0.607702 0.608401 0.607946 0.552864 0.513870 0.493891 0.491473 0.496286 0.501617 0.492242 0.484245 0.479831 0.477487 0.457153 0.443342 0.441096 0.445059 0.434364 0.444664 0.445881 0.442919 0.400870 0.409734 0.428218 0.437779 0.425940 0.414571 0.418023 0.404122 0.408262 0.403360 0.395820 0.350468 0.369092 0.347723 0.367318 0.328003 0.306411 0.279292 0.315684 0.308924 0.259263 0.286791 0.249018 0.247815 0.251634 0.238105 0.213259 0.231138 0.251847 0.214450 0.219756 0.217333 0.259217 0.250433 0.266656 0.285742 0.272629 0.260500 0.277300 0.259606 0.251957 0.223914 0.219600 0.213870 0.214508 0.267601 0.255046 0.256824 0.265336 0.286905 0.294308 0.305020 0.305822 0.304629 0.317287 0.287742 0.236663 0.244256 0.237602 0.244689 0.214863 0.170826 0.149888 0.155658 0.136606 0.130081 0.099046 0.094962 0.095205 0.104456 0.083850 0.089715 0.054266 0.065904 0.044652 0.071783 0.090715 0.094620 0.015857 0.015857 0.015857 0.015857 0.015857 0.015857 0.015857 0.015857 0.015857 0.015857 0.015857 -0.010362 -0.010362 -0.010362 -0.010362 -0.010362 -0.010362 -0.010362 -0.010362 -0.010362 -0.010362 -0.010362 -0.010362 -0.010362 -0.010362 -0.010362 -0.010362 -0.010362 -0.010362 -0.010362 -0.010362
0.000000 0.000000 0.000000 0.000000 0.000000 0.000000 0.000000 0.000000 0.000000 0.000000 0.000000 0.000000 0.000000 0.000000 0.000000 0.000000 0.000000 0.000000 0.000000 0.000000 0.000000 0.000000 0.000000 0.000000 0.000000 0.000000 0.000000 0.000000 0.000000 0.000000 0.000000 0.000000 0.000000 0.000000 0.000000 0.000000 0.000000 0.000000 0.000000 0.000000 0.000000 0.000000 0.000000 0.000000 0.000000 0.000000 0.000000 0.000000 0.000000 0.000000 0.000000 0.000000 0.173422 0.173422 0.173422 0.173422 0.173422 0.173422 0.173422 0.191565 0.191565 0.191565 0.191565 0.191565 0.191565 0.191565 0.191565 0.191565 0.191565 0.191565 0.191565 0.191565 0.191565 0.191565 0.191565 0.191565 0.191565 0.191565 0.191565 0.191565 0.191565 0.191565 0.191565 0.191565 0.191565 0.191565 0.191565 0.191565 0.191565 0.191565 0.191565 0.191565 0.191565 0.191565 0.191565 0.191565 0.191565 0.191565 0.191565 0.191565 0.191565 0.191565 0.191565 0.222222 0.222222 0.222222 0.222222 0.222222 0.222222 0.222222 0.222222 0.222222 0.222222 0.222222 0.222222 0.222222 0.222222 0.222222 0.222222 0.222222 0.222222 0.222222 0.222222 0.222222 0.222222 0.222222 0.222222 0.222222 0.222222 0.222222 0.222222 0.222222 0.222222 0.234082 0.234082 0.234082 0.234082 0.234082 0.234082 0.234082 0.234082 0.234082 0.234082 0.234082 0.234082 0.234082 0.234082 0.234082 0.234082 0.234082 0.234082 0.234082 0.234082 0.234082 0.234082 0.234082 0.234082 0.234082 0.244339 0.244339 0.244339 0.244339 0.244339 0.244339 0.244339 0.244339 0.244339 0.244339 0.244339 0.244339 0.244339 0.244339 0.244339 0.244339 0.244339 0.244339 0.244339 0.244339 0.244339 0.248069 0.248069 0.248069 0.248069 0.248069 0.248069 0.248069 0.248069 0.248069 0.248069 0.248069 0.248069 0.248069 0.248069 0.248069 0.248069 0.248069 0.248069 0.248069 0.256074 0.256074 0.256074 0.256074 0.256074 0.256074 0.256074 0.256074 0.256074 0.256074 0.256074 0.256074 0.256074 0.256074 0.256074 0.256074 0.256074 0.256074 0.256074 0.256074 0.256074 0.256074 0.256074 0.256074 0.256074 0.256074 0.256074 0.256074 0.256074 0.256074 0.256074 0.256074 0.256074 0.256074 0.256074 0.256074 0.256074 0.256074 0.256074 0.256074 0.256074 0.256074 0.256074 0.256074 0.256074 0.256074 0.256074 0.256074 0.256074 0.256074 0.256074 0.256074 0.256074 0.256074 0.256074 0.256074 0.256074 0.256074 0.256074 0.256074 0.256074 0.256074 0.251976 0.251976 0.251976 0.251976 0.251976 0.251976 0.251976 0.251976 0.251976 0.251976 0.251976 0.251976 0.251976 0.251976 0.264906 0.264906 0.264906 0.264906 0.264906 0.264906 0.264906 0.264906 0.264906 0.264906 0.264906 0.264906 0.248069 0.248069 0.248069 0.248069 0.248069 0.248069 0.248069 0.248069 0.248069 0.248069 0.248069 0.248069 0.248069 0.264906 0.264906 0.264906 0.264906 0.264906 0.264906 0.264906 0.264906 0.264906 0.264906 0.264906 0.248069 0.248069 0.248069 0.248069 0.248069 0.248069 0.248069 0.248069 0.248069 0.248069 0.248069 0.248069 0.264906 0.264906 0.264906 0.264906 0.264906 0.264906 0.264906 0.264906 0.264906 0.264906 0.248069 0.248069 0.248069 0.248069 0.248069 0.248069 0.248069 0.248069 0.248069 0.248069 0.248069 0.256074 0.256074 0.256074 0.256074 0.256074 0.256074 0.256074 0.256074 0.256074 0.256074 0.256074 0.256074 0.256074 0.256074 0.256074 0.256074 0.256074 0.256074 0.256074 0.256074
