# Output from CTFFind version 4.1.9, run on 2019-11-03 19:01:34
# Input file: stack11_bm3d_averaged_1_2.25_0_2000_half.mrc ; Number of micrographs: 1
# Pixel size: 3.000 Angstroms ; acceleration voltage: 300.0 keV ; spherical aberration: 0.00 mm ; amplitude contrast: 0.07
# Box size: 512 pixels ; min. res.: 30.0 Angstroms ; max. res.: 5.0 Angstroms ; min. def.: 5000.0 um; max. def. 50000.0 um; num. frames averaged: 1
# 6 lines per micrograph: #1 - spatial frequency (1/Angstroms); #2 - 1D rotational average of spectrum (assuming no astigmatism); #3 - 1D rotational average of spectrum; #4 - CTF fit; #5 - cross-correlation between spectrum and CTF fit; #6 - 2sigma of expected cross correlation of noise
0.000000 0.000651 0.001302 0.001953 0.002604 0.003255 0.003906 0.004557 0.005208 0.005859 0.006510 0.007161 0.007812 0.008464 0.009115 0.009766 0.010417 0.011068 0.011719 0.012370 0.013021 0.013672 0.014323 0.014974 0.015625 0.016276 0.016927 0.017578 0.018229 0.018880 0.019531 0.020182 0.020833 0.021484 0.022135 0.022786 0.023438 0.024089 0.024740 0.025391 0.026042 0.026693 0.027344 0.027995 0.028646 0.029297 0.029948 0.030599 0.031250 0.031901 0.032552 0.033203 0.033854 0.034505 0.035156 0.035807 0.036458 0.037109 0.037760 0.038411 0.039062 0.039714 0.040365 0.041016 0.041667 0.042318 0.042969 0.043620 0.044271 0.044922 0.045573 0.046224 0.046875 0.047526 0.048177 0.048828 0.049479 0.050130 0.050781 0.051432 0.052083 0.052734 0.053385 0.054036 0.054688 0.055339 0.055990 0.056641 0.057292 0.057943 0.058594 0.059245 0.059896 0.060547 0.061198 0.061849 0.062500 0.063151 0.063802 0.064453 0.065104 0.065755 0.066406 0.067057 0.067708 0.068359 0.069010 0.069661 0.070312 0.070964 0.071615 0.072266 0.072917 0.073568 0.074219 0.074870 0.075521 0.076172 0.076823 0.077474 0.078125 0.078776 0.079427 0.080078 0.080729 0.081380 0.082031 0.082682 0.083333 0.083984 0.084635 0.085286 0.085938 0.086589 0.087240 0.087891 0.088542 0.089193 0.089844 0.090495 0.091146 0.091797 0.092448 0.093099 0.093750 0.094401 0.095052 0.095703 0.096354 0.097005 0.097656 0.098307 0.098958 0.099609 0.100260 0.100911 0.101562 0.102214 0.102865 0.103516 0.104167 0.104818 0.105469 0.106120 0.106771 0.107422 0.108073 0.108724 0.109375 0.110026 0.110677 0.111328 0.111979 0.112630 0.113281 0.113932 0.114583 0.115234 0.115885 0.116536 0.117188 0.117839 0.118490 0.119141 0.119792 0.120443 0.121094 0.121745 0.122396 0.123047 0.123698 0.124349 0.125000 0.125651 0.126302 0.126953 0.127604 0.128255 0.128906 0.129557 0.130208 0.130859 0.131510 0.132161 0.132812 0.133464 0.134115 0.134766 0.135417 0.136068 0.136719 0.137370 0.138021 0.138672 0.139323 0.139974 0.140625 0.141276 0.141927 0.142578 0.143229 0.143880 0.144531 0.145182 0.145833 0.146484 0.147135 0.147786 0.148438 0.149089 0.149740 0.150391 0.151042 0.151693 0.152344 0.152995 0.153646 0.154297 0.154948 0.155599 0.156250 0.156901 0.157552 0.158203 0.158854 0.159505 0.160156 0.160807 0.161458 0.162109 0.162760 0.163411 0.164062 0.164714 0.165365 0.166016 0.166667 0.167318 0.167969 0.168620 0.169271 0.169922 0.170573 0.171224 0.171875 0.172526 0.173177 0.173828 0.174479 0.175130 0.175781 0.176432 0.177083 0.177734 0.178385 0.179036 0.179688 0.180339 0.180990 0.181641 0.182292 0.182943 0.183594 0.184245 0.184896 0.185547 0.186198 0.186849 0.187500 0.188151 0.188802 0.189453 0.190104 0.190755 0.191406 0.192057 0.192708 0.193359 0.194010 0.194661 0.195312 0.195964 0.196615 0.197266 0.197917 0.198568 0.199219 0.199870 0.200521 0.201172 0.201823 0.202474 0.203125 0.203776 0.204427 0.205078 0.205729 0.206380 0.207031 0.207682 0.208333 0.208984 0.209635 0.210286 0.210938 0.211589 0.212240 0.212891 0.213542 0.214193 0.214844 0.215495 0.216146 0.216797 0.217448 0.218099 0.218750 0.219401 0.220052 0.220703 0.221354 0.222005 0.222656 0.223307 0.223958 0.224609 0.225260 0.225911 0.226562 0.227214 0.227865 0.228516 0.229167 0.229818 0.230469 0.231120 0.231771 0.232422 0.233073 0.233724 0.234375 0.235026 0.235677
       0.31548        0.31548        0.31548        0.31548        0.31548        0.31548        0.31548        0.31548        0.31548        0.31548        0.31548        0.31548        0.31548        0.31548        0.31548        0.31548        0.31548        0.31548        0.31548        0.31548        0.31548        0.31548        0.31548        0.31548        0.31548        0.31548        0.31548        0.31548        0.31548        0.31548        0.31548        0.31548        0.31548        0.31548        0.31548        0.31548        0.31548        0.31548        0.31548        0.31548        0.31548        0.31548        0.31548        0.31548        0.31548        0.31548        0.31548        0.31548        0.31548        0.31548        0.31548        0.68052        0.86338        0.52141        0.08710       -0.06237       -0.42730       -0.20403       -0.30024       -0.12009       -0.07701       -0.12029       -0.07055       -0.20848       -0.23586       -0.25554       -0.33214       -0.34203       -0.48678       -0.38228       -0.46300       -0.45129       -0.42281       -0.46477       -0.53243       -0.55787       -0.58648       -0.61801       -0.57673       -0.41172       -0.37804       -0.33209       -0.31603       -0.20961       -0.19913        0.02107        0.07900        0.11157        0.22535        0.36691        0.43983        0.50972        0.55638        0.55217        0.56628        0.69112        0.80790        0.73303        0.73068        0.65655        0.57044        0.48158        0.40480        0.49371        0.37659        0.20534        0.07552        0.04726        0.01571       -0.06097       -0.03413       -0.01302       -0.06546       -0.01013       -0.02124        0.21418        0.25059        0.28657        0.42051        0.45006        0.40135        0.53917        0.62281        0.68771        0.75418        0.68362        0.65132        0.68852        0.57583        0.49100        0.41450        0.28594        0.19532        0.15531        0.10929        0.03717        0.01010        0.00475        0.07300        0.12878        0.20548        0.27288        0.39303        0.42064        0.49919        0.59677        0.62741        0.61943        0.62345        0.55011        0.44233        0.45025        0.35117        0.22631        0.17945        0.14420        0.11726        0.12772        0.08173        0.11005        0.23380        0.26409        0.34692        0.36113        0.44222        0.50841        0.53662        0.54288        0.46636        0.42938        0.38582        0.35624        0.30101        0.25178        0.20704        0.19098        0.16791        0.19815        0.18042        0.27334        0.33259        0.36730        0.42529        0.45790        0.47599        0.43136        0.38563        0.40938        0.36845        0.27773        0.26248        0.22090        0.21934        0.19369        0.21913        0.22964        0.32502        0.37065        0.37131        0.46098        0.42908        0.43494        0.42621        0.39188        0.33893        0.32062        0.27742        0.24961        0.23701        0.26930        0.27371        0.30073        0.30290        0.32943        0.32122        0.40281        0.41623        0.37374        0.34440        0.36232        0.28015        0.27931        0.25936        0.27974        0.26095        0.27976        0.29019        0.30755        0.34372        0.36002        0.36366        0.34084        0.35024        0.28928        0.32175        0.26849        0.24015        0.28862        0.28716        0.31056        0.30741        0.32054        0.32548        0.31292        0.31661        0.28637        0.28915        0.26464        0.28433        0.26327        0.29875        0.28295        0.26908        0.30348        0.30922        0.31560        0.27632        0.30020        0.27664        0.25816        0.24922        0.21527        0.27699        0.27516        0.32587        0.30543        0.31698        0.31403        0.31123        0.27537        0.29241        0.32598        0.26469        0.25685        0.29418        0.28322        0.33865        0.33241        0.34393        0.32818        0.30004        0.27929        0.27018        0.24747        0.22396        0.27486        0.30403        0.29221        0.27814        0.29256        0.27191        0.32629        0.33005        0.25055        0.22066        0.27543        0.32348        0.27656        0.30856        0.32943        0.32178        0.29752        0.31133        0.33628        0.29438        0.27864        0.24800        0.28968        0.35441        0.36204        0.26873        0.26103        0.25358        0.28780        0.21581        0.28587        0.23501        0.24952        0.33311        0.32538        0.34822        0.29886        0.23658        0.23615        0.24218        0.23212        0.20058        0.22913        0.27544        0.29754        0.24385        0.31534        0.31263        0.25856        0.25898        0.19865        0.16376        0.20594        0.21695        0.19347        0.21354        0.22477        0.18862        0.25506        0.35372        0.31118        0.33144        0.23299        0.21781        0.20217        0.27847        0.28304        0.15018        0.23925        0.23987        0.10955        0.19148        0.12918        0.14215        0.22247        0.15931       -0.10068       -0.60587
2.595385 2.568260 2.541282 2.514451 2.487768 2.461232 2.434843 2.408600 2.382506 2.356558 2.330757 2.305104 2.279597 2.254238 2.229026 2.203961 2.179043 2.154273 2.129649 2.105173 2.080843 2.056661 2.032626 2.008739 1.984998 1.961404 1.937958 1.914659 1.891507 1.868502 1.845644 1.822933 1.800370 1.777953 1.755684 1.733562 1.711587 1.689759 1.668079 1.646545 1.625159 1.603919 1.582827 1.561882 1.541085 1.520434 1.499930 1.479574 1.459365 1.439303 1.419388 1.639015 2.047080 1.620010 1.132520 0.993538 0.417934 0.818284 0.555570 0.833935 0.773930 0.791386 0.748555 0.710836 0.563739 0.518788 0.484700 0.436010 0.211365 0.379121 0.202694 0.309158 0.232220 0.184481 0.139752 0.012397 0.037633 -0.006965 -0.057490 0.107850 0.209331 0.190173 0.153245 0.333814 0.197268 0.497713 0.584256 0.560574 0.598936 0.872038 0.811911 0.938684 0.886976 0.976485 0.943464 1.068624 1.149985 1.071522 1.126454 0.940461 0.932984 0.786508 0.648669 0.774679 0.708775 0.461473 0.310124 0.247470 0.222027 0.146615 0.094633 0.133878 0.080164 0.145873 0.055190 0.261314 0.378118 0.358977 0.474748 0.568038 0.455844 0.554605 0.700698 0.734768 0.768038 0.729257 0.730523 0.702338 0.622402 0.559189 0.422485 0.281068 0.213069 0.081459 0.131679 -0.044790 -0.036351 -0.071588 -0.042554 -0.003530 0.150619 0.080115 0.289993 0.283172 0.356767 0.449525 0.523602 0.508782 0.511403 0.499827 0.330550 0.308258 0.280456 0.095064 0.047605 -0.019226 -0.024896 -0.038523 -0.081984 -0.097149 0.002049 0.054492 0.133509 0.155121 0.225734 0.319620 0.314490 0.424598 0.386617 0.275985 0.230399 0.236738 0.189100 0.104120 0.087411 0.015450 0.003225 0.015770 -0.011010 0.061297 0.149593 0.138880 0.239147 0.251916 0.309315 0.237878 0.215651 0.169340 0.214510 0.130171 0.039245 0.027559 -0.008306 -0.010427 -0.035837 0.020587 0.017335 0.158500 0.138397 0.176555 0.234725 0.201107 0.185098 0.190511 0.142833 0.092150 0.056940 0.056862 -0.024714 0.005272 0.021898 0.059466 0.057012 0.072515 0.087691 0.115765 0.142508 0.183968 0.082961 0.093996 0.073063 0.004857 0.003923 0.009104 -0.000112 0.015208 0.010451 0.027777 0.064094 0.080555 0.127858 0.058804 0.108988 0.059827 0.020833 0.061795 -0.031378 -0.012498 0.037185 0.007655 0.061108 0.053088 0.045504 0.071476 0.054723 0.043717 0.030896 0.003123 0.025059 0.014401 -0.003927 0.066145 -0.009331 0.020964 0.060979 0.051036 0.045761 0.045267 0.044784 0.025342 -0.000265 -0.021996 -0.017314 0.030462 0.042474 0.086929 0.060565 0.075179 0.085699 0.071688 0.041205 0.083263 0.093565 0.018660 0.028571 0.069227 0.058560 0.108789 0.112454 0.110322 0.124761 0.078994 0.044895 0.053585 -0.001611 0.015047 0.068391 0.089531 0.055788 0.048905 0.033252 0.027951 0.112580 0.068465 -0.029909 -0.041745 0.039638 0.096759 0.016658 0.031808 0.088324 0.082521 0.040069 0.052260 0.084212 0.036929 0.030405 -0.044372 0.045570 0.127678 0.078754 -0.018237 -0.022403 -0.035420 0.040727 -0.104994 0.041203 -0.075126 -0.026128 0.060105 0.057285 0.034017 -0.018276 -0.068140 -0.061701 -0.077892 -0.053328 -0.093483 -0.083998 -0.012612 0.057825 -0.051304 0.065384 0.004196 -0.052482 0.036561 -0.106452 -0.104890 -0.067626 -0.037345 -0.038422 -0.049721 0.007035 -0.032532 0.024029 0.207340 -0.015873 0.165989 0.025631 0.225119 0.216653 0.320335 0.263136 0.125949 0.241702 0.279291 0.054755 0.204554 0.134381 0.118083 0.301682 0.164266 -0.629916
0.072396 0.072899 0.074406 0.076918 0.080435 0.084954 0.090475 0.096997 0.104516 0.113031 0.122538 0.133033 0.144510 0.156962 0.170383 0.184763 0.200091 0.216355 0.233538 0.251624 0.270593 0.290422 0.311085 0.332552 0.354791 0.377764 0.401430 0.425743 0.450653 0.476102 0.502031 0.528372 0.555053 0.581993 0.609110 0.636309 0.663494 0.690560 0.717393 0.743876 0.769883 0.795281 0.819932 0.843691 0.866406 0.887920 0.908071 0.926693 0.943615 0.958661 0.971657 0.982424 0.990785 0.996561 0.999578 0.999665 0.996655 0.990390 0.980718 0.967500 0.950608 0.929929 0.905367 0.876844 0.844305 0.807716 0.767069 0.722384 0.673713 0.621136 0.564768 0.504762 0.441305 0.374624 0.304984 0.232691 0.158093 0.081576 0.003566 0.075470 0.155030 0.234575 0.313534 0.391308 0.467269 0.540771 0.611153 0.677741 0.739861 0.796842 0.848023 0.892764 0.930455 0.960521 0.982436 0.995728 0.999993 0.994902 0.980211 0.955768 0.921525 0.877542 0.823994 0.761180 0.689522 0.609571 0.522007 0.427637 0.327394 0.222330 0.113609 0.002499 0.109644 0.221387 0.331238 0.437667 0.539124 0.634066 0.720976 0.798397 0.864952 0.919374 0.960538 0.987478 0.999423 0.995817 0.976337 0.940921 0.889776 0.823389 0.742540 0.648296 0.542009 0.425305 0.300068 0.168415 0.032667 0.104693 0.241053 0.373726 0.500005 0.617211 0.722761 0.814225 0.889388 0.946310 0.983385 0.999391 0.993539 0.965515 0.915502 0.844210 0.752873 0.643249 0.517601 0.378660 0.229577 0.073864 0.084688 0.242087 0.394251 0.537100 0.666681 0.779274 0.871510 0.940482 0.983850 0.999926 0.987760 0.947194 0.878903 0.784405 0.666055 0.527004 0.371131 0.202955 0.027512 0.149786 0.323311 0.487400 0.636538 0.765552 0.869804 0.945367 0.989192 0.999248 0.974635 0.915658 0.823860 0.702019 0.554082 0.385071 0.200924 0.008308 0.185607 0.373423 0.547783 0.701666 0.828691 0.923383 0.981443 0.999959 0.977577 0.914618 0.813117 0.676796 0.510967 0.322349 0.118820 0.090887 0.297561 0.491896 0.664934 0.808473 0.915482 0.980476 0.999815 0.971949 0.897555 0.779583 0.623178 0.435498 0.225422 0.003152 0.220258 0.433451 0.625339 0.785696 0.905723 0.978561 0.999716 0.967380 0.882609 0.749350 0.574319 0.366697 0.137691 0.100033 0.333054 0.547931 0.731995 0.874114 0.965401 0.999811 0.974582 0.890505 0.751974 0.566822 0.345927 0.102620 0.148085 0.390406 0.608781 0.788877 0.918568 0.988789 0.994217 0.933737 0.810625 0.632453 0.410684 0.159997 0.102658 0.359165 0.591497 0.782993 0.919584 0.990873 0.990987 0.919126 0.779751 0.582396 0.341082 0.073390 0.200786 0.460703 0.686325 0.859895 0.967389 0.999698 0.953474 0.831545 0.642842 0.401828 0.127470 0.158220 0.431901 0.670823 0.854737 0.967660 0.999326 0.946212 0.811994 0.607409 0.349482 0.060203 0.235324 0.511001 0.742070 0.907362 0.991299 0.985446 0.889451 0.711269 0.466604 0.177641 0.128917 0.424267 0.680200 0.871830 0.980072 0.993630 0.910277 0.737277 0.490882 0.194910 0.121477 0.426599 0.689422 0.882738 0.986061 0.987884 0.887082 0.693250 0.425922 0.112726 0.213399 0.517636 0.766980 0.933898 0.999436 0.955489 0.805930 0.566431 0.262958 0.070947 0.397787 0.680329 0.885851 0.990027 0.979911 0.855687 0.630914 0.331201 0.008584 0.348296 0.647220 0.868968 0.986006 0.983173 0.859801 0.630087 0.321620 0.027785 0.374658 0.675229 0.890993 0.993734 0.969340 0.819910 0.563794 0.233500 0.128274
1.000000 1.000000 1.000000 1.000000 1.000000 1.000000 1.000000 1.000000 1.000000 1.000000 1.000000 1.000000 1.000000 1.000000 1.000000 1.000000 1.000000 1.000000 1.000000 1.000000 1.000000 1.000000 1.000000 1.000000 1.000000 1.000000 1.000000 1.000000 1.000000 1.000000 1.000000 1.000000 1.000000 1.000000 1.000000 1.000000 1.000000 1.000000 1.000000 1.000000 1.000000 1.000000 1.000000 1.000000 1.000000 1.000000 1.000000 1.000000 1.000000 1.000000 1.000000 1.000000 0.926423 0.926423 0.926423 0.915449 0.915449 0.915449 0.915449 0.915449 0.915449 0.915449 0.915449 0.915449 0.915449 0.915449 0.915449 0.915449 0.915449 0.915449 0.915449 0.915449 0.915449 0.915449 0.915449 0.915449 0.915449 0.915449 0.915449 0.915449 0.915449 0.915449 0.915449 0.915449 0.915449 0.915449 0.915449 0.915449 0.915449 0.915449 0.915449 0.915449 0.915449 0.915449 0.915449 0.915449 0.944744 0.946117 0.954141 0.953988 0.953454 0.951329 0.950313 0.949182 0.948698 0.949006 0.949679 0.950602 0.959364 0.960534 0.963327 0.964189 0.964916 0.965549 0.966196 0.966839 0.966025 0.965459 0.964956 0.961027 0.963737 0.963095 0.963197 0.964217 0.964103 0.965885 0.966055 0.965449 0.964537 0.963760 0.963007 0.962561 0.962284 0.962797 0.963114 0.964446 0.967636 0.967104 0.966796 0.966953 0.967057 0.967255 0.967736 0.969484 0.965789 0.966330 0.966313 0.964287 0.970909 0.968167 0.967917 0.968424 0.968823 0.969046 0.965998 0.961575 0.953462 0.952526 0.948468 0.939180 0.937008 0.938253 0.940469 0.940997 0.940089 0.933245 0.933739 0.928575 0.927915 0.931151 0.927444 0.926931 0.928128 0.927596 0.925772 0.924922 0.922225 0.917966 0.915516 0.914997 0.918366 0.920222 0.921537 0.921311 0.915634 0.904887 0.888812 0.885533 0.881735 0.885131 0.875963 0.875408 0.875543 0.871547 0.875446 0.876707 0.877702 0.873037 0.856675 0.835786 0.826320 0.829994 0.835766 0.833750 0.832512 0.825820 0.838778 0.821582 0.834579 0.847121 0.841264 0.842121 0.841672 0.838815 0.829223 0.828447 0.831593 0.833184 0.833237 0.831917 0.823757 0.810119 0.811666 0.761194 0.744900 0.740727 0.745749 0.750053 0.749621 0.747513 0.756056 0.761457 0.763710 0.750747 0.743478 0.733689 0.738325 0.743443 0.748606 0.738727 0.723789 0.710646 0.673085 0.689572 0.714589 0.669155 0.690507 0.698659 0.693729 0.693564 0.685189 0.679429 0.674600 0.677929 0.689828 0.708507 0.723968 0.746899 0.740357 0.730000 0.730684 0.712836 0.700344 0.689979 0.696989 0.676922 0.670695 0.691657 0.691722 0.682640 0.672428 0.656686 0.643894 0.646442 0.649880 0.645685 0.645795 0.631554 0.607302 0.605175 0.635483 0.654362 0.672539 0.656900 0.644357 0.639092 0.619361 0.634162 0.580861 0.580204 0.601710 0.607433 0.587070 0.555801 0.561471 0.578915 0.585651 0.577403 0.548670 0.539709 0.553720 0.580252 0.570578 0.542127 0.546127 0.544005 0.543325 0.485502 0.480757 0.449000 0.422807 0.352999 0.327682 0.326684 0.314520 0.309168 0.279569 0.274426 0.282338 0.292803 0.302154 0.298226 0.283961 0.285977 0.276571 0.264751 0.204630 0.190602 0.181990 0.171750 0.173490 0.150285 0.167285 0.227316 0.228825 0.228825 0.228825 0.228825 0.228825 0.228825 0.237906 0.237906 0.237906 0.237906 0.237906 0.237906 0.237906 0.237906 0.237906 0.249724 0.249724 0.249724 0.249724 0.249724 0.249724 0.249724 0.249724 0.249724 0.249724 0.249724 0.249724 0.249724 0.249724
0.000000 0.000000 0.000000 0.000000 0.000000 0.000000 0.000000 0.000000 0.000000 0.000000 0.000000 0.000000 0.000000 0.000000 0.000000 0.000000 0.000000 0.000000 0.000000 0.000000 0.000000 0.000000 0.000000 0.000000 0.000000 7.000000 4.000000 0.000000 0.000000 0.000000 0.000000 0.000000 0.000000 0.000000 0.000000 0.000000 0.000000 0.000000 0.000000 0.000000 0.000000 0.000000 0.000000 0.000000 0.000000 0.000000 0.000000 0.000000 0.000000 0.000000 0.000000 0.000000 0.180334 0.180334 0.180334 0.199007 0.199007 0.199007 0.199007 0.199007 0.199007 0.199007 0.199007 0.199007 0.199007 0.199007 0.199007 0.199007 0.199007 0.199007 0.199007 0.199007 0.199007 0.199007 0.199007 0.199007 0.199007 0.199007 0.199007 0.199007 0.199007 0.199007 0.199007 0.199007 0.199007 0.199007 0.199007 0.199007 0.199007 0.199007 0.199007 0.199007 0.199007 0.199007 0.199007 0.199007 0.225018 0.225018 0.225018 0.225018 0.225018 0.225018 0.225018 0.225018 0.225018 0.225018 0.225018 0.225018 0.225018 0.225018 0.225018 0.225018 0.225018 0.225018 0.225018 0.225018 0.225018 0.225018 0.225018 0.225018 0.225018 0.225018 0.225018 0.225018 0.225018 0.244339 0.244339 0.244339 0.244339 0.244339 0.244339 0.244339 0.244339 0.244339 0.244339 0.244339 0.244339 0.244339 0.244339 0.244339 0.244339 0.244339 0.244339 0.244339 0.244339 0.244339 0.244339 0.244339 0.251976 0.251976 0.251976 0.251976 0.251976 0.251976 0.251976 0.251976 0.251976 0.251976 0.251976 0.251976 0.251976 0.251976 0.251976 0.251976 0.251976 0.251976 0.251976 0.251976 0.264906 0.264906 0.264906 0.264906 0.264906 0.264906 0.264906 0.264906 0.264906 0.264906 0.264906 0.264906 0.264906 0.264906 0.264906 0.264906 0.264906 0.264906 0.264906 0.264906 0.264906 0.264906 0.264906 0.264906 0.264906 0.264906 0.264906 0.264906 0.264906 0.264906 0.264906 0.264906 0.264906 0.264906 0.264906 0.264906 0.264906 0.264906 0.264906 0.264906 0.264906 0.264906 0.264906 0.264906 0.264906 0.264906 0.264906 0.264906 0.264906 0.264906 0.264906 0.264906 0.264906 0.264906 0.264906 0.264906 0.264906 0.264906 0.264906 0.264906 0.264906 0.264906 0.256074 0.256074 0.256074 0.256074 0.256074 0.256074 0.256074 0.256074 0.256074 0.256074 0.256074 0.256074 0.256074 0.256074 0.269680 0.269680 0.269680 0.269680 0.269680 0.269680 0.269680 0.269680 0.269680 0.269680 0.269680 0.269680 0.264906 0.264906 0.264906 0.264906 0.264906 0.264906 0.264906 0.264906 0.264906 0.264906 0.264906 0.264906 0.269680 0.269680 0.269680 0.269680 0.269680 0.269680 0.269680 0.269680 0.269680 0.269680 0.269680 0.264906 0.264906 0.264906 0.264906 0.264906 0.264906 0.264906 0.264906 0.264906 0.264906 0.264906 0.256074 0.256074 0.256074 0.256074 0.256074 0.256074 0.256074 0.256074 0.256074 0.256074 0.256074 0.264906 0.264906 0.264906 0.264906 0.264906 0.264906 0.264906 0.264906 0.264906 0.264906 0.260378 0.260378 0.260378 0.260378 0.260378 0.260378 0.260378 0.260378 0.260378 0.260378 0.256074 0.256074 0.256074 0.256074 0.256074 0.256074 0.256074 0.256074 0.256074 0.256074 0.260378 0.260378 0.260378 0.260378 0.260378 0.260378 0.260378 0.260378 0.260378 0.256074 0.256074 0.256074 0.256074 0.256074 0.256074 0.256074 0.256074 0.256074 0.251976 0.251976 0.251976 0.251976 0.251976 0.251976 0.251976 0.251976 0.251976 0.251976 0.251976 0.251976 0.251976 0.251976
