# Output from CTFFind version 4.1.9, run on 2019-11-03 19:30:42
# Input file: stack1_bm3d_averaged_1_3.75_0_3000_half.mrc ; Number of micrographs: 1
# Pixel size: 3.000 Angstroms ; acceleration voltage: 300.0 keV ; spherical aberration: 0.00 mm ; amplitude contrast: 0.07
# Box size: 512 pixels ; min. res.: 30.0 Angstroms ; max. res.: 5.0 Angstroms ; min. def.: 5000.0 um; max. def. 50000.0 um; num. frames averaged: 1
# 6 lines per micrograph: #1 - spatial frequency (1/Angstroms); #2 - 1D rotational average of spectrum (assuming no astigmatism); #3 - 1D rotational average of spectrum; #4 - CTF fit; #5 - cross-correlation between spectrum and CTF fit; #6 - 2sigma of expected cross correlation of noise
0.000000 0.000651 0.001302 0.001953 0.002604 0.003255 0.003906 0.004557 0.005208 0.005859 0.006510 0.007161 0.007812 0.008464 0.009115 0.009766 0.010417 0.011068 0.011719 0.012370 0.013021 0.013672 0.014323 0.014974 0.015625 0.016276 0.016927 0.017578 0.018229 0.018880 0.019531 0.020182 0.020833 0.021484 0.022135 0.022786 0.023438 0.024089 0.024740 0.025391 0.026042 0.026693 0.027344 0.027995 0.028646 0.029297 0.029948 0.030599 0.031250 0.031901 0.032552 0.033203 0.033854 0.034505 0.035156 0.035807 0.036458 0.037109 0.037760 0.038411 0.039062 0.039714 0.040365 0.041016 0.041667 0.042318 0.042969 0.043620 0.044271 0.044922 0.045573 0.046224 0.046875 0.047526 0.048177 0.048828 0.049479 0.050130 0.050781 0.051432 0.052083 0.052734 0.053385 0.054036 0.054688 0.055339 0.055990 0.056641 0.057292 0.057943 0.058594 0.059245 0.059896 0.060547 0.061198 0.061849 0.062500 0.063151 0.063802 0.064453 0.065104 0.065755 0.066406 0.067057 0.067708 0.068359 0.069010 0.069661 0.070312 0.070964 0.071615 0.072266 0.072917 0.073568 0.074219 0.074870 0.075521 0.076172 0.076823 0.077474 0.078125 0.078776 0.079427 0.080078 0.080729 0.081380 0.082031 0.082682 0.083333 0.083984 0.084635 0.085286 0.085938 0.086589 0.087240 0.087891 0.088542 0.089193 0.089844 0.090495 0.091146 0.091797 0.092448 0.093099 0.093750 0.094401 0.095052 0.095703 0.096354 0.097005 0.097656 0.098307 0.098958 0.099609 0.100260 0.100911 0.101562 0.102214 0.102865 0.103516 0.104167 0.104818 0.105469 0.106120 0.106771 0.107422 0.108073 0.108724 0.109375 0.110026 0.110677 0.111328 0.111979 0.112630 0.113281 0.113932 0.114583 0.115234 0.115885 0.116536 0.117188 0.117839 0.118490 0.119141 0.119792 0.120443 0.121094 0.121745 0.122396 0.123047 0.123698 0.124349 0.125000 0.125651 0.126302 0.126953 0.127604 0.128255 0.128906 0.129557 0.130208 0.130859 0.131510 0.132161 0.132812 0.133464 0.134115 0.134766 0.135417 0.136068 0.136719 0.137370 0.138021 0.138672 0.139323 0.139974 0.140625 0.141276 0.141927 0.142578 0.143229 0.143880 0.144531 0.145182 0.145833 0.146484 0.147135 0.147786 0.148438 0.149089 0.149740 0.150391 0.151042 0.151693 0.152344 0.152995 0.153646 0.154297 0.154948 0.155599 0.156250 0.156901 0.157552 0.158203 0.158854 0.159505 0.160156 0.160807 0.161458 0.162109 0.162760 0.163411 0.164062 0.164714 0.165365 0.166016 0.166667 0.167318 0.167969 0.168620 0.169271 0.169922 0.170573 0.171224 0.171875 0.172526 0.173177 0.173828 0.174479 0.175130 0.175781 0.176432 0.177083 0.177734 0.178385 0.179036 0.179688 0.180339 0.180990 0.181641 0.182292 0.182943 0.183594 0.184245 0.184896 0.185547 0.186198 0.186849 0.187500 0.188151 0.188802 0.189453 0.190104 0.190755 0.191406 0.192057 0.192708 0.193359 0.194010 0.194661 0.195312 0.195964 0.196615 0.197266 0.197917 0.198568 0.199219 0.199870 0.200521 0.201172 0.201823 0.202474 0.203125 0.203776 0.204427 0.205078 0.205729 0.206380 0.207031 0.207682 0.208333 0.208984 0.209635 0.210286 0.210938 0.211589 0.212240 0.212891 0.213542 0.214193 0.214844 0.215495 0.216146 0.216797 0.217448 0.218099 0.218750 0.219401 0.220052 0.220703 0.221354 0.222005 0.222656 0.223307 0.223958 0.224609 0.225260 0.225911 0.226562 0.227214 0.227865 0.228516 0.229167 0.229818 0.230469 0.231120 0.231771 0.232422 0.233073 0.233724 0.234375 0.235026 0.235677
       0.35191        0.35191        0.35191        0.35191        0.35191        0.35191        0.35191        0.35191        0.35191        0.35191        0.35191        0.35191        0.35191        0.35191        0.35191        0.35191        0.35191        0.35191        0.35191        0.35191        0.35191        0.35191        0.35191        0.35191        0.35191        0.35191        0.35191        0.35191        0.35191        0.35191        0.35191        0.35191        0.35191        0.35191        0.35191        0.35191        0.35191        0.35191        0.35191        0.35191        0.35191        0.35191        0.35191        0.35191        0.35191        0.35191        0.35191        0.35191        0.35191        0.35191        0.35191        0.47643        0.68576        0.37005        0.19334       -0.03599       -0.24320       -0.05354       -0.13572       -0.11352        0.01439       -0.10636       -0.11420       -0.04266       -0.02741       -0.12838       -0.16015       -0.30117       -0.46879       -0.55441       -0.51529       -0.43284       -0.32826       -0.50865       -0.38399       -0.51277       -0.42122       -0.44537       -0.31847       -0.29742       -0.28167       -0.18009       -0.10429       -0.08689        0.05346        0.02613        0.18812        0.17528        0.31966        0.39782        0.51813        0.54171        0.56328        0.59757        0.74031        0.65033        0.63846        0.55211        0.53733        0.62077        0.50874        0.48793        0.41804        0.32008        0.28703        0.29962        0.25401        0.13738        0.13968        0.00930        0.07105        0.07120        0.04295        0.09526        0.13204        0.21981        0.28928        0.29946        0.36310        0.49918        0.51909        0.53956        0.65885        0.63315        0.61048        0.64216        0.62827        0.50339        0.50317        0.39999        0.35907        0.28387        0.22165        0.18869        0.16641        0.13634        0.19853        0.20756        0.24469        0.25738        0.32553        0.37865        0.39533        0.49609        0.53907        0.55736        0.52943        0.60059        0.52098        0.49352        0.50234        0.38425        0.32323        0.29255        0.29275        0.21597        0.23397        0.21842        0.22887        0.24340        0.32528        0.37576        0.41574        0.44438        0.44580        0.47228        0.44540        0.48088        0.42147        0.38706        0.35082        0.39184        0.36298        0.34813        0.26200        0.31399        0.26827        0.27067        0.28692        0.36466        0.37895        0.42118        0.44015        0.46469        0.43934        0.43519        0.46996        0.36615        0.35840        0.34632        0.29767        0.34241        0.29047        0.32432        0.33584        0.32838        0.37357        0.41384        0.39288        0.43622        0.38899        0.41638        0.38774        0.41235        0.31495        0.31123        0.28597        0.25118        0.31918        0.34774        0.36360        0.36344        0.38620        0.39228        0.36776        0.43738        0.40401        0.37345        0.36467        0.32018        0.28981        0.31377        0.31667        0.36862        0.33292        0.35781        0.34315        0.39952        0.38459        0.37448        0.38814        0.38558        0.35434        0.32133        0.35541        0.34329        0.34987        0.31662        0.36353        0.37107        0.33825        0.34127        0.36380        0.33233        0.29362        0.30721        0.30852        0.31946        0.31583        0.35879        0.33209        0.33381        0.33687        0.33266        0.32531        0.30235        0.31735        0.32091        0.30943        0.31426        0.32514        0.31710        0.33986        0.32506        0.38464        0.38052        0.33735        0.37657        0.32226        0.26412        0.29197        0.33327        0.33367        0.30836        0.34334        0.32722        0.31956        0.34672        0.35942        0.33767        0.30974        0.29548        0.34737        0.36836        0.37596        0.30257        0.31236        0.28776        0.26257        0.26518        0.33295        0.31965        0.31330        0.30640        0.29829        0.29243        0.33969        0.36746        0.35707        0.30808        0.33053        0.32896        0.35155        0.39060        0.33052        0.33420        0.33182        0.35121        0.32442        0.32183        0.33338        0.26670        0.29880        0.32854        0.30421        0.33721        0.30941        0.26336        0.24880        0.29788        0.29034        0.36104        0.31914        0.31367        0.28003        0.31835        0.33250        0.28704        0.29135        0.24977        0.29282        0.31433        0.35416        0.29524        0.31552        0.32023        0.29314        0.33690        0.25993        0.20910        0.21069        0.26394        0.24700        0.25715        0.22142        0.21006        0.34530        0.31440        0.25894        0.24951        0.20186        0.27490        0.37068        0.22730        0.09873        0.17878        0.15559        0.17556        0.25664        0.13586        0.11959       -0.45823       -1.10238
2.790333 2.760536 2.730900 2.701427 2.672116 2.642967 2.613980 2.585155 2.556493 2.527992 2.499654 2.471478 2.443463 2.415612 2.387922 2.360394 2.333028 2.305825 2.278784 2.251904 2.225187 2.198632 2.172239 2.146009 2.119940 2.094034 2.068290 2.042707 2.017287 1.992030 1.966934 1.942000 1.917229 1.892619 1.868172 1.843887 1.819764 1.795803 1.772004 1.748368 1.724893 1.701581 1.678431 1.655443 1.632617 1.609953 1.587451 1.565111 1.542934 1.520919 1.499066 1.520904 1.875514 1.704406 1.123048 1.062038 0.498693 0.925978 0.601363 0.776161 0.882301 0.670849 0.613855 0.778552 0.749430 0.601651 0.574242 0.362716 0.052120 0.011147 -0.009518 -0.030156 0.329120 -0.062018 0.053533 -0.059177 -0.005214 -0.029425 0.091734 0.105664 0.114645 0.195667 0.311970 0.287330 0.454127 0.386122 0.627782 0.522684 0.767008 0.756900 0.932287 1.020593 0.944981 1.021283 1.142071 1.119436 1.060622 0.884568 0.872614 0.975378 0.818718 0.819332 0.664474 0.555364 0.497499 0.478853 0.459871 0.242963 0.275643 0.110684 0.062606 0.172735 0.042830 0.086461 0.173654 0.208854 0.318933 0.337494 0.416282 0.461183 0.621449 0.482453 0.747563 0.736910 0.628334 0.722605 0.692997 0.545281 0.438716 0.419815 0.285000 0.238859 0.087675 0.079784 -0.001515 -0.006461 -0.030874 0.040611 0.077158 0.074952 0.097476 0.219082 0.240691 0.288316 0.415798 0.417937 0.371770 0.443572 0.408641 0.324409 0.319508 0.281258 0.080291 0.078734 0.022513 -0.021334 -0.043900 -0.065735 -0.053980 -0.057809 -0.006484 0.084989 0.157682 0.206747 0.174418 0.203346 0.271493 0.220737 0.208381 0.213135 0.094891 0.087707 0.152393 0.062093 0.008695 -0.004741 0.028899 -0.033556 -0.007977 0.029070 0.108339 0.108784 0.153658 0.210073 0.225647 0.112645 0.203855 0.161477 0.096104 0.052587 0.007799 0.048785 -0.007347 0.014716 -0.001692 0.048889 0.027787 0.101741 0.132720 0.083550 0.157500 0.089703 0.105747 0.123127 0.087528 -0.043840 -0.001288 -0.056875 -0.069092 0.020210 0.054213 0.077569 0.033728 0.108697 0.045467 0.110126 0.168829 0.070316 0.087248 0.084312 -0.054231 0.001488 0.001946 0.025159 0.074303 0.048927 0.040364 0.080850 0.095476 0.078601 0.101358 0.091621 0.077130 0.044422 0.035148 0.055091 0.033817 0.062574 0.015584 0.084022 0.050049 0.012778 0.040675 0.062876 -0.012228 -0.050341 0.013330 -0.033595 -0.015112 -0.007737 0.053033 0.014779 -0.001635 0.021752 0.012117 0.012506 -0.010209 -0.010379 -0.008596 0.015709 -0.010414 0.006066 -0.021461 0.038553 0.024054 0.098764 0.081127 0.052977 0.075345 -0.004743 -0.086018 0.002476 0.028365 0.046011 -0.001306 0.046515 0.008925 0.001994 0.042899 0.051179 0.032886 -0.059534 -0.004105 0.059849 0.048483 0.059375 -0.046110 -0.007618 -0.041676 -0.062379 -0.053890 0.012566 0.037955 -0.018335 0.004649 -0.039690 -0.031462 0.010020 0.098180 -0.029426 0.018854 -0.046708 0.018375 0.030743 0.070404 -0.018051 -0.035267 0.019450 -0.018840 -0.048123 -0.048038 -0.021062 -0.122674 -0.052520 -0.027158 -0.043025 -0.015696 -0.103826 -0.089328 -0.080376 -0.036566 -0.138973 0.060532 -0.054758 -0.009829 -0.068717 -0.011872 0.024072 -0.047551 -0.023703 -0.110435 0.023742 0.006313 0.082714 -0.035548 0.025986 0.055783 0.000774 0.135406 -0.029042 -0.082070 -0.048219 0.026467 0.011002 0.053174 -0.005507 -0.030442 0.176606 0.122086 0.101410 0.037498 0.033561 0.091788 0.292947 0.444517 0.101345 0.220732 0.250036 0.150289 0.338671 0.112349 0.154119 -1.390183
0.072396 0.072908 0.074443 0.077000 0.080580 0.085182 0.090803 0.097442 0.105098 0.113767 0.123445 0.134129 0.145812 0.158488 0.172148 0.186784 0.202383 0.218932 0.236416 0.254816 0.274110 0.294276 0.315286 0.337108 0.359708 0.383047 0.407081 0.431762 0.457037 0.482847 0.509128 0.535808 0.562812 0.590058 0.617454 0.644906 0.672309 0.699554 0.726524 0.753094 0.779132 0.804500 0.829054 0.852641 0.875105 0.896280 0.916000 0.934091 0.950375 0.964674 0.976804 0.986584 0.993829 0.998360 0.999997 0.998568 0.993904 0.985847 0.974247 0.958967 0.939883 0.916888 0.889894 0.858833 0.823659 0.784355 0.740928 0.693416 0.641892 0.586459 0.527259 0.464471 0.398312 0.329042 0.256961 0.182410 0.105774 0.027478 0.052012 0.132190 0.212514 0.292406 0.371258 0.448432 0.523270 0.595094 0.663216 0.726943 0.785582 0.838454 0.884895 0.924272 0.955987 0.979490 0.994286 0.999950 0.996131 0.982565 0.959085 0.925627 0.882240 0.829094 0.766480 0.694824 0.614681 0.526741 0.431826 0.330888 0.225004 0.115366 0.003274 0.109880 0.222623 0.333423 0.440707 0.542882 0.638364 0.725598 0.803089 0.869429 0.923327 0.963636 0.989384 0.999797 0.994328 0.972677 0.934813 0.880985 0.811737 0.727915 0.630662 0.521416 0.401897 0.274086 0.140202 0.002665 0.135940 0.272908 0.405470 0.530845 0.646302 0.749221 0.837159 0.907912 0.959581 0.990627 0.999925 0.986814 0.951133 0.893248 0.814071 0.715061 0.598212 0.466031 0.321493 0.167984 0.009237 0.150759 0.307852 0.457836 0.596562 0.720059 0.824654 0.907090 0.964640 0.995208 0.997419 0.970693 0.915294 0.832360 0.723902 0.592778 0.442640 0.277846 0.103350 0.075434 0.252801 0.422922 0.580047 0.718701 0.833882 0.921258 0.977343 0.999661 0.986866 0.938839 0.856739 0.743013 0.601342 0.436563 0.254512 0.061846 0.134194 0.326038 0.506090 0.667023 0.802094 0.905437 0.972340 0.999485 0.985140 0.929284 0.833672 0.701824 0.538922 0.351652 0.147943 0.063344 0.272785 0.470814 0.648160 0.796294 0.907859 0.977058 0.999990 0.974901 0.902340 0.785209 0.628693 0.440078 0.228439 0.004236 0.221184 0.436153 0.629288 0.790104 0.909612 0.980843 0.999302 0.963286 0.874066 0.735911 0.555933 0.343776 0.111129 0.128884 0.362431 0.575757 0.756019 0.892075 0.975206 0.999721 0.963397 0.867715 0.717879 0.522591 0.293608 0.045067 0.207343 0.447372 0.659249 0.828732 0.944110 0.997049 0.983256 0.902877 0.760619 0.565542 0.330556 0.071603 0.193365 0.445624 0.666999 0.841204 0.955061 0.999563 0.970654 0.869654 0.703306 0.483414 0.226064 0.049483 0.322215 0.570950 0.775987 0.920720 0.993022 0.986337 0.900353 0.741185 0.521032 0.257332 0.028562 0.313064 0.572290 0.784073 0.929896 0.996582 0.977554 0.873583 0.692884 0.450584 0.167538 0.131396 0.419521 0.670646 0.861528 0.974050 0.997042 0.927473 0.770929 0.541297 0.259622 0.047723 0.351468 0.622210 0.833281 0.963422 0.999023 0.935641 0.778653 0.542941 0.251595 0.066256 0.378304 0.652326 0.859536 0.977675 0.993502 0.904389 0.718838 0.455814 0.142931 0.186376 0.496353 0.752820 0.926991 0.998775 0.959230 0.811793 0.572161 0.266769 0.070030 0.399750 0.684139 0.889672 0.991570 0.976908 0.846402 0.614603 0.308435 0.035806 0.376672 0.672525 0.886652 0.991911 0.974297 0.834963 0.590373 0.270536 0.084546 0.429795 0.720772 0.919415 0.999139 0.948535 0.773169 0.495184 0.150665 0.214898 0.552571 0.816502 0.970242
1.000000 1.000000 1.000000 1.000000 1.000000 1.000000 1.000000 1.000000 1.000000 1.000000 1.000000 1.000000 1.000000 1.000000 1.000000 1.000000 1.000000 1.000000 1.000000 1.000000 1.000000 1.000000 1.000000 1.000000 1.000000 1.000000 1.000000 1.000000 1.000000 1.000000 1.000000 1.000000 1.000000 1.000000 1.000000 1.000000 1.000000 1.000000 1.000000 1.000000 1.000000 1.000000 1.000000 1.000000 1.000000 1.000000 1.000000 1.000000 1.000000 1.000000 1.000000 1.000000 0.903632 0.903632 0.903632 0.884882 0.884882 0.884882 0.884882 0.884882 0.884882 0.884882 0.884882 0.884882 0.884882 0.884882 0.884882 0.884882 0.884882 0.884882 0.884882 0.884882 0.884882 0.884882 0.884882 0.884882 0.884882 0.884882 0.884882 0.884882 0.884882 0.884882 0.884882 0.884882 0.884882 0.884882 0.884882 0.884882 0.884882 0.884882 0.884882 0.884882 0.884882 0.884882 0.884882 0.884882 0.888449 0.890962 0.892507 0.895287 0.896706 0.896037 0.895377 0.894980 0.895450 0.896642 0.907252 0.922303 0.937976 0.954181 0.959361 0.961155 0.962983 0.963250 0.969491 0.974926 0.973377 0.972747 0.973123 0.974517 0.976356 0.976526 0.977475 0.977356 0.976898 0.977353 0.977165 0.976605 0.975883 0.975200 0.975224 0.974773 0.974892 0.975714 0.976164 0.976548 0.975905 0.975932 0.974509 0.972969 0.968269 0.968602 0.968358 0.967610 0.964540 0.960490 0.960193 0.957108 0.957178 0.957409 0.957780 0.958192 0.957934 0.958165 0.941698 0.940671 0.940087 0.937212 0.934693 0.933844 0.932176 0.934088 0.932744 0.920086 0.910971 0.888181 0.881494 0.869050 0.863178 0.857435 0.861327 0.860632 0.861881 0.858547 0.853160 0.852685 0.848721 0.852557 0.851209 0.848471 0.847330 0.846581 0.836457 0.838508 0.832505 0.824247 0.800703 0.799607 0.802117 0.802602 0.802780 0.795605 0.801905 0.794669 0.791887 0.786798 0.780772 0.773284 0.761345 0.766309 0.778805 0.784062 0.780737 0.767217 0.777502 0.767020 0.768989 0.773105 0.759257 0.759030 0.751994 0.710308 0.705895 0.717637 0.716752 0.715606 0.710185 0.702700 0.687460 0.686670 0.684814 0.670253 0.652033 0.656589 0.651816 0.677641 0.678592 0.676188 0.660119 0.647807 0.650823 0.613646 0.626272 0.631776 0.602839 0.601906 0.587011 0.585227 0.592621 0.596233 0.590526 0.609018 0.603093 0.586393 0.597112 0.589280 0.585536 0.573231 0.565127 0.577434 0.559162 0.538244 0.545506 0.532905 0.536675 0.504588 0.486545 0.476099 0.433301 0.424768 0.390002 0.357870 0.340947 0.312366 0.259320 0.247488 0.266702 0.250041 0.236878 0.230481 0.194357 0.204447 0.180281 0.171706 0.181382 0.149393 0.127924 0.109428 0.087561 0.112534 0.129482 0.138487 0.128608 0.120134 0.149504 0.151752 0.140338 0.127124 0.114238 0.120608 0.100810 0.067521 0.045150 0.015314 0.010194 -0.043487 -0.039281 -0.043225 -0.045029 -0.063164 -0.077061 -0.071874 -0.058446 -0.071583 -0.089413 -0.103742 -0.105291 -0.118101 -0.104907 -0.093577 -0.087809 -0.092686 -0.055355 -0.023707 -0.020226 -0.035661 -0.039182 -0.078971 -0.068300 -0.047296 0.007978 0.026589 0.030630 0.101627 0.094484 0.082768 0.076930 0.086856 0.067702 0.114045 0.125126 0.124030 0.113656 0.029094 0.016638 0.016638 0.016638 0.018840 0.018840 0.018840 0.018840 0.018840 0.018840 0.018840 0.018840 0.018840 0.006737 0.006737 0.006737 0.006737 0.006737 0.006737 0.006737 0.006737 0.006737 0.006737 0.006737 0.006737 0.006737 0.006737 0.006737 0.006737 0.006737
0.000000 0.000000 0.000000 0.000000 0.000000 0.000000 0.000000 0.000000 0.000000 0.000000 0.000000 0.000000 0.000000 0.000000 0.000000 0.000000 0.000000 0.000000 0.000000 0.000000 0.000000 0.000000 0.000000 0.000000 0.000000 0.000000 0.000000 0.000000 0.000000 0.000000 0.000000 0.000000 0.000000 0.000000 0.000000 0.000000 0.000000 0.000000 0.000000 0.000000 0.000000 0.000000 0.000000 0.000000 0.000000 0.000000 0.000000 0.000000 0.000000 0.000000 0.000000 0.000000 0.180334 0.180334 0.180334 0.199007 0.199007 0.199007 0.199007 0.199007 0.199007 0.199007 0.199007 0.199007 0.199007 0.199007 0.199007 0.199007 0.199007 0.199007 0.199007 0.199007 0.199007 0.199007 0.199007 0.199007 0.199007 0.199007 0.199007 0.199007 0.199007 0.199007 0.199007 0.199007 0.199007 0.199007 0.199007 0.199007 0.199007 0.199007 0.199007 0.199007 0.199007 0.199007 0.199007 0.199007 0.230940 0.230940 0.230940 0.230940 0.230940 0.230940 0.230940 0.230940 0.230940 0.230940 0.230940 0.230940 0.230940 0.230940 0.230940 0.230940 0.230940 0.230940 0.230940 0.230940 0.230940 0.230940 0.230940 0.230940 0.230940 0.230940 0.230940 0.230940 0.248069 0.248069 0.248069 0.248069 0.248069 0.248069 0.248069 0.248069 0.248069 0.248069 0.248069 0.248069 0.248069 0.248069 0.248069 0.248069 0.248069 0.248069 0.248069 0.248069 0.248069 0.248069 0.251976 0.251976 0.251976 0.251976 0.251976 0.251976 0.251976 0.251976 0.251976 0.251976 0.251976 0.251976 0.251976 0.251976 0.251976 0.251976 0.251976 0.251976 0.251976 0.251976 0.256074 0.256074 0.256074 0.256074 0.256074 0.256074 0.256074 0.256074 0.256074 0.256074 0.256074 0.256074 0.256074 0.256074 0.256074 0.256074 0.256074 0.256074 0.264906 0.264906 0.264906 0.264906 0.264906 0.264906 0.264906 0.264906 0.264906 0.264906 0.264906 0.264906 0.264906 0.264906 0.264906 0.264906 0.269680 0.269680 0.269680 0.269680 0.269680 0.269680 0.269680 0.269680 0.269680 0.269680 0.269680 0.269680 0.269680 0.269680 0.264906 0.264906 0.264906 0.264906 0.264906 0.264906 0.264906 0.264906 0.264906 0.264906 0.264906 0.264906 0.264906 0.264906 0.264906 0.264906 0.264906 0.264906 0.264906 0.264906 0.264906 0.264906 0.264906 0.264906 0.264906 0.264906 0.264906 0.260378 0.260378 0.260378 0.260378 0.260378 0.260378 0.260378 0.260378 0.260378 0.260378 0.260378 0.260378 0.260378 0.264906 0.264906 0.264906 0.264906 0.264906 0.264906 0.264906 0.264906 0.264906 0.264906 0.264906 0.264906 0.269680 0.269680 0.269680 0.269680 0.269680 0.269680 0.269680 0.269680 0.269680 0.269680 0.269680 0.264906 0.264906 0.264906 0.264906 0.264906 0.264906 0.264906 0.264906 0.264906 0.264906 0.264906 0.269680 0.269680 0.269680 0.269680 0.269680 0.269680 0.269680 0.269680 0.269680 0.269680 0.264906 0.264906 0.264906 0.264906 0.264906 0.264906 0.264906 0.264906 0.264906 0.264906 0.260378 0.260378 0.260378 0.260378 0.260378 0.260378 0.260378 0.260378 0.260378 0.260378 0.256074 0.256074 0.256074 0.256074 0.256074 0.256074 0.256074 0.256074 0.256074 0.256074 0.260378 0.260378 0.260378 0.260378 0.260378 0.260378 0.260378 0.260378 0.260378 0.256074 0.256074 0.256074 0.256074 0.256074 0.256074 0.256074 0.256074 0.256074 0.251976 0.251976 0.251976 0.251976 0.251976 0.251976 0.251976 0.251976 0.251976 0.251976 0.251976 0.251976 0.251976 0.251976 0.251976 0.251976 0.251976
