# Output from CTFFind version 4.1.9, run on 2019-11-02 17:58:44
# Input file: stack6_bm3d_averaged_1_1.75_0_750_half.mrc ; Number of micrographs: 1
# Pixel size: 3.000 Angstroms ; acceleration voltage: 300.0 keV ; spherical aberration: 0.00 mm ; amplitude contrast: 0.07
# Box size: 512 pixels ; min. res.: 30.0 Angstroms ; max. res.: 5.0 Angstroms ; min. def.: 5000.0 um; max. def. 50000.0 um; num. frames averaged: 1
# 6 lines per micrograph: #1 - spatial frequency (1/Angstroms); #2 - 1D rotational average of spectrum (assuming no astigmatism); #3 - 1D rotational average of spectrum; #4 - CTF fit; #5 - cross-correlation between spectrum and CTF fit; #6 - 2sigma of expected cross correlation of noise
0.000000 0.000651 0.001302 0.001953 0.002604 0.003255 0.003906 0.004557 0.005208 0.005859 0.006510 0.007161 0.007812 0.008464 0.009115 0.009766 0.010417 0.011068 0.011719 0.012370 0.013021 0.013672 0.014323 0.014974 0.015625 0.016276 0.016927 0.017578 0.018229 0.018880 0.019531 0.020182 0.020833 0.021484 0.022135 0.022786 0.023438 0.024089 0.024740 0.025391 0.026042 0.026693 0.027344 0.027995 0.028646 0.029297 0.029948 0.030599 0.031250 0.031901 0.032552 0.033203 0.033854 0.034505 0.035156 0.035807 0.036458 0.037109 0.037760 0.038411 0.039062 0.039714 0.040365 0.041016 0.041667 0.042318 0.042969 0.043620 0.044271 0.044922 0.045573 0.046224 0.046875 0.047526 0.048177 0.048828 0.049479 0.050130 0.050781 0.051432 0.052083 0.052734 0.053385 0.054036 0.054688 0.055339 0.055990 0.056641 0.057292 0.057943 0.058594 0.059245 0.059896 0.060547 0.061198 0.061849 0.062500 0.063151 0.063802 0.064453 0.065104 0.065755 0.066406 0.067057 0.067708 0.068359 0.069010 0.069661 0.070312 0.070964 0.071615 0.072266 0.072917 0.073568 0.074219 0.074870 0.075521 0.076172 0.076823 0.077474 0.078125 0.078776 0.079427 0.080078 0.080729 0.081380 0.082031 0.082682 0.083333 0.083984 0.084635 0.085286 0.085938 0.086589 0.087240 0.087891 0.088542 0.089193 0.089844 0.090495 0.091146 0.091797 0.092448 0.093099 0.093750 0.094401 0.095052 0.095703 0.096354 0.097005 0.097656 0.098307 0.098958 0.099609 0.100260 0.100911 0.101562 0.102214 0.102865 0.103516 0.104167 0.104818 0.105469 0.106120 0.106771 0.107422 0.108073 0.108724 0.109375 0.110026 0.110677 0.111328 0.111979 0.112630 0.113281 0.113932 0.114583 0.115234 0.115885 0.116536 0.117188 0.117839 0.118490 0.119141 0.119792 0.120443 0.121094 0.121745 0.122396 0.123047 0.123698 0.124349 0.125000 0.125651 0.126302 0.126953 0.127604 0.128255 0.128906 0.129557 0.130208 0.130859 0.131510 0.132161 0.132812 0.133464 0.134115 0.134766 0.135417 0.136068 0.136719 0.137370 0.138021 0.138672 0.139323 0.139974 0.140625 0.141276 0.141927 0.142578 0.143229 0.143880 0.144531 0.145182 0.145833 0.146484 0.147135 0.147786 0.148438 0.149089 0.149740 0.150391 0.151042 0.151693 0.152344 0.152995 0.153646 0.154297 0.154948 0.155599 0.156250 0.156901 0.157552 0.158203 0.158854 0.159505 0.160156 0.160807 0.161458 0.162109 0.162760 0.163411 0.164062 0.164714 0.165365 0.166016 0.166667 0.167318 0.167969 0.168620 0.169271 0.169922 0.170573 0.171224 0.171875 0.172526 0.173177 0.173828 0.174479 0.175130 0.175781 0.176432 0.177083 0.177734 0.178385 0.179036 0.179688 0.180339 0.180990 0.181641 0.182292 0.182943 0.183594 0.184245 0.184896 0.185547 0.186198 0.186849 0.187500 0.188151 0.188802 0.189453 0.190104 0.190755 0.191406 0.192057 0.192708 0.193359 0.194010 0.194661 0.195312 0.195964 0.196615 0.197266 0.197917 0.198568 0.199219 0.199870 0.200521 0.201172 0.201823 0.202474 0.203125 0.203776 0.204427 0.205078 0.205729 0.206380 0.207031 0.207682 0.208333 0.208984 0.209635 0.210286 0.210938 0.211589 0.212240 0.212891 0.213542 0.214193 0.214844 0.215495 0.216146 0.216797 0.217448 0.218099 0.218750 0.219401 0.220052 0.220703 0.221354 0.222005 0.222656 0.223307 0.223958 0.224609 0.225260 0.225911 0.226562 0.227214 0.227865 0.228516 0.229167 0.229818 0.230469 0.231120 0.231771 0.232422 0.233073 0.233724 0.234375 0.235026 0.235677
       0.30652        0.30652        0.30652        0.30652        0.30652        0.30652        0.30652        0.30652        0.30652        0.30652        0.30652        0.30652        0.30652        0.30652        0.30652        0.30652        0.30652        0.30652        0.30652        0.30652        0.30652        0.30652        0.30652        0.30652        0.30652        0.30652        0.30652        0.30652        0.30652        0.30652        0.30652        0.30652        0.30652        0.30652        0.30652        0.30652        0.30653        0.30652        0.30652        0.30652        0.30652        0.30652        0.30652        0.30652        0.30652        0.30652        0.30652        0.30652        0.30652        0.30652        0.30652        0.62838        0.80358        0.40810        0.30132        0.17958       -0.11026        0.11097       -0.00165        0.02937        0.11198        0.33667        0.41720        0.39352        0.22052       -0.01830        0.04216        0.06911       -0.17858       -0.18320       -0.08919       -0.11439       -0.30024       -0.19307       -0.30710       -0.26346       -0.29006       -0.41277       -0.47652       -0.47617       -0.42428       -0.34731       -0.43563       -0.36426       -0.41716       -0.35799       -0.28020       -0.20739       -0.19825       -0.13466       -0.08513        0.03965        0.07522        0.25082        0.28593        0.36977        0.40129        0.51643        0.58627        0.61115        0.73224        0.69278        0.74106        0.64995        0.65866        0.68662        0.62940        0.61555        0.60778        0.42702        0.38907        0.34863        0.32307        0.22245        0.12757        0.06013        0.04953       -0.00009       -0.08245       -0.02438       -0.03802       -0.07556        0.06532        0.16181        0.25514        0.31344        0.32981        0.41877        0.53325        0.58159        0.52938        0.67122        0.56028        0.53122        0.60140        0.62568        0.52818        0.46162        0.39960        0.37524        0.23743        0.19705        0.12575        0.11631        0.05591        0.04767        0.09275        0.14920        0.14308        0.17318        0.22256        0.23888        0.32435        0.44534        0.48144        0.49061        0.51370        0.57688        0.57047        0.52577        0.41580        0.38277        0.35968        0.26655        0.23810        0.20807        0.19884        0.18765        0.17202        0.15911        0.12958        0.18840        0.23945        0.33275        0.37466        0.40543        0.46050        0.53245        0.46237        0.48413        0.42736        0.40364        0.37866        0.36412        0.28276        0.24371        0.19385        0.23295        0.21693        0.19325        0.21031        0.21244        0.23682        0.30976        0.39581        0.38423        0.37800        0.39596        0.45100        0.46761        0.43250        0.35331        0.31267        0.27198        0.26968        0.25816        0.21851        0.27920        0.29192        0.29677        0.31091        0.30204        0.32406        0.37450        0.36718        0.36441        0.35154        0.31285        0.32553        0.32188        0.29071        0.28542        0.26713        0.21858        0.26346        0.26898        0.29351        0.30949        0.33421        0.36823        0.32231        0.30340        0.35482        0.35644        0.25394        0.28583        0.30196        0.23469        0.20961        0.26598        0.26756        0.27179        0.29648        0.29674        0.32976        0.33196        0.34875        0.31709        0.32174        0.30387        0.29288        0.26244        0.23840        0.24709        0.25075        0.27666        0.29540        0.29365        0.28618        0.31832        0.33592        0.27481        0.30141        0.26825        0.25327        0.25350        0.24323        0.25184        0.26329        0.31550        0.27641        0.31163        0.29131        0.26753        0.30464        0.28927        0.32308        0.31747        0.29316        0.24751        0.24727        0.25613        0.25864        0.31445        0.30581        0.32552        0.31778        0.30584        0.25940        0.29288        0.22096        0.18844        0.26225        0.27459        0.26199        0.27228        0.30451        0.29279        0.36248        0.29249        0.23523        0.20952        0.24037        0.28717        0.29620        0.30083        0.27231        0.27912        0.27041        0.31031        0.27197        0.24719        0.26348        0.24450        0.28765        0.24844        0.27284        0.32118        0.29014        0.21693        0.24996        0.28900        0.30571        0.23249        0.26156        0.24543        0.29252        0.28177        0.36618        0.27878        0.25162        0.27366        0.23901        0.20680        0.19414        0.23132        0.19727        0.18845        0.15600        0.20356        0.26169        0.21698        0.23911        0.19616        0.22924        0.20551        0.22611        0.18600        0.15941        0.19336        0.25402        0.14355        0.05860        0.21400        0.16437        0.11174        0.22254        0.14107        0.18056        0.19243       -0.09555       -0.51550       -0.87881
2.845337 2.817275 2.789357 2.761584 2.733955 2.706471 2.679131 2.651936 2.624886 2.597980 2.571218 2.544601 2.518129 2.491801 2.465618 2.439579 2.413685 2.387935 2.362329 2.336869 2.311553 2.286381 2.261354 2.236471 2.211733 2.187140 2.162691 2.138386 2.114227 2.090211 2.066340 2.042614 2.019032 1.995595 1.972302 1.949154 1.926150 1.903291 1.880577 1.858007 1.835581 1.813300 1.791164 1.769172 1.747324 1.725622 1.704063 1.682650 1.661380 1.640255 1.619275 1.914159 2.250933 1.688169 1.725723 1.374406 0.932036 1.199068 1.031355 1.075792 1.022536 1.497299 1.507187 1.528869 1.273825 0.940860 0.817544 1.015220 0.708393 0.484402 0.594894 0.674653 0.418290 0.486574 0.329256 0.361390 0.251068 0.157181 -0.036934 0.013392 0.030431 0.075671 0.047565 0.097060 -0.046624 0.027704 0.107273 0.222626 0.275705 0.221587 0.333944 0.565580 0.436947 0.724394 0.814063 0.876200 0.902053 1.122246 1.137133 1.178034 1.317785 1.218056 1.371167 1.199149 1.102401 1.301626 1.118904 1.053958 1.131441 0.875688 0.724680 0.670241 0.661307 0.471978 0.389388 0.271879 0.210137 0.103774 -0.011892 0.106001 0.018349 -0.065315 0.113189 0.259846 0.313052 0.458889 0.477658 0.542298 0.704849 0.804691 0.640215 0.956690 0.786623 0.659226 0.768058 0.777298 0.706904 0.639203 0.438564 0.502826 0.278024 0.167624 0.128880 0.004543 -0.009819 -0.114308 -0.025265 0.005823 0.071769 -0.048265 0.249136 0.109735 0.199857 0.372207 0.412182 0.526760 0.414913 0.562563 0.653386 0.503619 0.391036 0.326913 0.313080 0.147463 0.124615 0.009791 0.090902 -0.001422 0.002905 -0.039225 -0.104970 -0.012718 0.011628 0.098405 0.276120 0.212022 0.344876 0.367656 0.440266 0.372809 0.426785 0.341344 0.223676 0.313282 0.170340 0.158160 -0.007072 0.058472 0.071024 -0.011342 0.003633 0.005212 0.058451 0.082308 0.239700 0.296567 0.233489 0.233863 0.365616 0.365856 0.351738 0.250651 0.164769 0.139149 0.087321 0.080808 0.042654 0.025477 0.131685 0.054959 0.184250 0.092378 0.117922 0.212719 0.217686 0.228180 0.185053 0.197848 0.104640 0.164842 0.125216 0.090682 0.119657 -0.017368 0.036683 0.077261 0.045720 0.138459 0.104979 0.202525 0.195928 0.134973 0.119054 0.217417 0.119720 0.056097 0.096200 0.060367 -0.000142 -0.010951 0.069547 0.066680 0.045950 0.115298 0.105550 0.133281 0.148162 0.164053 0.139634 0.103784 0.108273 0.095527 0.024971 0.013142 0.040613 0.008557 0.079759 0.112945 0.088795 0.060895 0.111987 0.132435 0.029957 0.117428 0.031825 0.017458 0.021817 -0.001944 0.005571 0.076315 0.096131 0.011913 0.112936 0.069866 0.010890 0.104924 0.048526 0.090110 0.106071 0.013160 -0.004930 -0.026173 0.035107 -0.007996 0.082126 0.071270 0.091020 0.066423 0.121844 -0.017725 0.068917 -0.101293 -0.044290 -0.004561 0.030870 0.013869 -0.004893 0.093907 0.055516 0.113820 -0.051964 -0.067658 -0.107654 -0.079604 0.058380 0.014641 0.028032 -0.019513 -0.022620 -0.019671 0.062678 -0.037528 -0.049477 -0.020119 -0.098453 0.028224 -0.047590 -0.001684 0.051467 -0.014426 -0.086160 0.005050 0.035970 0.009650 -0.054680 0.005744 -0.066927 0.101724 0.059834 0.152825 0.021831 -0.008857 0.045852 0.027915 -0.064385 -0.007661 0.044049 -0.024249 -0.046835 -0.067749 -0.008952 0.124809 -0.022887 0.120121 0.001240 0.109636 -0.019554 0.131587 -0.038141 -0.001408 -0.016618 0.181314 0.006859 0.002065 0.296666 0.221345 0.161243 0.356129 0.213690 0.222656 0.315807 -0.129338 -1.221216
0.072396 0.072835 0.074150 0.076342 0.079411 0.083355 0.088173 0.093866 0.100430 0.107864 0.116165 0.125331 0.135357 0.146240 0.157973 0.170550 0.183965 0.198207 0.213266 0.229131 0.245788 0.263221 0.281413 0.300343 0.319988 0.340324 0.361322 0.382951 0.405176 0.427959 0.451258 0.475027 0.499217 0.523773 0.548637 0.573745 0.599029 0.624417 0.649831 0.675186 0.700396 0.725366 0.749999 0.774189 0.797829 0.820804 0.842996 0.864281 0.884532 0.903616 0.921400 0.937743 0.952506 0.965545 0.976715 0.985872 0.992869 0.997564 0.999815 0.999482 0.996430 0.990531 0.981662 0.969708 0.954564 0.936135 0.914340 0.889110 0.860393 0.828152 0.792372 0.753054 0.710225 0.663931 0.614246 0.561268 0.505124 0.445966 0.383980 0.319378 0.252403 0.183331 0.112467 0.040147 0.033263 0.107368 0.181745 0.255946 0.329497 0.401903 0.472652 0.541214 0.607049 0.669610 0.728345 0.782708 0.832156 0.876163 0.914221 0.945848 0.970596 0.988054 0.997858 0.999696 0.993317 0.978534 0.955234 0.923381 0.883023 0.834296 0.777426 0.712738 0.640650 0.561681 0.476446 0.385658 0.290121 0.190732 0.088467 0.015622 0.120414 0.224734 0.327365 0.427057 0.522548 0.612578 0.695905 0.771324 0.837689 0.893929 0.939070 0.972252 0.992750 0.999992 0.993575 0.973278 0.939080 0.891167 0.829939 0.756017 0.670242 0.573674 0.467583 0.353438 0.232897 0.107778 0.019959 0.148239 0.274908 0.397765 0.514604 0.623248 0.721602 0.807686 0.879685 0.935990 0.975240 0.996358 0.998589 0.981528 0.945143 0.889794 0.816242 0.725650 0.619576 0.499954 0.369073 0.229532 0.084204 0.063826 0.211317 0.354944 0.491373 0.617339 0.729729 0.825662 0.902571 0.958277 0.991063 0.999732 0.983661 0.942841 0.877896 0.790096 0.681348 0.554164 0.411625 0.257308 0.095210 0.070348 0.234832 0.393619 0.542125 0.675942 0.790973 0.883572 0.950658 0.989843 0.999519 0.978943 0.928288 0.848673 0.742154 0.611699 0.461119 0.294971 0.118438 0.062831 0.242887 0.415678 0.575254 0.715977 0.832724 0.921091 0.977574 0.999723 0.986262 0.937183 0.853780 0.738647 0.595623 0.429682 0.246785 0.053676 0.142352 0.333726 0.512892 0.672608 0.806249 0.908097 0.973606 0.999620 0.984551 0.928496 0.833277 0.702425 0.541069 0.355770 0.154269 0.054813 0.262342 0.459060 0.636000 0.784909 0.898647 0.971547 0.999730 0.981331 0.916652 0.808206 0.660661 0.480669 0.276602 0.058183 0.163958 0.378801 0.575470 0.743799 0.874872 0.961522 0.998745 0.984029 0.917552 0.802245 0.643708 0.449978 0.231160 0.001081 0.234119 0.455044 0.651386 0.811829 0.926884 0.989485 0.995456 0.943834 0.837002 0.680640 0.483469 0.256800 0.013924 0.230642 0.462025 0.665899 0.829381 0.941878 0.995811 0.987167 0.915842 0.785748 0.604650 0.383766 0.137102 0.119393 0.368852 0.594582 0.781208 0.915733 0.988492 0.993886 0.930872 0.803138 0.618957 0.390711 0.134111 0.132855 0.391163 0.622100 0.808634 0.936709 0.996345 0.982469 0.895411 0.740994 0.530228 0.278577 0.004869 0.270053 0.524944 0.739767 0.897331 0.984678 0.994234 0.924515 0.780388 0.572812 0.318076 0.036578 0.248768 0.514376 0.737951 0.900387 0.987445 0.991067 0.910200 0.751029 0.526595 0.255809 0.038093 0.329494 0.592621 0.803848 0.943830 0.999367 0.964702 0.842209 0.642338 0.382819 0.087155 0.217440 0.502536 0.741126 0.910232 0.993166 0.981264 0.874877 0.683515 0.425099 0.124376 0.189401 0.485280 0.733662 0.909295
1.000000 1.000000 1.000000 1.000000 1.000000 1.000000 1.000000 1.000000 1.000000 1.000000 1.000000 1.000000 1.000000 1.000000 1.000000 1.000000 1.000000 1.000000 1.000000 1.000000 1.000000 1.000000 1.000000 1.000000 1.000000 1.000000 1.000000 1.000000 1.000000 1.000000 1.000000 1.000000 1.000000 1.000000 1.000000 1.000000 1.000000 1.000000 1.000000 1.000000 1.000000 1.000000 1.000000 1.000000 1.000000 1.000000 1.000000 1.000000 1.000000 1.000000 1.000000 1.000000 0.836651 0.836651 0.836651 0.836651 0.836651 0.836651 0.836651 0.817938 0.817938 0.817938 0.817938 0.817938 0.817938 0.817938 0.817938 0.817938 0.817938 0.817938 0.817938 0.817938 0.817938 0.817938 0.817938 0.817938 0.817938 0.817938 0.817938 0.817938 0.817938 0.817938 0.817938 0.817938 0.817938 0.817938 0.817938 0.817938 0.817938 0.817938 0.817938 0.817938 0.817938 0.817938 0.817938 0.817938 0.817938 0.817938 0.817938 0.817938 0.817938 0.817938 0.817938 0.956187 0.956807 0.956987 0.955984 0.954453 0.950874 0.946855 0.946393 0.947706 0.947918 0.948531 0.949792 0.950698 0.952189 0.953089 0.953820 0.954570 0.962662 0.966393 0.966192 0.966035 0.962164 0.969085 0.968639 0.962076 0.962600 0.962781 0.963425 0.963382 0.963266 0.962854 0.961892 0.962426 0.962269 0.961651 0.960789 0.958785 0.958777 0.958420 0.958551 0.959429 0.959920 0.960594 0.961041 0.961027 0.961130 0.961137 0.961069 0.950574 0.950528 0.942957 0.942654 0.943568 0.943115 0.942128 0.940638 0.940716 0.940645 0.939638 0.939566 0.938420 0.926706 0.926859 0.926875 0.927780 0.923824 0.913898 0.907308 0.902365 0.903765 0.907745 0.911976 0.912228 0.908065 0.907319 0.891629 0.883957 0.866315 0.862315 0.854715 0.864368 0.864818 0.866295 0.859589 0.858498 0.856629 0.854231 0.840056 0.844908 0.843747 0.840560 0.836873 0.835515 0.832131 0.834912 0.839718 0.836310 0.823583 0.832057 0.819994 0.806430 0.804835 0.807703 0.817274 0.829460 0.827892 0.827066 0.818996 0.814254 0.805291 0.800120 0.801254 0.803515 0.800522 0.808152 0.808990 0.820101 0.814184 0.806032 0.811470 0.822761 0.827230 0.829915 0.830617 0.827383 0.828958 0.808035 0.808901 0.810773 0.783029 0.783572 0.779798 0.779513 0.779576 0.781919 0.777802 0.770017 0.762297 0.741681 0.754322 0.764969 0.737138 0.742673 0.735082 0.723146 0.686821 0.693044 0.699268 0.708543 0.708279 0.712834 0.702145 0.703347 0.711822 0.713592 0.717803 0.713490 0.703779 0.698905 0.707072 0.701963 0.689271 0.685078 0.684762 0.680548 0.675041 0.655644 0.664414 0.640722 0.627379 0.617524 0.586060 0.572107 0.563211 0.552353 0.533003 0.513811 0.527056 0.518370 0.511888 0.500601 0.477190 0.435504 0.427413 0.425722 0.414811 0.413534 0.400576 0.347285 0.359850 0.352171 0.347577 0.324986 0.310650 0.290777 0.224184 0.221718 0.180698 0.204268 0.212222 0.205010 0.187398 0.177272 0.207698 0.215538 0.231737 0.230262 0.258168 0.226100 0.177312 0.199582 0.189916 0.189930 0.176967 0.133945 0.159041 0.155071 0.163438 0.172765 0.121858 0.091728 0.067054 0.067489 0.083614 0.106130 0.121938 0.105676 0.085181 -0.008592 0.025119 0.055846 0.055846 0.055846 0.055846 0.055846 0.055846 0.055846 0.055846 0.055846 0.055846 0.055846 -0.002569 -0.002569 -0.002569 -0.002569 -0.002569 -0.002569 -0.002569 -0.002569 -0.002569 -0.002569 -0.002569 -0.002569 -0.002569 -0.002569 -0.002569 -0.002569 -0.002569 -0.002569 -0.002569
0.000000 0.000000 0.000000 0.000000 0.000000 0.000000 0.000000 0.000000 0.000000 0.000000 0.000000 0.000000 0.000000 0.000000 0.000000 0.000000 0.000000 0.000000 0.000000 0.000000 0.000000 0.000000 0.000000 0.000000 0.000000 0.000000 0.000000 0.000000 0.000000 0.000000 0.000000 0.000000 0.000000 0.000000 0.000000 0.000000 0.000000 0.000000 0.000000 0.000000 0.000000 0.000000 0.000000 0.000000 0.000000 0.000000 0.000000 0.000000 0.000000 0.000000 0.000000 0.000000 0.173422 0.173422 0.173422 0.173422 0.173422 0.173422 0.173422 0.191565 0.191565 0.191565 0.191565 0.191565 0.191565 0.191565 0.191565 0.191565 0.191565 0.191565 0.191565 0.191565 0.191565 0.191565 0.191565 0.191565 0.191565 0.191565 0.191565 0.191565 0.191565 0.191565 0.191565 0.191565 0.191565 0.191565 0.191565 0.191565 0.191565 0.191565 0.191565 0.191565 0.191565 0.191565 0.191565 0.191565 0.191565 0.191565 0.191565 0.191565 0.191565 0.191565 0.191565 0.219529 0.219529 0.219529 0.219529 0.219529 0.219529 0.219529 0.219529 0.219529 0.219529 0.219529 0.219529 0.219529 0.219529 0.219529 0.219529 0.219529 0.219529 0.219529 0.219529 0.219529 0.219529 0.219529 0.219529 0.219529 0.219529 0.219529 0.219529 0.219529 0.219529 0.219529 0.237356 0.237356 0.237356 0.237356 0.237356 0.237356 0.237356 0.237356 0.237356 0.237356 0.237356 0.237356 0.237356 0.237356 0.237356 0.237356 0.237356 0.237356 0.237356 0.237356 0.237356 0.237356 0.237356 0.237356 0.244339 0.244339 0.244339 0.244339 0.244339 0.244339 0.244339 0.244339 0.244339 0.244339 0.244339 0.244339 0.244339 0.244339 0.244339 0.244339 0.244339 0.244339 0.244339 0.244339 0.244339 0.248069 0.248069 0.248069 0.248069 0.248069 0.248069 0.248069 0.248069 0.248069 0.248069 0.248069 0.248069 0.248069 0.248069 0.248069 0.248069 0.248069 0.248069 0.248069 0.248069 0.248069 0.248069 0.248069 0.248069 0.248069 0.248069 0.248069 0.248069 0.248069 0.248069 0.248069 0.248069 0.248069 0.248069 0.248069 0.248069 0.248069 0.256074 0.256074 0.256074 0.256074 0.256074 0.256074 0.256074 0.256074 0.256074 0.256074 0.256074 0.256074 0.256074 0.256074 0.256074 0.256074 0.256074 0.256074 0.256074 0.256074 0.256074 0.256074 0.256074 0.256074 0.256074 0.256074 0.256074 0.256074 0.256074 0.256074 0.256074 0.256074 0.256074 0.256074 0.256074 0.256074 0.256074 0.256074 0.256074 0.256074 0.256074 0.256074 0.256074 0.256074 0.256074 0.260378 0.260378 0.260378 0.260378 0.260378 0.260378 0.260378 0.260378 0.260378 0.260378 0.260378 0.260378 0.260378 0.256074 0.256074 0.256074 0.256074 0.256074 0.256074 0.256074 0.256074 0.256074 0.256074 0.256074 0.256074 0.256074 0.260378 0.260378 0.260378 0.260378 0.260378 0.260378 0.260378 0.260378 0.260378 0.260378 0.260378 0.260378 0.251976 0.251976 0.251976 0.251976 0.251976 0.251976 0.251976 0.251976 0.251976 0.251976 0.251976 0.251976 0.256074 0.256074 0.256074 0.256074 0.256074 0.256074 0.256074 0.256074 0.256074 0.256074 0.256074 0.251976 0.251976 0.251976 0.251976 0.251976 0.251976 0.251976 0.251976 0.251976 0.251976 0.251976 0.248069 0.248069 0.248069 0.248069 0.248069 0.248069 0.248069 0.248069 0.248069 0.248069 0.248069 0.256074 0.256074 0.256074 0.256074 0.256074 0.256074 0.256074 0.256074 0.256074 0.256074 0.256074 0.256074 0.256074 0.256074 0.256074 0.256074 0.256074 0.256074 0.256074
