# Output from CTFFind version 4.1.9, run on 2019-11-03 19:49:17
# Input file: stack6_bm3d_averaged_1_5.25_0_2500_half.mrc ; Number of micrographs: 1
# Pixel size: 3.000 Angstroms ; acceleration voltage: 300.0 keV ; spherical aberration: 0.00 mm ; amplitude contrast: 0.07
# Box size: 512 pixels ; min. res.: 30.0 Angstroms ; max. res.: 5.0 Angstroms ; min. def.: 5000.0 um; max. def. 50000.0 um; num. frames averaged: 1
# 6 lines per micrograph: #1 - spatial frequency (1/Angstroms); #2 - 1D rotational average of spectrum (assuming no astigmatism); #3 - 1D rotational average of spectrum; #4 - CTF fit; #5 - cross-correlation between spectrum and CTF fit; #6 - 2sigma of expected cross correlation of noise
0.000000 0.000651 0.001302 0.001953 0.002604 0.003255 0.003906 0.004557 0.005208 0.005859 0.006510 0.007161 0.007812 0.008464 0.009115 0.009766 0.010417 0.011068 0.011719 0.012370 0.013021 0.013672 0.014323 0.014974 0.015625 0.016276 0.016927 0.017578 0.018229 0.018880 0.019531 0.020182 0.020833 0.021484 0.022135 0.022786 0.023438 0.024089 0.024740 0.025391 0.026042 0.026693 0.027344 0.027995 0.028646 0.029297 0.029948 0.030599 0.031250 0.031901 0.032552 0.033203 0.033854 0.034505 0.035156 0.035807 0.036458 0.037109 0.037760 0.038411 0.039062 0.039714 0.040365 0.041016 0.041667 0.042318 0.042969 0.043620 0.044271 0.044922 0.045573 0.046224 0.046875 0.047526 0.048177 0.048828 0.049479 0.050130 0.050781 0.051432 0.052083 0.052734 0.053385 0.054036 0.054688 0.055339 0.055990 0.056641 0.057292 0.057943 0.058594 0.059245 0.059896 0.060547 0.061198 0.061849 0.062500 0.063151 0.063802 0.064453 0.065104 0.065755 0.066406 0.067057 0.067708 0.068359 0.069010 0.069661 0.070312 0.070964 0.071615 0.072266 0.072917 0.073568 0.074219 0.074870 0.075521 0.076172 0.076823 0.077474 0.078125 0.078776 0.079427 0.080078 0.080729 0.081380 0.082031 0.082682 0.083333 0.083984 0.084635 0.085286 0.085938 0.086589 0.087240 0.087891 0.088542 0.089193 0.089844 0.090495 0.091146 0.091797 0.092448 0.093099 0.093750 0.094401 0.095052 0.095703 0.096354 0.097005 0.097656 0.098307 0.098958 0.099609 0.100260 0.100911 0.101562 0.102214 0.102865 0.103516 0.104167 0.104818 0.105469 0.106120 0.106771 0.107422 0.108073 0.108724 0.109375 0.110026 0.110677 0.111328 0.111979 0.112630 0.113281 0.113932 0.114583 0.115234 0.115885 0.116536 0.117188 0.117839 0.118490 0.119141 0.119792 0.120443 0.121094 0.121745 0.122396 0.123047 0.123698 0.124349 0.125000 0.125651 0.126302 0.126953 0.127604 0.128255 0.128906 0.129557 0.130208 0.130859 0.131510 0.132161 0.132812 0.133464 0.134115 0.134766 0.135417 0.136068 0.136719 0.137370 0.138021 0.138672 0.139323 0.139974 0.140625 0.141276 0.141927 0.142578 0.143229 0.143880 0.144531 0.145182 0.145833 0.146484 0.147135 0.147786 0.148438 0.149089 0.149740 0.150391 0.151042 0.151693 0.152344 0.152995 0.153646 0.154297 0.154948 0.155599 0.156250 0.156901 0.157552 0.158203 0.158854 0.159505 0.160156 0.160807 0.161458 0.162109 0.162760 0.163411 0.164062 0.164714 0.165365 0.166016 0.166667 0.167318 0.167969 0.168620 0.169271 0.169922 0.170573 0.171224 0.171875 0.172526 0.173177 0.173828 0.174479 0.175130 0.175781 0.176432 0.177083 0.177734 0.178385 0.179036 0.179688 0.180339 0.180990 0.181641 0.182292 0.182943 0.183594 0.184245 0.184896 0.185547 0.186198 0.186849 0.187500 0.188151 0.188802 0.189453 0.190104 0.190755 0.191406 0.192057 0.192708 0.193359 0.194010 0.194661 0.195312 0.195964 0.196615 0.197266 0.197917 0.198568 0.199219 0.199870 0.200521 0.201172 0.201823 0.202474 0.203125 0.203776 0.204427 0.205078 0.205729 0.206380 0.207031 0.207682 0.208333 0.208984 0.209635 0.210286 0.210938 0.211589 0.212240 0.212891 0.213542 0.214193 0.214844 0.215495 0.216146 0.216797 0.217448 0.218099 0.218750 0.219401 0.220052 0.220703 0.221354 0.222005 0.222656 0.223307 0.223958 0.224609 0.225260 0.225911 0.226562 0.227214 0.227865 0.228516 0.229167 0.229818 0.230469 0.231120 0.231771 0.232422 0.233073 0.233724 0.234375 0.235026 0.235677
       0.30499        0.30499        0.30499        0.30499        0.30499        0.30499        0.30499        0.30499        0.30499        0.30499        0.30499        0.30499        0.30499        0.30499        0.30499        0.30499        0.30499        0.30499        0.30499        0.30499        0.30499        0.30499        0.30499        0.30499        0.30499        0.30499        0.30499        0.30499        0.30499        0.30499        0.30499        0.30499        0.30499        0.30499        0.30499        0.30499        0.30499        0.30499        0.30499        0.30499        0.30499        0.30499        0.30499        0.30499        0.30499        0.30499        0.30499        0.30499        0.30499        0.30499        0.30499        0.59754        0.72490        0.35296        0.18418        0.12370       -0.15283        0.10478        0.02319        0.02817        0.08604        0.30553        0.32889        0.25580        0.14910       -0.04151       -0.01388        0.03849       -0.13892       -0.14869       -0.09009       -0.11038       -0.23428       -0.15255       -0.27365       -0.28555       -0.28655       -0.35195       -0.42998       -0.37424       -0.28249       -0.25293       -0.35180       -0.26213       -0.32068       -0.25815       -0.18202       -0.13213       -0.09460       -0.02209        0.00930        0.11354        0.15763        0.20907        0.33104        0.39523        0.35237        0.45959        0.54852        0.55674        0.63878        0.58094        0.61622        0.59645        0.61217        0.61377        0.55225        0.56833        0.55136        0.38950        0.32486        0.35728        0.34112        0.18693        0.15088        0.11928        0.07662        0.08165       -0.00858        0.04961        0.02550       -0.01926        0.08881        0.15653        0.25350        0.34714        0.33519        0.36399        0.45872        0.49253        0.42181        0.64593        0.52997        0.47847        0.56509        0.49756        0.52503        0.48488        0.36183        0.30376        0.26138        0.21425        0.19772        0.18218        0.16130        0.11133        0.18438        0.17526        0.21789        0.19248        0.25853        0.29874        0.32444        0.44309        0.42466        0.40779        0.43469        0.47562        0.45165        0.43866        0.38274        0.39869        0.33530        0.28041        0.22977        0.24041        0.22986        0.18043        0.15330        0.20558        0.20646        0.25470        0.32793        0.34734        0.40533        0.38562        0.43932        0.45355        0.44631        0.42075        0.38835        0.40457        0.36841        0.32860        0.32260        0.30300        0.25100        0.26712        0.26546        0.21934        0.27918        0.26115        0.27119        0.31161        0.36234        0.40094        0.39514        0.41250        0.37389        0.40230        0.38589        0.29586        0.27937        0.23787        0.25203        0.21300        0.19374        0.27706        0.32719        0.30335        0.27369        0.33104        0.25971        0.32582        0.36465        0.36140        0.35965        0.37941        0.31823        0.32900        0.31110        0.27584        0.27285        0.23914        0.27946        0.29478        0.30100        0.32214        0.36521        0.37153        0.36115        0.33041        0.34867        0.32574        0.31140        0.30932        0.27714        0.28045        0.25028        0.30364        0.31702        0.30588        0.28603        0.31735        0.32073        0.32560        0.33402        0.30224        0.26899        0.28344        0.27878        0.26095        0.24033        0.22701        0.24172        0.25506        0.23995        0.27213        0.27763        0.32080        0.31089        0.27188        0.29971        0.25348        0.20306        0.25946        0.23918        0.21925        0.26649        0.29773        0.28413        0.29310        0.29356        0.29113        0.30026        0.31105        0.26560        0.30138        0.29536        0.33781        0.27049        0.26371        0.24823        0.29934        0.30498        0.31453        0.33064        0.30760        0.21555        0.27434        0.25510        0.23526        0.23939        0.24044        0.28169        0.24424        0.29876        0.30580        0.34168        0.30378        0.27897        0.23834        0.24877        0.25341        0.23604        0.26242        0.28160        0.31004        0.32467        0.28409        0.28149        0.25504        0.28713        0.26605        0.23113        0.19751        0.25551        0.32793        0.30577        0.29777        0.28692        0.23226        0.23471        0.23816        0.21560        0.21964        0.26778        0.27545        0.26277        0.22118        0.20908        0.25759        0.23898        0.24906        0.25908        0.25488        0.17860        0.21549        0.25064        0.23631        0.28189        0.23922        0.22971        0.17869        0.25900        0.28890        0.18535        0.18803        0.11786        0.14265        0.29753        0.16413        0.16461        0.32570        0.20144        0.15815        0.10918        0.19585        0.11474        0.15061       -0.05649       -0.64639       -0.99718
2.222924 2.204109 2.185377 2.166728 2.148163 2.129682 2.111284 2.092970 2.074740 2.056593 2.038529 2.020549 2.002653 1.984840 1.967111 1.949465 1.931903 1.914425 1.897030 1.879718 1.862490 1.845346 1.828285 1.811308 1.794414 1.777604 1.760877 1.744234 1.727675 1.711199 1.694806 1.678498 1.662272 1.646131 1.630072 1.614098 1.598207 1.582399 1.566675 1.551035 1.535478 1.520005 1.504615 1.489309 1.474086 1.458947 1.443892 1.428920 1.414031 1.399227 1.384505 1.739530 2.064336 1.426651 1.310254 1.051612 0.522183 0.889674 0.815951 0.810219 0.692571 1.330183 1.195691 1.206832 0.965775 0.637813 0.490904 0.744690 0.548570 0.229890 0.311224 0.465647 0.216694 0.251571 0.106526 0.016405 -0.019831 -0.015188 -0.287801 -0.180127 -0.026427 -0.060060 -0.110122 -0.017905 -0.145686 -0.116892 0.057625 0.143197 0.207594 0.259095 0.324644 0.570678 0.524722 0.600352 0.816069 0.964046 0.795027 1.154008 1.136068 1.195936 1.293907 1.209502 1.193741 1.281161 1.180222 1.310080 1.133746 1.071432 1.163727 0.931663 0.646998 0.702716 0.761641 0.469918 0.389124 0.329353 0.191004 0.187879 0.042712 0.165116 0.128718 -0.007461 0.108743 0.229379 0.336633 0.588927 0.580239 0.543078 0.709342 0.861818 0.586999 1.007582 0.968858 0.740082 0.878821 0.735896 0.810983 0.826507 0.556725 0.416429 0.362409 0.305681 0.207219 0.145864 0.168480 -0.012933 0.146960 0.120672 0.211566 0.098274 0.277564 0.303057 0.267981 0.478250 0.578315 0.489285 0.377795 0.688346 0.566420 0.496214 0.477528 0.435013 0.325653 0.320743 0.122178 0.165361 0.063686 0.155688 -0.055441 0.039528 0.007279 0.205136 0.101003 0.332482 0.308516 0.352241 0.409388 0.404741 0.534329 0.389394 0.376985 0.425788 0.235484 0.319873 0.169353 0.248344 0.093844 0.132705 0.086409 0.085004 0.019958 0.137783 0.043391 0.133029 0.227820 0.252988 0.344367 0.272619 0.314371 0.257785 0.289570 0.186886 0.090711 0.059600 -0.000074 0.008437 -0.076420 -0.048129 0.084199 0.174583 0.062337 0.087909 0.098632 0.037893 0.175191 0.204636 0.186956 0.237544 0.143671 0.108372 0.102319 0.083902 0.043704 -0.054361 -0.014933 0.127375 -0.016131 0.116377 0.090377 0.209281 0.218392 0.164863 0.157441 0.167575 0.083228 0.088895 0.103821 0.031837 -0.014720 0.028599 0.087375 0.112043 0.081245 0.043472 0.117272 0.093351 0.077004 0.105644 0.009369 -0.031013 0.029036 -0.025839 -0.015060 -0.086822 -0.094075 -0.025296 -0.067871 -0.065251 -0.008757 0.016135 0.093019 0.053672 -0.018591 0.047352 -0.081735 -0.097650 0.015216 -0.081273 -0.097031 0.043791 0.043863 0.007521 0.046552 -0.000579 0.051140 0.101152 -0.041867 0.001291 0.092027 0.012591 0.113440 -0.040171 -0.007092 -0.053469 0.103781 0.011329 0.089061 0.116836 0.044325 -0.101672 0.015693 -0.014751 -0.045993 -0.046584 -0.030839 0.017869 -0.045972 0.120700 0.071325 0.160858 0.067280 -0.008101 -0.015668 -0.006321 0.013361 -0.035886 0.054901 0.051048 0.125767 0.119508 0.077681 0.084509 0.032540 0.125295 0.004811 0.016881 -0.097295 0.078045 0.177479 0.093789 0.128671 0.056291 -0.017684 -0.012992 -0.018036 -0.039287 -0.021268 0.057044 0.100446 0.036124 -0.019869 -0.003717 0.062101 0.057732 0.052534 0.092595 0.044873 -0.006373 0.009047 0.104249 0.084574 0.157782 0.080433 0.006881 0.060846 0.166833 0.195680 0.102062 0.066658 -0.065677 -0.095460 0.450057 0.331408 0.269194 0.605577 0.281060 0.266890 0.115841 0.463435 0.187799 0.277502 0.209726 -0.886726
0.072396 0.072838 0.074163 0.076371 0.079462 0.083435 0.088289 0.094022 0.100634 0.108122 0.116484 0.125716 0.135815 0.146776 0.158594 0.171262 0.184772 0.199116 0.214282 0.230259 0.247032 0.264586 0.282903 0.301961 0.321739 0.342209 0.363344 0.385111 0.407474 0.430396 0.453833 0.477738 0.502061 0.526747 0.551735 0.576960 0.602354 0.627843 0.653346 0.678779 0.704051 0.729069 0.753731 0.777931 0.801559 0.824499 0.846629 0.867825 0.887956 0.906890 0.924488 0.940610 0.955112 0.967851 0.978680 0.987451 0.994019 0.998237 0.999964 0.999060 0.995388 0.988821 0.979236 0.966518 0.950564 0.931282 0.908590 0.882425 0.852736 0.819493 0.782682 0.742313 0.698416 0.651047 0.600285 0.546238 0.489041 0.428857 0.365881 0.300336 0.232478 0.162594 0.091002 0.018050 0.055883 0.130388 0.205031 0.279348 0.352856 0.425047 0.495396 0.563366 0.628407 0.689964 0.747479 0.800402 0.848190 0.890315 0.926273 0.955588 0.977820 0.992569 0.999485 0.998277 0.988713 0.970632 0.943948 0.908657 0.864842 0.812675 0.752424 0.684454 0.609231 0.527317 0.439375 0.346165 0.248540 0.147440 0.043885 0.061028 0.166143 0.270251 0.372106 0.470437 0.563965 0.651424 0.731572 0.803218 0.865233 0.916578 0.956321 0.983654 0.997916 0.998607 0.985407 0.958192 0.917039 0.862242 0.794319 0.714007 0.622269 0.520285 0.409446 0.291336 0.167716 0.040506 0.088250 0.216406 0.341757 0.462066 0.575119 0.678750 0.770902 0.849658 0.913296 0.960323 0.989521 0.999980 0.991137 0.962795 0.915150 0.848800 0.764752 0.664419 0.549605 0.422480 0.285552 0.141622 0.006269 0.154897 0.300927 0.440980 0.571721 0.689935 0.792613 0.877034 0.940842 0.982127 0.999484 0.992074 0.959665 0.902665 0.822136 0.719788 0.597962 0.459586 0.308120 0.147478 0.018066 0.183983 0.345614 0.498297 0.637510 0.759000 0.858929 0.934004 0.981593 0.999836 0.987727 0.945176 0.873050 0.773168 0.648289 0.502048 0.338864 0.163824 0.017463 0.199040 0.374797 0.538674 0.684877 0.808085 0.903659 0.967832 0.997874 0.992225 0.950588 0.873990 0.764777 0.626575 0.464192 0.283467 0.091080 0.105682 0.299199 0.481803 0.646095 0.785242 0.893285 0.965408 0.998170 0.989698 0.939809 0.850073 0.723801 0.565943 0.382939 0.182460 0.026882 0.235900 0.435226 0.615737 0.768976 0.887568 0.965597 0.998919 0.985421 0.925170 0.820481 0.675864 0.497862 0.294798 0.076395 0.146661 0.363236 0.562304 0.733521 0.867767 0.957665 0.998014 0.986118 0.922006 0.808499 0.651135 0.457938 0.239048 0.006209 0.227834 0.450029 0.647754 0.809529 0.925727 0.989163 0.995583 0.943987 0.836772 0.679681 0.481538 0.253798 0.009912 0.235431 0.467203 0.670938 0.833664 0.944749 0.996643 0.985427 0.911160 0.777971 0.593885 0.370404 0.121820 0.135662 0.384967 0.609279 0.793179 0.923751 0.991510 0.991152 0.922021 0.788260 0.598637 0.366026 0.106581 0.161341 0.418481 0.646035 0.827068 0.947796 0.998685 0.975268 0.878586 0.715243 0.497021 0.240102 0.036101 0.310362 0.561273 0.768927 0.916516 0.991754 0.987952 0.904681 0.747947 0.529842 0.267673 0.017345 0.301778 0.561874 0.775578 0.924413 0.995148 0.981031 0.882517 0.707374 0.470168 0.191118 0.105567 0.393759 0.647693 0.844311 0.965377 0.999256 0.942097 0.798357 0.580554 0.308267 0.006448 0.296823 0.572914 0.795383 0.942524 0.999570 0.960250 0.827572 0.613716 0.339009 0.030078 0.282680 0.568056 0.797160 0.946401 0.999962
1.000000 1.000000 1.000000 1.000000 1.000000 1.000000 1.000000 1.000000 1.000000 1.000000 1.000000 1.000000 1.000000 1.000000 1.000000 1.000000 1.000000 1.000000 1.000000 1.000000 1.000000 1.000000 1.000000 1.000000 1.000000 1.000000 1.000000 1.000000 1.000000 1.000000 1.000000 1.000000 1.000000 1.000000 1.000000 1.000000 1.000000 1.000000 1.000000 1.000000 1.000000 1.000000 1.000000 1.000000 1.000000 1.000000 1.000000 1.000000 1.000000 1.000000 1.000000 1.000000 0.781356 0.781356 0.781356 0.781356 0.781356 0.781356 0.781356 0.766734 0.766734 0.766734 0.766734 0.766734 0.766734 0.766734 0.766734 0.766734 0.766734 0.766734 0.766734 0.766734 0.766734 0.766734 0.766734 0.766734 0.766734 0.766734 0.766734 0.766734 0.766734 0.766734 0.766734 0.766734 0.766734 0.766734 0.766734 0.766734 0.766734 0.766734 0.766734 0.766734 0.766734 0.766734 0.766734 0.766734 0.766734 0.766734 0.766734 0.766734 0.766734 0.766734 0.766734 0.915047 0.915241 0.917883 0.912561 0.914361 0.912325 0.905862 0.908834 0.908132 0.907982 0.908916 0.910150 0.911965 0.913838 0.920182 0.922924 0.930887 0.934127 0.935434 0.934175 0.931211 0.938713 0.936275 0.934518 0.922622 0.925969 0.925619 0.925802 0.924617 0.924740 0.925947 0.925891 0.923762 0.921909 0.919681 0.917857 0.917678 0.917258 0.917210 0.917390 0.917985 0.918423 0.919011 0.915150 0.917414 0.916300 0.912732 0.913154 0.912859 0.916269 0.910377 0.907436 0.901686 0.903193 0.903470 0.908088 0.904594 0.904819 0.905989 0.906723 0.907344 0.906619 0.906665 0.905269 0.906973 0.904667 0.900353 0.898104 0.898543 0.900624 0.905903 0.908196 0.908104 0.905693 0.900006 0.890768 0.889754 0.876585 0.851991 0.853522 0.855217 0.857423 0.857098 0.856692 0.855621 0.852681 0.848272 0.842963 0.846752 0.845880 0.839842 0.823167 0.822574 0.817404 0.824317 0.829663 0.822552 0.825796 0.821050 0.823807 0.824559 0.822342 0.822305 0.818621 0.821639 0.828804 0.828727 0.824207 0.820277 0.812803 0.790556 0.788433 0.794339 0.807504 0.805762 0.801844 0.782593 0.789969 0.787234 0.783664 0.796736 0.796362 0.794478 0.772465 0.738532 0.721510 0.712310 0.713892 0.716686 0.710875 0.706934 0.705574 0.710191 0.670804 0.662694 0.650429 0.649231 0.658605 0.657379 0.656165 0.641003 0.658080 0.653744 0.632971 0.627643 0.578313 0.565826 0.510976 0.514872 0.515694 0.487341 0.476670 0.463228 0.482623 0.495229 0.495422 0.491336 0.463678 0.448583 0.438262 0.440073 0.446729 0.445481 0.450212 0.420945 0.405497 0.395464 0.409102 0.410859 0.412067 0.437291 0.456151 0.459598 0.443596 0.425982 0.421216 0.435753 0.445393 0.456833 0.455606 0.446573 0.423977 0.402407 0.411385 0.445824 0.448714 0.448809 0.436626 0.445503 0.456814 0.440328 0.427399 0.409645 0.455442 0.459296 0.450536 0.400597 0.379419 0.394769 0.398032 0.398733 0.375149 0.381516 0.403008 0.402616 0.409080 0.410171 0.449595 0.503892 0.491784 0.479794 0.502427 0.490624 0.480620 0.459145 0.450241 0.443082 0.425100 0.414743 0.395851 0.393034 0.382381 0.385954 0.408780 0.413683 0.429561 0.404494 0.377431 0.277051 0.351919 0.251312 0.266418 0.266418 0.266418 0.266418 0.266418 0.266418 0.266418 0.266418 0.304410 0.304410 0.304410 0.304410 0.304410 0.304410 0.304410 0.304410 0.304410 0.304410 0.304410 0.304410 0.304410 0.304410 0.304410 0.304410 0.304410 0.304410 0.304410 0.304410 0.304410
0.000000 0.000000 0.000000 0.000000 0.000000 0.000000 0.000000 0.000000 0.000000 0.000000 0.000000 0.000000 0.000000 0.000000 0.000000 0.000000 0.000000 0.000000 0.000000 0.000000 0.000000 0.000000 0.000000 0.000000 0.000000 0.000000 0.000000 0.000000 0.000000 0.000000 0.000000 0.000000 0.000000 0.000000 0.000000 0.000000 0.000000 0.000000 0.000000 0.000000 0.000000 0.000000 0.000000 0.000000 0.000000 0.000000 0.000000 0.000000 0.000000 0.000000 0.000000 0.000000 0.173422 0.173422 0.173422 0.173422 0.173422 0.173422 0.173422 0.191565 0.191565 0.191565 0.191565 0.191565 0.191565 0.191565 0.191565 0.191565 0.191565 0.191565 0.191565 0.191565 0.191565 0.191565 0.191565 0.191565 0.191565 0.191565 0.191565 0.191565 0.191565 0.191565 0.191565 0.191565 0.191565 0.191565 0.191565 0.191565 0.191565 0.191565 0.191565 0.191565 0.191565 0.191565 0.191565 0.191565 0.191565 0.191565 0.191565 0.191565 0.191565 0.191565 0.191565 0.222222 0.222222 0.222222 0.222222 0.222222 0.222222 0.222222 0.222222 0.222222 0.222222 0.222222 0.222222 0.222222 0.222222 0.222222 0.222222 0.222222 0.222222 0.222222 0.222222 0.222222 0.222222 0.222222 0.222222 0.222222 0.222222 0.222222 0.222222 0.222222 0.222222 0.234082 0.234082 0.234082 0.234082 0.234082 0.234082 0.234082 0.234082 0.234082 0.234082 0.234082 0.234082 0.234082 0.234082 0.234082 0.234082 0.234082 0.234082 0.234082 0.234082 0.234082 0.234082 0.234082 0.234082 0.234082 0.244339 0.244339 0.244339 0.244339 0.244339 0.244339 0.244339 0.244339 0.244339 0.244339 0.244339 0.244339 0.244339 0.244339 0.244339 0.244339 0.244339 0.244339 0.244339 0.244339 0.244339 0.248069 0.248069 0.248069 0.248069 0.248069 0.248069 0.248069 0.248069 0.248069 0.248069 0.248069 0.248069 0.248069 0.248069 0.248069 0.248069 0.248069 0.248069 0.248069 0.256074 0.256074 0.256074 0.256074 0.256074 0.256074 0.256074 0.256074 0.256074 0.256074 0.256074 0.256074 0.256074 0.256074 0.256074 0.256074 0.256074 0.256074 0.256074 0.256074 0.256074 0.256074 0.256074 0.256074 0.256074 0.256074 0.256074 0.256074 0.256074 0.256074 0.256074 0.256074 0.256074 0.256074 0.256074 0.256074 0.256074 0.256074 0.256074 0.256074 0.256074 0.256074 0.256074 0.256074 0.256074 0.256074 0.256074 0.256074 0.256074 0.256074 0.256074 0.256074 0.256074 0.256074 0.256074 0.256074 0.256074 0.256074 0.256074 0.256074 0.256074 0.256074 0.260378 0.260378 0.260378 0.260378 0.260378 0.260378 0.260378 0.260378 0.260378 0.260378 0.260378 0.260378 0.260378 0.256074 0.256074 0.256074 0.256074 0.256074 0.256074 0.256074 0.256074 0.256074 0.256074 0.256074 0.256074 0.256074 0.260378 0.260378 0.260378 0.260378 0.260378 0.260378 0.260378 0.260378 0.260378 0.260378 0.260378 0.260378 0.251976 0.251976 0.251976 0.251976 0.251976 0.251976 0.251976 0.251976 0.251976 0.251976 0.251976 0.251976 0.256074 0.256074 0.256074 0.256074 0.256074 0.256074 0.256074 0.256074 0.256074 0.256074 0.256074 0.251976 0.251976 0.251976 0.251976 0.251976 0.251976 0.251976 0.251976 0.251976 0.251976 0.251976 0.260378 0.260378 0.260378 0.260378 0.260378 0.260378 0.260378 0.260378 0.260378 0.260378 0.244339 0.244339 0.244339 0.244339 0.244339 0.244339 0.244339 0.244339 0.244339 0.244339 0.244339 0.244339 0.244339 0.244339 0.244339 0.244339 0.244339 0.244339 0.244339 0.244339 0.244339
