# Output from CTFFind version 4.1.9, run on 2019-11-03 20:02:29
# Input file: stack6_bm3d_averaged_1_6.5_0_50_half.mrc ; Number of micrographs: 1
# Pixel size: 3.000 Angstroms ; acceleration voltage: 300.0 keV ; spherical aberration: 0.00 mm ; amplitude contrast: 0.07
# Box size: 512 pixels ; min. res.: 30.0 Angstroms ; max. res.: 5.0 Angstroms ; min. def.: 5000.0 um; max. def. 50000.0 um; num. frames averaged: 1
# 6 lines per micrograph: #1 - spatial frequency (1/Angstroms); #2 - 1D rotational average of spectrum (assuming no astigmatism); #3 - 1D rotational average of spectrum; #4 - CTF fit; #5 - cross-correlation between spectrum and CTF fit; #6 - 2sigma of expected cross correlation of noise
0.000000 0.000651 0.001302 0.001953 0.002604 0.003255 0.003906 0.004557 0.005208 0.005859 0.006510 0.007161 0.007812 0.008464 0.009115 0.009766 0.010417 0.011068 0.011719 0.012370 0.013021 0.013672 0.014323 0.014974 0.015625 0.016276 0.016927 0.017578 0.018229 0.018880 0.019531 0.020182 0.020833 0.021484 0.022135 0.022786 0.023438 0.024089 0.024740 0.025391 0.026042 0.026693 0.027344 0.027995 0.028646 0.029297 0.029948 0.030599 0.031250 0.031901 0.032552 0.033203 0.033854 0.034505 0.035156 0.035807 0.036458 0.037109 0.037760 0.038411 0.039062 0.039714 0.040365 0.041016 0.041667 0.042318 0.042969 0.043620 0.044271 0.044922 0.045573 0.046224 0.046875 0.047526 0.048177 0.048828 0.049479 0.050130 0.050781 0.051432 0.052083 0.052734 0.053385 0.054036 0.054688 0.055339 0.055990 0.056641 0.057292 0.057943 0.058594 0.059245 0.059896 0.060547 0.061198 0.061849 0.062500 0.063151 0.063802 0.064453 0.065104 0.065755 0.066406 0.067057 0.067708 0.068359 0.069010 0.069661 0.070312 0.070964 0.071615 0.072266 0.072917 0.073568 0.074219 0.074870 0.075521 0.076172 0.076823 0.077474 0.078125 0.078776 0.079427 0.080078 0.080729 0.081380 0.082031 0.082682 0.083333 0.083984 0.084635 0.085286 0.085938 0.086589 0.087240 0.087891 0.088542 0.089193 0.089844 0.090495 0.091146 0.091797 0.092448 0.093099 0.093750 0.094401 0.095052 0.095703 0.096354 0.097005 0.097656 0.098307 0.098958 0.099609 0.100260 0.100911 0.101562 0.102214 0.102865 0.103516 0.104167 0.104818 0.105469 0.106120 0.106771 0.107422 0.108073 0.108724 0.109375 0.110026 0.110677 0.111328 0.111979 0.112630 0.113281 0.113932 0.114583 0.115234 0.115885 0.116536 0.117188 0.117839 0.118490 0.119141 0.119792 0.120443 0.121094 0.121745 0.122396 0.123047 0.123698 0.124349 0.125000 0.125651 0.126302 0.126953 0.127604 0.128255 0.128906 0.129557 0.130208 0.130859 0.131510 0.132161 0.132812 0.133464 0.134115 0.134766 0.135417 0.136068 0.136719 0.137370 0.138021 0.138672 0.139323 0.139974 0.140625 0.141276 0.141927 0.142578 0.143229 0.143880 0.144531 0.145182 0.145833 0.146484 0.147135 0.147786 0.148438 0.149089 0.149740 0.150391 0.151042 0.151693 0.152344 0.152995 0.153646 0.154297 0.154948 0.155599 0.156250 0.156901 0.157552 0.158203 0.158854 0.159505 0.160156 0.160807 0.161458 0.162109 0.162760 0.163411 0.164062 0.164714 0.165365 0.166016 0.166667 0.167318 0.167969 0.168620 0.169271 0.169922 0.170573 0.171224 0.171875 0.172526 0.173177 0.173828 0.174479 0.175130 0.175781 0.176432 0.177083 0.177734 0.178385 0.179036 0.179688 0.180339 0.180990 0.181641 0.182292 0.182943 0.183594 0.184245 0.184896 0.185547 0.186198 0.186849 0.187500 0.188151 0.188802 0.189453 0.190104 0.190755 0.191406 0.192057 0.192708 0.193359 0.194010 0.194661 0.195312 0.195964 0.196615 0.197266 0.197917 0.198568 0.199219 0.199870 0.200521 0.201172 0.201823 0.202474 0.203125 0.203776 0.204427 0.205078 0.205729 0.206380 0.207031 0.207682 0.208333 0.208984 0.209635 0.210286 0.210938 0.211589 0.212240 0.212891 0.213542 0.214193 0.214844 0.215495 0.216146 0.216797 0.217448 0.218099 0.218750 0.219401 0.220052 0.220703 0.221354 0.222005 0.222656 0.223307 0.223958 0.224609 0.225260 0.225911 0.226562 0.227214 0.227865 0.228516 0.229167 0.229818 0.230469 0.231120 0.231771 0.232422 0.233073 0.233724 0.234375 0.235026 0.235677
       0.32730        0.32730        0.32730        0.32730        0.32730        0.32730        0.32730        0.32730        0.32730        0.32730        0.32730        0.32730        0.32730        0.32730        0.32730        0.32730        0.32730        0.32730        0.32730        0.32730        0.32730        0.32730        0.32730        0.32730        0.32730        0.32730        0.32730        0.32730        0.32730        0.32730        0.32730        0.32730        0.32730        0.32730        0.32730        0.32730        0.32730        0.32730        0.32730        0.32730        0.32730        0.32730        0.32730        0.32730        0.32730        0.32730        0.32730        0.32730        0.32730        0.32730        0.32730        0.59723        0.71256        0.36323        0.17534        0.13662       -0.13360        0.11186        0.03855        0.04110        0.09321        0.30894        0.31151        0.23907        0.14311       -0.03789       -0.01088        0.04944       -0.09915       -0.10587       -0.07233       -0.08161       -0.18561       -0.11944       -0.22989       -0.24875       -0.24561       -0.30587       -0.37889       -0.31015       -0.21797       -0.18472       -0.29014       -0.21234       -0.25652       -0.19777       -0.13307       -0.07611       -0.04591        0.01311        0.05775        0.14487        0.18672        0.22840        0.34434        0.41028        0.35974        0.47749        0.54576        0.55425        0.63256        0.55918        0.58911        0.60210        0.60581        0.60101        0.55823        0.59086        0.54411        0.39535        0.34746        0.37506        0.34438        0.20771        0.19307        0.16449        0.10938        0.10920        0.03411        0.09675        0.07694        0.04045        0.12469        0.18134        0.27179        0.35186        0.36089        0.38946        0.44846        0.48362        0.42040        0.64210        0.54753        0.48232        0.57101        0.50158        0.55292        0.51409        0.38460        0.32185        0.30483        0.25745        0.24729        0.21083        0.19191        0.16556        0.25303        0.23166        0.25803        0.22688        0.27364        0.33309        0.33820        0.44926        0.44342        0.42595        0.41842        0.47787        0.43553        0.42100        0.40366        0.39989        0.33703        0.28456        0.27000        0.26484        0.26433        0.21026        0.19281        0.24511        0.25964        0.28585        0.35112        0.38003        0.42525        0.41025        0.42982        0.48145        0.46858        0.42965        0.38593        0.41719        0.37715        0.32869        0.33749        0.32629        0.26755        0.28182        0.27922        0.25104        0.31810        0.29448        0.31286        0.33339        0.39359        0.41870        0.41110        0.43957        0.38663        0.42822        0.39985        0.32441        0.29692        0.26487        0.27897        0.24763        0.21951        0.30904        0.36907        0.33313        0.30570        0.36084        0.28357        0.34233        0.39663        0.38426        0.36473        0.38169        0.34228        0.35989        0.33617        0.30124        0.28656        0.26074        0.31355        0.32596        0.34255        0.35958        0.38668        0.37258        0.37258        0.32611        0.35393        0.35825        0.34033        0.32839        0.29348        0.28886        0.26579        0.33763        0.33544        0.34109        0.31105        0.34530        0.36058        0.33714        0.35525        0.34366        0.30982        0.30507        0.30595        0.27711        0.26535        0.25576        0.25130        0.27129        0.26272        0.30237        0.28051        0.31970        0.35035        0.26320        0.29692        0.28150        0.23700        0.29099        0.27364        0.27418        0.30119        0.32295        0.32324        0.31258        0.31205        0.30867        0.34431        0.35294        0.29842        0.32625        0.31932        0.36924        0.28291        0.27612        0.28659        0.30848        0.32921        0.35524        0.35722        0.30073        0.23350        0.29718        0.26148        0.25649        0.25752        0.26573        0.29989        0.23131        0.30223        0.32568        0.36293        0.31436        0.30667        0.27271        0.29231        0.29088        0.25545        0.27816        0.27222        0.29427        0.34890        0.34040        0.28820        0.31275        0.33140        0.26382        0.23289        0.18678        0.32323        0.33275        0.35427        0.33618        0.29752        0.23173        0.21655        0.26492        0.26388        0.26597        0.28423        0.29025        0.24308        0.27026        0.26670        0.30728        0.27523        0.27047        0.26976        0.25068        0.21045        0.26907        0.24632        0.21893        0.27298        0.25198        0.26085        0.22069        0.20481        0.27175        0.27747        0.26369        0.18516        0.14864        0.30763        0.22583        0.23963        0.27489        0.17070        0.16590        0.18918        0.25128        0.26168        0.11860       -0.08300       -0.59417       -0.95080
2.387744 2.367488 2.347322 2.327246 2.307260 2.287364 2.267557 2.247841 2.228215 2.208679 2.189232 2.169876 2.150610 2.131433 2.112347 2.093351 2.074444 2.055628 2.036902 2.018265 1.999719 1.981262 1.962896 1.944619 1.926433 1.908336 1.890330 1.872413 1.854586 1.836850 1.819203 1.801646 1.784180 1.766803 1.749516 1.732319 1.715213 1.698196 1.681269 1.664432 1.647685 1.631029 1.614462 1.597985 1.581598 1.565301 1.549094 1.532977 1.516950 1.501013 1.485166 1.844618 2.182242 1.512980 1.329447 1.096914 0.520921 0.926910 0.810698 0.841415 0.702040 1.407902 1.196928 1.212761 0.982631 0.607668 0.475466 0.748316 0.592793 0.272682 0.280702 0.485798 0.240927 0.260487 0.110883 -0.001110 -0.015493 -0.009117 -0.313678 -0.153242 0.008418 -0.006139 -0.086774 -0.015294 -0.113154 -0.094396 0.067540 0.187062 0.252497 0.279294 0.376744 0.621640 0.557996 0.654551 0.826102 1.049389 0.801774 1.247279 1.183206 1.257239 1.358797 1.254156 1.167086 1.356392 1.227382 1.347141 1.193727 1.177425 1.212603 0.959993 0.696448 0.743349 0.790469 0.484060 0.432843 0.367739 0.229152 0.197218 0.037826 0.216760 0.168115 0.047345 0.128922 0.231669 0.354564 0.608324 0.607714 0.607980 0.696283 0.879051 0.588816 1.025768 1.042984 0.770194 0.924336 0.764860 0.870514 0.906891 0.638307 0.400396 0.424762 0.370108 0.219879 0.223904 0.167527 -0.013036 0.236557 0.209276 0.255708 0.145087 0.254664 0.331794 0.281514 0.499640 0.601003 0.541575 0.363135 0.657397 0.556725 0.438036 0.531104 0.439703 0.281510 0.322499 0.130733 0.207928 0.030007 0.214222 -0.059788 0.056803 0.059229 0.256709 0.062429 0.396376 0.343428 0.398868 0.386841 0.411631 0.579480 0.407763 0.359438 0.412875 0.206099 0.349114 0.122824 0.269124 0.069353 0.099872 0.088484 0.070690 0.048758 0.161007 0.064875 0.157057 0.241991 0.284781 0.334049 0.267409 0.347270 0.263771 0.294892 0.179832 0.103479 0.023710 -0.011058 0.019941 -0.073273 -0.065237 0.121876 0.215207 0.062974 0.110805 0.119570 0.011307 0.182734 0.251488 0.189305 0.197046 0.134613 0.159898 0.112850 0.103727 0.049545 -0.082867 -0.011601 0.138984 0.038053 0.147808 0.127669 0.224040 0.194628 0.171349 0.112845 0.190601 0.104487 0.138225 0.104472 0.029790 -0.009155 -0.001325 0.134041 0.129298 0.123158 0.059903 0.153599 0.143482 0.054411 0.142288 0.050463 -0.006642 0.027054 0.005599 -0.056071 -0.065040 -0.112409 -0.043905 -0.055858 -0.089234 0.017265 -0.022379 0.060176 0.093067 -0.094487 0.039286 -0.048715 -0.106278 0.041398 -0.040901 -0.066038 0.039114 0.091558 0.031334 0.060658 -0.039223 0.036793 0.173978 0.003908 -0.031950 0.088614 0.043285 0.122254 -0.087320 -0.043941 -0.017171 0.063941 0.051957 0.087493 0.141540 -0.027289 -0.100980 0.009405 -0.062057 -0.064023 -0.049169 -0.056179 0.034100 -0.174041 0.114527 0.100076 0.181960 0.037602 0.024062 0.010988 0.026750 0.079234 -0.049731 0.030505 0.004283 0.072838 0.129053 0.174682 0.050216 0.137716 0.178288 -0.038342 -0.003493 -0.157645 0.212830 0.147103 0.203116 0.158566 0.046879 -0.054237 -0.086336 -0.005926 0.005330 -0.006853 0.036754 0.063441 -0.066505 0.003343 0.080347 0.083534 0.048821 0.028016 0.060237 -0.063892 -0.037379 0.042096 -0.004192 -0.080049 0.080114 0.009166 -0.022173 -0.010338 -0.067226 0.088499 0.126510 0.021407 -0.087139 -0.292940 0.275495 0.506537 0.413745 0.560783 0.268674 0.320104 0.352503 0.528166 0.497654 0.144019 0.100460 -0.881280
0.072396 0.072838 0.074163 0.076371 0.079462 0.083435 0.088289 0.094022 0.100634 0.108122 0.116484 0.125716 0.135815 0.146776 0.158594 0.171262 0.184772 0.199116 0.214282 0.230259 0.247032 0.264586 0.282903 0.301961 0.321739 0.342209 0.363344 0.385111 0.407474 0.430396 0.453833 0.477738 0.502061 0.526747 0.551735 0.576960 0.602354 0.627843 0.653346 0.678779 0.704051 0.729069 0.753731 0.777931 0.801559 0.824499 0.846629 0.867825 0.887956 0.906890 0.924488 0.940610 0.955112 0.967851 0.978680 0.987451 0.994019 0.998237 0.999964 0.999060 0.995388 0.988821 0.979236 0.966518 0.950564 0.931282 0.908590 0.882425 0.852736 0.819493 0.782682 0.742313 0.698416 0.651047 0.600285 0.546238 0.489041 0.428857 0.365881 0.300336 0.232478 0.162594 0.091002 0.018050 0.055883 0.130388 0.205031 0.279348 0.352856 0.425047 0.495396 0.563366 0.628407 0.689964 0.747479 0.800402 0.848190 0.890315 0.926273 0.955588 0.977820 0.992569 0.999485 0.998277 0.988713 0.970632 0.943948 0.908657 0.864842 0.812675 0.752424 0.684454 0.609231 0.527317 0.439375 0.346165 0.248540 0.147440 0.043885 0.061028 0.166143 0.270251 0.372106 0.470437 0.563965 0.651424 0.731572 0.803218 0.865233 0.916578 0.956321 0.983654 0.997916 0.998607 0.985407 0.958192 0.917039 0.862242 0.794319 0.714007 0.622269 0.520285 0.409446 0.291336 0.167716 0.040506 0.088250 0.216406 0.341757 0.462066 0.575119 0.678750 0.770902 0.849658 0.913296 0.960323 0.989521 0.999980 0.991137 0.962795 0.915150 0.848800 0.764752 0.664419 0.549605 0.422480 0.285552 0.141622 0.006269 0.154897 0.300927 0.440980 0.571721 0.689935 0.792613 0.877034 0.940842 0.982127 0.999484 0.992074 0.959665 0.902665 0.822136 0.719788 0.597962 0.459586 0.308120 0.147478 0.018066 0.183983 0.345614 0.498297 0.637510 0.759000 0.858929 0.934004 0.981593 0.999836 0.987727 0.945176 0.873050 0.773168 0.648289 0.502048 0.338864 0.163824 0.017463 0.199040 0.374797 0.538674 0.684877 0.808085 0.903659 0.967832 0.997874 0.992225 0.950588 0.873990 0.764777 0.626575 0.464192 0.283467 0.091080 0.105682 0.299199 0.481803 0.646095 0.785242 0.893285 0.965408 0.998170 0.989698 0.939809 0.850073 0.723801 0.565943 0.382939 0.182460 0.026882 0.235900 0.435226 0.615737 0.768976 0.887568 0.965597 0.998919 0.985421 0.925170 0.820481 0.675864 0.497862 0.294798 0.076395 0.146661 0.363236 0.562304 0.733521 0.867767 0.957665 0.998014 0.986118 0.922006 0.808499 0.651135 0.457938 0.239048 0.006209 0.227834 0.450029 0.647754 0.809529 0.925727 0.989163 0.995583 0.943987 0.836772 0.679681 0.481538 0.253798 0.009912 0.235431 0.467203 0.670938 0.833664 0.944749 0.996643 0.985427 0.911160 0.777971 0.593885 0.370404 0.121820 0.135662 0.384967 0.609279 0.793179 0.923751 0.991510 0.991152 0.922021 0.788260 0.598637 0.366026 0.106581 0.161341 0.418481 0.646035 0.827068 0.947796 0.998685 0.975268 0.878586 0.715243 0.497021 0.240102 0.036101 0.310362 0.561273 0.768927 0.916516 0.991754 0.987952 0.904681 0.747947 0.529842 0.267673 0.017345 0.301778 0.561874 0.775578 0.924413 0.995148 0.981031 0.882517 0.707374 0.470168 0.191118 0.105567 0.393759 0.647693 0.844311 0.965377 0.999256 0.942097 0.798357 0.580554 0.308267 0.006448 0.296823 0.572914 0.795383 0.942524 0.999570 0.960250 0.827572 0.613716 0.339009 0.030078 0.282680 0.568056 0.797160 0.946401 0.999962
1.000000 1.000000 1.000000 1.000000 1.000000 1.000000 1.000000 1.000000 1.000000 1.000000 1.000000 1.000000 1.000000 1.000000 1.000000 1.000000 1.000000 1.000000 1.000000 1.000000 1.000000 1.000000 1.000000 1.000000 1.000000 1.000000 1.000000 1.000000 1.000000 1.000000 1.000000 1.000000 1.000000 1.000000 1.000000 1.000000 1.000000 1.000000 1.000000 1.000000 1.000000 1.000000 1.000000 1.000000 1.000000 1.000000 1.000000 1.000000 1.000000 1.000000 1.000000 1.000000 0.776337 0.776337 0.776337 0.776337 0.776337 0.776337 0.776337 0.760664 0.760664 0.760664 0.760664 0.760664 0.760664 0.760664 0.760664 0.760664 0.760664 0.760664 0.760664 0.760664 0.760664 0.760664 0.760664 0.760664 0.760664 0.760664 0.760664 0.760664 0.760664 0.760664 0.760664 0.760664 0.760664 0.760664 0.760664 0.760664 0.760664 0.760664 0.760664 0.760664 0.760664 0.760664 0.760664 0.760664 0.760664 0.760664 0.760664 0.760664 0.760664 0.760664 0.760664 0.902420 0.903856 0.906847 0.902244 0.904157 0.902019 0.895580 0.898515 0.898330 0.898153 0.899205 0.900832 0.902808 0.910136 0.919037 0.920908 0.927917 0.931377 0.932512 0.932392 0.931044 0.938544 0.936099 0.934340 0.922443 0.925797 0.927668 0.928600 0.927413 0.927529 0.928792 0.929422 0.927321 0.925513 0.923341 0.921578 0.923169 0.922378 0.922563 0.922725 0.922901 0.921304 0.921895 0.918061 0.918963 0.917846 0.914275 0.910962 0.910530 0.911678 0.910017 0.906774 0.900956 0.907155 0.907512 0.907475 0.906370 0.906579 0.906938 0.907670 0.908288 0.905224 0.905270 0.902763 0.904580 0.900842 0.896279 0.890799 0.890998 0.892992 0.899748 0.901798 0.900660 0.898202 0.891030 0.881072 0.879812 0.867080 0.833610 0.835494 0.839117 0.841534 0.842458 0.841865 0.838628 0.833753 0.824263 0.814772 0.819296 0.820104 0.812000 0.806721 0.807602 0.807856 0.815178 0.819237 0.811448 0.808847 0.808324 0.804257 0.803411 0.804494 0.800003 0.795025 0.799096 0.807395 0.807820 0.792621 0.788378 0.785802 0.772162 0.778901 0.785515 0.788405 0.789744 0.786807 0.775187 0.772935 0.766077 0.776267 0.784296 0.783146 0.778610 0.760713 0.718691 0.707212 0.683011 0.684403 0.685907 0.656313 0.655373 0.656959 0.661919 0.609017 0.590617 0.577733 0.577838 0.585429 0.590426 0.584022 0.555467 0.574204 0.571727 0.557263 0.553298 0.529967 0.515056 0.490188 0.492679 0.491148 0.480110 0.453224 0.449634 0.467238 0.476450 0.472679 0.469657 0.441233 0.420679 0.422444 0.416531 0.417555 0.421384 0.430171 0.377452 0.353241 0.336628 0.364890 0.365561 0.364291 0.377685 0.373274 0.367425 0.343923 0.322853 0.301356 0.313678 0.333817 0.339582 0.343652 0.309592 0.298047 0.279084 0.283937 0.327901 0.314697 0.329283 0.330505 0.335355 0.362356 0.338060 0.314492 0.290829 0.333207 0.330444 0.310339 0.293360 0.306749 0.324975 0.326124 0.321677 0.314318 0.361193 0.378621 0.361089 0.362897 0.329651 0.355379 0.390958 0.383908 0.386378 0.398127 0.400079 0.376526 0.322239 0.300067 0.302150 0.277610 0.275723 0.259819 0.244638 0.236597 0.247382 0.269447 0.275578 0.308897 0.280935 0.243069 0.150269 0.218985 0.137864 0.145866 0.145866 0.145866 0.145866 0.145866 0.145866 0.145866 0.145866 0.173121 0.173121 0.173121 0.173121 0.173121 0.173121 0.173121 0.173121 0.173121 0.173121 0.173121 0.173121 0.173121 0.173121 0.173121 0.173121 0.173121 0.173121 0.173121 0.173121 0.173121
0.000000 0.000000 0.000000 0.000000 0.000000 0.000000 0.000000 0.000000 0.000000 0.000000 0.000000 0.000000 0.000000 0.000000 0.000000 0.000000 0.000000 0.000000 2.000000 0.000000 0.000000 0.000000 0.000000 0.000000 0.000000 0.000000 0.000000 0.000000 0.000000 0.000000 0.000000 0.000000 0.000000 0.000000 0.000000 0.000000 0.000000 0.000000 0.000000 0.000000 0.000000 0.000000 0.000000 0.000000 0.000000 0.000000 0.000000 0.000000 0.000000 0.000000 0.000000 0.000000 0.173422 0.173422 0.173422 0.173422 0.173422 0.173422 0.173422 0.191565 0.191565 0.191565 0.191565 0.191565 0.191565 0.191565 0.191565 0.191565 0.191565 0.191565 0.191565 0.191565 0.191565 0.191565 0.191565 0.191565 0.191565 0.191565 0.191565 0.191565 0.191565 0.191565 0.191565 0.191565 0.191565 0.191565 0.191565 0.191565 0.191565 0.191565 0.191565 0.191565 0.191565 0.191565 0.191565 0.191565 0.191565 0.191565 0.191565 0.191565 0.191565 0.191565 0.191565 0.222222 0.222222 0.222222 0.222222 0.222222 0.222222 0.222222 0.222222 0.222222 0.222222 0.222222 0.222222 0.222222 0.222222 0.222222 0.222222 0.222222 0.222222 0.222222 0.222222 0.222222 0.222222 0.222222 0.222222 0.222222 0.222222 0.222222 0.222222 0.222222 0.222222 0.234082 0.234082 0.234082 0.234082 0.234082 0.234082 0.234082 0.234082 0.234082 0.234082 0.234082 0.234082 0.234082 0.234082 0.234082 0.234082 0.234082 0.234082 0.234082 0.234082 0.234082 0.234082 0.234082 0.234082 0.234082 0.244339 0.244339 0.244339 0.244339 0.244339 0.244339 0.244339 0.244339 0.244339 0.244339 0.244339 0.244339 0.244339 0.244339 0.244339 0.244339 0.244339 0.244339 0.244339 0.244339 0.244339 0.248069 0.248069 0.248069 0.248069 0.248069 0.248069 0.248069 0.248069 0.248069 0.248069 0.248069 0.248069 0.248069 0.248069 0.248069 0.248069 0.248069 0.248069 0.248069 0.256074 0.256074 0.256074 0.256074 0.256074 0.256074 0.256074 0.256074 0.256074 0.256074 0.256074 0.256074 0.256074 0.256074 0.256074 0.256074 0.256074 0.256074 0.256074 0.256074 0.256074 0.256074 0.256074 0.256074 0.256074 0.256074 0.256074 0.256074 0.256074 0.256074 0.256074 0.256074 0.256074 0.256074 0.256074 0.256074 0.256074 0.256074 0.256074 0.256074 0.256074 0.256074 0.256074 0.256074 0.256074 0.256074 0.256074 0.256074 0.256074 0.256074 0.256074 0.256074 0.256074 0.256074 0.256074 0.256074 0.256074 0.256074 0.256074 0.256074 0.256074 0.256074 0.260378 0.260378 0.260378 0.260378 0.260378 0.260378 0.260378 0.260378 0.260378 0.260378 0.260378 0.260378 0.260378 0.256074 0.256074 0.256074 0.256074 0.256074 0.256074 0.256074 0.256074 0.256074 0.256074 0.256074 0.256074 0.256074 0.260378 0.260378 0.260378 0.260378 0.260378 0.260378 0.260378 0.260378 0.260378 0.260378 0.260378 0.260378 0.251976 0.251976 0.251976 0.251976 0.251976 0.251976 0.251976 0.251976 0.251976 0.251976 0.251976 0.251976 0.256074 0.256074 0.256074 0.256074 0.256074 0.256074 0.256074 0.256074 0.256074 0.256074 0.256074 0.251976 0.251976 0.251976 0.251976 0.251976 0.251976 0.251976 0.251976 0.251976 0.251976 0.251976 0.260378 0.260378 0.260378 0.260378 0.260378 0.260378 0.260378 0.260378 0.260378 0.260378 0.244339 0.244339 0.244339 0.244339 0.244339 0.244339 0.244339 0.244339 0.244339 0.244339 0.244339 0.244339 0.244339 0.244339 0.244339 0.244339 0.244339 0.244339 0.244339 0.244339 0.244339
