# Output from CTFFind version 4.1.9, run on 2019-11-02 17:58:59
# Input file: stack11_bm3d_averaged_1_1.75_0_1000_half.mrc ; Number of micrographs: 1
# Pixel size: 3.000 Angstroms ; acceleration voltage: 300.0 keV ; spherical aberration: 0.00 mm ; amplitude contrast: 0.07
# Box size: 512 pixels ; min. res.: 30.0 Angstroms ; max. res.: 5.0 Angstroms ; min. def.: 5000.0 um; max. def. 50000.0 um; num. frames averaged: 1
# 6 lines per micrograph: #1 - spatial frequency (1/Angstroms); #2 - 1D rotational average of spectrum (assuming no astigmatism); #3 - 1D rotational average of spectrum; #4 - CTF fit; #5 - cross-correlation between spectrum and CTF fit; #6 - 2sigma of expected cross correlation of noise
0.000000 0.000651 0.001302 0.001953 0.002604 0.003255 0.003906 0.004557 0.005208 0.005859 0.006510 0.007161 0.007812 0.008464 0.009115 0.009766 0.010417 0.011068 0.011719 0.012370 0.013021 0.013672 0.014323 0.014974 0.015625 0.016276 0.016927 0.017578 0.018229 0.018880 0.019531 0.020182 0.020833 0.021484 0.022135 0.022786 0.023438 0.024089 0.024740 0.025391 0.026042 0.026693 0.027344 0.027995 0.028646 0.029297 0.029948 0.030599 0.031250 0.031901 0.032552 0.033203 0.033854 0.034505 0.035156 0.035807 0.036458 0.037109 0.037760 0.038411 0.039062 0.039714 0.040365 0.041016 0.041667 0.042318 0.042969 0.043620 0.044271 0.044922 0.045573 0.046224 0.046875 0.047526 0.048177 0.048828 0.049479 0.050130 0.050781 0.051432 0.052083 0.052734 0.053385 0.054036 0.054688 0.055339 0.055990 0.056641 0.057292 0.057943 0.058594 0.059245 0.059896 0.060547 0.061198 0.061849 0.062500 0.063151 0.063802 0.064453 0.065104 0.065755 0.066406 0.067057 0.067708 0.068359 0.069010 0.069661 0.070312 0.070964 0.071615 0.072266 0.072917 0.073568 0.074219 0.074870 0.075521 0.076172 0.076823 0.077474 0.078125 0.078776 0.079427 0.080078 0.080729 0.081380 0.082031 0.082682 0.083333 0.083984 0.084635 0.085286 0.085938 0.086589 0.087240 0.087891 0.088542 0.089193 0.089844 0.090495 0.091146 0.091797 0.092448 0.093099 0.093750 0.094401 0.095052 0.095703 0.096354 0.097005 0.097656 0.098307 0.098958 0.099609 0.100260 0.100911 0.101562 0.102214 0.102865 0.103516 0.104167 0.104818 0.105469 0.106120 0.106771 0.107422 0.108073 0.108724 0.109375 0.110026 0.110677 0.111328 0.111979 0.112630 0.113281 0.113932 0.114583 0.115234 0.115885 0.116536 0.117188 0.117839 0.118490 0.119141 0.119792 0.120443 0.121094 0.121745 0.122396 0.123047 0.123698 0.124349 0.125000 0.125651 0.126302 0.126953 0.127604 0.128255 0.128906 0.129557 0.130208 0.130859 0.131510 0.132161 0.132812 0.133464 0.134115 0.134766 0.135417 0.136068 0.136719 0.137370 0.138021 0.138672 0.139323 0.139974 0.140625 0.141276 0.141927 0.142578 0.143229 0.143880 0.144531 0.145182 0.145833 0.146484 0.147135 0.147786 0.148438 0.149089 0.149740 0.150391 0.151042 0.151693 0.152344 0.152995 0.153646 0.154297 0.154948 0.155599 0.156250 0.156901 0.157552 0.158203 0.158854 0.159505 0.160156 0.160807 0.161458 0.162109 0.162760 0.163411 0.164062 0.164714 0.165365 0.166016 0.166667 0.167318 0.167969 0.168620 0.169271 0.169922 0.170573 0.171224 0.171875 0.172526 0.173177 0.173828 0.174479 0.175130 0.175781 0.176432 0.177083 0.177734 0.178385 0.179036 0.179688 0.180339 0.180990 0.181641 0.182292 0.182943 0.183594 0.184245 0.184896 0.185547 0.186198 0.186849 0.187500 0.188151 0.188802 0.189453 0.190104 0.190755 0.191406 0.192057 0.192708 0.193359 0.194010 0.194661 0.195312 0.195964 0.196615 0.197266 0.197917 0.198568 0.199219 0.199870 0.200521 0.201172 0.201823 0.202474 0.203125 0.203776 0.204427 0.205078 0.205729 0.206380 0.207031 0.207682 0.208333 0.208984 0.209635 0.210286 0.210938 0.211589 0.212240 0.212891 0.213542 0.214193 0.214844 0.215495 0.216146 0.216797 0.217448 0.218099 0.218750 0.219401 0.220052 0.220703 0.221354 0.222005 0.222656 0.223307 0.223958 0.224609 0.225260 0.225911 0.226562 0.227214 0.227865 0.228516 0.229167 0.229818 0.230469 0.231120 0.231771 0.232422 0.233073 0.233724 0.234375 0.235026 0.235677
       0.31689        0.31689        0.31689        0.31689        0.31689        0.31689        0.31689        0.31689        0.31689        0.31689        0.31689        0.31689        0.31689        0.31689        0.31689        0.31689        0.31689        0.31689        0.31689        0.31689        0.31689        0.31689        0.31689        0.31689        0.31689        0.31689        0.31689        0.31689        0.31689        0.31689        0.31689        0.31689        0.31689        0.31689        0.31689        0.31689        0.31689        0.31689        0.31689        0.31689        0.31689        0.31689        0.31689        0.31689        0.31689        0.31689        0.31689        0.31689        0.31689        0.31689        0.31689        0.68227        0.86722        0.52295        0.08822       -0.06368       -0.42551       -0.20520       -0.29739       -0.11783       -0.07658       -0.11879       -0.06806       -0.20732       -0.23475       -0.25681       -0.33065       -0.33827       -0.48855       -0.38177       -0.46422       -0.44779       -0.42074       -0.46730       -0.53836       -0.56071       -0.58697       -0.62065       -0.57746       -0.41409       -0.37835       -0.33074       -0.31366       -0.21068       -0.19940        0.01927        0.07662        0.10782        0.22605        0.37040        0.44240        0.51430        0.55855        0.55487        0.56898        0.69574        0.81097        0.73772        0.73251        0.66557        0.57771        0.48242        0.40662        0.49410        0.37757        0.20533        0.07703        0.04653        0.01443       -0.06125       -0.03764       -0.01915       -0.06844       -0.00798       -0.01936        0.21304        0.25133        0.28884        0.42842        0.45856        0.40325        0.53737        0.62437        0.69498        0.76106        0.68789        0.65482        0.69626        0.58284        0.49931        0.41847        0.29029        0.19157        0.15577        0.10808        0.03783        0.01082        0.00157        0.07487        0.13108        0.20579        0.27936        0.39682        0.41834        0.50620        0.60096        0.63282        0.61845        0.62801        0.55482        0.44725        0.44937        0.35247        0.22826        0.18278        0.14631        0.11230        0.12291        0.07334        0.10425        0.23123        0.26372        0.34384        0.35670        0.45010        0.51364        0.53655        0.54781        0.46998        0.42975        0.38940        0.36409        0.30547        0.25107        0.20326        0.18816        0.16466        0.19430        0.17896        0.27147        0.33344        0.36646        0.42544        0.45964        0.47632        0.43946        0.39242        0.41319        0.37190        0.28352        0.26734        0.22341        0.21491        0.19399        0.21682        0.23001        0.32722        0.37217        0.37002        0.46211        0.43549        0.43640        0.42923        0.39435        0.34431        0.32591        0.27753        0.24369        0.23687        0.27069        0.27338        0.30206        0.30401        0.33585        0.32734        0.40699        0.41890        0.37708        0.34670        0.36480        0.27993        0.28085        0.26063        0.27788        0.26165        0.28058        0.29086        0.31066        0.34794        0.36078        0.36116        0.33672        0.35239        0.28771        0.32160        0.26776        0.24375        0.28662        0.28512        0.30975        0.31099        0.32801        0.32743        0.31535        0.31831        0.28644        0.28846        0.26134        0.28200        0.26362        0.30610        0.28337        0.26699        0.30739        0.31175        0.31659        0.28304        0.30026        0.28358        0.25145        0.24427        0.21780        0.28083        0.27694        0.32181        0.31201        0.32000        0.31818        0.30991        0.27549        0.28849        0.32926        0.26672        0.25798        0.29374        0.28895        0.34058        0.33388        0.35150        0.33008        0.30814        0.28262        0.26792        0.25800        0.22511        0.27275        0.30634        0.29583        0.27959        0.29639        0.26879        0.32341        0.32763        0.24994        0.22056        0.27567        0.33082        0.27559        0.30702        0.32552        0.32461        0.30122        0.32220        0.34213        0.30025        0.28765        0.25576        0.28597        0.35492        0.35847        0.26685        0.26668        0.25491        0.28662        0.21891        0.28948        0.22760        0.25065        0.33309        0.32228        0.34821        0.29609        0.24051        0.23764        0.24047        0.23112        0.19106        0.22653        0.26952        0.30332        0.26579        0.30904        0.30388        0.27180        0.27162        0.20704        0.16462        0.19677        0.22966        0.19684        0.20955        0.22790        0.20022        0.25280        0.34958        0.30539        0.31743        0.22667        0.23801        0.22210        0.28441        0.29586        0.14832        0.23320        0.23414        0.10768        0.21203        0.11214        0.13838        0.22535        0.11508       -0.11968       -0.59421
2.590007 2.562977 2.536094 2.509357 2.482768 2.456324 2.430027 2.403877 2.377873 2.352016 2.326305 2.300741 2.275324 2.250053 2.224928 2.199950 2.175119 2.150434 2.125895 2.101504 2.077258 2.053159 2.029207 2.005402 1.981743 1.958230 1.934864 1.911645 1.888572 1.865645 1.842865 1.820232 1.797745 1.775405 1.753212 1.731164 1.709264 1.687510 1.665902 1.644441 1.623127 1.601959 1.580938 1.560063 1.539335 1.518753 1.498318 1.478029 1.457887 1.437892 1.418043 1.638149 2.045549 1.619924 1.131341 0.990252 0.420342 0.814058 0.559792 0.834831 0.773410 0.789219 0.751148 0.711583 0.563308 0.515905 0.484555 0.441824 0.207454 0.380165 0.202463 0.309301 0.236518 0.182018 0.135382 0.007272 0.039649 -0.011286 -0.056709 0.105593 0.207868 0.192496 0.155351 0.332791 0.198251 0.495828 0.582688 0.554794 0.596506 0.876387 0.811539 0.944841 0.888926 0.977476 0.944530 1.079110 1.140793 1.071533 1.130410 0.947820 0.942094 0.785028 0.651531 0.773030 0.709411 0.464591 0.309231 0.251091 0.219191 0.148268 0.090651 0.130680 0.074353 0.150889 0.054888 0.263178 0.379974 0.358066 0.481463 0.577730 0.463586 0.551709 0.699179 0.740284 0.781528 0.730341 0.732346 0.712671 0.627554 0.566510 0.428751 0.288148 0.211009 0.080358 0.131876 -0.043649 -0.032624 -0.076218 -0.038611 0.001000 0.149681 0.088333 0.295665 0.280662 0.362622 0.456132 0.524116 0.506960 0.520887 0.507905 0.334878 0.312310 0.281605 0.098761 0.050406 -0.010855 -0.029179 -0.040203 -0.085927 -0.102543 -0.003764 0.059539 0.133330 0.148381 0.230112 0.330139 0.314555 0.407798 0.397670 0.285297 0.231209 0.243724 0.200831 0.104750 0.079293 0.018514 0.002511 0.012262 -0.015012 0.061118 0.150975 0.141803 0.235122 0.253998 0.305803 0.252444 0.222320 0.181069 0.214437 0.139913 0.042303 0.037083 -0.009033 -0.011044 -0.032545 0.018971 0.017790 0.166890 0.131606 0.182887 0.238513 0.199536 0.188718 0.196800 0.142002 0.101464 0.061225 0.051831 -0.030690 0.007195 0.023904 0.057163 0.055631 0.078383 0.094229 0.122573 0.139341 0.189700 0.082009 0.099039 0.073868 0.002263 0.006018 0.008977 -0.005054 0.019723 0.007237 0.029633 0.066848 0.080253 0.128381 0.052665 0.105602 0.058517 0.016047 0.062135 -0.034875 -0.013637 0.030596 0.004376 0.058520 0.052792 0.051835 0.060108 0.058529 0.046429 0.025640 0.001832 0.016553 0.013594 -0.009912 0.072226 -0.013002 0.016103 0.060666 0.051479 0.039731 0.047167 0.039946 0.019461 -0.011435 -0.034507 -0.014702 0.024932 0.034867 0.078143 0.060969 0.066621 0.086544 0.070833 0.025395 0.071836 0.088691 0.015497 0.020495 0.062705 0.053439 0.105338 0.109490 0.105100 0.118947 0.071836 0.044168 0.037468 0.002819 0.003591 0.056397 0.085966 0.048014 0.038184 0.029539 0.021401 0.097629 0.058944 -0.044599 -0.046708 0.033378 0.094153 0.005480 0.023439 0.065618 0.087720 0.030398 0.060920 0.081266 0.037625 0.035240 -0.041837 0.030403 0.115337 0.077156 -0.040007 -0.022395 -0.043666 0.035403 -0.109428 0.039305 -0.094682 -0.027698 0.057192 0.042611 0.033235 -0.035833 -0.062909 -0.076590 -0.084438 -0.066574 -0.116044 -0.085020 -0.024099 0.044993 -0.037138 0.050639 -0.010603 -0.046985 0.045875 -0.106076 -0.107120 -0.082137 -0.015545 -0.050328 -0.049212 0.002657 -0.003449 0.022569 0.198543 -0.013358 0.154724 0.020318 0.244446 0.241572 0.325553 0.276704 0.113361 0.236538 0.280349 0.035415 0.230059 0.114990 0.108618 0.321507 0.117965 -0.616649
0.072396 0.072899 0.074406 0.076917 0.080433 0.084951 0.090471 0.096990 0.104508 0.113021 0.122526 0.133018 0.144492 0.156941 0.170359 0.184736 0.200060 0.216319 0.233498 0.251580 0.270545 0.290369 0.311027 0.332489 0.354723 0.377691 0.401352 0.425660 0.450565 0.476009 0.501933 0.528269 0.554945 0.581882 0.608994 0.636190 0.663372 0.690435 0.717266 0.743748 0.769754 0.795153 0.819805 0.843566 0.866284 0.887803 0.907960 0.926589 0.943518 0.958575 0.971583 0.982363 0.990739 0.996532 0.999568 0.999675 0.996688 0.990446 0.980801 0.967611 0.950748 0.930101 0.905572 0.877085 0.844581 0.808029 0.767421 0.722776 0.674143 0.621606 0.565278 0.505310 0.441891 0.375246 0.305641 0.233381 0.158812 0.082320 0.004333 0.074686 0.154233 0.233771 0.312730 0.390509 0.466483 0.540005 0.610415 0.677040 0.739204 0.796238 0.847481 0.892294 0.930064 0.960217 0.982227 0.995622 0.999997 0.995021 0.980450 0.956131 0.922014 0.878157 0.824736 0.762046 0.690508 0.610672 0.523214 0.428941 0.328782 0.223789 0.115124 0.004051 0.108073 0.219818 0.329693 0.436168 0.537696 0.632731 0.719760 0.797321 0.864040 0.918647 0.960014 0.987176 0.999356 0.995995 0.976768 0.941608 0.890716 0.824577 0.743964 0.649940 0.543851 0.427321 0.302226 0.170679 0.034996 0.102341 0.238723 0.371467 0.497864 0.615238 0.721003 0.812726 0.888190 0.945450 0.982894 0.999292 0.993849 0.966239 0.916639 0.845746 0.754785 0.645504 0.520155 0.381460 0.232560 0.076960 0.081554 0.238997 0.391285 0.534343 0.664213 0.777172 0.869843 0.939311 0.983222 0.999877 0.988308 0.948342 0.880634 0.786685 0.668831 0.530205 0.374670 0.206732 0.031413 0.145882 0.319532 0.483871 0.633383 0.762890 0.867737 0.943983 0.988558 0.999406 0.975602 0.917420 0.826376 0.705216 0.557863 0.389307 0.205471 0.013002 0.180946 0.368976 0.543727 0.698174 0.825916 0.921456 0.980464 0.999992 0.978647 0.916705 0.816158 0.680684 0.515555 0.327454 0.124231 0.085406 0.292252 0.487006 0.660695 0.805095 0.913146 0.979314 0.999911 0.973327 0.900179 0.783354 0.627935 0.441029 0.231466 0.009418 0.214088 0.427695 0.620305 0.781663 0.902928 0.977178 0.999853 0.969061 0.885776 0.753863 0.579953 0.373161 0.144638 0.092990 0.326317 0.541897 0.727031 0.870536 0.963451 0.999639 0.976236 0.893920 0.756979 0.573137 0.353186 0.110386 0.140294 0.383087 0.602412 0.783895 0.915324 0.987532 0.995070 0.936682 0.815506 0.638976 0.418435 0.168464 0.094052 0.351017 0.584394 0.777459 0.916045 0.989622 0.992159 0.922679 0.785469 0.589891 0.349832 0.082753 0.191513 0.452228 0.679313 0.854921 0.964878 0.999891 0.956405 0.837029 0.650483 0.411046 0.137543 0.148106 0.422582 0.663092 0.849268 0.964951 0.999659 0.949610 0.818217 0.615964 0.359666 0.071142 0.224580 0.501415 0.734524 0.902570 0.989743 0.987322 0.894645 0.719351 0.476872 0.189165 0.117211 0.413484 0.671388 0.865874 0.977595 0.994930 0.915286 0.745561 0.501665 0.207155 0.108980 0.415117 0.680137 0.876642 0.983832 0.989816 0.893037 0.702663 0.437850 0.125940 0.200299 0.506061 0.758213 0.928935 0.998882 0.959471 0.814074 0.577891 0.276490 0.056835 0.384700 0.669772 0.879082 0.987884 0.982711 0.863175 0.642278 0.345152 0.006323 0.334201 0.635648 0.861361 0.983348 0.985860 0.867579 0.642063 0.336360 0.012091 0.359973 0.663433 0.883632 0.991812 0.973182 0.829096 0.577203 0.249432 0.111883
1.000000 1.000000 1.000000 1.000000 1.000000 1.000000 1.000000 1.000000 1.000000 1.000000 1.000000 1.000000 1.000000 1.000000 1.000000 1.000000 1.000000 1.000000 1.000000 1.000000 1.000000 1.000000 1.000000 1.000000 1.000000 1.000000 1.000000 1.000000 1.000000 1.000000 1.000000 1.000000 1.000000 1.000000 1.000000 1.000000 1.000000 1.000000 1.000000 1.000000 1.000000 1.000000 1.000000 1.000000 1.000000 1.000000 1.000000 1.000000 1.000000 1.000000 1.000000 1.000000 0.929173 0.929173 0.929173 0.919079 0.919079 0.919079 0.919079 0.919079 0.919079 0.919079 0.919079 0.919079 0.919079 0.919079 0.919079 0.919079 0.919079 0.919079 0.919079 0.919079 0.919079 0.919079 0.919079 0.919079 0.919079 0.919079 0.919079 0.919079 0.919079 0.919079 0.919079 0.919079 0.919079 0.919079 0.919079 0.919079 0.919079 0.919079 0.919079 0.919079 0.919079 0.919079 0.919079 0.919079 0.949346 0.950611 0.958524 0.958366 0.957864 0.955764 0.954838 0.953711 0.953255 0.953530 0.954143 0.954984 0.963712 0.964796 0.966382 0.967216 0.967933 0.968576 0.968395 0.969091 0.968284 0.967708 0.967186 0.963189 0.965955 0.965324 0.965436 0.966468 0.966346 0.968375 0.968549 0.967943 0.967053 0.966303 0.965580 0.965153 0.964871 0.965377 0.965671 0.966979 0.970160 0.969583 0.969288 0.969446 0.969546 0.969727 0.970162 0.971855 0.968108 0.968751 0.967093 0.964915 0.969118 0.966258 0.966039 0.967401 0.967783 0.968181 0.966554 0.962953 0.956559 0.955679 0.952449 0.943040 0.941257 0.942124 0.944439 0.944959 0.943862 0.937004 0.937570 0.931857 0.932326 0.935630 0.931117 0.931243 0.932383 0.931469 0.929802 0.929122 0.926370 0.923145 0.921104 0.920761 0.923815 0.924727 0.925974 0.925792 0.920414 0.911363 0.897398 0.895600 0.890338 0.893556 0.883268 0.882986 0.882975 0.878591 0.882179 0.882761 0.883790 0.880308 0.864119 0.845044 0.836332 0.839267 0.844539 0.840168 0.839133 0.832202 0.844457 0.827325 0.840172 0.852148 0.847768 0.848640 0.848307 0.845705 0.838586 0.839230 0.841432 0.843346 0.842787 0.841674 0.837504 0.822476 0.824103 0.759154 0.742486 0.737614 0.743036 0.748699 0.748667 0.747834 0.756393 0.761627 0.757943 0.742562 0.734502 0.725410 0.730443 0.733564 0.738473 0.728010 0.703419 0.695371 0.662362 0.679450 0.696681 0.655450 0.678400 0.688509 0.685132 0.684556 0.676985 0.672462 0.666823 0.669826 0.679271 0.694471 0.713796 0.738496 0.735426 0.724898 0.724681 0.706805 0.697852 0.689341 0.697574 0.678335 0.673116 0.691821 0.691474 0.678689 0.659108 0.645642 0.631893 0.628785 0.636456 0.629521 0.627831 0.615330 0.587739 0.582530 0.620713 0.637326 0.655727 0.632051 0.619028 0.611475 0.590274 0.604330 0.549588 0.549731 0.571150 0.578160 0.556756 0.538604 0.546530 0.558592 0.563393 0.554975 0.538468 0.528296 0.541614 0.571101 0.562173 0.539249 0.542968 0.541994 0.537999 0.465593 0.462529 0.431985 0.403647 0.341258 0.316516 0.309987 0.292770 0.279163 0.245655 0.241761 0.251132 0.260909 0.271832 0.272543 0.257091 0.260597 0.251583 0.237672 0.175804 0.163406 0.155375 0.144279 0.145800 0.123160 0.145525 0.209189 0.211680 0.211680 0.211680 0.211680 0.211680 0.211680 0.222131 0.222131 0.222131 0.222131 0.222131 0.222131 0.222131 0.222131 0.222131 0.229969 0.229969 0.229969 0.229969 0.229969 0.229969 0.229969 0.229969 0.229969 0.229969 0.229969 0.229969 0.229969 0.229969
0.000000 0.000000 0.000000 0.000000 0.000000 0.000000 0.000000 0.000000 0.000000 0.000000 0.000000 0.000000 0.000000 0.000000 0.000000 0.000000 0.000000 0.000000 0.000000 0.000000 0.000000 0.000000 0.000000 0.000000 0.000000 7.000000 4.000000 0.000000 0.000000 0.000000 0.000000 0.000000 0.000000 0.000000 0.000000 0.000000 0.000000 0.000000 0.000000 0.000000 0.000000 0.000000 0.000000 0.000000 0.000000 0.000000 0.000000 0.000000 0.000000 0.000000 0.000000 0.000000 0.180334 0.180334 0.180334 0.199007 0.199007 0.199007 0.199007 0.199007 0.199007 0.199007 0.199007 0.199007 0.199007 0.199007 0.199007 0.199007 0.199007 0.199007 0.199007 0.199007 0.199007 0.199007 0.199007 0.199007 0.199007 0.199007 0.199007 0.199007 0.199007 0.199007 0.199007 0.199007 0.199007 0.199007 0.199007 0.199007 0.199007 0.199007 0.199007 0.199007 0.199007 0.199007 0.199007 0.199007 0.225018 0.225018 0.225018 0.225018 0.225018 0.225018 0.225018 0.225018 0.225018 0.225018 0.225018 0.225018 0.225018 0.225018 0.225018 0.225018 0.225018 0.225018 0.225018 0.225018 0.225018 0.225018 0.225018 0.225018 0.225018 0.225018 0.225018 0.225018 0.225018 0.244339 0.244339 0.244339 0.244339 0.244339 0.244339 0.244339 0.244339 0.244339 0.244339 0.244339 0.244339 0.244339 0.244339 0.244339 0.244339 0.244339 0.244339 0.244339 0.244339 0.244339 0.244339 0.244339 0.251976 0.251976 0.251976 0.251976 0.251976 0.251976 0.251976 0.251976 0.251976 0.251976 0.251976 0.251976 0.251976 0.251976 0.251976 0.251976 0.251976 0.251976 0.251976 0.251976 0.264906 0.264906 0.264906 0.264906 0.264906 0.264906 0.264906 0.264906 0.264906 0.264906 0.264906 0.264906 0.264906 0.264906 0.264906 0.264906 0.264906 0.264906 0.264906 0.264906 0.264906 0.264906 0.264906 0.264906 0.264906 0.264906 0.264906 0.264906 0.264906 0.264906 0.264906 0.264906 0.264906 0.264906 0.264906 0.264906 0.264906 0.264906 0.264906 0.264906 0.264906 0.264906 0.264906 0.264906 0.264906 0.264906 0.264906 0.264906 0.264906 0.264906 0.264906 0.264906 0.264906 0.264906 0.264906 0.264906 0.264906 0.264906 0.264906 0.264906 0.264906 0.264906 0.256074 0.256074 0.256074 0.256074 0.256074 0.256074 0.256074 0.256074 0.256074 0.256074 0.256074 0.256074 0.256074 0.256074 0.269680 0.269680 0.269680 0.269680 0.269680 0.269680 0.269680 0.269680 0.269680 0.269680 0.269680 0.269680 0.264906 0.264906 0.264906 0.264906 0.264906 0.264906 0.264906 0.264906 0.264906 0.264906 0.264906 0.264906 0.269680 0.269680 0.269680 0.269680 0.269680 0.269680 0.269680 0.269680 0.269680 0.269680 0.269680 0.264906 0.264906 0.264906 0.264906 0.264906 0.264906 0.264906 0.264906 0.264906 0.264906 0.264906 0.256074 0.256074 0.256074 0.256074 0.256074 0.256074 0.256074 0.256074 0.256074 0.256074 0.256074 0.264906 0.264906 0.264906 0.264906 0.264906 0.264906 0.264906 0.264906 0.264906 0.264906 0.260378 0.260378 0.260378 0.260378 0.260378 0.260378 0.260378 0.260378 0.260378 0.260378 0.256074 0.256074 0.256074 0.256074 0.256074 0.256074 0.256074 0.256074 0.256074 0.256074 0.260378 0.260378 0.260378 0.260378 0.260378 0.260378 0.260378 0.260378 0.260378 0.256074 0.256074 0.256074 0.256074 0.256074 0.256074 0.256074 0.256074 0.256074 0.251976 0.251976 0.251976 0.251976 0.251976 0.251976 0.251976 0.251976 0.251976 0.251976 0.251976 0.251976 0.251976 0.251976
