# Output from CTFFind version 4.1.9, run on 2019-11-03 19:02:20
# Input file: stack16_bm3d_averaged_1_2.75_0_2500_half.mrc ; Number of micrographs: 1
# Pixel size: 3.000 Angstroms ; acceleration voltage: 300.0 keV ; spherical aberration: 0.00 mm ; amplitude contrast: 0.07
# Box size: 512 pixels ; min. res.: 30.0 Angstroms ; max. res.: 5.0 Angstroms ; min. def.: 5000.0 um; max. def. 50000.0 um; num. frames averaged: 1
# 6 lines per micrograph: #1 - spatial frequency (1/Angstroms); #2 - 1D rotational average of spectrum (assuming no astigmatism); #3 - 1D rotational average of spectrum; #4 - CTF fit; #5 - cross-correlation between spectrum and CTF fit; #6 - 2sigma of expected cross correlation of noise
0.000000 0.000651 0.001302 0.001953 0.002604 0.003255 0.003906 0.004557 0.005208 0.005859 0.006510 0.007161 0.007812 0.008464 0.009115 0.009766 0.010417 0.011068 0.011719 0.012370 0.013021 0.013672 0.014323 0.014974 0.015625 0.016276 0.016927 0.017578 0.018229 0.018880 0.019531 0.020182 0.020833 0.021484 0.022135 0.022786 0.023438 0.024089 0.024740 0.025391 0.026042 0.026693 0.027344 0.027995 0.028646 0.029297 0.029948 0.030599 0.031250 0.031901 0.032552 0.033203 0.033854 0.034505 0.035156 0.035807 0.036458 0.037109 0.037760 0.038411 0.039062 0.039714 0.040365 0.041016 0.041667 0.042318 0.042969 0.043620 0.044271 0.044922 0.045573 0.046224 0.046875 0.047526 0.048177 0.048828 0.049479 0.050130 0.050781 0.051432 0.052083 0.052734 0.053385 0.054036 0.054688 0.055339 0.055990 0.056641 0.057292 0.057943 0.058594 0.059245 0.059896 0.060547 0.061198 0.061849 0.062500 0.063151 0.063802 0.064453 0.065104 0.065755 0.066406 0.067057 0.067708 0.068359 0.069010 0.069661 0.070312 0.070964 0.071615 0.072266 0.072917 0.073568 0.074219 0.074870 0.075521 0.076172 0.076823 0.077474 0.078125 0.078776 0.079427 0.080078 0.080729 0.081380 0.082031 0.082682 0.083333 0.083984 0.084635 0.085286 0.085938 0.086589 0.087240 0.087891 0.088542 0.089193 0.089844 0.090495 0.091146 0.091797 0.092448 0.093099 0.093750 0.094401 0.095052 0.095703 0.096354 0.097005 0.097656 0.098307 0.098958 0.099609 0.100260 0.100911 0.101562 0.102214 0.102865 0.103516 0.104167 0.104818 0.105469 0.106120 0.106771 0.107422 0.108073 0.108724 0.109375 0.110026 0.110677 0.111328 0.111979 0.112630 0.113281 0.113932 0.114583 0.115234 0.115885 0.116536 0.117188 0.117839 0.118490 0.119141 0.119792 0.120443 0.121094 0.121745 0.122396 0.123047 0.123698 0.124349 0.125000 0.125651 0.126302 0.126953 0.127604 0.128255 0.128906 0.129557 0.130208 0.130859 0.131510 0.132161 0.132812 0.133464 0.134115 0.134766 0.135417 0.136068 0.136719 0.137370 0.138021 0.138672 0.139323 0.139974 0.140625 0.141276 0.141927 0.142578 0.143229 0.143880 0.144531 0.145182 0.145833 0.146484 0.147135 0.147786 0.148438 0.149089 0.149740 0.150391 0.151042 0.151693 0.152344 0.152995 0.153646 0.154297 0.154948 0.155599 0.156250 0.156901 0.157552 0.158203 0.158854 0.159505 0.160156 0.160807 0.161458 0.162109 0.162760 0.163411 0.164062 0.164714 0.165365 0.166016 0.166667 0.167318 0.167969 0.168620 0.169271 0.169922 0.170573 0.171224 0.171875 0.172526 0.173177 0.173828 0.174479 0.175130 0.175781 0.176432 0.177083 0.177734 0.178385 0.179036 0.179688 0.180339 0.180990 0.181641 0.182292 0.182943 0.183594 0.184245 0.184896 0.185547 0.186198 0.186849 0.187500 0.188151 0.188802 0.189453 0.190104 0.190755 0.191406 0.192057 0.192708 0.193359 0.194010 0.194661 0.195312 0.195964 0.196615 0.197266 0.197917 0.198568 0.199219 0.199870 0.200521 0.201172 0.201823 0.202474 0.203125 0.203776 0.204427 0.205078 0.205729 0.206380 0.207031 0.207682 0.208333 0.208984 0.209635 0.210286 0.210938 0.211589 0.212240 0.212891 0.213542 0.214193 0.214844 0.215495 0.216146 0.216797 0.217448 0.218099 0.218750 0.219401 0.220052 0.220703 0.221354 0.222005 0.222656 0.223307 0.223958 0.224609 0.225260 0.225911 0.226562 0.227214 0.227865 0.228516 0.229167 0.229818 0.230469 0.231120 0.231771 0.232422 0.233073 0.233724 0.234375 0.235026 0.235677
       0.33943        0.33943        0.33943        0.33943        0.33943        0.33943        0.33943        0.33943        0.33943        0.33943        0.33943        0.33943        0.33943        0.33943        0.33943        0.33943        0.33943        0.33943        0.33943        0.33943        0.33943        0.33943        0.33943        0.33943        0.33943        0.33943        0.33943        0.33943        0.33943        0.33943        0.33943        0.33943        0.33943        0.33943        0.33943        0.33943        0.33943        0.33943        0.33943        0.33943        0.33943        0.33943        0.33943        0.33943        0.33943        0.33943        0.33943        0.33943        0.33943        0.33943        0.33943        0.46149        0.64489        0.42768       -0.12195       -0.42653       -0.56869       -0.65862       -0.73299       -0.75222       -0.89111       -0.92478       -0.74872       -0.93252       -0.87711       -1.02244       -1.08460       -0.97171       -0.93593       -0.85706       -0.80608       -0.71176       -0.61864       -0.50142       -0.42259       -0.23008       -0.10977       -0.02404        0.18828        0.22555        0.30533        0.37231        0.40794        0.49053        0.57114        0.59897        0.57372        0.49590        0.55196        0.49040        0.40444        0.32805        0.19298        0.17531        0.10626       -0.04906       -0.10483       -0.07429        0.02680       -0.01158        0.02103        0.02739        0.17913        0.20474        0.38718        0.46135        0.56963        0.70015        0.77832        0.72637        0.68205        0.65200        0.57653        0.48956        0.37038        0.28754        0.19064        0.17740        0.08959        0.02459        0.00332        0.03104        0.08209        0.27005        0.38461        0.49247        0.55419        0.60790        0.69698        0.65127        0.65306        0.65170        0.59193        0.48556        0.28782        0.25271        0.21394        0.11614        0.05111        0.10132        0.12735        0.25925        0.34061        0.41547        0.48477        0.55447        0.65502        0.59420        0.53926        0.50877        0.38416        0.21133        0.23172        0.16950        0.13563        0.14621        0.22805        0.25781        0.35618        0.43388        0.43192        0.53296        0.50522        0.45788        0.44589        0.36383        0.31667        0.25691        0.21794        0.22245        0.19913        0.21437        0.30677        0.41450        0.46150        0.47758        0.54503        0.48109        0.43949        0.38690        0.30984        0.22981        0.23879        0.24390        0.26576        0.28778        0.32432        0.43263        0.50905        0.49177        0.45422        0.38152        0.36820        0.36390        0.21801        0.23580        0.25768        0.28825        0.34629        0.36377        0.40569        0.43709        0.44790        0.38207        0.34777        0.31933        0.32045        0.27364        0.24895        0.27855        0.32989        0.40449        0.41537        0.40170        0.39571        0.41039        0.35346        0.28035        0.28243        0.29019        0.31797        0.37331        0.36518        0.40729        0.34864        0.37678        0.38072        0.34775        0.30710        0.26994        0.28121        0.32489        0.33034        0.33084        0.34324        0.37860        0.33555        0.35837        0.29043        0.30322        0.26038        0.27628        0.30390        0.33126        0.38963        0.36567        0.35284        0.31889        0.27437        0.26328        0.29750        0.28984        0.32148        0.35304        0.37732        0.34002        0.31880        0.30082        0.29870        0.29837        0.28707        0.31477        0.33874        0.33665        0.32462        0.29263        0.33716        0.31889        0.29146        0.31197        0.32825        0.34521        0.35168        0.30962        0.31695        0.28594        0.29417        0.30208        0.32498        0.39103        0.32453        0.36768        0.29902        0.30522        0.30746        0.30739        0.30595        0.30307        0.30498        0.33913        0.34964        0.29228        0.31346        0.30032        0.29258        0.30742        0.30737        0.32494        0.35276        0.36400        0.31104        0.30374        0.28429        0.23996        0.31386        0.34366        0.29884        0.29602        0.26922        0.29266        0.31767        0.31711        0.28905        0.31228        0.32533        0.32045        0.24173        0.28680        0.29986        0.28307        0.33044        0.28791        0.35337        0.38007        0.28362        0.29149        0.26800        0.27579        0.30692        0.28114        0.25256        0.24463        0.27104        0.31225        0.28342        0.26890        0.25892        0.33893        0.31349        0.27518        0.22731        0.21396        0.25939        0.23084        0.21472        0.27837        0.36573        0.23836        0.25173        0.29138        0.22789        0.22569        0.29774        0.27768        0.21888        0.19113        0.27648        0.33830        0.29007        0.13232       -0.02762       -0.48819       -0.76194
2.969584 2.932678 2.896010 2.859579 2.823386 2.787429 2.751710 2.716228 2.680984 2.645976 2.611206 2.576673 2.542377 2.508319 2.474497 2.440913 2.407566 2.374457 2.341584 2.308949 2.276551 2.244390 2.212467 2.180781 2.149332 2.118120 2.087145 2.056408 2.025908 1.995645 1.965619 1.935831 1.906280 1.876966 1.847889 1.819049 1.790447 1.762082 1.733954 1.706063 1.678410 1.650994 1.623815 1.596873 1.570169 1.543702 1.517472 1.491479 1.465723 1.440205 1.414924 1.465243 1.607326 1.551495 0.923475 0.627483 0.444336 0.388150 0.300329 0.234468 0.150825 -0.030064 0.179102 0.040254 -0.053870 -0.090524 -0.229532 -0.168466 -0.097281 -0.094953 -0.087324 0.012505 0.032158 0.201960 0.129645 0.331671 0.430079 0.455755 0.674475 0.674990 0.678958 0.812629 0.784343 0.801863 0.929149 0.858442 0.913911 0.727247 0.828658 0.830306 0.626740 0.585669 0.450644 0.418236 0.367892 0.199338 0.123872 0.098265 0.216143 0.136951 0.198185 0.097253 0.284631 0.266292 0.437008 0.407546 0.595531 0.631059 0.758193 0.729805 0.635543 0.624790 0.508473 0.473177 0.310160 0.302050 0.124513 0.164359 0.020736 -0.015267 -0.043775 -0.068674 -0.018040 0.042849 0.248027 0.314242 0.378166 0.345977 0.479263 0.468450 0.507111 0.487049 0.376610 0.397189 0.148087 0.095674 0.078178 -0.011384 -0.129528 -0.032794 -0.094819 0.019687 0.129166 0.163715 0.250749 0.262997 0.367540 0.487232 0.354224 0.385450 0.304797 0.136810 0.067245 0.070709 0.032969 0.023683 0.043715 0.115072 0.132616 0.262737 0.237871 0.300363 0.340573 0.257399 0.250089 0.206770 0.121972 0.072113 0.033471 0.031899 0.017992 -0.010389 0.031264 0.163331 0.191269 0.230904 0.292955 0.216465 0.222596 0.132602 0.110666 -0.001869 -0.019171 -0.001551 0.002929 0.028127 0.021751 0.101440 0.191223 0.206688 0.207921 0.134320 0.104443 0.090070 0.042015 -0.073406 -0.003332 0.010607 0.039630 0.052178 0.101492 0.156759 0.130435 0.163122 0.065573 0.061660 0.047335 0.046343 -0.003135 -0.008272 0.020703 0.078076 0.121096 0.149770 0.074831 0.142628 0.118520 0.020142 0.010305 0.008928 0.018353 0.071113 0.085066 0.099404 0.099236 0.079986 0.106155 0.083542 0.059268 0.025695 -0.016232 0.023388 0.066793 0.042979 0.051846 0.052729 0.077655 0.083660 0.035211 0.014429 0.012698 -0.037316 0.002783 0.021400 0.044927 0.101110 0.070618 0.055619 0.015184 -0.033615 -0.015363 0.012277 0.010373 0.025028 0.071745 0.056756 0.007987 0.038114 -0.028298 0.019798 -0.015333 -0.024838 0.030093 0.054366 0.005320 0.012192 -0.010899 0.034369 -0.004658 -0.010923 0.010293 0.027937 0.033601 0.049952 0.009990 -0.006507 -0.032456 -0.002376 0.003352 0.028624 0.073250 0.018488 0.046829 -0.019548 0.025708 -0.013809 0.016623 0.008719 0.007213 -0.005759 0.049633 0.024771 0.009685 0.021721 -0.021587 -0.002551 0.004562 -0.010143 0.044085 0.049909 0.060219 0.008951 0.015275 -0.024191 -0.032816 0.006004 0.034973 0.005224 0.024258 -0.031185 -0.009211 0.021836 0.030931 0.000224 0.002280 0.035102 0.037675 -0.061553 0.003696 0.034489 -0.015295 0.032884 0.024252 0.081923 0.099332 0.016559 0.027072 -0.018682 0.018887 -0.007182 0.000104 -0.008018 -0.029432 -0.026053 0.048796 -0.006595 -0.003953 -0.082221 0.028313 -0.013187 -0.047994 -0.102234 -0.087435 -0.033213 -0.084698 -0.100547 -0.003705 0.071045 -0.101248 -0.025450 0.038711 -0.002462 -0.059942 0.052202 0.075739 0.081209 -0.013965 0.107248 0.304415 0.230968 0.086418 -0.020371 -0.673057
0.072396 0.073047 0.074998 0.078249 0.082799 0.088646 0.095789 0.104224 0.113947 0.124954 0.137237 0.150789 0.165599 0.181654 0.198939 0.217436 0.237122 0.257972 0.279955 0.303034 0.327171 0.352316 0.378418 0.405414 0.433237 0.461810 0.491049 0.520858 0.551134 0.581762 0.612618 0.643566 0.674459 0.705139 0.735437 0.765172 0.794150 0.822170 0.849017 0.874467 0.898286 0.920233 0.940058 0.957507 0.972321 0.984237 0.992993 0.998330 0.999991 0.997729 0.991305 0.980495 0.965093 0.944912 0.919791 0.889599 0.854237 0.813643 0.767799 0.716729 0.660510 0.599272 0.533201 0.462546 0.387617 0.308791 0.226511 0.141288 0.053700 0.035607 0.125924 0.216481 0.306451 0.394956 0.481076 0.563856 0.642317 0.715467 0.782313 0.841878 0.893213 0.935416 0.967646 0.989146 0.999256 0.997435 0.983274 0.956518 0.917083 0.865063 0.800750 0.724640 0.637442 0.540079 0.433691 0.319625 0.199433 0.074849 0.052221 0.179730 0.305520 0.427351 0.542946 0.650032 0.746386 0.829889 0.898573 0.950676 0.984695 0.999433 0.994050 0.968100 0.921573 0.854914 0.769050 0.665392 0.545829 0.412716 0.268837 0.117362 0.038215 0.194144 0.346512 0.491334 0.624658 0.742686 0.841878 0.919081 0.971631 0.997469 0.995228 0.964320 0.904989 0.818355 0.706419 0.572052 0.418943 0.251522 0.074849 0.105522 0.283709 0.453694 0.609522 0.745517 0.856510 0.938041 0.986566 0.999636 0.976039 0.915909 0.820783 0.693613 0.538706 0.361618 0.168987 0.031697 0.232369 0.424696 0.600435 0.751787 0.871765 0.954543 0.995768 0.992820 0.945018 0.853727 0.722389 0.556439 0.363138 0.151286 0.069145 0.287459 0.492753 0.674460 0.822913 0.929888 0.989099 0.996607 0.951134 0.854237 0.710331 0.526563 0.312509 0.079725 0.158843 0.389558 0.598870 0.774124 0.904359 0.981034 0.998644 0.955176 0.852366 0.695724 0.494324 0.260347 0.008401 0.245351 0.484218 0.692076 0.854485 0.959736 0.999759 0.970819 0.873919 0.714906 0.504210 0.256251 0.011488 0.279643 0.528355 0.738743 0.894384 0.982642 0.995784 0.931739 0.794455 0.593774 0.344840 0.067041 0.217437 0.485360 0.714328 0.884704 0.981349 0.995068 0.923585 0.771959 0.552368 0.283252 0.012141 0.307695 0.576713 0.794350 0.939947 0.999098 0.965178 0.840209 0.634925 0.367993 0.064439 0.246617 0.534709 0.771019 0.931322 0.998549 0.964750 0.832163 0.613272 0.329801 0.010683 0.310796 0.600438 0.826784 0.964619 0.997880 0.921699 0.743239 0.481230 0.164164 0.172671 0.491052 0.754149 0.930845 0.999538 0.950932 0.789478 0.533199 0.211875 0.136271 0.469028 0.745302 0.930248 0.999794 0.943947 0.768422 0.494321 0.155794 0.204052 0.538560 0.803567 0.963318 0.995448 0.894314 0.672177 0.357964 0.006274 0.370864 0.685222 0.904916 0.998076 0.950223 0.766751 0.472629 0.109259 0.271181 0.613135 0.865794 0.990759 0.968099 0.799770 0.509830 0.141282 0.250091 0.604083 0.865303 0.991997 0.962925 0.781202 0.474353 0.090442 0.309248 0.659889 0.903664 0.999433 0.929951 0.705263 0.361614 0.044080 0.443500 0.768313 0.961995 0.989831 0.845472 0.552639 0.161591 0.259240 0.635047 0.898003 0.999632 0.920046 0.672177 0.300091 0.128518 0.534437 0.841528 0.991153 0.953619 0.734447 0.374047 0.059391 0.482509 0.812783 0.984695 0.963012 0.750392 0.387612 0.053854 0.485648 0.820127 0.988268 0.954204 0.723289 0.341776 0.112011 0.543495 0.861520 0.997718 0.921571 0.647683 0.233485 0.232373 0.648793
1.000000 1.000000 1.000000 1.000000 1.000000 1.000000 1.000000 1.000000 1.000000 1.000000 1.000000 1.000000 1.000000 1.000000 1.000000 1.000000 1.000000 1.000000 1.000000 1.000000 1.000000 1.000000 1.000000 1.000000 1.000000 1.000000 1.000000 1.000000 1.000000 1.000000 1.000000 1.000000 1.000000 1.000000 1.000000 1.000000 1.000000 1.000000 1.000000 1.000000 1.000000 1.000000 1.000000 1.000000 1.000000 1.000000 1.000000 1.000000 1.000000 1.000000 1.000000 1.000000 0.935500 0.935500 0.935500 0.935500 0.935500 0.935500 0.935500 0.935500 0.935500 0.935500 0.935500 0.935500 0.935500 0.935500 0.935500 0.935500 0.935500 0.935500 0.935500 0.935500 0.935500 0.935500 0.935500 0.935500 0.935500 0.935500 0.935500 0.935500 0.935500 0.935500 0.935500 0.935500 0.935500 0.922488 0.923982 0.926848 0.927868 0.927815 0.927375 0.927094 0.927349 0.928672 0.930509 0.946963 0.948759 0.949793 0.951016 0.949722 0.952261 0.950414 0.954557 0.965111 0.964165 0.965002 0.958653 0.959929 0.959266 0.958509 0.958880 0.958967 0.957350 0.955471 0.953900 0.954114 0.953817 0.955474 0.955868 0.955660 0.956162 0.956078 0.955892 0.952983 0.951221 0.952601 0.954316 0.953338 0.958951 0.958847 0.966968 0.967947 0.966786 0.966603 0.966802 0.966981 0.963457 0.960891 0.956908 0.946188 0.937146 0.933917 0.937279 0.941030 0.938619 0.933927 0.933019 0.930539 0.926548 0.925951 0.923054 0.923113 0.915802 0.912382 0.902139 0.901349 0.903272 0.904470 0.902401 0.891503 0.886114 0.887176 0.890025 0.883948 0.880991 0.896833 0.893449 0.896426 0.900287 0.903054 0.907210 0.895143 0.890759 0.887565 0.883435 0.881922 0.883909 0.886363 0.888433 0.885501 0.881477 0.876137 0.872515 0.879109 0.884822 0.888960 0.887563 0.888205 0.887661 0.872457 0.872752 0.860968 0.861597 0.868593 0.873277 0.870413 0.868851 0.868082 0.867213 0.870164 0.870015 0.867341 0.860984 0.857060 0.855659 0.853975 0.867493 0.865045 0.854275 0.846750 0.840977 0.848679 0.855017 0.849081 0.846791 0.827145 0.827035 0.825151 0.823128 0.824399 0.829385 0.827285 0.832797 0.831608 0.834317 0.835430 0.835212 0.829888 0.829728 0.831287 0.811951 0.821212 0.817450 0.798458 0.803349 0.789767 0.786053 0.787442 0.788781 0.758337 0.764372 0.723459 0.693637 0.711296 0.720134 0.703709 0.692124 0.690849 0.696677 0.691886 0.670829 0.649828 0.645391 0.650731 0.649210 0.656518 0.617162 0.615310 0.601942 0.573593 0.579061 0.577788 0.552273 0.560345 0.551602 0.547871 0.547458 0.552840 0.558275 0.562377 0.562438 0.534569 0.530300 0.533694 0.504410 0.502685 0.502491 0.501715 0.487890 0.487336 0.462959 0.467434 0.511595 0.474561 0.456650 0.459738 0.461932 0.471401 0.479681 0.478011 0.442609 0.478015 0.449641 0.453651 0.467525 0.451588 0.405514 0.411435 0.392597 0.406627 0.383378 0.361011 0.347706 0.345645 0.337439 0.347188 0.368327 0.353198 0.337800 0.329791 0.288696 0.321294 0.308686 0.293810 0.314252 0.329442 0.311878 0.284403 0.282738 0.271593 0.225920 0.203320 0.214208 0.210650 0.157215 0.106934 0.101030 0.095031 0.062420 0.034502 0.031178 -0.001680 -0.005738 0.025337 0.027147 0.014548 0.021271 0.049273 0.049273 0.049273 0.049273 0.049273 0.049273 0.049273 0.049273 0.049273 0.049273 0.049273 0.049273 0.049273 0.049273 0.069257 0.069257 0.069257 0.069257 0.069257 0.069257 0.069257 0.069257 0.069257 0.069257 0.069257 0.069257
0.000000 0.000000 0.000000 0.000000 0.000000 0.000000 0.000000 0.000000 0.000000 0.000000 0.000000 0.000000 0.000000 0.000000 0.000000 0.000000 0.000000 0.000000 0.000000 0.000000 0.000000 0.000000 0.000000 0.000000 0.000000 7.000000 4.000000 0.000000 0.000000 0.000000 0.000000 0.000000 0.000000 0.000000 0.000000 0.000000 0.000000 0.000000 0.000000 0.000000 0.000000 0.000000 0.000000 0.000000 0.000000 0.000000 0.000000 0.000000 0.000000 0.000000 0.000000 0.000000 0.209657 0.209657 0.209657 0.209657 0.209657 0.209657 0.209657 0.209657 0.209657 0.209657 0.209657 0.209657 0.209657 0.209657 0.209657 0.209657 0.209657 0.209657 0.209657 0.209657 0.209657 0.209657 0.209657 0.209657 0.209657 0.209657 0.209657 0.209657 0.209657 0.209657 0.209657 0.209657 0.209657 0.244339 0.244339 0.244339 0.244339 0.244339 0.244339 0.244339 0.244339 0.244339 0.244339 0.244339 0.244339 0.244339 0.244339 0.244339 0.244339 0.244339 0.244339 0.244339 0.244339 0.244339 0.244339 0.244339 0.244339 0.244339 0.260378 0.260378 0.260378 0.260378 0.260378 0.260378 0.260378 0.260378 0.260378 0.260378 0.260378 0.260378 0.260378 0.260378 0.260378 0.260378 0.260378 0.260378 0.260378 0.260378 0.269680 0.269680 0.269680 0.269680 0.269680 0.269680 0.269680 0.269680 0.269680 0.269680 0.269680 0.269680 0.269680 0.269680 0.269680 0.269680 0.269680 0.269680 0.269680 0.269680 0.269680 0.269680 0.269680 0.269680 0.269680 0.269680 0.269680 0.269680 0.269680 0.269680 0.269680 0.269680 0.269680 0.280056 0.280056 0.280056 0.280056 0.280056 0.280056 0.280056 0.280056 0.280056 0.280056 0.280056 0.280056 0.280056 0.280056 0.280056 0.280056 0.280056 0.280056 0.280056 0.280056 0.280056 0.280056 0.280056 0.280056 0.280056 0.280056 0.280056 0.274721 0.274721 0.274721 0.274721 0.274721 0.274721 0.274721 0.274721 0.274721 0.274721 0.274721 0.274721 0.274721 0.285714 0.285714 0.285714 0.285714 0.285714 0.285714 0.285714 0.285714 0.285714 0.285714 0.285714 0.280056 0.280056 0.280056 0.280056 0.280056 0.280056 0.280056 0.280056 0.280056 0.280056 0.280056 0.274721 0.274721 0.274721 0.274721 0.274721 0.274721 0.274721 0.274721 0.274721 0.274721 0.274721 0.280056 0.280056 0.280056 0.280056 0.280056 0.280056 0.280056 0.280056 0.280056 0.280056 0.285714 0.285714 0.285714 0.285714 0.285714 0.285714 0.285714 0.285714 0.285714 0.269680 0.269680 0.269680 0.269680 0.269680 0.269680 0.269680 0.269680 0.269680 0.269680 0.274721 0.274721 0.274721 0.274721 0.274721 0.274721 0.274721 0.274721 0.274721 0.285714 0.285714 0.285714 0.285714 0.285714 0.285714 0.285714 0.285714 0.264906 0.264906 0.264906 0.264906 0.264906 0.264906 0.264906 0.264906 0.264906 0.274721 0.274721 0.274721 0.274721 0.274721 0.274721 0.274721 0.274721 0.269680 0.269680 0.269680 0.269680 0.269680 0.269680 0.269680 0.269680 0.269680 0.269680 0.269680 0.269680 0.269680 0.269680 0.269680 0.269680 0.280056 0.280056 0.280056 0.280056 0.280056 0.280056 0.280056 0.260378 0.260378 0.260378 0.260378 0.260378 0.260378 0.260378 0.260378 0.269680 0.269680 0.269680 0.269680 0.269680 0.269680 0.269680 0.264906 0.264906 0.264906 0.264906 0.264906 0.264906 0.264906 0.264906 0.264906 0.264906 0.264906 0.264906 0.264906 0.264906 0.260378 0.260378 0.260378 0.260378 0.260378 0.260378 0.260378 0.260378 0.260378 0.260378 0.260378 0.260378
