# Output from CTFFind version 4.1.9, run on 2019-11-03 20:08:21
# Input file: stack16_bm3d_averaged_1_6.5_0_1500_half.mrc ; Number of micrographs: 1
# Pixel size: 3.000 Angstroms ; acceleration voltage: 300.0 keV ; spherical aberration: 0.00 mm ; amplitude contrast: 0.07
# Box size: 512 pixels ; min. res.: 30.0 Angstroms ; max. res.: 5.0 Angstroms ; min. def.: 5000.0 um; max. def. 50000.0 um; num. frames averaged: 1
# 6 lines per micrograph: #1 - spatial frequency (1/Angstroms); #2 - 1D rotational average of spectrum (assuming no astigmatism); #3 - 1D rotational average of spectrum; #4 - CTF fit; #5 - cross-correlation between spectrum and CTF fit; #6 - 2sigma of expected cross correlation of noise
0.000000 0.000651 0.001302 0.001953 0.002604 0.003255 0.003906 0.004557 0.005208 0.005859 0.006510 0.007161 0.007812 0.008464 0.009115 0.009766 0.010417 0.011068 0.011719 0.012370 0.013021 0.013672 0.014323 0.014974 0.015625 0.016276 0.016927 0.017578 0.018229 0.018880 0.019531 0.020182 0.020833 0.021484 0.022135 0.022786 0.023438 0.024089 0.024740 0.025391 0.026042 0.026693 0.027344 0.027995 0.028646 0.029297 0.029948 0.030599 0.031250 0.031901 0.032552 0.033203 0.033854 0.034505 0.035156 0.035807 0.036458 0.037109 0.037760 0.038411 0.039062 0.039714 0.040365 0.041016 0.041667 0.042318 0.042969 0.043620 0.044271 0.044922 0.045573 0.046224 0.046875 0.047526 0.048177 0.048828 0.049479 0.050130 0.050781 0.051432 0.052083 0.052734 0.053385 0.054036 0.054688 0.055339 0.055990 0.056641 0.057292 0.057943 0.058594 0.059245 0.059896 0.060547 0.061198 0.061849 0.062500 0.063151 0.063802 0.064453 0.065104 0.065755 0.066406 0.067057 0.067708 0.068359 0.069010 0.069661 0.070312 0.070964 0.071615 0.072266 0.072917 0.073568 0.074219 0.074870 0.075521 0.076172 0.076823 0.077474 0.078125 0.078776 0.079427 0.080078 0.080729 0.081380 0.082031 0.082682 0.083333 0.083984 0.084635 0.085286 0.085938 0.086589 0.087240 0.087891 0.088542 0.089193 0.089844 0.090495 0.091146 0.091797 0.092448 0.093099 0.093750 0.094401 0.095052 0.095703 0.096354 0.097005 0.097656 0.098307 0.098958 0.099609 0.100260 0.100911 0.101562 0.102214 0.102865 0.103516 0.104167 0.104818 0.105469 0.106120 0.106771 0.107422 0.108073 0.108724 0.109375 0.110026 0.110677 0.111328 0.111979 0.112630 0.113281 0.113932 0.114583 0.115234 0.115885 0.116536 0.117188 0.117839 0.118490 0.119141 0.119792 0.120443 0.121094 0.121745 0.122396 0.123047 0.123698 0.124349 0.125000 0.125651 0.126302 0.126953 0.127604 0.128255 0.128906 0.129557 0.130208 0.130859 0.131510 0.132161 0.132812 0.133464 0.134115 0.134766 0.135417 0.136068 0.136719 0.137370 0.138021 0.138672 0.139323 0.139974 0.140625 0.141276 0.141927 0.142578 0.143229 0.143880 0.144531 0.145182 0.145833 0.146484 0.147135 0.147786 0.148438 0.149089 0.149740 0.150391 0.151042 0.151693 0.152344 0.152995 0.153646 0.154297 0.154948 0.155599 0.156250 0.156901 0.157552 0.158203 0.158854 0.159505 0.160156 0.160807 0.161458 0.162109 0.162760 0.163411 0.164062 0.164714 0.165365 0.166016 0.166667 0.167318 0.167969 0.168620 0.169271 0.169922 0.170573 0.171224 0.171875 0.172526 0.173177 0.173828 0.174479 0.175130 0.175781 0.176432 0.177083 0.177734 0.178385 0.179036 0.179688 0.180339 0.180990 0.181641 0.182292 0.182943 0.183594 0.184245 0.184896 0.185547 0.186198 0.186849 0.187500 0.188151 0.188802 0.189453 0.190104 0.190755 0.191406 0.192057 0.192708 0.193359 0.194010 0.194661 0.195312 0.195964 0.196615 0.197266 0.197917 0.198568 0.199219 0.199870 0.200521 0.201172 0.201823 0.202474 0.203125 0.203776 0.204427 0.205078 0.205729 0.206380 0.207031 0.207682 0.208333 0.208984 0.209635 0.210286 0.210938 0.211589 0.212240 0.212891 0.213542 0.214193 0.214844 0.215495 0.216146 0.216797 0.217448 0.218099 0.218750 0.219401 0.220052 0.220703 0.221354 0.222005 0.222656 0.223307 0.223958 0.224609 0.225260 0.225911 0.226562 0.227214 0.227865 0.228516 0.229167 0.229818 0.230469 0.231120 0.231771 0.232422 0.233073 0.233724 0.234375 0.235026 0.235677
       0.35097        0.35097        0.35097        0.35097        0.35097        0.35097        0.35097        0.35097        0.35097        0.35097        0.35097        0.35097        0.35097        0.35097        0.35097        0.35097        0.35097        0.35097        0.35097        0.35097        0.35097        0.35097        0.35097        0.35097        0.35097        0.35097        0.35097        0.35097        0.35097        0.35097        0.35097        0.35097        0.35097        0.35097        0.35097        0.35097        0.35097        0.35097        0.35097        0.35097        0.35097        0.35097        0.35097        0.35097        0.35097        0.35097        0.35097        0.35097        0.35097        0.35097        0.35097        0.42964        0.55673        0.34297       -0.21569       -0.45100       -0.54285       -0.64469       -0.71347       -0.71975       -0.81318       -0.88767       -0.67884       -0.83350       -0.81740       -0.95929       -0.99831       -0.87964       -0.83851       -0.79657       -0.70840       -0.63933       -0.55004       -0.45668       -0.39237       -0.16421       -0.06199        0.04088        0.26218        0.25985        0.31754        0.37248        0.40416        0.52412        0.53924        0.57464        0.53361        0.47455        0.50663        0.53007        0.45351        0.33351        0.21804        0.18446        0.11394        0.01483       -0.00111       -0.01041        0.06105        0.02766        0.07922        0.05212        0.16875        0.19889        0.41003        0.46067        0.54933        0.65789        0.68622        0.71338        0.63898        0.61199        0.54416        0.44259        0.39037        0.28108        0.22167        0.21775        0.10586        0.11659        0.11697        0.09084        0.09965        0.30745        0.41867        0.52595        0.53436        0.56943        0.60746        0.58762        0.57253        0.58433        0.56833        0.46900        0.30968        0.26869        0.25929        0.15597        0.09587        0.17363        0.21372        0.28940        0.35553        0.42833        0.47459        0.53205        0.60269        0.54715        0.50643        0.50529        0.35723        0.28145        0.26428        0.17969        0.20455        0.24147        0.27984        0.28609        0.33113        0.43131        0.46532        0.49973        0.45362        0.44324        0.48878        0.39727        0.33117        0.29012        0.26394        0.23698        0.23053        0.24147        0.34048        0.44852        0.43527        0.48954        0.55462        0.45139        0.41462        0.35789        0.31917        0.27548        0.28513        0.27324        0.29195        0.35563        0.36302        0.44036        0.47376        0.44197        0.46412        0.37991        0.38074        0.35558        0.27514        0.25646        0.25417        0.33655        0.38184        0.36647        0.39149        0.43436        0.44424        0.38201        0.34049        0.32439        0.35489        0.31839        0.28607        0.28996        0.35949        0.37648        0.39459        0.38996        0.39361        0.42225        0.40849        0.32691        0.29216        0.31667        0.34408        0.38349        0.36308        0.40527        0.34668        0.37235        0.39455        0.34181        0.35682        0.32362        0.30396        0.33982        0.34707        0.33207        0.36048        0.37730        0.33111        0.35047        0.32414        0.31944        0.30072        0.32351        0.32367        0.32965        0.36868        0.37606        0.35931        0.31189        0.30379        0.28932        0.33337        0.31643        0.31778        0.37356        0.35976        0.34348        0.31877        0.30826        0.31029        0.27983        0.32065        0.33472        0.34545        0.37350        0.35484        0.31725        0.33960        0.35467        0.33666        0.35785        0.34925        0.31661        0.33558        0.29455        0.32294        0.30065        0.31724        0.28859        0.32266        0.35217        0.33054        0.35732        0.31627        0.33486        0.35613        0.34394        0.32066        0.32729        0.36705        0.34721        0.34602        0.33157        0.31404        0.32058        0.31814        0.32781        0.32526        0.36143        0.33625        0.33714        0.29630        0.29133        0.27112        0.27577        0.36513        0.31455        0.34076        0.29858        0.26531        0.27771        0.36587        0.31110        0.28625        0.31994        0.31928        0.29701        0.26316        0.30508        0.27186        0.29885        0.30925        0.34183        0.33707        0.32262        0.31537        0.26848        0.28138        0.27694        0.28030        0.29883        0.36266        0.29990        0.20473        0.30598        0.29534        0.33155        0.26063        0.29767        0.29320        0.33433        0.28971        0.27665        0.26979        0.24860        0.30942        0.34092        0.33411        0.25365        0.30793        0.25903        0.23928        0.21997        0.33016        0.25595        0.16558        0.11635        0.20433        0.34204        0.24649        0.19080        0.12799       -0.43928       -0.54215
3.217053 3.176183 3.135579 3.095240 3.055166 3.015358 2.975815 2.936537 2.897525 2.858779 2.820297 2.782082 2.744131 2.706446 2.669026 2.631872 2.594983 2.558359 2.522001 2.485909 2.450081 2.414519 2.379223 2.344192 2.309426 2.274926 2.240690 2.206721 2.173017 2.139578 2.106405 2.073497 2.040854 2.008477 1.976365 1.944519 1.912938 1.881622 1.850572 1.819787 1.789268 1.759014 1.729025 1.699302 1.669844 1.640652 1.611725 1.583063 1.554667 1.526536 1.498671 1.534163 1.608163 1.548562 0.845136 0.598787 0.460013 0.390352 0.293975 0.220284 0.187879 -0.049160 0.209357 0.074823 -0.029263 -0.107700 -0.238089 -0.143862 -0.053328 -0.093881 -0.073103 0.037239 0.036159 0.230650 0.108526 0.357644 0.464215 0.495908 0.772326 0.685217 0.697107 0.825269 0.797387 0.843694 0.919458 0.858657 0.888737 0.726225 0.787865 0.846225 0.689453 0.605596 0.434982 0.427736 0.332606 0.190734 0.186624 0.114110 0.208409 0.119603 0.207904 0.104461 0.215409 0.228013 0.438795 0.401400 0.571418 0.609657 0.634081 0.719051 0.605213 0.576444 0.458769 0.410054 0.287205 0.261084 0.091709 0.151549 -0.029923 0.035722 -0.031447 -0.044341 -0.058832 0.025170 0.263288 0.290978 0.357102 0.297167 0.380917 0.390474 0.413364 0.394490 0.355078 0.326502 0.120193 0.072729 0.061590 -0.022432 -0.153876 -0.054235 -0.066437 0.034904 0.075254 0.148289 0.212617 0.222371 0.315044 0.403655 0.283585 0.360760 0.229071 0.140792 0.064601 0.034620 0.000471 0.050521 0.069280 0.094152 0.117259 0.171093 0.238082 0.302826 0.270409 0.209532 0.252160 0.225853 0.109088 0.058766 0.053106 0.025608 0.005910 -0.022349 0.029570 0.167707 0.192466 0.189819 0.297306 0.186947 0.195052 0.072457 0.065312 0.010830 -0.007381 -0.002730 -0.010651 0.044122 0.069783 0.098176 0.156815 0.140321 0.222128 0.135825 0.077181 0.098687 0.042352 -0.051184 -0.020815 0.026186 0.066012 0.072968 0.066181 0.151316 0.116943 0.152687 0.036672 0.048467 0.045269 0.046927 0.027218 -0.020841 0.040415 0.048806 0.091089 0.102043 0.085644 0.112276 0.124618 0.080026 0.012332 -0.008706 0.023624 0.075751 0.072079 0.089876 0.088475 0.049581 0.104489 0.066214 0.041742 0.077875 -0.014088 0.012722 0.065320 0.039361 0.042791 0.067624 0.078129 0.049273 0.065903 0.015891 0.019667 0.006902 0.054398 0.011015 0.041235 0.068919 0.078901 0.043391 -0.005381 -0.003109 -0.019307 0.042222 0.000631 0.012634 0.071600 0.050132 0.001500 0.011029 -0.016466 0.006536 -0.040410 0.007108 0.014542 0.042581 0.045522 0.027595 -0.006784 0.004761 0.031986 0.007184 0.037246 0.011905 -0.016615 0.026773 -0.048882 -0.028223 -0.055292 -0.012495 -0.064496 0.006583 0.019784 -0.011114 -0.010061 -0.005412 -0.001275 0.027473 0.015440 -0.012833 0.007567 0.026793 0.036187 0.024934 0.007478 0.015171 0.004694 -0.004832 0.016904 -0.006733 0.087989 0.042843 0.029010 0.001927 -0.009383 -0.031887 0.002266 0.075063 0.001983 0.057358 -0.019167 -0.024844 -0.023112 0.094569 0.003263 -0.024677 0.056208 0.051088 0.007015 0.002675 0.019651 0.003329 0.037860 0.031543 0.091410 0.054883 0.049565 0.043410 -0.008279 0.016196 -0.005050 -0.007137 0.012797 0.094831 -0.013813 -0.090019 0.043499 0.003213 0.058887 -0.053891 -0.006215 -0.000338 0.021634 -0.000884 -0.024643 -0.020941 -0.069345 0.044718 0.045933 0.054614 -0.122025 0.020499 0.009322 -0.006105 -0.097952 0.102333 0.023012 -0.047962 -0.111262 0.186623 0.295880 0.184188 0.135404 0.130336 -0.520080
0.072396 0.073047 0.074998 0.078250 0.082801 0.088649 0.095793 0.104230 0.113955 0.124964 0.137250 0.150804 0.165617 0.181675 0.198964 0.217464 0.237154 0.258007 0.279994 0.303078 0.327219 0.352369 0.378475 0.405475 0.433303 0.461881 0.491124 0.520937 0.551217 0.581849 0.612708 0.643659 0.674555 0.705237 0.735537 0.765272 0.794251 0.822269 0.849114 0.874561 0.898375 0.920316 0.940135 0.957575 0.972378 0.984282 0.993025 0.998346 0.999990 0.997708 0.991263 0.980430 0.965003 0.944795 0.919646 0.889424 0.854030 0.813403 0.767524 0.716420 0.660166 0.598893 0.532788 0.462099 0.387137 0.308280 0.225972 0.140723 0.053113 0.036212 0.126542 0.217107 0.307078 0.395578 0.481686 0.564447 0.642880 0.715994 0.782795 0.842306 0.893579 0.935710 0.967862 0.989275 0.999291 0.997368 0.983102 0.956237 0.916690 0.864557 0.800132 0.723914 0.636612 0.539153 0.432678 0.318537 0.198284 0.073656 0.053440 0.180956 0.306730 0.428523 0.544056 0.651056 0.747300 0.830670 0.899199 0.951126 0.984952 0.999483 0.993881 0.967707 0.920953 0.854071 0.767993 0.664135 0.544395 0.411130 0.267132 0.115573 0.040044 0.195970 0.348286 0.493008 0.626184 0.744015 0.842966 0.919887 0.972121 0.997617 0.995016 0.963740 0.904045 0.817060 0.704801 0.570151 0.416807 0.249212 0.072434 0.107964 0.286098 0.455945 0.611552 0.747248 0.857868 0.938964 0.987005 0.999558 0.975429 0.914772 0.819146 0.691522 0.536229 0.358843 0.166015 0.034750 0.235377 0.427531 0.602970 0.753902 0.873355 0.955521 0.996069 0.992411 0.943894 0.851920 0.719962 0.553489 0.359793 0.147695 0.072810 0.291019 0.496023 0.677264 0.825093 0.931313 0.989671 0.996271 0.949882 0.852112 0.707426 0.523017 0.308506 0.075479 0.163092 0.393563 0.602387 0.776931 0.906267 0.981904 0.998394 0.953793 0.849905 0.692315 0.490158 0.255675 0.003516 0.250131 0.488574 0.695702 0.857115 0.961166 0.999860 0.969549 0.871335 0.711160 0.499545 0.250982 0.016988 0.284972 0.533107 0.742547 0.896925 0.983696 0.995233 0.929589 0.790839 0.588946 0.339162 0.060956 0.223441 0.490780 0.718700 0.887633 0.982555 0.994409 0.921076 0.767779 0.546845 0.276850 0.018865 0.314141 0.582290 0.798523 0.942301 0.999372 0.963301 0.836316 0.629345 0.361230 0.057128 0.253767 0.540983 0.775778 0.934051 0.998931 0.962697 0.827835 0.607077 0.322347 0.002738 0.318400 0.606873 0.831336 0.966749 0.997308 0.918435 0.737593 0.473793 0.155744 0.181130 0.498577 0.759850 0.934022 0.999768 0.948132 0.783925 0.525510 0.202941 0.145380 0.477195 0.751496 0.933658 0.999941 0.940752 0.762235 0.485879 0.146152 0.213662 0.546871 0.809460 0.965963 0.994433 0.889713 0.664550 0.348303 0.016672 0.380568 0.692863 0.909385 0.998682 0.946813 0.759746 0.462983 0.098329 0.281816 0.621899 0.871351 0.992227 0.965189 0.792848 0.499886 0.129796 0.261376 0.613404 0.871170 0.993430 0.959624 0.773615 0.463633 0.078267 0.320917 0.669139 0.908927 0.999777 0.925240 0.696207 0.349671 0.056927 0.455059 0.776584 0.965489 0.987870 0.838313 0.541463 0.148318 0.272266 0.645491 0.903934 0.999910 0.914533 0.661798 0.286692 0.142487 0.546371 0.849149 0.992956 0.949172 0.724512 0.360458 0.074052 0.495407 0.821356 0.987192 0.958849 0.740306 0.373537 0.069137 0.499049 0.828890 0.990526 0.949401 0.712320 0.326841 0.127826 0.556880 0.869589 0.998681 0.915122 0.635111 0.217430 0.248457 0.661382
1.000000 1.000000 1.000000 1.000000 1.000000 1.000000 1.000000 1.000000 1.000000 1.000000 1.000000 1.000000 1.000000 1.000000 1.000000 1.000000 1.000000 1.000000 1.000000 1.000000 1.000000 1.000000 1.000000 1.000000 1.000000 1.000000 1.000000 1.000000 1.000000 1.000000 1.000000 1.000000 1.000000 1.000000 1.000000 1.000000 1.000000 1.000000 1.000000 1.000000 1.000000 1.000000 1.000000 1.000000 1.000000 1.000000 1.000000 1.000000 1.000000 1.000000 1.000000 1.000000 0.923252 0.923252 0.923252 0.923252 0.923252 0.923252 0.923252 0.923252 0.923252 0.923252 0.923252 0.923252 0.923252 0.923252 0.923252 0.923252 0.923252 0.923252 0.923252 0.923252 0.923252 0.923252 0.923252 0.923252 0.923252 0.923252 0.923252 0.923252 0.923252 0.923252 0.923252 0.923252 0.923252 0.913310 0.911405 0.912566 0.911124 0.909660 0.909071 0.908680 0.909721 0.911327 0.913400 0.935028 0.938135 0.939378 0.940699 0.942068 0.944348 0.942192 0.949784 0.956294 0.955242 0.956388 0.950249 0.951645 0.951000 0.950268 0.951609 0.951729 0.950042 0.948031 0.946461 0.945915 0.945605 0.949254 0.949743 0.949905 0.950498 0.950446 0.951163 0.951775 0.949942 0.952216 0.944368 0.943026 0.948290 0.946216 0.947595 0.947560 0.948248 0.949056 0.949374 0.949644 0.946293 0.945853 0.944939 0.937596 0.930493 0.930587 0.932843 0.935785 0.933085 0.930064 0.931382 0.933451 0.932566 0.936026 0.927076 0.922929 0.896856 0.883533 0.873937 0.874164 0.878043 0.880632 0.878320 0.871960 0.863114 0.859551 0.859143 0.855376 0.847303 0.862814 0.857157 0.854137 0.857812 0.861061 0.866459 0.864347 0.860130 0.855354 0.850506 0.840779 0.842191 0.845614 0.849776 0.832726 0.822328 0.839137 0.830330 0.821027 0.828708 0.830639 0.827729 0.826575 0.827080 0.824620 0.817912 0.810421 0.814124 0.823113 0.824008 0.814252 0.811847 0.809547 0.809312 0.801708 0.806347 0.807582 0.803884 0.796360 0.813726 0.780500 0.801587 0.802469 0.785649 0.769848 0.757607 0.766516 0.776459 0.775971 0.770213 0.774733 0.774325 0.766547 0.740157 0.734074 0.740956 0.739059 0.727381 0.713765 0.720860 0.721215 0.717816 0.714669 0.717856 0.718817 0.695443 0.708941 0.713409 0.703650 0.717494 0.720083 0.711043 0.714318 0.718200 0.721126 0.721711 0.690776 0.694405 0.652246 0.641343 0.595130 0.591675 0.589266 0.531156 0.535443 0.509366 0.492968 0.493743 0.472495 0.523935 0.436856 0.423614 0.452206 0.378324 0.329725 0.347016 0.347709 0.361438 0.367311 0.358538 0.360493 0.346191 0.323917 0.308497 0.332826 0.349460 0.319225 0.323544 0.307594 0.285757 0.244765 0.260571 0.264795 0.293774 0.295865 0.275664 0.299378 0.349429 0.288820 0.269239 0.247049 0.272942 0.283176 0.280575 0.270513 0.277866 0.230296 0.225840 0.246508 0.248844 0.281022 0.307635 0.333837 0.329570 0.333048 0.362818 0.314937 0.330565 0.334962 0.323902 0.341580 0.344984 0.346706 0.340720 0.378472 0.367337 0.378164 0.372449 0.370158 0.411286 0.389463 0.363778 0.337896 0.345923 0.344821 0.342003 0.285006 0.265163 0.263103 0.220567 0.183811 0.185617 0.185766 0.141399 0.125801 0.109248 0.072345 0.071627 0.080022 0.108267 0.079234 0.096390 0.102834 0.102834 0.102834 0.102834 0.102834 0.102834 0.102834 0.102834 0.102834 0.102834 0.102834 0.102834 0.102834 0.102834 0.125421 0.125421 0.125421 0.125421 0.125421 0.125421 0.125421 0.125421 0.125421 0.125421 0.125421 0.125421
0.000000 0.000000 0.000000 0.000000 0.000000 0.000000 0.000000 0.000000 0.000000 0.000000 0.000000 0.000000 0.000000 0.000000 0.000000 0.000000 0.000000 0.000000 0.000000 0.000000 0.000000 0.000000 0.000000 0.000000 0.000000 0.000000 0.000000 0.000000 0.000000 0.000000 0.000000 0.000000 0.000000 0.000000 0.000000 0.000000 0.000000 0.000000 0.000000 0.000000 0.000000 0.000000 0.000000 0.000000 0.000000 0.000000 0.000000 0.000000 0.000000 0.000000 0.000000 0.000000 0.209657 0.209657 0.209657 0.209657 0.209657 0.209657 0.209657 0.209657 0.209657 0.209657 0.209657 0.209657 0.209657 0.209657 0.209657 0.209657 0.209657 0.209657 0.209657 0.209657 0.209657 0.209657 0.209657 0.209657 0.209657 0.209657 0.209657 0.209657 0.209657 0.209657 0.209657 0.209657 0.209657 0.244339 0.244339 0.244339 0.244339 0.244339 0.244339 0.244339 0.244339 0.244339 0.244339 0.244339 0.244339 0.244339 0.244339 0.244339 0.244339 0.244339 0.244339 0.244339 0.244339 0.244339 0.244339 0.244339 0.244339 0.244339 0.260378 0.260378 0.260378 0.260378 0.260378 0.260378 0.260378 0.260378 0.260378 0.260378 0.260378 0.260378 0.260378 0.260378 0.260378 0.260378 0.260378 0.260378 0.260378 0.260378 0.269680 0.269680 0.269680 0.269680 0.269680 0.269680 0.269680 0.269680 0.269680 0.269680 0.269680 0.269680 0.269680 0.269680 0.269680 0.269680 0.269680 0.269680 0.269680 0.269680 0.269680 0.269680 0.269680 0.269680 0.269680 0.269680 0.269680 0.269680 0.269680 0.269680 0.269680 0.269680 0.269680 0.280056 0.280056 0.280056 0.280056 0.280056 0.280056 0.280056 0.280056 0.280056 0.280056 0.280056 0.280056 0.280056 0.280056 0.280056 0.280056 0.280056 0.280056 0.280056 0.280056 0.280056 0.280056 0.280056 0.280056 0.280056 0.280056 0.280056 0.274721 0.274721 0.274721 0.274721 0.274721 0.274721 0.274721 0.274721 0.274721 0.274721 0.274721 0.274721 0.274721 0.285714 0.285714 0.285714 0.285714 0.285714 0.285714 0.285714 0.285714 0.285714 0.285714 0.285714 0.280056 0.280056 0.280056 0.280056 0.280056 0.280056 0.280056 0.280056 0.280056 0.280056 0.280056 0.274721 0.274721 0.274721 0.274721 0.274721 0.274721 0.274721 0.274721 0.274721 0.274721 0.274721 0.280056 0.280056 0.280056 0.280056 0.280056 0.280056 0.280056 0.280056 0.280056 0.280056 0.285714 0.285714 0.285714 0.285714 0.285714 0.285714 0.285714 0.285714 0.285714 0.269680 0.269680 0.269680 0.269680 0.269680 0.269680 0.269680 0.269680 0.269680 0.269680 0.274721 0.274721 0.274721 0.274721 0.274721 0.274721 0.274721 0.274721 0.274721 0.285714 0.285714 0.285714 0.285714 0.285714 0.285714 0.285714 0.285714 0.264906 0.264906 0.264906 0.264906 0.264906 0.264906 0.264906 0.264906 0.264906 0.274721 0.274721 0.274721 0.274721 0.274721 0.274721 0.274721 0.274721 0.269680 0.269680 0.269680 0.269680 0.269680 0.269680 0.269680 0.269680 0.269680 0.269680 0.269680 0.269680 0.269680 0.269680 0.269680 0.269680 0.280056 0.280056 0.280056 0.280056 0.280056 0.280056 0.280056 0.260378 0.260378 0.260378 0.260378 0.260378 0.260378 0.260378 0.260378 0.269680 0.269680 0.269680 0.269680 0.269680 0.269680 0.269680 0.264906 0.264906 0.264906 0.264906 0.264906 0.264906 0.264906 0.264906 0.264906 0.264906 0.264906 0.264906 0.264906 0.264906 0.260378 0.260378 0.260378 0.260378 0.260378 0.260378 0.260378 0.260378 0.260378 0.260378 0.260378 0.260378
