# Output from CTFFind version 4.1.9, run on 2019-11-02 17:59:16
# Input file: stack16_bm3d_averaged_1_1.75_0_1500_half.mrc ; Number of micrographs: 1
# Pixel size: 3.000 Angstroms ; acceleration voltage: 300.0 keV ; spherical aberration: 0.00 mm ; amplitude contrast: 0.07
# Box size: 512 pixels ; min. res.: 30.0 Angstroms ; max. res.: 5.0 Angstroms ; min. def.: 5000.0 um; max. def. 50000.0 um; num. frames averaged: 1
# 6 lines per micrograph: #1 - spatial frequency (1/Angstroms); #2 - 1D rotational average of spectrum (assuming no astigmatism); #3 - 1D rotational average of spectrum; #4 - CTF fit; #5 - cross-correlation between spectrum and CTF fit; #6 - 2sigma of expected cross correlation of noise
0.000000 0.000651 0.001302 0.001953 0.002604 0.003255 0.003906 0.004557 0.005208 0.005859 0.006510 0.007161 0.007812 0.008464 0.009115 0.009766 0.010417 0.011068 0.011719 0.012370 0.013021 0.013672 0.014323 0.014974 0.015625 0.016276 0.016927 0.017578 0.018229 0.018880 0.019531 0.020182 0.020833 0.021484 0.022135 0.022786 0.023438 0.024089 0.024740 0.025391 0.026042 0.026693 0.027344 0.027995 0.028646 0.029297 0.029948 0.030599 0.031250 0.031901 0.032552 0.033203 0.033854 0.034505 0.035156 0.035807 0.036458 0.037109 0.037760 0.038411 0.039062 0.039714 0.040365 0.041016 0.041667 0.042318 0.042969 0.043620 0.044271 0.044922 0.045573 0.046224 0.046875 0.047526 0.048177 0.048828 0.049479 0.050130 0.050781 0.051432 0.052083 0.052734 0.053385 0.054036 0.054688 0.055339 0.055990 0.056641 0.057292 0.057943 0.058594 0.059245 0.059896 0.060547 0.061198 0.061849 0.062500 0.063151 0.063802 0.064453 0.065104 0.065755 0.066406 0.067057 0.067708 0.068359 0.069010 0.069661 0.070312 0.070964 0.071615 0.072266 0.072917 0.073568 0.074219 0.074870 0.075521 0.076172 0.076823 0.077474 0.078125 0.078776 0.079427 0.080078 0.080729 0.081380 0.082031 0.082682 0.083333 0.083984 0.084635 0.085286 0.085938 0.086589 0.087240 0.087891 0.088542 0.089193 0.089844 0.090495 0.091146 0.091797 0.092448 0.093099 0.093750 0.094401 0.095052 0.095703 0.096354 0.097005 0.097656 0.098307 0.098958 0.099609 0.100260 0.100911 0.101562 0.102214 0.102865 0.103516 0.104167 0.104818 0.105469 0.106120 0.106771 0.107422 0.108073 0.108724 0.109375 0.110026 0.110677 0.111328 0.111979 0.112630 0.113281 0.113932 0.114583 0.115234 0.115885 0.116536 0.117188 0.117839 0.118490 0.119141 0.119792 0.120443 0.121094 0.121745 0.122396 0.123047 0.123698 0.124349 0.125000 0.125651 0.126302 0.126953 0.127604 0.128255 0.128906 0.129557 0.130208 0.130859 0.131510 0.132161 0.132812 0.133464 0.134115 0.134766 0.135417 0.136068 0.136719 0.137370 0.138021 0.138672 0.139323 0.139974 0.140625 0.141276 0.141927 0.142578 0.143229 0.143880 0.144531 0.145182 0.145833 0.146484 0.147135 0.147786 0.148438 0.149089 0.149740 0.150391 0.151042 0.151693 0.152344 0.152995 0.153646 0.154297 0.154948 0.155599 0.156250 0.156901 0.157552 0.158203 0.158854 0.159505 0.160156 0.160807 0.161458 0.162109 0.162760 0.163411 0.164062 0.164714 0.165365 0.166016 0.166667 0.167318 0.167969 0.168620 0.169271 0.169922 0.170573 0.171224 0.171875 0.172526 0.173177 0.173828 0.174479 0.175130 0.175781 0.176432 0.177083 0.177734 0.178385 0.179036 0.179688 0.180339 0.180990 0.181641 0.182292 0.182943 0.183594 0.184245 0.184896 0.185547 0.186198 0.186849 0.187500 0.188151 0.188802 0.189453 0.190104 0.190755 0.191406 0.192057 0.192708 0.193359 0.194010 0.194661 0.195312 0.195964 0.196615 0.197266 0.197917 0.198568 0.199219 0.199870 0.200521 0.201172 0.201823 0.202474 0.203125 0.203776 0.204427 0.205078 0.205729 0.206380 0.207031 0.207682 0.208333 0.208984 0.209635 0.210286 0.210938 0.211589 0.212240 0.212891 0.213542 0.214193 0.214844 0.215495 0.216146 0.216797 0.217448 0.218099 0.218750 0.219401 0.220052 0.220703 0.221354 0.222005 0.222656 0.223307 0.223958 0.224609 0.225260 0.225911 0.226562 0.227214 0.227865 0.228516 0.229167 0.229818 0.230469 0.231120 0.231771 0.232422 0.233073 0.233724 0.234375 0.235026 0.235677
       0.34413        0.34413        0.34413        0.34413        0.34413        0.34413        0.34413        0.34413        0.34413        0.34413        0.34413        0.34413        0.34413        0.34413        0.34413        0.34413        0.34413        0.34413        0.34413        0.34413        0.34413        0.34413        0.34413        0.34413        0.34413        0.34413        0.34413        0.34413        0.34413        0.34413        0.34413        0.34413        0.34413        0.34413        0.34413        0.34413        0.34413        0.34413        0.34413        0.34413        0.34413        0.34413        0.34413        0.34413        0.34413        0.34413        0.34413        0.34413        0.34413        0.34413        0.34413        0.48763        0.69709        0.45710       -0.10994       -0.41041       -0.56909       -0.65841       -0.73998       -0.75734       -0.87047       -0.91541       -0.75732       -0.92493       -0.87131       -1.02484       -1.09707       -0.98677       -0.95777       -0.88162       -0.84902       -0.74527       -0.63718       -0.49678       -0.41998       -0.21961       -0.11549       -0.02344        0.19896        0.24203        0.30897        0.38289        0.43457        0.51130        0.58138        0.60261        0.59019        0.50188        0.54899        0.48472        0.39448        0.32887        0.20430        0.17223        0.09777       -0.05310       -0.11382       -0.08669        0.01673       -0.01639        0.02100        0.02782        0.20261        0.21720        0.39268        0.45838        0.56547        0.70385        0.76689        0.73623        0.70304        0.69499        0.58426        0.53794        0.39683        0.28104        0.19834        0.15516        0.07123        0.03215        0.02298        0.06486        0.08544        0.27934        0.41512        0.50630        0.58913        0.63872        0.70286        0.65833        0.65629        0.67084        0.60593        0.48753        0.28999        0.24242        0.20746        0.12684        0.04181        0.09381        0.10917        0.25308        0.35257        0.41878        0.50646        0.54541        0.65315        0.60102        0.55276        0.51273        0.36357        0.20387        0.21374        0.15940        0.12825        0.12500        0.21456        0.25699        0.35988        0.44165        0.43492        0.54997        0.51153        0.45998        0.46045        0.38183        0.32703        0.26990        0.20922        0.23056        0.21572        0.21026        0.31465        0.45246        0.48540        0.48576        0.55319        0.50096        0.45149        0.40105        0.29861        0.23307        0.23667        0.23872        0.26207        0.27742        0.33268        0.44206        0.50532        0.49730        0.46306        0.41203        0.38733        0.35858        0.24751        0.22625        0.25458        0.29705        0.36059        0.36495        0.39559        0.41806        0.44632        0.37858        0.34944        0.31816        0.31692        0.27107        0.26001        0.30615        0.34913        0.41244        0.42026        0.39407        0.38890        0.40300        0.34871        0.28872        0.30088        0.29142        0.30633        0.35855        0.37721        0.41375        0.35771        0.36256        0.38950        0.34616        0.30907        0.28518        0.28808        0.33662        0.32939        0.32683        0.36902        0.39672        0.34041        0.35585        0.30283        0.30606        0.28249        0.28083        0.30414        0.32951        0.38428        0.36450        0.34888        0.32328        0.28445        0.27515        0.29834        0.28443        0.31712        0.36836        0.39723        0.33605        0.32239        0.30823        0.30467        0.30073        0.27993        0.31355        0.33989        0.32978        0.34190        0.32225        0.35459        0.32929        0.29289        0.31209        0.32452        0.34995        0.34857        0.31908        0.31650        0.29990        0.32474        0.31235        0.33710        0.39469        0.33288        0.35914        0.31214        0.30946        0.29425        0.31170        0.29511        0.31298        0.32370        0.34424        0.35806        0.30220        0.32428        0.32081        0.30127        0.29245        0.30028        0.32474        0.34572        0.35444        0.33493        0.31290        0.27387        0.25101        0.31209        0.35173        0.31528        0.29594        0.28095        0.29280        0.32777        0.31492        0.29857        0.34581        0.33005        0.30923        0.24230        0.28151        0.29067        0.29079        0.33442        0.32913        0.35039        0.34913        0.28848        0.28293        0.29778        0.28035        0.30739        0.27103        0.25835        0.26607        0.27966        0.29441        0.29039        0.29064        0.26853        0.31511        0.32542        0.31598        0.26918        0.26761        0.23069        0.25831        0.24426        0.30030        0.35551        0.23420        0.24055        0.29179        0.23720        0.23279        0.31858        0.25744        0.12607        0.17013        0.21637        0.29081        0.27544        0.12860        0.06192       -0.39789       -0.78791
3.060741 3.022637 2.984778 2.947164 2.909796 2.872672 2.835794 2.799161 2.762773 2.726631 2.690733 2.655081 2.619674 2.584512 2.549596 2.514924 2.480498 2.446317 2.412382 2.378691 2.345246 2.312046 2.279091 2.246381 2.213917 2.181697 2.149723 2.117994 2.086511 2.055272 2.024279 1.993531 1.963028 1.932771 1.902758 1.872991 1.843469 1.814193 1.785161 1.756375 1.727833 1.699538 1.671487 1.643681 1.616121 1.588806 1.561736 1.534911 1.508332 1.481998 1.455908 1.514358 1.692762 1.614135 0.966177 0.682854 0.477343 0.430284 0.325061 0.266424 0.198443 0.016358 0.197488 0.079175 -0.011745 -0.061535 -0.201798 -0.154651 -0.088128 -0.093591 -0.090074 0.010418 0.035031 0.230211 0.152112 0.362829 0.443361 0.476655 0.708636 0.697175 0.707290 0.834902 0.817136 0.842241 0.921550 0.898857 0.935752 0.749214 0.837310 0.836609 0.624368 0.607120 0.455217 0.436296 0.373635 0.214152 0.118229 0.098171 0.211721 0.140423 0.203433 0.113452 0.300045 0.282734 0.456124 0.412760 0.583216 0.645214 0.761902 0.704669 0.660453 0.660455 0.525580 0.504032 0.355612 0.297077 0.122144 0.152723 0.003934 -0.006166 -0.040122 -0.030138 -0.000503 0.037815 0.275686 0.325948 0.389492 0.392048 0.466019 0.514232 0.474797 0.505201 0.392232 0.395641 0.155216 0.074625 0.076608 -0.008346 -0.129502 -0.043403 -0.119651 0.012947 0.141450 0.162525 0.255229 0.264737 0.375484 0.459514 0.350201 0.392874 0.286833 0.122430 0.048782 0.055668 0.027056 0.010392 0.009977 0.111337 0.126925 0.271043 0.234839 0.297986 0.363367 0.247848 0.250668 0.222211 0.130477 0.085621 0.040740 0.024617 0.038892 -0.011689 0.027375 0.180890 0.224129 0.252175 0.283010 0.235609 0.239100 0.147145 0.112961 -0.016863 -0.009716 -0.009758 0.012470 0.008114 0.032507 0.105163 0.191948 0.206828 0.228773 0.134849 0.139913 0.078272 0.056546 -0.063499 -0.014186 0.006425 0.054694 0.067544 0.077031 0.147504 0.097194 0.166308 0.064342 0.047670 0.048826 0.028999 0.002715 0.002430 0.041958 0.085133 0.123581 0.135743 0.058409 0.118130 0.094263 0.005783 0.010916 0.009816 -0.002055 0.042493 0.060077 0.100568 0.092457 0.053872 0.071219 0.078677 0.030954 0.007694 -0.009400 -0.000922 0.059488 0.021863 0.033282 0.077899 0.084817 0.063478 0.033566 0.013675 0.008349 -0.010050 -0.011128 0.012437 0.050343 0.107373 0.057787 0.061103 0.027680 -0.012188 -0.004043 0.019443 0.011971 0.028022 0.102266 0.071303 0.013025 0.048527 0.000068 0.032579 -0.002765 -0.004407 0.036738 0.053944 0.024008 0.041826 0.025816 0.058374 0.021300 -0.005680 0.019917 0.037079 0.050730 0.043295 0.018968 -0.006484 -0.013034 0.017625 0.006256 0.043391 0.072825 0.032538 0.022973 -0.000041 -0.000028 -0.012909 0.009353 0.000212 0.010908 -0.001030 0.063394 0.038741 0.015773 0.035333 0.002158 0.009020 -0.001713 -0.002485 0.037936 0.060553 0.071500 0.043518 0.031234 -0.020454 -0.011414 0.020250 0.072580 0.021408 0.035789 -0.012112 0.008929 0.042332 0.048394 0.012362 0.067005 0.047516 0.037762 -0.040767 0.004470 0.037397 0.005853 0.036559 0.072789 0.065887 0.056089 0.004285 0.007587 0.001417 -0.008970 0.026974 -0.040398 -0.023810 -0.034011 -0.026383 -0.006147 -0.018573 0.009694 -0.093907 -0.010487 -0.008800 -0.018292 -0.077660 -0.032932 -0.119259 -0.044690 -0.080778 -0.021194 0.062800 -0.114680 -0.054649 0.030808 -0.021411 -0.067321 0.048510 0.032054 -0.064845 -0.057159 0.022943 0.260239 0.258824 0.060600 0.057232 -0.692636
0.072396 0.073046 0.074995 0.078242 0.082787 0.088628 0.095763 0.104189 0.113902 0.124897 0.137166 0.150703 0.165497 0.181535 0.198802 0.217279 0.236945 0.257773 0.279732 0.302789 0.326901 0.352022 0.378098 0.405069 0.432866 0.461415 0.490628 0.520414 0.550667 0.581273 0.612110 0.643040 0.673919 0.704588 0.734878 0.764608 0.793588 0.821613 0.848472 0.873940 0.897783 0.919762 0.939628 0.957126 0.971997 0.983980 0.992813 0.998238 0.999997 0.997843 0.991538 0.980859 0.965597 0.945566 0.920606 0.890584 0.855399 0.814990 0.769335 0.718460 0.662437 0.601396 0.535521 0.465057 0.390311 0.311659 0.229539 0.144460 0.056996 0.032210 0.122453 0.212966 0.302926 0.391458 0.477645 0.560535 0.639151 0.712503 0.779600 0.839465 0.891149 0.933749 0.966424 0.988412 0.999050 0.997791 0.984222 0.958081 0.919273 0.867886 0.804200 0.728702 0.642086 0.545266 0.439366 0.325724 0.205876 0.081546 0.045372 0.172842 0.298714 0.420755 0.536693 0.644257 0.741225 0.825472 0.895024 0.948109 0.983209 0.999112 0.994954 0.970267 0.925012 0.859608 0.774948 0.672410 0.553854 0.421598 0.278399 0.127397 0.027939 0.183879 0.336524 0.481898 0.616049 0.735169 0.835708 0.914482 0.968798 0.996553 0.996333 0.967491 0.910212 0.825548 0.715435 0.582676 0.430897 0.264468 0.088399 0.091795 0.270264 0.441000 0.598046 0.735708 0.848776 0.932734 0.983966 0.999933 0.979322 0.922155 0.829853 0.705247 0.552529 0.377149 0.185651 0.014550 0.215436 0.408700 0.586087 0.739763 0.862666 0.948864 0.993871 0.994910 0.951123 0.863687 0.735852 0.572873 0.381838 0.171410 0.048548 0.267403 0.474265 0.658531 0.810440 0.921624 0.985600 0.998198 0.957875 0.865904 0.726422 0.546302 0.334885 0.103533 0.134936 0.366939 0.578908 0.758080 0.893303 0.975772 0.999654 0.962562 0.865833 0.714579 0.517499 0.286459 0.035821 0.218399 0.459543 0.671394 0.839303 0.951235 0.998696 0.977453 0.887973 0.735561 0.530140 0.285697 0.019398 0.249571 0.501366 0.716951 0.879573 0.976119 0.998250 0.943214 0.814241 0.620486 0.376484 0.101161 0.183587 0.454583 0.689267 0.867600 0.973834 0.998002 0.936948 0.794817 0.582918 0.318953 0.025626 0.271232 0.544903 0.770214 0.925889 0.996648 0.974814 0.861273 0.665640 0.405594 0.105410 0.206231 0.498919 0.743496 0.915004 0.995324 0.975216 0.855519 0.647354 0.371253 0.055276 0.267744 0.563575 0.800223 0.951456 0.999825 0.938832 0.773948 0.522330 0.211198 0.124950 0.448122 0.721071 0.911673 0.996788 0.965243 0.819462 0.575548 0.261688 0.084931 0.422446 0.709336 0.909579 0.997299 0.960276 0.801838 0.540844 0.209644 0.149754 0.490928 0.769010 0.946666 0.999252 0.918424 0.713673 0.411480 0.052102 0.315640 0.640914 0.877944 0.992558 0.967312 0.804385 0.525724 0.170353 0.210895 0.562552 0.832584 0.980175 0.982111 0.836666 0.564372 0.205401 0.186135 0.550223 0.830130 0.981347 0.978884 0.821658 0.533216 0.158506 0.242895 0.606122 0.871524 0.994591 0.953645 0.753969 0.427518 0.028099 0.377268 0.719510 0.939321 0.997641 0.882868 0.613489 0.235479 0.185276 0.574278 0.861591 0.994552 0.947697 0.727974 0.374155 0.049684 0.465492 0.795591 0.977249 0.974865 0.787300 0.448794 0.023107 0.408212 0.761361 0.966602 0.982316 0.803785 0.464891 0.032082 0.408345 0.767334 0.971149 0.976795 0.781464 0.423923 0.022775 0.465874 0.812117 0.987454 0.953187 0.714949 0.322330 0.141004 0.574871
1.000000 1.000000 1.000000 1.000000 1.000000 1.000000 1.000000 1.000000 1.000000 1.000000 1.000000 1.000000 1.000000 1.000000 1.000000 1.000000 1.000000 1.000000 1.000000 1.000000 1.000000 1.000000 1.000000 1.000000 1.000000 1.000000 1.000000 1.000000 1.000000 1.000000 1.000000 1.000000 1.000000 1.000000 1.000000 1.000000 1.000000 1.000000 1.000000 1.000000 1.000000 1.000000 1.000000 1.000000 1.000000 1.000000 1.000000 1.000000 1.000000 1.000000 1.000000 1.000000 0.936587 0.936587 0.936587 0.936587 0.936587 0.936587 0.936587 0.936587 0.936587 0.936587 0.936587 0.936587 0.936587 0.936587 0.936587 0.936587 0.936587 0.936587 0.936587 0.936587 0.936587 0.936587 0.936587 0.936587 0.936587 0.936587 0.936587 0.936587 0.936587 0.936587 0.936587 0.936587 0.936587 0.929034 0.930398 0.933144 0.934134 0.934108 0.933700 0.933422 0.933635 0.935287 0.937499 0.954075 0.956049 0.956527 0.957767 0.956514 0.959522 0.957987 0.957913 0.968635 0.967534 0.968082 0.961043 0.962526 0.961616 0.960684 0.961489 0.961671 0.959814 0.957779 0.956186 0.955595 0.955243 0.956957 0.957380 0.957344 0.957871 0.957707 0.957424 0.954023 0.952605 0.954022 0.955955 0.955238 0.961082 0.959392 0.962698 0.963480 0.962066 0.961976 0.962185 0.962391 0.954682 0.949754 0.945136 0.933291 0.924588 0.921213 0.924034 0.925881 0.924892 0.920119 0.919066 0.916818 0.912170 0.911365 0.911166 0.912598 0.907971 0.904642 0.888261 0.887712 0.890859 0.891163 0.888895 0.880902 0.877089 0.878168 0.881131 0.878942 0.875739 0.891985 0.886102 0.890581 0.893494 0.896660 0.900475 0.895627 0.892728 0.888994 0.885496 0.880002 0.880761 0.873265 0.876021 0.868814 0.857882 0.851251 0.854364 0.863528 0.871791 0.879763 0.878803 0.879567 0.878754 0.865010 0.867271 0.853525 0.854312 0.858374 0.864103 0.862449 0.859746 0.864068 0.862067 0.859520 0.862765 0.859108 0.857165 0.846962 0.847220 0.850282 0.865815 0.867394 0.853405 0.843370 0.830878 0.837772 0.841218 0.840699 0.842379 0.837120 0.839041 0.830531 0.818688 0.820101 0.825529 0.818681 0.822722 0.823245 0.828516 0.829960 0.828667 0.823865 0.822696 0.828495 0.794848 0.803179 0.805048 0.796741 0.800751 0.793550 0.786129 0.784719 0.781861 0.765366 0.778448 0.773262 0.740033 0.739431 0.746349 0.737661 0.726689 0.725431 0.726623 0.714821 0.700615 0.670160 0.666942 0.658309 0.653731 0.658157 0.643492 0.634243 0.623225 0.589033 0.601095 0.605533 0.594267 0.594718 0.587069 0.581371 0.572443 0.562501 0.559121 0.565580 0.568390 0.535080 0.528913 0.539605 0.511052 0.508850 0.508653 0.498517 0.482481 0.488380 0.477453 0.503253 0.514785 0.479138 0.465965 0.479343 0.496886 0.507164 0.509505 0.495580 0.476107 0.499811 0.478633 0.462065 0.477521 0.479168 0.470953 0.478927 0.471884 0.499598 0.488122 0.460175 0.488382 0.468480 0.465532 0.474005 0.466534 0.464075 0.462133 0.461311 0.410687 0.427086 0.403477 0.338936 0.356552 0.355175 0.343804 0.340481 0.315801 0.317466 0.288408 0.266893 0.266713 0.261977 0.222404 0.176390 0.183004 0.184722 0.155248 0.125392 0.132805 0.090003 0.082165 0.104571 0.106581 0.108568 0.106191 0.130734 0.130734 0.130734 0.130734 0.130734 0.130734 0.130734 0.130734 0.130734 0.130734 0.130734 0.130734 0.130734 0.130734 0.157416 0.157416 0.157416 0.157416 0.157416 0.157416 0.157416 0.157416 0.157416 0.157416 0.157416 0.157416
0.000000 0.000000 0.000000 0.000000 0.000000 0.000000 0.000000 0.000000 0.000000 0.000000 0.000000 0.000000 0.000000 0.000000 0.000000 0.000000 0.000000 0.000000 0.000000 0.000000 0.000000 0.000000 0.000000 0.000000 0.000000 7.000000 4.000000 0.000000 0.000000 0.000000 0.000000 0.000000 0.000000 0.000000 0.000000 0.000000 0.000000 0.000000 0.000000 0.000000 0.000000 0.000000 0.000000 0.000000 0.000000 0.000000 0.000000 0.000000 0.000000 0.000000 0.000000 0.000000 0.209657 0.209657 0.209657 0.209657 0.209657 0.209657 0.209657 0.209657 0.209657 0.209657 0.209657 0.209657 0.209657 0.209657 0.209657 0.209657 0.209657 0.209657 0.209657 0.209657 0.209657 0.209657 0.209657 0.209657 0.209657 0.209657 0.209657 0.209657 0.209657 0.209657 0.209657 0.209657 0.209657 0.244339 0.244339 0.244339 0.244339 0.244339 0.244339 0.244339 0.244339 0.244339 0.244339 0.244339 0.244339 0.244339 0.244339 0.244339 0.244339 0.244339 0.244339 0.244339 0.244339 0.244339 0.244339 0.244339 0.244339 0.244339 0.260378 0.260378 0.260378 0.260378 0.260378 0.260378 0.260378 0.260378 0.260378 0.260378 0.260378 0.260378 0.260378 0.260378 0.260378 0.260378 0.260378 0.260378 0.260378 0.260378 0.269680 0.269680 0.269680 0.269680 0.269680 0.269680 0.269680 0.269680 0.269680 0.269680 0.269680 0.269680 0.269680 0.269680 0.269680 0.269680 0.269680 0.269680 0.269680 0.269680 0.269680 0.269680 0.269680 0.269680 0.269680 0.269680 0.269680 0.269680 0.269680 0.269680 0.269680 0.269680 0.269680 0.280056 0.280056 0.280056 0.280056 0.280056 0.280056 0.280056 0.280056 0.280056 0.280056 0.280056 0.280056 0.280056 0.280056 0.280056 0.280056 0.280056 0.280056 0.280056 0.280056 0.280056 0.280056 0.280056 0.280056 0.280056 0.280056 0.280056 0.274721 0.274721 0.274721 0.274721 0.274721 0.274721 0.274721 0.274721 0.274721 0.274721 0.274721 0.274721 0.274721 0.285714 0.285714 0.285714 0.285714 0.285714 0.285714 0.285714 0.285714 0.285714 0.285714 0.285714 0.280056 0.280056 0.280056 0.280056 0.280056 0.280056 0.280056 0.280056 0.280056 0.280056 0.280056 0.274721 0.274721 0.274721 0.274721 0.274721 0.274721 0.274721 0.274721 0.274721 0.274721 0.274721 0.280056 0.280056 0.280056 0.280056 0.280056 0.280056 0.280056 0.280056 0.280056 0.280056 0.285714 0.285714 0.285714 0.285714 0.285714 0.285714 0.285714 0.285714 0.285714 0.269680 0.269680 0.269680 0.269680 0.269680 0.269680 0.269680 0.269680 0.269680 0.269680 0.274721 0.274721 0.274721 0.274721 0.274721 0.274721 0.274721 0.274721 0.274721 0.285714 0.285714 0.285714 0.285714 0.285714 0.285714 0.285714 0.285714 0.264906 0.264906 0.264906 0.264906 0.264906 0.264906 0.264906 0.264906 0.264906 0.274721 0.274721 0.274721 0.274721 0.274721 0.274721 0.274721 0.274721 0.269680 0.269680 0.269680 0.269680 0.269680 0.269680 0.269680 0.269680 0.269680 0.269680 0.269680 0.269680 0.269680 0.269680 0.269680 0.269680 0.280056 0.280056 0.280056 0.280056 0.280056 0.280056 0.280056 0.260378 0.260378 0.260378 0.260378 0.260378 0.260378 0.260378 0.260378 0.269680 0.269680 0.269680 0.269680 0.269680 0.269680 0.269680 0.264906 0.264906 0.264906 0.264906 0.264906 0.264906 0.264906 0.264906 0.264906 0.264906 0.264906 0.264906 0.264906 0.264906 0.260378 0.260378 0.260378 0.260378 0.260378 0.260378 0.260378 0.260378 0.260378 0.260378 0.260378 0.260378
