# Output from CTFFind version 4.1.9, run on 2019-11-02 17:45:59
# Input file: stack11_bm3d_averaged_1_0.5_0_1000_half.mrc ; Number of micrographs: 1
# Pixel size: 3.000 Angstroms ; acceleration voltage: 300.0 keV ; spherical aberration: 0.00 mm ; amplitude contrast: 0.07
# Box size: 512 pixels ; min. res.: 30.0 Angstroms ; max. res.: 5.0 Angstroms ; min. def.: 5000.0 um; max. def. 50000.0 um; num. frames averaged: 1
# 6 lines per micrograph: #1 - spatial frequency (1/Angstroms); #2 - 1D rotational average of spectrum (assuming no astigmatism); #3 - 1D rotational average of spectrum; #4 - CTF fit; #5 - cross-correlation between spectrum and CTF fit; #6 - 2sigma of expected cross correlation of noise
0.000000 0.000651 0.001302 0.001953 0.002604 0.003255 0.003906 0.004557 0.005208 0.005859 0.006510 0.007161 0.007812 0.008464 0.009115 0.009766 0.010417 0.011068 0.011719 0.012370 0.013021 0.013672 0.014323 0.014974 0.015625 0.016276 0.016927 0.017578 0.018229 0.018880 0.019531 0.020182 0.020833 0.021484 0.022135 0.022786 0.023438 0.024089 0.024740 0.025391 0.026042 0.026693 0.027344 0.027995 0.028646 0.029297 0.029948 0.030599 0.031250 0.031901 0.032552 0.033203 0.033854 0.034505 0.035156 0.035807 0.036458 0.037109 0.037760 0.038411 0.039062 0.039714 0.040365 0.041016 0.041667 0.042318 0.042969 0.043620 0.044271 0.044922 0.045573 0.046224 0.046875 0.047526 0.048177 0.048828 0.049479 0.050130 0.050781 0.051432 0.052083 0.052734 0.053385 0.054036 0.054688 0.055339 0.055990 0.056641 0.057292 0.057943 0.058594 0.059245 0.059896 0.060547 0.061198 0.061849 0.062500 0.063151 0.063802 0.064453 0.065104 0.065755 0.066406 0.067057 0.067708 0.068359 0.069010 0.069661 0.070312 0.070964 0.071615 0.072266 0.072917 0.073568 0.074219 0.074870 0.075521 0.076172 0.076823 0.077474 0.078125 0.078776 0.079427 0.080078 0.080729 0.081380 0.082031 0.082682 0.083333 0.083984 0.084635 0.085286 0.085938 0.086589 0.087240 0.087891 0.088542 0.089193 0.089844 0.090495 0.091146 0.091797 0.092448 0.093099 0.093750 0.094401 0.095052 0.095703 0.096354 0.097005 0.097656 0.098307 0.098958 0.099609 0.100260 0.100911 0.101562 0.102214 0.102865 0.103516 0.104167 0.104818 0.105469 0.106120 0.106771 0.107422 0.108073 0.108724 0.109375 0.110026 0.110677 0.111328 0.111979 0.112630 0.113281 0.113932 0.114583 0.115234 0.115885 0.116536 0.117188 0.117839 0.118490 0.119141 0.119792 0.120443 0.121094 0.121745 0.122396 0.123047 0.123698 0.124349 0.125000 0.125651 0.126302 0.126953 0.127604 0.128255 0.128906 0.129557 0.130208 0.130859 0.131510 0.132161 0.132812 0.133464 0.134115 0.134766 0.135417 0.136068 0.136719 0.137370 0.138021 0.138672 0.139323 0.139974 0.140625 0.141276 0.141927 0.142578 0.143229 0.143880 0.144531 0.145182 0.145833 0.146484 0.147135 0.147786 0.148438 0.149089 0.149740 0.150391 0.151042 0.151693 0.152344 0.152995 0.153646 0.154297 0.154948 0.155599 0.156250 0.156901 0.157552 0.158203 0.158854 0.159505 0.160156 0.160807 0.161458 0.162109 0.162760 0.163411 0.164062 0.164714 0.165365 0.166016 0.166667 0.167318 0.167969 0.168620 0.169271 0.169922 0.170573 0.171224 0.171875 0.172526 0.173177 0.173828 0.174479 0.175130 0.175781 0.176432 0.177083 0.177734 0.178385 0.179036 0.179688 0.180339 0.180990 0.181641 0.182292 0.182943 0.183594 0.184245 0.184896 0.185547 0.186198 0.186849 0.187500 0.188151 0.188802 0.189453 0.190104 0.190755 0.191406 0.192057 0.192708 0.193359 0.194010 0.194661 0.195312 0.195964 0.196615 0.197266 0.197917 0.198568 0.199219 0.199870 0.200521 0.201172 0.201823 0.202474 0.203125 0.203776 0.204427 0.205078 0.205729 0.206380 0.207031 0.207682 0.208333 0.208984 0.209635 0.210286 0.210938 0.211589 0.212240 0.212891 0.213542 0.214193 0.214844 0.215495 0.216146 0.216797 0.217448 0.218099 0.218750 0.219401 0.220052 0.220703 0.221354 0.222005 0.222656 0.223307 0.223958 0.224609 0.225260 0.225911 0.226562 0.227214 0.227865 0.228516 0.229167 0.229818 0.230469 0.231120 0.231771 0.232422 0.233073 0.233724 0.234375 0.235026 0.235677
       0.31681        0.31681        0.31681        0.31681        0.31681        0.31681        0.31681        0.31681        0.31681        0.31681        0.31681        0.31681        0.31681        0.31681        0.31681        0.31681        0.31681        0.31681        0.31681        0.31681        0.31681        0.31681        0.31681        0.31681        0.31681        0.31681        0.31681        0.31681        0.31681        0.31681        0.31681        0.31681        0.31681        0.31681        0.31681        0.31681        0.31681        0.31681        0.31681        0.31681        0.31681        0.31681        0.31681        0.31681        0.31681        0.31681        0.31681        0.31681        0.31681        0.31681        0.31681        0.68476        0.87167        0.52250        0.08691       -0.06655       -0.42516       -0.20936       -0.29704       -0.11768       -0.07850       -0.11847       -0.06840       -0.20992       -0.23670       -0.26077       -0.32945       -0.33669       -0.49121       -0.38376       -0.46765       -0.45052       -0.42133       -0.47127       -0.54851       -0.56381       -0.58978       -0.62912       -0.58048       -0.41828       -0.37969       -0.32958       -0.31617       -0.21459       -0.20120        0.01827        0.06874        0.10225        0.22401        0.37233        0.44156        0.51587        0.55935        0.55467        0.57053        0.69921        0.81473        0.74469        0.73483        0.67408        0.58423        0.48649        0.40789        0.49311        0.37382        0.20210        0.07644        0.04662        0.00861       -0.06148       -0.04062       -0.02776       -0.07516       -0.00722       -0.02121        0.20947        0.24862        0.29115        0.43142        0.46781        0.40448        0.53427        0.63146        0.70394        0.76767        0.69182        0.65906        0.70053        0.58825        0.50723        0.41862        0.28803        0.18353        0.15612        0.10628        0.03834        0.01323       -0.00256        0.07494        0.13103        0.20296        0.28415        0.40256        0.41707        0.51388        0.60451        0.63619        0.61451        0.63025        0.55385        0.44579        0.44383        0.35078        0.23060        0.18465        0.14875        0.10608        0.11840        0.06379        0.09720        0.22173        0.26250        0.34003        0.34720        0.45322        0.51275        0.53642        0.55127        0.46904        0.42818        0.39367        0.37412        0.30779        0.25061        0.19932        0.18515        0.16025        0.18906        0.17711        0.26953        0.33189        0.36331        0.42265        0.46200        0.47873        0.44682        0.39302        0.41631        0.37448        0.28925        0.27361        0.22780        0.21285        0.19432        0.21204        0.23067        0.32924        0.37276        0.36487        0.45806        0.44077        0.43917        0.43190        0.39562        0.34440        0.32942        0.27600        0.23443        0.23643        0.26827        0.26834        0.30064        0.30004        0.34041        0.32833        0.41063        0.41777        0.37445        0.34401        0.36364        0.27882        0.28020        0.26251        0.27698        0.25993        0.27954        0.29118        0.31396        0.35305        0.35988        0.36005        0.33119        0.35123        0.28467        0.32091        0.26793        0.25006        0.28366        0.27907        0.30601        0.31414        0.33354        0.32696        0.31306        0.31624        0.28777        0.28746        0.26088        0.28059        0.26580        0.31074        0.28331        0.26269        0.30752        0.31115        0.31825        0.29126        0.29922        0.29257        0.24428        0.23675        0.22047        0.27933        0.27202        0.30920        0.31803        0.31963        0.31459        0.30412        0.27644        0.28343        0.33117        0.27442        0.26794        0.29568        0.29620        0.34069        0.33675        0.36298        0.33162        0.31305        0.27919        0.26336        0.26408        0.22727        0.26834        0.29815        0.29531        0.27763        0.29542        0.27140        0.32229        0.32748        0.25073        0.21690        0.27166        0.33752        0.27726        0.31486        0.32529        0.32750        0.30016        0.32212        0.34368        0.29896        0.29561        0.26507        0.27802        0.35315        0.35077        0.25707        0.26724        0.25386        0.27977        0.22587        0.28949        0.21965        0.25310        0.32604        0.31821        0.34242        0.29590        0.24134        0.24190        0.24248        0.24448        0.18392        0.22207        0.25856        0.29546        0.27899        0.29984        0.29383        0.28181        0.28095        0.20968        0.17731        0.18642        0.23606        0.20262        0.21707        0.23195        0.20979        0.24427        0.33250        0.29603        0.30486        0.22322        0.25697        0.23808        0.28637        0.30624        0.14753        0.21213        0.22397        0.12764        0.22967        0.10586        0.15950        0.17680        0.11247       -0.10693       -0.59116
2.593592 2.566482 2.539518 2.512702 2.486033 2.459511 2.433136 2.406908 2.380827 2.354893 2.329107 2.303467 2.277975 2.252630 2.227432 2.202381 2.177477 2.152720 2.128110 2.103648 2.079332 2.055164 2.031142 2.007268 1.983541 1.959961 1.936528 1.913242 1.890103 1.867112 1.844267 1.821570 1.799020 1.776616 1.754360 1.732251 1.710290 1.688475 1.666807 1.645287 1.623913 1.602687 1.581607 1.560675 1.539890 1.519252 1.498761 1.478418 1.458221 1.438171 1.418269 1.640131 2.045127 1.618236 1.131854 0.988816 0.427696 0.811774 0.565762 0.837062 0.774818 0.789229 0.755768 0.711131 0.564289 0.513807 0.488954 0.448844 0.207701 0.382859 0.205793 0.306164 0.241783 0.182109 0.130532 0.006386 0.044436 -0.015325 -0.054983 0.104861 0.207232 0.199254 0.155589 0.330645 0.198257 0.497449 0.574742 0.546971 0.592097 0.877777 0.807452 0.945538 0.888613 0.973550 0.939702 1.079409 1.141509 1.077144 1.125127 0.953908 0.945382 0.784593 0.652525 0.769031 0.702834 0.462433 0.305829 0.253748 0.212675 0.147466 0.088339 0.124822 0.065198 0.152512 0.051014 0.260140 0.376551 0.357483 0.478584 0.584572 0.468655 0.542403 0.698481 0.747058 0.780363 0.733519 0.730445 0.715519 0.626294 0.571765 0.429001 0.283455 0.203417 0.074749 0.129684 -0.044993 -0.027357 -0.083540 -0.038839 0.003769 0.140651 0.092187 0.301053 0.276546 0.365654 0.456541 0.522228 0.505601 0.517369 0.504642 0.330718 0.306579 0.274256 0.100781 0.046454 -0.003255 -0.037153 -0.042703 -0.095637 -0.106706 -0.019625 0.055889 0.132551 0.134449 0.225842 0.331971 0.303627 0.419897 0.389882 0.281425 0.231406 0.248298 0.206937 0.101129 0.069671 0.015026 0.002678 0.001077 -0.020161 0.058297 0.146330 0.140963 0.222377 0.251568 0.303559 0.262380 0.219666 0.190449 0.208960 0.149366 0.043432 0.046608 -0.008914 -0.010567 -0.031692 0.016655 0.015585 0.173137 0.122392 0.180950 0.236985 0.200923 0.192374 0.199674 0.135803 0.105019 0.065352 0.042093 -0.039004 0.006631 0.020428 0.051674 0.048591 0.080059 0.097525 0.119442 0.139330 0.186296 0.076949 0.098175 0.069491 -0.000638 0.006936 0.008271 -0.009483 0.019843 0.001916 0.029384 0.070651 0.083765 0.118800 0.050384 0.096401 0.055315 0.009760 0.061944 -0.034481 -0.012238 0.022082 -0.003119 0.051588 0.054030 0.052388 0.053936 0.050875 0.045625 0.020385 0.000184 0.005492 0.012655 -0.015252 0.069572 -0.015886 0.006325 0.053280 0.047281 0.033418 0.043124 0.035327 0.015158 -0.027051 -0.049586 -0.017042 0.014452 0.016894 0.058216 0.060031 0.053409 0.076886 0.059986 0.018200 0.058896 0.083768 0.019847 0.021328 0.055652 0.052292 0.099306 0.107164 0.111471 0.108449 0.060874 0.036247 0.026633 0.005399 -0.007304 0.044253 0.071328 0.039513 0.028641 0.031242 0.020479 0.082209 0.057982 -0.048990 -0.054533 0.028384 0.092662 0.005461 0.032408 0.054814 0.088533 0.023421 0.055392 0.082902 0.034027 0.040965 -0.033342 0.015191 0.111564 0.065684 -0.059097 -0.021729 -0.050649 0.017715 -0.105615 0.033170 -0.111059 -0.030384 0.048509 0.026980 0.026472 -0.043161 -0.061419 -0.084814 -0.079642 -0.063426 -0.126459 -0.096287 -0.038540 0.017656 -0.025784 0.033202 -0.016597 -0.038433 0.052804 -0.108460 -0.093240 -0.097102 -0.003444 -0.049773 -0.040131 0.004814 0.015495 0.009571 0.176883 -0.006733 0.143535 0.011320 0.263533 0.255361 0.325338 0.284745 0.112902 0.214844 0.268018 0.053109 0.252451 0.111718 0.131363 0.236367 0.114092 -0.609707
0.072396 0.072899 0.074406 0.076917 0.080433 0.084951 0.090471 0.096991 0.104509 0.113022 0.122526 0.133018 0.144493 0.156943 0.170360 0.184737 0.200062 0.216321 0.233500 0.251583 0.270547 0.290372 0.311030 0.332493 0.354727 0.377696 0.401357 0.425665 0.450570 0.476014 0.501939 0.528275 0.554951 0.581888 0.609001 0.636197 0.663379 0.690442 0.717273 0.743755 0.769761 0.795160 0.819812 0.843573 0.866291 0.887809 0.907966 0.926594 0.943524 0.958580 0.971587 0.982367 0.990741 0.996533 0.999568 0.999674 0.996686 0.990443 0.980796 0.967604 0.950741 0.930092 0.905561 0.877071 0.844566 0.808012 0.767401 0.722754 0.674119 0.621579 0.565249 0.505280 0.441858 0.375211 0.305604 0.233342 0.158771 0.082279 0.004290 0.074730 0.154278 0.233817 0.312775 0.390554 0.466527 0.540048 0.610456 0.677079 0.739241 0.796272 0.847512 0.892320 0.930086 0.960235 0.982239 0.995628 0.999996 0.995014 0.980436 0.956110 0.921986 0.878123 0.824695 0.761998 0.690453 0.610610 0.523146 0.428867 0.328704 0.223708 0.115039 0.003965 0.108161 0.219905 0.329779 0.436252 0.537776 0.632806 0.719828 0.797382 0.864091 0.918688 0.960044 0.987193 0.999360 0.995985 0.976744 0.941569 0.890663 0.824511 0.743885 0.649848 0.543748 0.427208 0.302105 0.170552 0.034865 0.102472 0.238854 0.371594 0.497984 0.615349 0.721101 0.812810 0.888258 0.945499 0.982921 0.999298 0.993832 0.966199 0.916576 0.845660 0.754678 0.645378 0.520012 0.381303 0.232393 0.076786 0.081729 0.239170 0.391452 0.534498 0.664352 0.777290 0.869937 0.939377 0.983258 0.999880 0.988278 0.948278 0.880537 0.786557 0.668675 0.530025 0.374472 0.206521 0.031195 0.146101 0.319744 0.484069 0.633560 0.763039 0.867854 0.944061 0.988594 0.999398 0.975548 0.917321 0.826235 0.705038 0.557651 0.389070 0.205216 0.012739 0.181208 0.369224 0.543954 0.698371 0.826072 0.921565 0.980520 0.999991 0.978588 0.916588 0.815988 0.680466 0.515298 0.327169 0.123928 0.085713 0.292549 0.487279 0.660932 0.805285 0.913278 0.979380 0.999906 0.973251 0.900033 0.783144 0.627669 0.440720 0.231129 0.009067 0.214435 0.428017 0.620587 0.781890 0.903085 0.977257 0.999846 0.968968 0.885600 0.753610 0.579638 0.372798 0.144249 0.093385 0.326696 0.542235 0.727310 0.870737 0.963562 0.999650 0.976144 0.893731 0.756700 0.572784 0.352780 0.109952 0.140730 0.383498 0.602772 0.784175 0.915509 0.987604 0.995024 0.936519 0.815234 0.638612 0.418002 0.167990 0.094534 0.351474 0.584793 0.777771 0.916246 0.989695 0.992095 0.922482 0.785150 0.589472 0.349342 0.082228 0.192033 0.452704 0.679708 0.855202 0.965021 0.999883 0.956243 0.836725 0.650057 0.410532 0.136976 0.148675 0.423107 0.663526 0.849576 0.965106 0.999643 0.949422 0.817870 0.615487 0.359096 0.070530 0.225182 0.501956 0.734949 0.902842 0.989833 0.987221 0.894356 0.718901 0.476299 0.188517 0.117867 0.414092 0.671886 0.866211 0.977738 0.994860 0.915008 0.745098 0.501065 0.206472 0.109682 0.415762 0.680659 0.876987 0.983961 0.989712 0.892708 0.702137 0.437185 0.125198 0.201035 0.506712 0.758708 0.929219 0.998918 0.959252 0.813622 0.577250 0.275735 0.057627 0.385435 0.670367 0.879465 0.988010 0.982560 0.862761 0.641643 0.344371 0.005488 0.334991 0.636299 0.861793 0.983503 0.985715 0.867148 0.641396 0.335537 0.012972 0.360799 0.664098 0.884049 0.991926 0.972973 0.828588 0.576455 0.248538 0.112801
1.000000 1.000000 1.000000 1.000000 1.000000 1.000000 1.000000 1.000000 1.000000 1.000000 1.000000 1.000000 1.000000 1.000000 1.000000 1.000000 1.000000 1.000000 1.000000 1.000000 1.000000 1.000000 1.000000 1.000000 1.000000 1.000000 1.000000 1.000000 1.000000 1.000000 1.000000 1.000000 1.000000 1.000000 1.000000 1.000000 1.000000 1.000000 1.000000 1.000000 1.000000 1.000000 1.000000 1.000000 1.000000 1.000000 1.000000 1.000000 1.000000 1.000000 1.000000 1.000000 0.933366 0.933366 0.933366 0.924224 0.924224 0.924224 0.924224 0.924224 0.924224 0.924224 0.924224 0.924224 0.924224 0.924224 0.924224 0.924224 0.924224 0.924224 0.924224 0.924224 0.924224 0.924224 0.924224 0.924224 0.924224 0.924224 0.924224 0.924224 0.924224 0.924224 0.924224 0.924224 0.924224 0.924224 0.924224 0.924224 0.924224 0.924224 0.924224 0.924224 0.924224 0.924224 0.924224 0.924224 0.950164 0.951368 0.959215 0.959047 0.958544 0.956443 0.955535 0.954413 0.953963 0.954235 0.954839 0.955669 0.967414 0.968427 0.969958 0.970758 0.971465 0.972120 0.971976 0.972774 0.972028 0.971497 0.970998 0.967058 0.967679 0.968270 0.968446 0.969494 0.969380 0.971622 0.971737 0.971168 0.970340 0.969653 0.968992 0.968603 0.968332 0.968820 0.969085 0.970344 0.973480 0.972900 0.972584 0.972742 0.972846 0.973015 0.973407 0.974170 0.970295 0.968792 0.967139 0.964965 0.969163 0.966310 0.966089 0.967451 0.967833 0.968231 0.967276 0.963341 0.958183 0.957109 0.954659 0.945301 0.944108 0.944831 0.947068 0.947449 0.946065 0.938715 0.939280 0.932358 0.934248 0.937484 0.931594 0.931446 0.932592 0.932040 0.930949 0.930399 0.927502 0.924936 0.923405 0.923246 0.926204 0.926301 0.927479 0.927290 0.921689 0.913829 0.901608 0.899659 0.894926 0.897950 0.886704 0.886565 0.886315 0.881877 0.885238 0.885150 0.886053 0.882899 0.865925 0.848040 0.841378 0.845398 0.850392 0.846097 0.845036 0.838102 0.849279 0.829843 0.842354 0.853248 0.850419 0.850243 0.849657 0.847737 0.842281 0.843158 0.844917 0.846420 0.844943 0.843904 0.843407 0.827279 0.829562 0.765593 0.748564 0.739683 0.745483 0.752097 0.754456 0.753426 0.759203 0.763956 0.752424 0.733993 0.726448 0.719600 0.723759 0.721855 0.723939 0.708547 0.676814 0.672023 0.641674 0.658525 0.670693 0.631338 0.654529 0.665426 0.664437 0.662949 0.656666 0.653755 0.649401 0.652115 0.659288 0.672097 0.689138 0.712161 0.708395 0.698866 0.696519 0.678097 0.672370 0.666294 0.679279 0.659020 0.655464 0.673334 0.673217 0.659048 0.637196 0.626573 0.619453 0.612364 0.621680 0.610182 0.605046 0.593007 0.567188 0.561402 0.595583 0.611645 0.634088 0.604125 0.590457 0.577851 0.556486 0.569547 0.512804 0.512736 0.535313 0.543252 0.521686 0.513873 0.525721 0.531740 0.531367 0.521070 0.508956 0.499271 0.515787 0.551888 0.542127 0.523947 0.525898 0.524420 0.515523 0.425517 0.419232 0.392159 0.357556 0.301154 0.278483 0.271120 0.255784 0.247546 0.212549 0.208626 0.219361 0.225978 0.236907 0.239374 0.221406 0.231250 0.227063 0.213557 0.151283 0.140366 0.132427 0.121890 0.120273 0.099331 0.125066 0.190755 0.192831 0.192831 0.192831 0.192831 0.192831 0.192831 0.201728 0.201728 0.201728 0.201728 0.201728 0.201728 0.201728 0.201728 0.201728 0.210499 0.210499 0.210499 0.210499 0.210499 0.210499 0.210499 0.210499 0.210499 0.210499 0.210499 0.210499 0.210499 0.210499
0.000000 0.000000 0.000000 0.000000 0.000000 0.000000 0.000000 0.000000 0.000000 0.000000 0.000000 0.000000 0.000000 0.000000 0.000000 0.000000 0.000000 0.000000 0.000000 0.000000 0.000000 0.000000 0.000000 0.000000 0.000000 0.000000 0.000000 0.000000 0.000000 0.000000 0.000000 0.000000 0.000000 0.000000 0.000000 0.000000 0.000000 0.000000 0.000000 0.000000 0.000000 0.000000 0.000000 0.000000 0.000000 0.000000 0.000000 0.000000 0.000000 0.000000 0.000000 0.000000 0.180334 0.180334 0.180334 0.199007 0.199007 0.199007 0.199007 0.199007 0.199007 0.199007 0.199007 0.199007 0.199007 0.199007 0.199007 0.199007 0.199007 0.199007 0.199007 0.199007 0.199007 0.199007 0.199007 0.199007 0.199007 0.199007 0.199007 0.199007 0.199007 0.199007 0.199007 0.199007 0.199007 0.199007 0.199007 0.199007 0.199007 0.199007 0.199007 0.199007 0.199007 0.199007 0.199007 0.199007 0.225018 0.225018 0.225018 0.225018 0.225018 0.225018 0.225018 0.225018 0.225018 0.225018 0.225018 0.225018 0.225018 0.225018 0.225018 0.225018 0.225018 0.225018 0.225018 0.225018 0.225018 0.225018 0.225018 0.225018 0.225018 0.225018 0.225018 0.225018 0.225018 0.244339 0.244339 0.244339 0.244339 0.244339 0.244339 0.244339 0.244339 0.244339 0.244339 0.244339 0.244339 0.244339 0.244339 0.244339 0.244339 0.244339 0.244339 0.244339 0.244339 0.244339 0.244339 0.244339 0.251976 0.251976 0.251976 0.251976 0.251976 0.251976 0.251976 0.251976 0.251976 0.251976 0.251976 0.251976 0.251976 0.251976 0.251976 0.251976 0.251976 0.251976 0.251976 0.251976 0.264906 0.264906 0.264906 0.264906 0.264906 0.264906 0.264906 0.264906 0.264906 0.264906 0.264906 0.264906 0.264906 0.264906 0.264906 0.264906 0.264906 0.264906 0.264906 0.264906 0.264906 0.264906 0.264906 0.264906 0.264906 0.264906 0.264906 0.264906 0.264906 0.264906 0.264906 0.264906 0.264906 0.264906 0.264906 0.264906 0.264906 0.264906 0.264906 0.264906 0.264906 0.264906 0.264906 0.264906 0.264906 0.264906 0.264906 0.264906 0.264906 0.264906 0.264906 0.264906 0.264906 0.264906 0.264906 0.264906 0.264906 0.264906 0.264906 0.264906 0.264906 0.264906 0.256074 0.256074 0.256074 0.256074 0.256074 0.256074 0.256074 0.256074 0.256074 0.256074 0.256074 0.256074 0.256074 0.256074 0.269680 0.269680 0.269680 0.269680 0.269680 0.269680 0.269680 0.269680 0.269680 0.269680 0.269680 0.269680 0.264906 0.264906 0.264906 0.264906 0.264906 0.264906 0.264906 0.264906 0.264906 0.264906 0.264906 0.264906 0.269680 0.269680 0.269680 0.269680 0.269680 0.269680 0.269680 0.269680 0.269680 0.269680 0.269680 0.264906 0.264906 0.264906 0.264906 0.264906 0.264906 0.264906 0.264906 0.264906 0.264906 0.264906 0.256074 0.256074 0.256074 0.256074 0.256074 0.256074 0.256074 0.256074 0.256074 0.256074 0.256074 0.264906 0.264906 0.264906 0.264906 0.264906 0.264906 0.264906 0.264906 0.264906 0.264906 0.260378 0.260378 0.260378 0.260378 0.260378 0.260378 0.260378 0.260378 0.260378 0.260378 0.256074 0.256074 0.256074 0.256074 0.256074 0.256074 0.256074 0.256074 0.256074 0.256074 0.260378 0.260378 0.260378 0.260378 0.260378 0.260378 0.260378 0.260378 0.260378 0.256074 0.256074 0.256074 0.256074 0.256074 0.256074 0.256074 0.256074 0.256074 0.251976 0.251976 0.251976 0.251976 0.251976 0.251976 0.251976 0.251976 0.251976 0.251976 0.251976 0.251976 0.251976 0.251976
