# Output from CTFFind version 4.1.9, run on 2019-11-02 17:48:09
# Input file: stack1_bm3d_averaged_1_1.0_0_2000_half.mrc ; Number of micrographs: 1
# Pixel size: 3.000 Angstroms ; acceleration voltage: 300.0 keV ; spherical aberration: 0.00 mm ; amplitude contrast: 0.07
# Box size: 512 pixels ; min. res.: 30.0 Angstroms ; max. res.: 5.0 Angstroms ; min. def.: 5000.0 um; max. def. 50000.0 um; num. frames averaged: 1
# 6 lines per micrograph: #1 - spatial frequency (1/Angstroms); #2 - 1D rotational average of spectrum (assuming no astigmatism); #3 - 1D rotational average of spectrum; #4 - CTF fit; #5 - cross-correlation between spectrum and CTF fit; #6 - 2sigma of expected cross correlation of noise
0.000000 0.000651 0.001302 0.001953 0.002604 0.003255 0.003906 0.004557 0.005208 0.005859 0.006510 0.007161 0.007812 0.008464 0.009115 0.009766 0.010417 0.011068 0.011719 0.012370 0.013021 0.013672 0.014323 0.014974 0.015625 0.016276 0.016927 0.017578 0.018229 0.018880 0.019531 0.020182 0.020833 0.021484 0.022135 0.022786 0.023438 0.024089 0.024740 0.025391 0.026042 0.026693 0.027344 0.027995 0.028646 0.029297 0.029948 0.030599 0.031250 0.031901 0.032552 0.033203 0.033854 0.034505 0.035156 0.035807 0.036458 0.037109 0.037760 0.038411 0.039062 0.039714 0.040365 0.041016 0.041667 0.042318 0.042969 0.043620 0.044271 0.044922 0.045573 0.046224 0.046875 0.047526 0.048177 0.048828 0.049479 0.050130 0.050781 0.051432 0.052083 0.052734 0.053385 0.054036 0.054688 0.055339 0.055990 0.056641 0.057292 0.057943 0.058594 0.059245 0.059896 0.060547 0.061198 0.061849 0.062500 0.063151 0.063802 0.064453 0.065104 0.065755 0.066406 0.067057 0.067708 0.068359 0.069010 0.069661 0.070312 0.070964 0.071615 0.072266 0.072917 0.073568 0.074219 0.074870 0.075521 0.076172 0.076823 0.077474 0.078125 0.078776 0.079427 0.080078 0.080729 0.081380 0.082031 0.082682 0.083333 0.083984 0.084635 0.085286 0.085938 0.086589 0.087240 0.087891 0.088542 0.089193 0.089844 0.090495 0.091146 0.091797 0.092448 0.093099 0.093750 0.094401 0.095052 0.095703 0.096354 0.097005 0.097656 0.098307 0.098958 0.099609 0.100260 0.100911 0.101562 0.102214 0.102865 0.103516 0.104167 0.104818 0.105469 0.106120 0.106771 0.107422 0.108073 0.108724 0.109375 0.110026 0.110677 0.111328 0.111979 0.112630 0.113281 0.113932 0.114583 0.115234 0.115885 0.116536 0.117188 0.117839 0.118490 0.119141 0.119792 0.120443 0.121094 0.121745 0.122396 0.123047 0.123698 0.124349 0.125000 0.125651 0.126302 0.126953 0.127604 0.128255 0.128906 0.129557 0.130208 0.130859 0.131510 0.132161 0.132812 0.133464 0.134115 0.134766 0.135417 0.136068 0.136719 0.137370 0.138021 0.138672 0.139323 0.139974 0.140625 0.141276 0.141927 0.142578 0.143229 0.143880 0.144531 0.145182 0.145833 0.146484 0.147135 0.147786 0.148438 0.149089 0.149740 0.150391 0.151042 0.151693 0.152344 0.152995 0.153646 0.154297 0.154948 0.155599 0.156250 0.156901 0.157552 0.158203 0.158854 0.159505 0.160156 0.160807 0.161458 0.162109 0.162760 0.163411 0.164062 0.164714 0.165365 0.166016 0.166667 0.167318 0.167969 0.168620 0.169271 0.169922 0.170573 0.171224 0.171875 0.172526 0.173177 0.173828 0.174479 0.175130 0.175781 0.176432 0.177083 0.177734 0.178385 0.179036 0.179688 0.180339 0.180990 0.181641 0.182292 0.182943 0.183594 0.184245 0.184896 0.185547 0.186198 0.186849 0.187500 0.188151 0.188802 0.189453 0.190104 0.190755 0.191406 0.192057 0.192708 0.193359 0.194010 0.194661 0.195312 0.195964 0.196615 0.197266 0.197917 0.198568 0.199219 0.199870 0.200521 0.201172 0.201823 0.202474 0.203125 0.203776 0.204427 0.205078 0.205729 0.206380 0.207031 0.207682 0.208333 0.208984 0.209635 0.210286 0.210938 0.211589 0.212240 0.212891 0.213542 0.214193 0.214844 0.215495 0.216146 0.216797 0.217448 0.218099 0.218750 0.219401 0.220052 0.220703 0.221354 0.222005 0.222656 0.223307 0.223958 0.224609 0.225260 0.225911 0.226562 0.227214 0.227865 0.228516 0.229167 0.229818 0.230469 0.231120 0.231771 0.232422 0.233073 0.233724 0.234375 0.235026 0.235677
       0.33286        0.33286        0.33286        0.33286        0.33286        0.33286        0.33286        0.33286        0.33286        0.33286        0.33286        0.33286        0.33286        0.33286        0.33286        0.33286        0.33286        0.33286        0.33286        0.33286        0.33286        0.33286        0.33286        0.33286        0.33286        0.33286        0.33286        0.33286        0.33286        0.33286        0.33286        0.33286        0.33286        0.33286        0.33286        0.33286        0.33286        0.33286        0.33286        0.33286        0.33286        0.33286        0.33286        0.33286        0.33286        0.33286        0.33286        0.33286        0.33286        0.33286        0.33286        0.50196        0.71793        0.42740        0.19075       -0.08103       -0.26386       -0.07027       -0.13257       -0.05526       -0.00156       -0.14768       -0.09395       -0.04850       -0.00072       -0.15166       -0.22055       -0.34561       -0.46408       -0.56201       -0.52112       -0.45041       -0.37333       -0.54982       -0.44960       -0.62212       -0.50386       -0.47552       -0.39207       -0.38271       -0.33962       -0.24958       -0.16232       -0.13696        0.03196       -0.01261        0.11749        0.16998        0.30450        0.40938        0.46399        0.49510        0.53999        0.54998        0.69385        0.64526        0.67771        0.59073        0.55677        0.65463        0.52687        0.42912        0.38573        0.32018        0.22688        0.26424        0.25102        0.10575        0.08557        0.00098       -0.00686        0.03263       -0.00474        0.07380        0.09347        0.22992        0.28121        0.30358        0.38293        0.56073        0.53845        0.57786        0.67035        0.69800        0.62998        0.63355        0.63308        0.55095        0.57440        0.39316        0.34578        0.26657        0.18649        0.07179        0.14561        0.11879        0.09160        0.10884        0.21023        0.20999        0.31586        0.35742        0.41251        0.49166        0.58141        0.54419        0.55579        0.60850        0.54141        0.46328        0.47842        0.32302        0.25167        0.25564        0.24348        0.14286        0.14425        0.15257        0.22186        0.25066        0.32916        0.36431        0.39202        0.46730        0.44740        0.47654        0.45204        0.46880        0.44376        0.40584        0.37990        0.35607        0.31103        0.28492        0.20403        0.20068        0.22362        0.26964        0.26569        0.34899        0.37558        0.35676        0.41177        0.45882        0.44914        0.42545        0.43696        0.36399        0.33584        0.28328        0.26432        0.28691        0.26789        0.29448        0.30117        0.34810        0.33773        0.40023        0.40079        0.42558        0.41150        0.43216        0.40550        0.36540        0.28218        0.29190        0.30639        0.27637        0.25887        0.33294        0.37154        0.34061        0.35492        0.35978        0.35278        0.40655        0.39931        0.35794        0.34070        0.31077        0.31123        0.31569        0.31309        0.30064        0.28816        0.33674        0.35721        0.37501        0.33307        0.32940        0.33484        0.34448        0.30690        0.28237        0.30691        0.31774        0.33383        0.32181        0.33429        0.35565        0.33200        0.31567        0.33046        0.30323        0.26254        0.24855        0.26408        0.30539        0.32352        0.35176        0.30110        0.31460        0.33650        0.29323        0.31799        0.29157        0.28068        0.29199        0.29916        0.30967        0.34329        0.32177        0.32562        0.33071        0.31453        0.33281        0.31921        0.32184        0.31221        0.28048        0.29371        0.31224        0.29041        0.32730        0.33529        0.33506        0.31686        0.34051        0.31797        0.27555        0.25236        0.27215        0.33006        0.35936        0.34868        0.31765        0.29552        0.29831        0.31471        0.24737        0.29502        0.30153        0.32320        0.29448        0.31395        0.28290        0.33440        0.34395        0.34348        0.32932        0.29805        0.31091        0.39314        0.32983        0.31285        0.30538        0.29676        0.28628        0.29575        0.27113        0.31120        0.23684        0.27704        0.29775        0.31514        0.29427        0.27916        0.29751        0.23901        0.23069        0.26445        0.31239        0.30663        0.28994        0.28593        0.33267        0.25435        0.21521        0.30977        0.26554        0.25711        0.27882        0.39094        0.28899        0.28507        0.25220        0.25066        0.26187        0.23361        0.23218        0.16709        0.24472        0.23077        0.25212        0.31809        0.28081        0.34517        0.28415        0.26392        0.24555        0.21993        0.23679        0.28671        0.22254        0.13013        0.15349        0.23707        0.23579        0.33678        0.31346        0.04165       -0.42204       -0.90551
2.693125 2.664705 2.636436 2.608320 2.580357 2.552546 2.524887 2.497380 2.470027 2.442825 2.415776 2.388879 2.362135 2.335543 2.309104 2.282816 2.256682 2.230700 2.204870 2.179192 2.153667 2.128295 2.103074 2.078007 2.053091 2.028328 2.003718 1.979260 1.954954 1.930801 1.906800 1.882951 1.859255 1.835711 1.812320 1.789081 1.765994 1.743060 1.720279 1.697649 1.675173 1.652848 1.630676 1.608656 1.586789 1.565074 1.543512 1.522102 1.500844 1.479739 1.458786 1.528343 1.828776 1.513661 1.196697 0.941191 0.543209 0.911379 0.636315 0.873121 0.928572 0.591744 0.708563 0.785341 0.824264 0.629995 0.539564 0.349605 0.103362 0.078453 0.041518 0.079789 0.301002 -0.033934 0.081731 -0.133899 -0.012201 -0.018076 0.080523 0.067347 0.102482 0.178669 0.283209 0.252423 0.483648 0.398195 0.547476 0.530035 0.770609 0.788039 0.880672 0.920953 0.938803 0.946467 1.108261 0.947856 1.141988 0.949609 0.851925 1.018423 0.847488 0.761455 0.621112 0.596086 0.455028 0.419288 0.510481 0.265105 0.202947 0.161973 0.012650 0.203979 -0.004580 0.122660 0.175575 0.256574 0.331803 0.349377 0.428339 0.539044 0.668201 0.539646 0.748203 0.850335 0.639506 0.696791 0.666852 0.591002 0.540720 0.458587 0.299553 0.215390 0.121222 -0.041275 -0.017464 0.058952 -0.095213 -0.056761 0.051556 0.054881 0.111854 0.218868 0.239537 0.308389 0.430195 0.444180 0.447103 0.478134 0.453292 0.333167 0.331686 0.240268 0.055717 0.062207 0.015393 -0.039987 -0.099220 -0.095085 -0.012318 -0.044618 0.075392 0.121896 0.121798 0.264153 0.228551 0.247009 0.288990 0.248719 0.239991 0.217034 0.166487 0.116151 0.106389 0.025273 0.008278 -0.114745 -0.047426 0.006378 -0.000717 0.024270 0.098400 0.083323 0.137105 0.191668 0.260654 0.181517 0.181737 0.104604 0.132462 0.028121 -0.034327 0.021026 -0.023978 0.007469 -0.007944 0.036863 0.081279 0.049395 0.161686 0.086524 0.169608 0.063926 0.147771 0.096262 -0.008774 -0.061970 -0.015148 -0.035591 -0.064210 -0.066779 0.061068 0.058377 -0.007900 0.052092 0.058259 0.072627 0.141264 0.063845 0.060700 0.053812 -0.023971 0.024851 -0.003547 0.009968 0.002175 -0.003466 0.041780 0.055882 0.068371 0.027932 0.043565 0.021111 0.054667 -0.009107 -0.020027 0.021667 0.012230 0.054692 0.040071 0.044258 0.050761 0.050864 0.019465 0.035392 -0.001682 -0.051060 -0.036627 -0.028968 0.024670 0.038914 0.100531 -0.006296 0.057761 0.058869 -0.009750 0.067236 0.016992 0.007502 0.038030 0.055991 0.039363 0.092171 0.049739 0.067839 0.080894 0.068178 0.063529 0.072102 0.088471 0.036702 -0.009781 0.053716 0.042806 0.043198 0.074807 0.092137 0.002529 0.060299 0.080207 0.008485 0.004321 -0.061355 -0.019869 0.111689 0.082855 0.056489 0.044586 -0.018135 0.055894 0.028674 -0.065677 0.054353 0.031545 0.061531 0.036189 0.009011 0.004836 0.051335 0.050157 0.016863 0.049743 -0.035327 0.062785 0.113235 0.004010 -0.005764 -0.008612 0.003019 -0.030575 -0.030900 -0.044247 -0.013509 -0.094496 -0.021738 -0.033213 0.023967 -0.031922 -0.064833 0.026679 -0.073997 -0.047242 -0.081976 0.058724 0.012721 0.010239 -0.008283 0.079132 -0.053155 -0.063027 0.042528 -0.021032 0.003771 -0.004037 0.191930 -0.042207 0.018468 0.006472 -0.028676 -0.009422 -0.050558 -0.023915 -0.172943 0.005366 -0.046015 0.000204 0.012605 0.005469 0.121138 -0.008523 0.004406 -0.029039 -0.025123 -0.065249 0.024922 0.267419 0.161161 0.196397 0.244363 0.321355 0.361527 0.373245 0.051254 -1.061029
0.072396 0.072910 0.074452 0.077020 0.080616 0.085237 0.090882 0.097551 0.105239 0.113945 0.123665 0.134395 0.146128 0.158858 0.172577 0.187275 0.202940 0.219558 0.237115 0.255591 0.274964 0.295212 0.316305 0.338213 0.360901 0.384328 0.408451 0.433222 0.458585 0.484481 0.510846 0.537608 0.564690 0.592008 0.619471 0.646982 0.674436 0.701723 0.728723 0.755311 0.781353 0.806711 0.831237 0.854779 0.877176 0.898265 0.917875 0.935831 0.951954 0.966064 0.977978 0.987510 0.994477 0.998697 0.999992 0.998186 0.993113 0.984613 0.972536 0.956748 0.937124 0.913560 0.885969 0.854286 0.818469 0.778502 0.734399 0.686202 0.633987 0.577866 0.517985 0.454531 0.387730 0.317848 0.245194 0.170119 0.093015 0.014319 0.065495 0.145910 0.226376 0.306304 0.385076 0.462049 0.536554 0.607907 0.675415 0.738378 0.796103 0.847906 0.893127 0.931133 0.961331 0.983178 0.996189 0.999950 0.994125 0.978468 0.952831 0.917175 0.871572 0.816220 0.751443 0.677695 0.595567 0.505781 0.409196 0.306799 0.199702 0.089130 0.023586 0.137022 0.249682 0.360010 0.466417 0.567301 0.661070 0.746171 0.821121 0.884529 0.935129 0.971811 0.993645 0.999910 0.990119 0.964041 0.921718 0.863482 0.789963 0.702094 0.601110 0.488538 0.366186 0.236119 0.100633 0.037786 0.176493 0.312744 0.443742 0.566695 0.678883 0.777713 0.860796 0.925999 0.971515 0.995921 0.998226 0.977917 0.934999 0.870015 0.784059 0.678776 0.556343 0.419444 0.271216 0.115193 0.044773 0.204601 0.360081 0.506984 0.641186 0.758776 0.856191 0.930327 0.978649 0.999297 0.991163 0.953963 0.888277 0.795569 0.678180 0.539286 0.382836 0.213454 0.036315 0.143001 0.318683 0.484872 0.635861 0.766300 0.871391 0.947085 0.990253 0.998833 0.971950 0.909991 0.814642 0.688870 0.536865 0.363921 0.176276 0.019101 0.214751 0.403008 0.576301 0.727466 0.850048 0.938605 0.988962 0.998442 0.966027 0.892465 0.780297 0.633811 0.458913 0.262914 0.054255 0.157847 0.363788 0.554019 0.719489 0.852097 0.945107 0.993520 0.994376 0.946966 0.852940 0.716308 0.543307 0.342159 0.122717 0.104003 0.326349 0.532640 0.711779 0.853865 0.950778 0.996668 0.988353 0.925580 0.811125 0.650734 0.452884 0.228382 0.010198 0.249189 0.474606 0.672974 0.832141 0.942061 0.995465 0.988387 0.920512 0.795299 0.619874 0.404685 0.162925 0.090231 0.338569 0.565851 0.756907 0.898656 0.981060 0.997872 0.947177 0.831646 0.658468 0.438982 0.187997 0.077177 0.337877 0.575403 0.772370 0.914010 0.989330 0.992028 0.921086 0.780984 0.581515 0.337171 0.066152 0.210943 0.472666 0.698367 0.869874 0.972980 0.998705 0.944138 0.812840 0.614718 0.365355 0.084865 0.203671 0.476099 0.709191 0.882672 0.981032 0.994989 0.922454 0.768887 0.547005 0.275809 0.020948 0.316806 0.584935 0.800587 0.943413 0.999472 0.962675 0.835545 0.629182 0.362404 0.060125 0.248908 0.534825 0.769513 0.929437 0.998074 0.967716 0.840446 0.628151 0.351542 0.038216 0.279998 0.570277 0.802172 0.950871 0.999935 0.943235 0.785831 0.543670 0.242109 0.086648 0.406922 0.683419 0.885152 0.988985 0.982401 0.865140 0.649498 0.359177 0.026814 0.309612 0.611072 0.842050 0.974787 0.992726 0.892725 0.685708 0.395639 0.056887 0.289739 0.601883 0.840818 0.976324 0.990636 0.880925 0.659954 0.354774 0.003556 0.349084 0.657708 0.881947 0.991873 0.972119 0.824211 0.566683 0.232951 0.132880 0.481791 0.766356 0.947279 0.998926
1.000000 1.000000 1.000000 1.000000 1.000000 1.000000 1.000000 1.000000 1.000000 1.000000 1.000000 1.000000 1.000000 1.000000 1.000000 1.000000 1.000000 1.000000 1.000000 1.000000 1.000000 1.000000 1.000000 1.000000 1.000000 1.000000 1.000000 1.000000 1.000000 1.000000 1.000000 1.000000 1.000000 1.000000 1.000000 1.000000 1.000000 1.000000 1.000000 1.000000 1.000000 1.000000 1.000000 1.000000 1.000000 1.000000 1.000000 1.000000 1.000000 1.000000 1.000000 1.000000 0.918800 0.918800 0.905040 0.905040 0.905040 0.905040 0.905040 0.905040 0.905040 0.905040 0.905040 0.905040 0.905040 0.905040 0.905040 0.905040 0.905040 0.905040 0.905040 0.905040 0.905040 0.905040 0.905040 0.905040 0.905040 0.905040 0.905040 0.905040 0.905040 0.905040 0.905040 0.905040 0.905040 0.905040 0.905040 0.905040 0.905040 0.905040 0.905040 0.905040 0.905040 0.905040 0.905040 0.901829 0.906611 0.908486 0.906867 0.910440 0.910520 0.909880 0.910209 0.909852 0.910162 0.911543 0.922068 0.933118 0.944192 0.944731 0.949860 0.954244 0.956607 0.957548 0.959078 0.968922 0.966456 0.966016 0.966718 0.968236 0.970416 0.969073 0.968748 0.971881 0.972573 0.970900 0.968746 0.968130 0.967517 0.967607 0.967219 0.967109 0.966993 0.967498 0.967709 0.967892 0.968035 0.968079 0.969100 0.970257 0.972582 0.973565 0.973388 0.972254 0.966806 0.970638 0.971357 0.970982 0.970922 0.970468 0.970778 0.958366 0.953813 0.953750 0.950787 0.949580 0.945951 0.944738 0.943504 0.943726 0.942473 0.942695 0.940059 0.926758 0.913715 0.902748 0.922382 0.907930 0.896655 0.871093 0.872044 0.864111 0.864716 0.855884 0.850340 0.845731 0.842385 0.843636 0.842458 0.846986 0.844840 0.830546 0.833932 0.830025 0.799640 0.784103 0.767500 0.769214 0.766609 0.767765 0.767475 0.761547 0.769992 0.761532 0.760034 0.751401 0.731917 0.700816 0.688229 0.698391 0.708368 0.707236 0.703742 0.688694 0.658561 0.669920 0.698630 0.690552 0.692835 0.686187 0.681327 0.684212 0.683573 0.681635 0.674876 0.674304 0.673835 0.681215 0.686584 0.681386 0.671612 0.656925 0.643928 0.630573 0.644933 0.653584 0.621998 0.616055 0.610840 0.604372 0.591124 0.552169 0.549740 0.526361 0.514312 0.513548 0.513894 0.511781 0.521025 0.521891 0.501599 0.525312 0.532009 0.559740 0.530746 0.528135 0.529038 0.538783 0.522556 0.494808 0.485228 0.486287 0.498846 0.533995 0.574591 0.563744 0.553048 0.541259 0.558242 0.532324 0.542414 0.559175 0.536559 0.461716 0.417998 0.414391 0.376657 0.371514 0.366353 0.357694 0.357998 0.352153 0.340323 0.327035 0.313279 0.259262 0.224110 0.206442 0.180027 0.187797 0.202453 0.186353 0.180113 0.217852 0.263927 0.264499 0.256117 0.230244 0.229464 0.202857 0.218568 0.246793 0.204037 0.200085 0.194047 0.168786 0.159755 0.115813 0.149770 0.059517 0.046863 0.048167 0.067518 0.080176 0.080901 0.089272 0.059488 0.078411 0.072775 0.049885 0.036405 0.054062 0.046146 0.012949 0.019454 0.029204 0.012417 0.000157 0.021194 0.016700 0.025437 0.017937 0.020171 0.067649 0.097893 0.086307 0.087130 0.078315 0.078491 0.058108 0.046542 0.038631 0.030965 -0.014241 -0.043988 -0.043988 -0.040317 -0.040317 -0.040317 -0.040317 -0.040317 -0.040317 -0.040317 -0.040317 -0.040317 -0.043611 -0.043611 -0.043611 -0.043611 -0.043611 -0.043611 -0.043611 -0.043611 -0.043611 -0.016563 -0.016563 -0.016563 -0.016563 -0.016563 -0.016563 -0.016563 -0.016563 -0.016563
0.000000 0.000000 0.000000 0.000000 0.000000 0.000000 0.000000 0.000000 0.000000 0.000000 0.000000 0.000000 0.000000 0.000000 0.000000 0.000000 0.000000 0.000000 0.000000 0.000000 0.000000 0.000000 0.000000 0.000000 0.000000 0.000000 0.000000 0.000000 0.000000 0.000000 0.000000 0.000000 0.000000 0.000000 0.000000 0.000000 0.000000 0.000000 0.000000 0.000000 0.000000 0.000000 0.000000 0.000000 0.000000 0.000000 0.000000 0.000000 0.000000 0.000000 0.000000 0.000000 0.181818 0.181818 0.199007 0.199007 0.199007 0.199007 0.199007 0.199007 0.199007 0.199007 0.199007 0.199007 0.199007 0.199007 0.199007 0.199007 0.199007 0.199007 0.199007 0.199007 0.199007 0.199007 0.199007 0.199007 0.199007 0.199007 0.199007 0.199007 0.199007 0.199007 0.199007 0.199007 0.199007 0.199007 0.199007 0.199007 0.199007 0.199007 0.199007 0.199007 0.199007 0.199007 0.199007 0.230940 0.230940 0.230940 0.230940 0.230940 0.230940 0.230940 0.230940 0.230940 0.230940 0.230940 0.230940 0.230940 0.230940 0.230940 0.230940 0.230940 0.230940 0.230940 0.230940 0.230940 0.230940 0.230940 0.230940 0.230940 0.230940 0.230940 0.230940 0.244339 0.244339 0.244339 0.244339 0.244339 0.244339 0.244339 0.244339 0.244339 0.244339 0.244339 0.244339 0.244339 0.244339 0.244339 0.244339 0.244339 0.244339 0.244339 0.244339 0.244339 0.244339 0.244339 0.251976 0.251976 0.251976 0.251976 0.251976 0.251976 0.251976 0.251976 0.251976 0.251976 0.251976 0.251976 0.251976 0.251976 0.251976 0.251976 0.251976 0.251976 0.251976 0.251976 0.264906 0.264906 0.264906 0.264906 0.264906 0.264906 0.264906 0.264906 0.264906 0.264906 0.264906 0.264906 0.264906 0.264906 0.264906 0.264906 0.264906 0.264906 0.264906 0.264906 0.264906 0.264906 0.264906 0.264906 0.264906 0.264906 0.264906 0.264906 0.264906 0.264906 0.264906 0.264906 0.264906 0.264906 0.264906 0.264906 0.264906 0.264906 0.264906 0.264906 0.264906 0.264906 0.264906 0.264906 0.264906 0.264906 0.264906 0.264906 0.264906 0.264906 0.264906 0.264906 0.264906 0.264906 0.264906 0.264906 0.264906 0.264906 0.264906 0.264906 0.264906 0.264906 0.264906 0.264906 0.264906 0.264906 0.264906 0.264906 0.264906 0.264906 0.264906 0.264906 0.264906 0.264906 0.264906 0.269680 0.269680 0.269680 0.269680 0.269680 0.269680 0.269680 0.269680 0.269680 0.269680 0.269680 0.269680 0.264906 0.264906 0.264906 0.264906 0.264906 0.264906 0.264906 0.264906 0.264906 0.264906 0.264906 0.264906 0.269680 0.269680 0.269680 0.269680 0.269680 0.269680 0.269680 0.269680 0.269680 0.269680 0.269680 0.264906 0.264906 0.264906 0.264906 0.264906 0.264906 0.264906 0.264906 0.264906 0.264906 0.264906 0.256074 0.256074 0.256074 0.256074 0.256074 0.256074 0.256074 0.256074 0.256074 0.256074 0.256074 0.264906 0.264906 0.264906 0.264906 0.264906 0.264906 0.264906 0.264906 0.264906 0.264906 0.269680 0.269680 0.269680 0.269680 0.269680 0.269680 0.269680 0.269680 0.269680 0.256074 0.256074 0.256074 0.256074 0.256074 0.256074 0.256074 0.256074 0.256074 0.256074 0.260378 0.260378 0.260378 0.260378 0.260378 0.260378 0.260378 0.260378 0.260378 0.256074 0.256074 0.256074 0.256074 0.256074 0.256074 0.256074 0.256074 0.256074 0.251976 0.251976 0.251976 0.251976 0.251976 0.251976 0.251976 0.251976 0.251976 0.264906 0.264906 0.264906 0.264906 0.264906 0.264906 0.264906 0.264906 0.264906
