# Output from CTFFind version 4.1.9, run on 2019-11-02 17:58:27
# Input file: stack1_bm3d_averaged_1_1.75_0_1250_half.mrc ; Number of micrographs: 1
# Pixel size: 3.000 Angstroms ; acceleration voltage: 300.0 keV ; spherical aberration: 0.00 mm ; amplitude contrast: 0.07
# Box size: 512 pixels ; min. res.: 30.0 Angstroms ; max. res.: 5.0 Angstroms ; min. def.: 5000.0 um; max. def. 50000.0 um; num. frames averaged: 1
# 6 lines per micrograph: #1 - spatial frequency (1/Angstroms); #2 - 1D rotational average of spectrum (assuming no astigmatism); #3 - 1D rotational average of spectrum; #4 - CTF fit; #5 - cross-correlation between spectrum and CTF fit; #6 - 2sigma of expected cross correlation of noise
0.000000 0.000651 0.001302 0.001953 0.002604 0.003255 0.003906 0.004557 0.005208 0.005859 0.006510 0.007161 0.007812 0.008464 0.009115 0.009766 0.010417 0.011068 0.011719 0.012370 0.013021 0.013672 0.014323 0.014974 0.015625 0.016276 0.016927 0.017578 0.018229 0.018880 0.019531 0.020182 0.020833 0.021484 0.022135 0.022786 0.023438 0.024089 0.024740 0.025391 0.026042 0.026693 0.027344 0.027995 0.028646 0.029297 0.029948 0.030599 0.031250 0.031901 0.032552 0.033203 0.033854 0.034505 0.035156 0.035807 0.036458 0.037109 0.037760 0.038411 0.039062 0.039714 0.040365 0.041016 0.041667 0.042318 0.042969 0.043620 0.044271 0.044922 0.045573 0.046224 0.046875 0.047526 0.048177 0.048828 0.049479 0.050130 0.050781 0.051432 0.052083 0.052734 0.053385 0.054036 0.054688 0.055339 0.055990 0.056641 0.057292 0.057943 0.058594 0.059245 0.059896 0.060547 0.061198 0.061849 0.062500 0.063151 0.063802 0.064453 0.065104 0.065755 0.066406 0.067057 0.067708 0.068359 0.069010 0.069661 0.070312 0.070964 0.071615 0.072266 0.072917 0.073568 0.074219 0.074870 0.075521 0.076172 0.076823 0.077474 0.078125 0.078776 0.079427 0.080078 0.080729 0.081380 0.082031 0.082682 0.083333 0.083984 0.084635 0.085286 0.085938 0.086589 0.087240 0.087891 0.088542 0.089193 0.089844 0.090495 0.091146 0.091797 0.092448 0.093099 0.093750 0.094401 0.095052 0.095703 0.096354 0.097005 0.097656 0.098307 0.098958 0.099609 0.100260 0.100911 0.101562 0.102214 0.102865 0.103516 0.104167 0.104818 0.105469 0.106120 0.106771 0.107422 0.108073 0.108724 0.109375 0.110026 0.110677 0.111328 0.111979 0.112630 0.113281 0.113932 0.114583 0.115234 0.115885 0.116536 0.117188 0.117839 0.118490 0.119141 0.119792 0.120443 0.121094 0.121745 0.122396 0.123047 0.123698 0.124349 0.125000 0.125651 0.126302 0.126953 0.127604 0.128255 0.128906 0.129557 0.130208 0.130859 0.131510 0.132161 0.132812 0.133464 0.134115 0.134766 0.135417 0.136068 0.136719 0.137370 0.138021 0.138672 0.139323 0.139974 0.140625 0.141276 0.141927 0.142578 0.143229 0.143880 0.144531 0.145182 0.145833 0.146484 0.147135 0.147786 0.148438 0.149089 0.149740 0.150391 0.151042 0.151693 0.152344 0.152995 0.153646 0.154297 0.154948 0.155599 0.156250 0.156901 0.157552 0.158203 0.158854 0.159505 0.160156 0.160807 0.161458 0.162109 0.162760 0.163411 0.164062 0.164714 0.165365 0.166016 0.166667 0.167318 0.167969 0.168620 0.169271 0.169922 0.170573 0.171224 0.171875 0.172526 0.173177 0.173828 0.174479 0.175130 0.175781 0.176432 0.177083 0.177734 0.178385 0.179036 0.179688 0.180339 0.180990 0.181641 0.182292 0.182943 0.183594 0.184245 0.184896 0.185547 0.186198 0.186849 0.187500 0.188151 0.188802 0.189453 0.190104 0.190755 0.191406 0.192057 0.192708 0.193359 0.194010 0.194661 0.195312 0.195964 0.196615 0.197266 0.197917 0.198568 0.199219 0.199870 0.200521 0.201172 0.201823 0.202474 0.203125 0.203776 0.204427 0.205078 0.205729 0.206380 0.207031 0.207682 0.208333 0.208984 0.209635 0.210286 0.210938 0.211589 0.212240 0.212891 0.213542 0.214193 0.214844 0.215495 0.216146 0.216797 0.217448 0.218099 0.218750 0.219401 0.220052 0.220703 0.221354 0.222005 0.222656 0.223307 0.223958 0.224609 0.225260 0.225911 0.226562 0.227214 0.227865 0.228516 0.229167 0.229818 0.230469 0.231120 0.231771 0.232422 0.233073 0.233724 0.234375 0.235026 0.235677
       0.32981        0.32981        0.32981        0.32981        0.32981        0.32981        0.32981        0.32981        0.32981        0.32981        0.32981        0.32981        0.32981        0.32981        0.32981        0.32981        0.32981        0.32981        0.32981        0.32981        0.32981        0.32981        0.32981        0.32981        0.32981        0.32981        0.32981        0.32981        0.32981        0.32981        0.32981        0.32981        0.32981        0.32981        0.32981        0.32981        0.32981        0.32981        0.32981        0.32981        0.32981        0.32981        0.32981        0.32981        0.32981        0.32981        0.32981        0.32981        0.32981        0.32981        0.32981        0.49819        0.71545        0.42171        0.19051       -0.07831       -0.26055       -0.06988       -0.13068       -0.06296       -0.00356       -0.15212       -0.10436       -0.04923       -0.00337       -0.15548       -0.22633       -0.34317       -0.46845       -0.57268       -0.52665       -0.45812       -0.37609       -0.56000       -0.45623       -0.62462       -0.51020       -0.47720       -0.39778       -0.38233       -0.33760       -0.24823       -0.16958       -0.14336        0.02667       -0.01854        0.11332        0.16753        0.30638        0.41431        0.46433        0.49777        0.54120        0.54948        0.69006        0.64240        0.67639        0.58684        0.55595        0.64872        0.52283        0.43056        0.39104        0.31044        0.23001        0.25908        0.24891        0.09686        0.07943       -0.00154       -0.01111        0.02782       -0.01509        0.06521        0.08672        0.22490        0.28130        0.29385        0.38779        0.56557        0.53971        0.57223        0.66616        0.69172        0.62684        0.63574        0.63507        0.54220        0.56749        0.39214        0.34864        0.26193        0.18256        0.07366        0.14076        0.11046        0.09866        0.11291        0.20288        0.19522        0.31165        0.35017        0.40823        0.48804        0.56456        0.54389        0.55330        0.60325        0.53243        0.46105        0.47965        0.32074        0.24655        0.25228        0.24206        0.13707        0.13995        0.14851        0.21932        0.24852        0.33224        0.37517        0.39702        0.45648        0.44299        0.47482        0.44280        0.47206        0.44285        0.39459        0.36854        0.36315        0.32146        0.28611        0.20621        0.20572        0.22326        0.26560        0.25624        0.34343        0.37446        0.35145        0.40845        0.45256        0.44169        0.42586        0.43786        0.35704        0.32950        0.28010        0.25457        0.28607        0.25714        0.28840        0.29943        0.34039        0.32956        0.39721        0.38897        0.42170        0.40584        0.44051        0.40416        0.36456        0.27848        0.28337        0.29141        0.27313        0.25808        0.32956        0.36293        0.33186        0.35855        0.36520        0.34594        0.40742        0.39550        0.36080        0.33964        0.30290        0.30959        0.31658        0.30748        0.30231        0.28608        0.33467        0.35470        0.36806        0.33580        0.33088        0.33153        0.34959        0.30975        0.28267        0.30815        0.31705        0.32583        0.32077        0.33139        0.35272        0.32928        0.31843        0.33416        0.30062        0.25659        0.24406        0.26356        0.30258        0.31824        0.35643        0.29355        0.30212        0.32468        0.28966        0.31850        0.29309        0.27540        0.28217        0.28794        0.30247        0.34205        0.31506        0.32293        0.32156        0.32687        0.33452        0.31307        0.31752        0.31976        0.26991        0.28859        0.30686        0.28246        0.31795        0.32169        0.33421        0.31792        0.34953        0.33045        0.28124        0.23947        0.27201        0.33083        0.35404        0.34773        0.31660        0.29227        0.30130        0.31302        0.25367        0.28714        0.29846        0.31625        0.28885        0.28922        0.26477        0.32927        0.33350        0.33407        0.31239        0.29622        0.29964        0.38968        0.33729        0.31533        0.30361        0.30543        0.28861        0.29515        0.29189        0.29639        0.22538        0.26633        0.30117        0.31375        0.29600        0.26966        0.27669        0.22882        0.22663        0.28189        0.31143        0.30244        0.30152        0.28581        0.33148        0.24808        0.21962        0.27889        0.24298        0.26955        0.27746        0.35347        0.26255        0.28812        0.27407        0.22982        0.26638        0.26419        0.23333        0.17445        0.22202        0.22485        0.24143        0.30260        0.26799        0.34100        0.32075        0.27586        0.26019        0.20207        0.25071        0.27452        0.21914        0.16512        0.21669        0.23826        0.20052        0.28510        0.23801        0.04673       -0.41768       -0.89593
2.690164 2.661715 2.633419 2.605277 2.577289 2.549454 2.521772 2.494244 2.466870 2.439649 2.412582 2.385668 2.358907 2.332301 2.305847 2.279547 2.253401 2.227409 2.201569 2.175884 2.150352 2.124973 2.099748 2.074676 2.049758 2.024994 2.000383 1.975925 1.951621 1.927471 1.903474 1.879631 1.855941 1.832404 1.809022 1.785792 1.762717 1.739794 1.717026 1.694411 1.671949 1.649641 1.627486 1.605485 1.583638 1.561944 1.540403 1.519016 1.497783 1.476703 1.455776 1.523136 1.830951 1.516745 1.190632 0.943343 0.546359 0.912476 0.641336 0.862701 0.922938 0.591456 0.693859 0.782918 0.824261 0.621425 0.531342 0.356083 0.098169 0.065654 0.037247 0.065715 0.298944 -0.043684 0.069091 -0.133083 -0.024442 -0.015715 0.069789 0.067326 0.107318 0.179709 0.277370 0.244475 0.477476 0.394798 0.543487 0.531987 0.773452 0.791561 0.882111 0.935376 0.934385 0.955162 1.118866 0.943811 1.142959 0.946205 0.856476 1.016098 0.846877 0.762077 0.635634 0.587907 0.460967 0.418420 0.506921 0.262009 0.198678 0.164157 0.010954 0.200082 -0.011263 0.116974 0.167322 0.255900 0.340022 0.342992 0.436090 0.550367 0.678288 0.537702 0.738519 0.862820 0.636947 0.705929 0.679469 0.588223 0.537440 0.463894 0.310712 0.213723 0.125301 -0.031750 -0.015549 0.051368 -0.079129 -0.052947 0.064031 0.044600 0.104110 0.221741 0.240087 0.317323 0.435650 0.447669 0.447478 0.466085 0.458103 0.328798 0.340758 0.249288 0.050467 0.067322 0.021376 -0.039640 -0.100385 -0.087561 -0.017077 -0.036108 0.085322 0.139086 0.145528 0.260967 0.228460 0.252842 0.282967 0.237015 0.244340 0.219067 0.151659 0.121988 0.122362 0.030100 0.020499 -0.108151 -0.036979 0.009002 0.000171 0.018520 0.110795 0.079516 0.130829 0.209729 0.273304 0.175346 0.206251 0.117780 0.141516 0.030466 -0.028675 0.022122 -0.009659 0.007069 0.003872 0.046582 0.077143 0.068566 0.164066 0.107458 0.184839 0.096864 0.181281 0.107742 0.012878 -0.037647 -0.012996 -0.020644 -0.049207 -0.043631 0.081629 0.072078 0.000448 0.115447 0.086195 0.079582 0.162564 0.088266 0.094815 0.066880 -0.004441 0.051562 0.017119 0.027617 0.030528 0.015988 0.062736 0.076335 0.081927 0.053050 0.060703 0.031711 0.084747 0.007657 -0.000936 0.038628 0.028133 0.065037 0.052843 0.064872 0.066914 0.056671 0.027263 0.045950 0.000859 -0.049323 -0.036431 -0.015175 0.020497 0.038961 0.113177 -0.008852 0.049420 0.052364 0.001871 0.068199 0.021435 0.000962 0.027889 0.042104 0.037727 0.090065 0.038618 0.071470 0.067974 0.096663 0.065218 0.077301 0.089272 0.050825 -0.007811 0.058764 0.046157 0.038181 0.082708 0.075709 0.045524 0.069191 0.100350 0.034753 0.020848 -0.065793 0.002701 0.118087 0.087702 0.079896 0.041827 0.015320 0.060179 0.045182 -0.047563 0.048626 0.040898 0.065594 0.044415 -0.017545 0.051245 0.005059 0.059984 0.035358 0.042433 -0.028855 0.060090 0.119790 0.037266 0.002044 0.029108 0.000517 -0.029749 -0.016920 -0.010788 -0.028965 -0.103265 -0.032412 -0.015236 0.020776 -0.033433 -0.063625 0.011307 -0.074974 -0.033122 -0.056510 0.061053 0.015695 0.032339 0.000985 0.077110 -0.060008 -0.063739 0.007311 -0.060245 0.014750 -0.008237 0.132609 -0.072329 0.016638 0.028460 -0.056688 0.006464 0.005772 -0.035853 -0.137482 -0.025904 -0.032859 -0.017130 0.030339 -0.003827 0.145349 0.077142 0.044022 0.015719 -0.026780 -0.012588 0.304029 0.263828 0.198896 0.266013 0.251771 0.280537 0.304348 0.249120 0.057558 -1.051918
0.072396 0.072910 0.074453 0.077024 0.080623 0.085248 0.090899 0.097573 0.105269 0.113983 0.123711 0.134450 0.146194 0.158935 0.172666 0.187377 0.203056 0.219689 0.237260 0.255752 0.275142 0.295407 0.316517 0.338443 0.361149 0.384595 0.408737 0.433525 0.458907 0.484821 0.511204 0.537983 0.565081 0.592413 0.619890 0.647414 0.674879 0.702174 0.729180 0.755772 0.781815 0.807170 0.831690 0.855222 0.877606 0.898676 0.918263 0.936190 0.952280 0.966351 0.978218 0.987699 0.994608 0.998763 0.999985 0.998101 0.992942 0.984349 0.972173 0.956278 0.936542 0.912859 0.885143 0.853330 0.817379 0.777274 0.733030 0.684690 0.632332 0.576068 0.516046 0.452454 0.385519 0.315511 0.242738 0.167555 0.090356 0.011577 0.068302 0.148765 0.229257 0.309190 0.387944 0.464871 0.539304 0.610556 0.677933 0.740734 0.798265 0.849842 0.894806 0.932523 0.962401 0.983900 0.996537 0.999899 0.993654 0.977561 0.951474 0.915359 0.869296 0.813486 0.748260 0.674080 0.591541 0.501377 0.404450 0.301757 0.194414 0.083656 0.029179 0.142663 0.255293 0.365512 0.471724 0.572326 0.665725 0.750370 0.824779 0.887564 0.937467 0.973385 0.994396 0.999791 0.989097 0.962096 0.918846 0.859696 0.785295 0.696594 0.594846 0.481598 0.358677 0.228164 0.092369 0.046205 0.184905 0.320976 0.451616 0.574034 0.685509 0.783459 0.865503 0.929527 0.973743 0.996751 0.997590 0.975780 0.931360 0.864909 0.777560 0.670995 0.547435 0.409593 0.260644 0.104151 0.056012 0.215744 0.370825 0.517026 0.650224 0.766528 0.862398 0.934762 0.981130 0.999690 0.989393 0.950016 0.882208 0.787499 0.668300 0.527851 0.370164 0.199914 0.022322 0.157001 0.332225 0.497490 0.647100 0.775734 0.878643 0.951839 0.992270 0.997965 0.968149 0.903316 0.805261 0.677061 0.523007 0.348488 0.159821 0.035963 0.231367 0.418710 0.590435 0.739416 0.859270 0.944644 0.991486 0.997253 0.961082 0.883882 0.768359 0.618959 0.441733 0.244117 0.034652 0.177380 0.382349 0.570719 0.733500 0.862690 0.951693 0.995686 0.991911 0.939882 0.841481 0.700946 0.524728 0.321239 0.100476 0.126435 0.347803 0.551959 0.727881 0.865814 0.957830 0.998328 0.984410 0.916129 0.796577 0.631804 0.430557 0.203873 0.035509 0.273835 0.497116 0.691956 0.846379 0.950592 0.997645 0.983950 0.909596 0.778453 0.598040 0.379151 0.135256 0.118288 0.365187 0.589255 0.775475 0.911052 0.986324 0.995505 0.937190 0.814575 0.635362 0.411341 0.157681 0.108060 0.367127 0.600875 0.792137 0.926515 0.993511 0.987414 0.907856 0.759977 0.554182 0.305488 0.032488 0.244010 0.502528 0.722613 0.886470 0.980458 0.996293 0.931854 0.791512 0.585937 0.331378 0.048438 0.239528 0.508332 0.734987 0.899698 0.987660 0.990461 0.906971 0.743630 0.514046 0.237968 0.060337 0.354197 0.616879 0.824044 0.956071 0.999966 0.950753 0.812127 0.596301 0.323052 0.017989 0.289789 0.570433 0.796261 0.944536 0.999829 0.955732 0.815710 0.592969 0.309335 0.006784 0.323187 0.607121 0.828715 0.964147 0.998327 0.926681 0.755872 0.503336 0.195623 0.134289 0.450497 0.718035 0.906813 0.995062 0.971969 0.839132 0.610642 0.311748 0.023844 0.357649 0.650837 0.868741 0.985049 0.985092 0.867843 0.646318 0.346301 0.003466 0.340758 0.644173 0.869008 0.986693 0.981626 0.853392 0.617124 0.301891 0.052739 0.401576 0.699528 0.907490 0.997554 0.956907 0.789831 0.517454 0.175272 0.191352 0.533125 0.803457 0.964855 0.994287
1.000000 1.000000 1.000000 1.000000 1.000000 1.000000 1.000000 1.000000 1.000000 1.000000 1.000000 1.000000 1.000000 1.000000 1.000000 1.000000 1.000000 1.000000 1.000000 1.000000 1.000000 1.000000 1.000000 1.000000 1.000000 1.000000 1.000000 1.000000 1.000000 1.000000 1.000000 1.000000 1.000000 1.000000 1.000000 1.000000 1.000000 1.000000 1.000000 1.000000 1.000000 1.000000 1.000000 1.000000 1.000000 1.000000 1.000000 1.000000 1.000000 1.000000 1.000000 1.000000 0.916757 0.916757 0.905155 0.905155 0.905155 0.905155 0.905155 0.905155 0.905155 0.905155 0.905155 0.905155 0.905155 0.905155 0.905155 0.905155 0.905155 0.905155 0.905155 0.905155 0.905155 0.905155 0.905155 0.905155 0.905155 0.905155 0.905155 0.905155 0.905155 0.905155 0.905155 0.905155 0.905155 0.905155 0.905155 0.905155 0.905155 0.905155 0.905155 0.905155 0.905155 0.905155 0.905155 0.902934 0.907893 0.910034 0.908603 0.912062 0.912105 0.910045 0.909514 0.909196 0.909558 0.910959 0.921408 0.932356 0.943302 0.943828 0.949045 0.953271 0.955797 0.956545 0.958174 0.968430 0.965758 0.965307 0.965993 0.967400 0.969468 0.968328 0.967718 0.970248 0.970889 0.969405 0.966970 0.966318 0.965687 0.965782 0.965433 0.965309 0.966397 0.966901 0.966512 0.966121 0.966272 0.966335 0.965041 0.964652 0.967294 0.968533 0.968454 0.967282 0.961992 0.965380 0.966135 0.965565 0.965593 0.965296 0.965603 0.950298 0.946719 0.946623 0.941867 0.940857 0.937953 0.936504 0.935424 0.936441 0.936574 0.937037 0.933058 0.919969 0.906476 0.891516 0.913820 0.901880 0.886736 0.863797 0.864154 0.857442 0.857878 0.852305 0.843426 0.838845 0.836174 0.838525 0.840442 0.845160 0.841854 0.828029 0.831825 0.827342 0.793462 0.783070 0.769413 0.766643 0.763697 0.764788 0.761656 0.757142 0.765635 0.755476 0.752493 0.742506 0.725081 0.693743 0.681409 0.692187 0.700347 0.708529 0.704547 0.689210 0.641160 0.653362 0.680801 0.673884 0.675178 0.669982 0.663911 0.671265 0.669420 0.665417 0.659596 0.659217 0.658868 0.668028 0.673860 0.664311 0.657288 0.645837 0.636023 0.618740 0.629553 0.636050 0.606809 0.600647 0.594840 0.589319 0.585053 0.571641 0.572655 0.551135 0.535962 0.533242 0.532386 0.536709 0.544808 0.544181 0.525096 0.544725 0.539027 0.570118 0.544526 0.542361 0.543849 0.553334 0.533612 0.530503 0.524701 0.525123 0.535097 0.562828 0.595268 0.586953 0.576745 0.569750 0.578759 0.568015 0.577268 0.609161 0.588575 0.523559 0.479520 0.476353 0.441489 0.433658 0.414257 0.392717 0.362011 0.357912 0.351225 0.336426 0.325027 0.284547 0.249235 0.229140 0.217072 0.224266 0.245608 0.243663 0.242832 0.284172 0.328494 0.332046 0.321819 0.295973 0.297511 0.294870 0.254732 0.248311 0.212255 0.194689 0.219945 0.165731 0.168970 0.129882 0.125030 0.141852 0.153935 0.164412 0.116769 0.100399 0.121134 0.143510 0.129151 0.122311 0.077286 0.050503 0.035709 0.048243 0.026705 0.009488 0.016471 0.016936 -0.002130 -0.026865 -0.032101 -0.040613 -0.037160 -0.052868 -0.052265 0.004544 0.035856 0.026351 0.028327 0.053672 0.048530 0.030244 0.022861 -0.003072 -0.020309 -0.064014 -0.088720 -0.088720 -0.073296 -0.073296 -0.073296 -0.073296 -0.073296 -0.073296 -0.073296 -0.073296 -0.073296 -0.074711 -0.074711 -0.074711 -0.074711 -0.074711 -0.074711 -0.074711 -0.074711 -0.074711 -0.063333 -0.063333 -0.063333 -0.063333 -0.063333 -0.063333 -0.063333 -0.063333 -0.063333
0.000000 0.000000 0.000000 0.000000 0.000000 0.000000 0.000000 0.000000 0.000000 0.000000 0.000000 0.000000 0.000000 0.000000 0.000000 0.000000 0.000000 0.000000 0.000000 0.000000 0.000000 0.000000 0.000000 0.000000 0.000000 0.000000 0.000000 0.000000 0.000000 0.000000 0.000000 0.000000 0.000000 0.000000 0.000000 0.000000 0.000000 0.000000 0.000000 0.000000 0.000000 0.000000 0.000000 0.000000 0.000000 0.000000 0.000000 0.000000 0.000000 0.000000 0.000000 0.000000 0.181818 0.181818 0.199007 0.199007 0.199007 0.199007 0.199007 0.199007 0.199007 0.199007 0.199007 0.199007 0.199007 0.199007 0.199007 0.199007 0.199007 0.199007 0.199007 0.199007 0.199007 0.199007 0.199007 0.199007 0.199007 0.199007 0.199007 0.199007 0.199007 0.199007 0.199007 0.199007 0.199007 0.199007 0.199007 0.199007 0.199007 0.199007 0.199007 0.199007 0.199007 0.199007 0.199007 0.230940 0.230940 0.230940 0.230940 0.230940 0.230940 0.230940 0.230940 0.230940 0.230940 0.230940 0.230940 0.230940 0.230940 0.230940 0.230940 0.230940 0.230940 0.230940 0.230940 0.230940 0.230940 0.230940 0.230940 0.230940 0.230940 0.230940 0.230940 0.244339 0.244339 0.244339 0.244339 0.244339 0.244339 0.244339 0.244339 0.244339 0.244339 0.244339 0.244339 0.244339 0.244339 0.244339 0.244339 0.244339 0.244339 0.244339 0.244339 0.244339 0.244339 0.244339 0.251976 0.251976 0.251976 0.251976 0.251976 0.251976 0.251976 0.251976 0.251976 0.251976 0.251976 0.251976 0.251976 0.251976 0.251976 0.251976 0.251976 0.251976 0.251976 0.251976 0.264906 0.264906 0.264906 0.264906 0.264906 0.264906 0.264906 0.264906 0.264906 0.264906 0.264906 0.264906 0.264906 0.264906 0.264906 0.264906 0.264906 0.264906 0.264906 0.264906 0.264906 0.264906 0.264906 0.264906 0.264906 0.264906 0.264906 0.264906 0.264906 0.264906 0.264906 0.264906 0.264906 0.264906 0.264906 0.264906 0.264906 0.264906 0.264906 0.264906 0.264906 0.264906 0.264906 0.264906 0.264906 0.264906 0.264906 0.264906 0.264906 0.264906 0.264906 0.264906 0.264906 0.264906 0.264906 0.264906 0.264906 0.264906 0.264906 0.264906 0.264906 0.264906 0.264906 0.264906 0.264906 0.264906 0.264906 0.264906 0.264906 0.264906 0.264906 0.264906 0.264906 0.264906 0.264906 0.269680 0.269680 0.269680 0.269680 0.269680 0.269680 0.269680 0.269680 0.269680 0.269680 0.269680 0.269680 0.264906 0.264906 0.264906 0.264906 0.264906 0.264906 0.264906 0.264906 0.264906 0.264906 0.264906 0.264906 0.269680 0.269680 0.269680 0.269680 0.269680 0.269680 0.269680 0.269680 0.269680 0.269680 0.269680 0.264906 0.264906 0.264906 0.264906 0.264906 0.264906 0.264906 0.264906 0.264906 0.264906 0.264906 0.269680 0.269680 0.269680 0.269680 0.269680 0.269680 0.269680 0.269680 0.269680 0.269680 0.251976 0.251976 0.251976 0.251976 0.251976 0.251976 0.251976 0.251976 0.251976 0.251976 0.251976 0.269680 0.269680 0.269680 0.269680 0.269680 0.269680 0.269680 0.269680 0.269680 0.256074 0.256074 0.256074 0.256074 0.256074 0.256074 0.256074 0.256074 0.256074 0.256074 0.260378 0.260378 0.260378 0.260378 0.260378 0.260378 0.260378 0.260378 0.260378 0.256074 0.256074 0.256074 0.256074 0.256074 0.256074 0.256074 0.256074 0.256074 0.251976 0.251976 0.251976 0.251976 0.251976 0.251976 0.251976 0.251976 0.251976 0.264906 0.264906 0.264906 0.264906 0.264906 0.264906 0.264906 0.264906 0.264906
