# Output from CTFFind version 4.1.9, run on 2019-11-02 17:48:48
# Input file: stack16_bm3d_averaged_1_1.25_0_2000_half.mrc ; Number of micrographs: 1
# Pixel size: 3.000 Angstroms ; acceleration voltage: 300.0 keV ; spherical aberration: 0.00 mm ; amplitude contrast: 0.07
# Box size: 512 pixels ; min. res.: 30.0 Angstroms ; max. res.: 5.0 Angstroms ; min. def.: 5000.0 um; max. def. 50000.0 um; num. frames averaged: 1
# 6 lines per micrograph: #1 - spatial frequency (1/Angstroms); #2 - 1D rotational average of spectrum (assuming no astigmatism); #3 - 1D rotational average of spectrum; #4 - CTF fit; #5 - cross-correlation between spectrum and CTF fit; #6 - 2sigma of expected cross correlation of noise
0.000000 0.000651 0.001302 0.001953 0.002604 0.003255 0.003906 0.004557 0.005208 0.005859 0.006510 0.007161 0.007812 0.008464 0.009115 0.009766 0.010417 0.011068 0.011719 0.012370 0.013021 0.013672 0.014323 0.014974 0.015625 0.016276 0.016927 0.017578 0.018229 0.018880 0.019531 0.020182 0.020833 0.021484 0.022135 0.022786 0.023438 0.024089 0.024740 0.025391 0.026042 0.026693 0.027344 0.027995 0.028646 0.029297 0.029948 0.030599 0.031250 0.031901 0.032552 0.033203 0.033854 0.034505 0.035156 0.035807 0.036458 0.037109 0.037760 0.038411 0.039062 0.039714 0.040365 0.041016 0.041667 0.042318 0.042969 0.043620 0.044271 0.044922 0.045573 0.046224 0.046875 0.047526 0.048177 0.048828 0.049479 0.050130 0.050781 0.051432 0.052083 0.052734 0.053385 0.054036 0.054688 0.055339 0.055990 0.056641 0.057292 0.057943 0.058594 0.059245 0.059896 0.060547 0.061198 0.061849 0.062500 0.063151 0.063802 0.064453 0.065104 0.065755 0.066406 0.067057 0.067708 0.068359 0.069010 0.069661 0.070312 0.070964 0.071615 0.072266 0.072917 0.073568 0.074219 0.074870 0.075521 0.076172 0.076823 0.077474 0.078125 0.078776 0.079427 0.080078 0.080729 0.081380 0.082031 0.082682 0.083333 0.083984 0.084635 0.085286 0.085938 0.086589 0.087240 0.087891 0.088542 0.089193 0.089844 0.090495 0.091146 0.091797 0.092448 0.093099 0.093750 0.094401 0.095052 0.095703 0.096354 0.097005 0.097656 0.098307 0.098958 0.099609 0.100260 0.100911 0.101562 0.102214 0.102865 0.103516 0.104167 0.104818 0.105469 0.106120 0.106771 0.107422 0.108073 0.108724 0.109375 0.110026 0.110677 0.111328 0.111979 0.112630 0.113281 0.113932 0.114583 0.115234 0.115885 0.116536 0.117188 0.117839 0.118490 0.119141 0.119792 0.120443 0.121094 0.121745 0.122396 0.123047 0.123698 0.124349 0.125000 0.125651 0.126302 0.126953 0.127604 0.128255 0.128906 0.129557 0.130208 0.130859 0.131510 0.132161 0.132812 0.133464 0.134115 0.134766 0.135417 0.136068 0.136719 0.137370 0.138021 0.138672 0.139323 0.139974 0.140625 0.141276 0.141927 0.142578 0.143229 0.143880 0.144531 0.145182 0.145833 0.146484 0.147135 0.147786 0.148438 0.149089 0.149740 0.150391 0.151042 0.151693 0.152344 0.152995 0.153646 0.154297 0.154948 0.155599 0.156250 0.156901 0.157552 0.158203 0.158854 0.159505 0.160156 0.160807 0.161458 0.162109 0.162760 0.163411 0.164062 0.164714 0.165365 0.166016 0.166667 0.167318 0.167969 0.168620 0.169271 0.169922 0.170573 0.171224 0.171875 0.172526 0.173177 0.173828 0.174479 0.175130 0.175781 0.176432 0.177083 0.177734 0.178385 0.179036 0.179688 0.180339 0.180990 0.181641 0.182292 0.182943 0.183594 0.184245 0.184896 0.185547 0.186198 0.186849 0.187500 0.188151 0.188802 0.189453 0.190104 0.190755 0.191406 0.192057 0.192708 0.193359 0.194010 0.194661 0.195312 0.195964 0.196615 0.197266 0.197917 0.198568 0.199219 0.199870 0.200521 0.201172 0.201823 0.202474 0.203125 0.203776 0.204427 0.205078 0.205729 0.206380 0.207031 0.207682 0.208333 0.208984 0.209635 0.210286 0.210938 0.211589 0.212240 0.212891 0.213542 0.214193 0.214844 0.215495 0.216146 0.216797 0.217448 0.218099 0.218750 0.219401 0.220052 0.220703 0.221354 0.222005 0.222656 0.223307 0.223958 0.224609 0.225260 0.225911 0.226562 0.227214 0.227865 0.228516 0.229167 0.229818 0.230469 0.231120 0.231771 0.232422 0.233073 0.233724 0.234375 0.235026 0.235677
       0.34410        0.34410        0.34410        0.34410        0.34410        0.34410        0.34410        0.34410        0.34410        0.34410        0.34410        0.34410        0.34410        0.34410        0.34410        0.34410        0.34410        0.34410        0.34410        0.34410        0.34410        0.34410        0.34410        0.34410        0.34410        0.34410        0.34410        0.34410        0.34410        0.34410        0.34410        0.34410        0.34410        0.34410        0.34410        0.34410        0.34410        0.34410        0.34410        0.34410        0.34410        0.34410        0.34410        0.34410        0.34410        0.34410        0.34410        0.34410        0.34410        0.34410        0.34410        0.48974        0.70289        0.45721       -0.10905       -0.41293       -0.57020       -0.65917       -0.74357       -0.75940       -0.86980       -0.91376       -0.75994       -0.92517       -0.87186       -1.02503       -1.09598       -0.98878       -0.96026       -0.88378       -0.85873       -0.74937       -0.64060       -0.49876       -0.42113       -0.21815       -0.11794       -0.02423        0.20248        0.24395        0.31011        0.38568        0.43821        0.51587        0.58208        0.60028        0.59302        0.50230        0.54794        0.48568        0.39271        0.32816        0.20777        0.17376        0.10036       -0.05984       -0.11416       -0.09011        0.01165       -0.01775        0.01217        0.02886        0.20812        0.21841        0.39086        0.45874        0.56416        0.70468        0.76477        0.73161        0.70880        0.70514        0.58663        0.54301        0.40031        0.27735        0.19681        0.14741        0.06844        0.02603        0.02424        0.06335        0.08194        0.27645        0.41800        0.50475        0.58870        0.63982        0.70608        0.66045        0.65330        0.67417        0.61062        0.48249        0.28597        0.23511        0.20484        0.13053        0.04616        0.09365        0.11713        0.25154        0.34495        0.41666        0.50393        0.54293        0.66169        0.60804        0.55431        0.50879        0.36463        0.20757        0.21079        0.15473        0.11880        0.12070        0.21405        0.25664        0.36312        0.44424        0.43949        0.56439        0.51344        0.45079        0.45542        0.38448        0.32428        0.27621        0.21668        0.23507        0.21413        0.21169        0.32301        0.45125        0.48978        0.48198        0.55269        0.49860        0.45651        0.39843        0.29476        0.22658        0.23412        0.24472        0.26696        0.27191        0.32933        0.44332        0.50149        0.49101        0.45979        0.41823        0.38885        0.36264        0.25089        0.22935        0.25026        0.29586        0.35608        0.36521        0.39523        0.40995        0.44481        0.37455        0.34846        0.31556        0.30861        0.26805        0.25996        0.31236        0.34854        0.41735        0.41908        0.39756        0.39322        0.40630        0.34925        0.28680        0.29481        0.28036        0.31062        0.36006        0.36873        0.41576        0.36110        0.36476        0.38958        0.34419        0.31189        0.28430        0.29292        0.33948        0.33156        0.32543        0.37598        0.39721        0.33758        0.35398        0.29915        0.30847        0.28880        0.28198        0.30292        0.33013        0.38404        0.36858        0.34967        0.32995        0.28739        0.27721        0.29941        0.28483        0.31519        0.37031        0.39562        0.33646        0.31858        0.31297        0.29967        0.29052        0.27880        0.30190        0.34182        0.33459        0.34682        0.32301        0.34903        0.32480        0.29016        0.31242        0.32191        0.33671        0.33750        0.31938        0.31477        0.30471        0.33208        0.31762        0.33894        0.39310        0.33834        0.36242        0.31905        0.30977        0.28877        0.31013        0.29109        0.31170        0.32308        0.35424        0.36560        0.31269        0.32028        0.31587        0.29981        0.29488        0.29046        0.33201        0.33979        0.35817        0.34037        0.32271        0.26126        0.26502        0.31254        0.35303        0.31556        0.29494        0.28514        0.29165        0.32777        0.31134        0.30448        0.33630        0.34132        0.31572        0.24680        0.28451        0.28757        0.28914        0.32386        0.32695        0.34931        0.34132        0.28416        0.26990        0.29796        0.26772        0.29522        0.27332        0.24741        0.26428        0.25473        0.27946        0.28404        0.27913        0.26820        0.31599        0.32831        0.31735        0.28888        0.30200        0.24529        0.27387        0.25196        0.32433        0.34947        0.23330        0.25814        0.28796        0.24988        0.24322        0.30425        0.23671        0.13678        0.17361        0.23165        0.27116        0.23876        0.15083        0.04539       -0.39321       -0.75891
3.063120 3.025032 2.987189 2.949590 2.912236 2.875127 2.838263 2.801643 2.765269 2.729139 2.693254 2.657614 2.622218 2.587068 2.552162 2.517501 2.483085 2.448913 2.414987 2.381305 2.347868 2.314676 2.281728 2.249026 2.216568 2.184355 2.152387 2.120663 2.089185 2.057951 2.026962 1.996218 1.965718 1.935464 1.905454 1.875689 1.846169 1.816893 1.787863 1.759077 1.730536 1.702240 1.674188 1.646382 1.618820 1.591503 1.564431 1.537603 1.511021 1.484683 1.458590 1.515592 1.702983 1.616816 0.970457 0.683850 0.478938 0.434374 0.323727 0.268359 0.200885 0.022145 0.197378 0.082091 -0.006937 -0.059477 -0.197195 -0.151422 -0.088723 -0.092102 -0.094857 0.010859 0.033541 0.233307 0.152700 0.365910 0.445942 0.476564 0.715268 0.700731 0.711187 0.839261 0.822084 0.852054 0.924257 0.897368 0.941039 0.752678 0.837964 0.840577 0.622619 0.610927 0.458668 0.438900 0.382496 0.210640 0.117954 0.100123 0.207859 0.143992 0.195376 0.111668 0.310372 0.286289 0.457630 0.415450 0.581963 0.647262 0.767842 0.696617 0.663972 0.670649 0.533299 0.505589 0.367043 0.296092 0.119714 0.148846 0.001763 -0.010464 -0.038255 -0.028975 -0.000012 0.036375 0.275414 0.330067 0.387397 0.395164 0.469033 0.520304 0.470102 0.507281 0.399883 0.391189 0.155230 0.067251 0.071873 -0.002659 -0.124696 -0.042418 -0.113846 0.014927 0.139017 0.157454 0.254323 0.259863 0.385866 0.456062 0.353687 0.388872 0.283913 0.125366 0.047419 0.052192 0.017604 0.003852 0.006285 0.108583 0.131115 0.267752 0.237388 0.304002 0.370264 0.242298 0.245240 0.219851 0.131091 0.082971 0.051484 0.023985 0.040616 -0.013011 0.029203 0.184804 0.220196 0.255661 0.282186 0.232323 0.239008 0.149671 0.107865 -0.023259 -0.014008 -0.007717 0.017554 0.007183 0.028955 0.106393 0.187882 0.205290 0.220345 0.137569 0.146086 0.079625 0.057802 -0.057828 -0.012908 -0.003109 0.054417 0.066356 0.078991 0.154989 0.086047 0.164447 0.067824 0.051745 0.046491 0.028376 0.001418 0.009023 0.053311 0.086068 0.130960 0.141115 0.067701 0.127527 0.097631 0.013126 0.007660 0.005945 -0.004004 0.053700 0.059021 0.098473 0.097240 0.064314 0.069558 0.079715 0.030052 0.010429 -0.008823 0.005866 0.060553 0.023072 0.037075 0.073849 0.089836 0.055574 0.032313 0.008539 0.012014 -0.006775 -0.014630 0.013261 0.050124 0.095431 0.067008 0.059329 0.037942 -0.013859 -0.001894 0.016146 0.010784 0.025876 0.104119 0.061464 0.017266 0.044529 0.002672 0.025920 -0.007982 -0.007080 0.024940 0.061690 0.028549 0.045233 0.030998 0.053211 0.023717 -0.006675 0.021865 0.040847 0.036962 0.033692 0.033372 0.006861 0.000049 0.034699 0.017049 0.050189 0.080425 0.045980 0.016979 0.006608 -0.011845 -0.014192 -0.001695 -0.008081 0.002922 -0.009126 0.063420 0.036821 0.008975 0.021731 -0.016707 -0.006333 -0.010146 -0.025366 0.032925 0.041759 0.063468 0.030738 0.024562 -0.047326 -0.010287 0.010206 0.049113 0.016386 0.012490 -0.016176 -0.014297 0.034828 0.030174 0.012359 0.061739 0.050580 0.045022 -0.032997 0.002746 0.037457 0.010574 0.034140 0.080298 0.081652 0.071129 0.021694 0.012450 0.022522 0.003108 0.034492 -0.023811 -0.029110 -0.019016 -0.042173 -0.005511 -0.008331 0.004762 -0.077242 -0.002189 0.009871 -0.002398 -0.042106 0.017109 -0.097682 -0.020904 -0.049665 0.019538 0.067714 -0.106235 -0.020704 0.043615 0.007630 -0.045825 0.044834 0.029776 -0.025350 -0.039540 0.051138 0.237541 0.214636 0.109952 0.042588 -0.666707
0.072396 0.073046 0.074995 0.078243 0.082789 0.088631 0.095767 0.104194 0.113909 0.124905 0.137177 0.150716 0.165513 0.181553 0.198823 0.217303 0.236972 0.257803 0.279766 0.302826 0.326942 0.352066 0.378146 0.405121 0.432923 0.461475 0.490692 0.520481 0.550738 0.581348 0.612187 0.643120 0.674001 0.704671 0.734963 0.764694 0.793673 0.821698 0.848555 0.874020 0.897860 0.919834 0.939693 0.957184 0.972046 0.984019 0.992841 0.998252 0.999996 0.997826 0.991503 0.980804 0.965520 0.945467 0.920483 0.890435 0.855223 0.814786 0.769102 0.718197 0.662145 0.601074 0.535169 0.464676 0.389903 0.311224 0.229079 0.143978 0.056496 0.032726 0.122980 0.213500 0.303461 0.391989 0.478166 0.561040 0.639633 0.712954 0.780013 0.839833 0.891464 0.934004 0.966611 0.988525 0.999083 0.997738 0.984079 0.957845 0.918942 0.867459 0.803678 0.728086 0.641383 0.544480 0.438506 0.324799 0.204898 0.080529 0.046412 0.173889 0.299748 0.421758 0.537644 0.645136 0.742011 0.826145 0.895566 0.948503 0.983439 0.999165 0.994821 0.969943 0.924495 0.858900 0.774056 0.671348 0.552638 0.420252 0.276949 0.125873 0.029500 0.185440 0.338043 0.483333 0.617361 0.736316 0.836652 0.915188 0.969237 0.996701 0.996175 0.967019 0.909428 0.824464 0.714073 0.581070 0.429086 0.262506 0.086344 0.093881 0.272309 0.442933 0.599796 0.737208 0.849962 0.933553 0.984376 0.999904 0.978839 0.921222 0.828490 0.703492 0.550440 0.374798 0.183124 0.017155 0.218011 0.411137 0.588278 0.741603 0.864066 0.949748 0.994181 0.994616 0.950219 0.862196 0.733826 0.570391 0.379009 0.168357 0.051678 0.270456 0.477087 0.660969 0.812358 0.922907 0.986162 0.997989 0.956883 0.864162 0.724003 0.543324 0.331498 0.099922 0.138571 0.370388 0.581962 0.760546 0.895018 0.976612 0.999543 0.961483 0.863826 0.711747 0.514004 0.282507 0.031658 0.222503 0.463313 0.674570 0.841653 0.952576 0.998913 0.976500 0.885889 0.732466 0.526233 0.281243 0.014709 0.254153 0.505496 0.720307 0.881880 0.977175 0.997944 0.941538 0.811294 0.616473 0.371707 0.095987 0.188743 0.459293 0.693129 0.870268 0.975056 0.997641 0.934999 0.791416 0.578331 0.313557 0.019890 0.276793 0.549785 0.773954 0.928117 0.997120 0.973450 0.858163 0.661044 0.399928 0.099198 0.212386 0.504410 0.747762 0.917589 0.995932 0.973744 0.852076 0.642257 0.365004 0.048510 0.274317 0.569249 0.804365 0.953585 0.999668 0.936363 0.769395 0.516162 0.204085 0.132217 0.454708 0.726207 0.914728 0.997365 0.963226 0.815044 0.569210 0.254165 0.092747 0.429597 0.714925 0.912881 0.997860 0.957972 0.796913 0.533879 0.201506 0.158031 0.498262 0.774415 0.949390 0.998882 0.914954 0.707522 0.403440 0.043242 0.324101 0.647790 0.882244 0.993627 0.964944 0.798859 0.517783 0.161114 0.220107 0.570380 0.837841 0.982037 0.980239 0.831282 0.556236 0.195714 0.195904 0.558563 0.835709 0.983248 0.976745 0.815753 0.524430 0.148211 0.253050 0.614480 0.876683 0.995644 0.950353 0.746814 0.417644 0.017138 0.387462 0.727175 0.943094 0.996806 0.877498 0.604466 0.224334 0.196585 0.583733 0.867454 0.995707 0.943864 0.719784 0.363041 0.061689 0.476161 0.802904 0.979771 0.972050 0.779605 0.437626 0.010582 0.419692 0.769521 0.969793 0.979834 0.796043 0.453362 0.019033 0.420295 0.775736 0.974231 0.973848 0.773015 0.411647 0.036356 0.477921 0.820058 0.989542 0.948894 0.705112 0.308995 0.154978 0.586436
1.000000 1.000000 1.000000 1.000000 1.000000 1.000000 1.000000 1.000000 1.000000 1.000000 1.000000 1.000000 1.000000 1.000000 1.000000 1.000000 1.000000 1.000000 1.000000 1.000000 1.000000 1.000000 1.000000 1.000000 1.000000 1.000000 1.000000 1.000000 1.000000 1.000000 1.000000 1.000000 1.000000 1.000000 1.000000 1.000000 1.000000 1.000000 1.000000 1.000000 1.000000 1.000000 1.000000 1.000000 1.000000 1.000000 1.000000 1.000000 1.000000 1.000000 1.000000 1.000000 0.934442 0.934442 0.934442 0.934442 0.934442 0.934442 0.934442 0.934442 0.934442 0.934442 0.934442 0.934442 0.934442 0.934442 0.934442 0.934442 0.934442 0.934442 0.934442 0.934442 0.934442 0.934442 0.934442 0.934442 0.934442 0.934442 0.934442 0.934442 0.934442 0.934442 0.934442 0.934442 0.934442 0.924233 0.925688 0.928587 0.929631 0.929594 0.929153 0.928852 0.929074 0.929975 0.932265 0.948809 0.950210 0.950788 0.952062 0.952300 0.954807 0.953061 0.952953 0.963484 0.962328 0.963060 0.956184 0.957731 0.956848 0.955941 0.956420 0.956638 0.954736 0.952619 0.950957 0.950336 0.949970 0.951732 0.952205 0.952185 0.953643 0.953623 0.953358 0.950056 0.948591 0.950052 0.952054 0.951187 0.956887 0.956726 0.964771 0.965586 0.964209 0.964102 0.964301 0.964496 0.955176 0.949007 0.943700 0.931819 0.922790 0.920627 0.923514 0.925296 0.924127 0.919514 0.918453 0.915855 0.911035 0.910208 0.909962 0.911477 0.907856 0.904493 0.888280 0.887983 0.890536 0.889932 0.887687 0.879539 0.874903 0.875552 0.878676 0.876225 0.872884 0.888784 0.883762 0.888682 0.891680 0.894766 0.898643 0.894437 0.893200 0.889593 0.886009 0.880921 0.882401 0.870740 0.873510 0.868456 0.859235 0.852335 0.855171 0.864292 0.872103 0.880042 0.879080 0.879271 0.878501 0.869314 0.870886 0.861145 0.862154 0.867516 0.873388 0.870391 0.867369 0.871785 0.869989 0.870557 0.873050 0.869572 0.867773 0.858511 0.858574 0.861587 0.877867 0.878999 0.867279 0.857874 0.846400 0.853104 0.855907 0.855004 0.856830 0.848768 0.850167 0.839496 0.827881 0.828463 0.833419 0.831979 0.835597 0.834329 0.838482 0.838605 0.837208 0.832864 0.831298 0.837195 0.808644 0.815289 0.817704 0.812994 0.817329 0.808460 0.802325 0.797446 0.796661 0.789552 0.800673 0.799013 0.764974 0.756010 0.763376 0.750999 0.741664 0.737850 0.738511 0.711836 0.694139 0.662601 0.658646 0.645136 0.642520 0.643997 0.635936 0.615310 0.602862 0.593825 0.609932 0.613890 0.592415 0.594404 0.589254 0.584784 0.578935 0.575397 0.574002 0.578197 0.583390 0.550222 0.544047 0.546478 0.518341 0.518402 0.518360 0.507087 0.479067 0.483959 0.479342 0.501446 0.531628 0.488642 0.482051 0.493986 0.511561 0.521502 0.520379 0.507378 0.493822 0.503147 0.482996 0.463423 0.479616 0.489389 0.481970 0.492692 0.483917 0.509461 0.502638 0.486104 0.512513 0.516803 0.511369 0.515506 0.530359 0.525810 0.528441 0.517900 0.475668 0.485294 0.467315 0.403378 0.397027 0.407140 0.392203 0.389908 0.365144 0.368995 0.343565 0.315434 0.316156 0.309936 0.275031 0.242571 0.247383 0.249051 0.219047 0.190936 0.210982 0.164404 0.158487 0.177808 0.183005 0.171358 0.172446 0.195334 0.195334 0.195334 0.195334 0.195334 0.195334 0.195334 0.195334 0.195334 0.195334 0.195334 0.195334 0.195334 0.195334 0.219795 0.219795 0.219795 0.219795 0.219795 0.219795 0.219795 0.219795 0.219795 0.219795 0.219795 0.219795
0.000000 0.000000 0.000000 0.000000 0.000000 0.000000 0.000000 0.000000 0.000000 0.000000 0.000000 0.000000 0.000000 0.000000 0.000000 0.000000 0.000000 0.000000 0.000000 0.000000 0.000000 0.000000 0.000000 0.000000 0.000000 7.000000 4.000000 0.000000 0.000000 0.000000 0.000000 0.000000 0.000000 0.000000 0.000000 0.000000 0.000000 0.000000 0.000000 0.000000 0.000000 0.000000 0.000000 0.000000 0.000000 0.000000 0.000000 0.000000 0.000000 0.000000 0.000000 0.000000 0.209657 0.209657 0.209657 0.209657 0.209657 0.209657 0.209657 0.209657 0.209657 0.209657 0.209657 0.209657 0.209657 0.209657 0.209657 0.209657 0.209657 0.209657 0.209657 0.209657 0.209657 0.209657 0.209657 0.209657 0.209657 0.209657 0.209657 0.209657 0.209657 0.209657 0.209657 0.209657 0.209657 0.244339 0.244339 0.244339 0.244339 0.244339 0.244339 0.244339 0.244339 0.244339 0.244339 0.244339 0.244339 0.244339 0.244339 0.244339 0.244339 0.244339 0.244339 0.244339 0.244339 0.244339 0.244339 0.244339 0.244339 0.244339 0.260378 0.260378 0.260378 0.260378 0.260378 0.260378 0.260378 0.260378 0.260378 0.260378 0.260378 0.260378 0.260378 0.260378 0.260378 0.260378 0.260378 0.260378 0.260378 0.260378 0.269680 0.269680 0.269680 0.269680 0.269680 0.269680 0.269680 0.269680 0.269680 0.269680 0.269680 0.269680 0.269680 0.269680 0.269680 0.269680 0.269680 0.269680 0.269680 0.269680 0.269680 0.269680 0.269680 0.269680 0.269680 0.269680 0.269680 0.269680 0.269680 0.269680 0.269680 0.269680 0.269680 0.280056 0.280056 0.280056 0.280056 0.280056 0.280056 0.280056 0.280056 0.280056 0.280056 0.280056 0.280056 0.280056 0.280056 0.280056 0.280056 0.280056 0.280056 0.280056 0.280056 0.280056 0.280056 0.280056 0.280056 0.280056 0.280056 0.280056 0.274721 0.274721 0.274721 0.274721 0.274721 0.274721 0.274721 0.274721 0.274721 0.274721 0.274721 0.274721 0.274721 0.285714 0.285714 0.285714 0.285714 0.285714 0.285714 0.285714 0.285714 0.285714 0.285714 0.285714 0.280056 0.280056 0.280056 0.280056 0.280056 0.280056 0.280056 0.280056 0.280056 0.280056 0.280056 0.274721 0.274721 0.274721 0.274721 0.274721 0.274721 0.274721 0.274721 0.274721 0.274721 0.274721 0.280056 0.280056 0.280056 0.280056 0.280056 0.280056 0.280056 0.280056 0.280056 0.280056 0.285714 0.285714 0.285714 0.285714 0.285714 0.285714 0.285714 0.285714 0.285714 0.269680 0.269680 0.269680 0.269680 0.269680 0.269680 0.269680 0.269680 0.269680 0.269680 0.274721 0.274721 0.274721 0.274721 0.274721 0.274721 0.274721 0.274721 0.274721 0.285714 0.285714 0.285714 0.285714 0.285714 0.285714 0.285714 0.285714 0.264906 0.264906 0.264906 0.264906 0.264906 0.264906 0.264906 0.264906 0.264906 0.274721 0.274721 0.274721 0.274721 0.274721 0.274721 0.274721 0.274721 0.269680 0.269680 0.269680 0.269680 0.269680 0.269680 0.269680 0.269680 0.269680 0.269680 0.269680 0.269680 0.269680 0.269680 0.269680 0.269680 0.280056 0.280056 0.280056 0.280056 0.280056 0.280056 0.280056 0.260378 0.260378 0.260378 0.260378 0.260378 0.260378 0.260378 0.260378 0.269680 0.269680 0.269680 0.269680 0.269680 0.269680 0.269680 0.264906 0.264906 0.264906 0.264906 0.264906 0.264906 0.264906 0.264906 0.264906 0.264906 0.264906 0.264906 0.264906 0.264906 0.260378 0.260378 0.260378 0.260378 0.260378 0.260378 0.260378 0.260378 0.260378 0.260378 0.260378 0.260378
