# Output from CTFFind version 4.1.9, run on 2019-11-02 17:44:18
# Input file: stack11_bm3d_averaged_1_0.5_0_250_half.mrc ; Number of micrographs: 1
# Pixel size: 3.000 Angstroms ; acceleration voltage: 300.0 keV ; spherical aberration: 0.00 mm ; amplitude contrast: 0.07
# Box size: 512 pixels ; min. res.: 30.0 Angstroms ; max. res.: 5.0 Angstroms ; min. def.: 5000.0 um; max. def. 50000.0 um; num. frames averaged: 1
# 6 lines per micrograph: #1 - spatial frequency (1/Angstroms); #2 - 1D rotational average of spectrum (assuming no astigmatism); #3 - 1D rotational average of spectrum; #4 - CTF fit; #5 - cross-correlation between spectrum and CTF fit; #6 - 2sigma of expected cross correlation of noise
0.000000 0.000651 0.001302 0.001953 0.002604 0.003255 0.003906 0.004557 0.005208 0.005859 0.006510 0.007161 0.007812 0.008464 0.009115 0.009766 0.010417 0.011068 0.011719 0.012370 0.013021 0.013672 0.014323 0.014974 0.015625 0.016276 0.016927 0.017578 0.018229 0.018880 0.019531 0.020182 0.020833 0.021484 0.022135 0.022786 0.023438 0.024089 0.024740 0.025391 0.026042 0.026693 0.027344 0.027995 0.028646 0.029297 0.029948 0.030599 0.031250 0.031901 0.032552 0.033203 0.033854 0.034505 0.035156 0.035807 0.036458 0.037109 0.037760 0.038411 0.039062 0.039714 0.040365 0.041016 0.041667 0.042318 0.042969 0.043620 0.044271 0.044922 0.045573 0.046224 0.046875 0.047526 0.048177 0.048828 0.049479 0.050130 0.050781 0.051432 0.052083 0.052734 0.053385 0.054036 0.054688 0.055339 0.055990 0.056641 0.057292 0.057943 0.058594 0.059245 0.059896 0.060547 0.061198 0.061849 0.062500 0.063151 0.063802 0.064453 0.065104 0.065755 0.066406 0.067057 0.067708 0.068359 0.069010 0.069661 0.070312 0.070964 0.071615 0.072266 0.072917 0.073568 0.074219 0.074870 0.075521 0.076172 0.076823 0.077474 0.078125 0.078776 0.079427 0.080078 0.080729 0.081380 0.082031 0.082682 0.083333 0.083984 0.084635 0.085286 0.085938 0.086589 0.087240 0.087891 0.088542 0.089193 0.089844 0.090495 0.091146 0.091797 0.092448 0.093099 0.093750 0.094401 0.095052 0.095703 0.096354 0.097005 0.097656 0.098307 0.098958 0.099609 0.100260 0.100911 0.101562 0.102214 0.102865 0.103516 0.104167 0.104818 0.105469 0.106120 0.106771 0.107422 0.108073 0.108724 0.109375 0.110026 0.110677 0.111328 0.111979 0.112630 0.113281 0.113932 0.114583 0.115234 0.115885 0.116536 0.117188 0.117839 0.118490 0.119141 0.119792 0.120443 0.121094 0.121745 0.122396 0.123047 0.123698 0.124349 0.125000 0.125651 0.126302 0.126953 0.127604 0.128255 0.128906 0.129557 0.130208 0.130859 0.131510 0.132161 0.132812 0.133464 0.134115 0.134766 0.135417 0.136068 0.136719 0.137370 0.138021 0.138672 0.139323 0.139974 0.140625 0.141276 0.141927 0.142578 0.143229 0.143880 0.144531 0.145182 0.145833 0.146484 0.147135 0.147786 0.148438 0.149089 0.149740 0.150391 0.151042 0.151693 0.152344 0.152995 0.153646 0.154297 0.154948 0.155599 0.156250 0.156901 0.157552 0.158203 0.158854 0.159505 0.160156 0.160807 0.161458 0.162109 0.162760 0.163411 0.164062 0.164714 0.165365 0.166016 0.166667 0.167318 0.167969 0.168620 0.169271 0.169922 0.170573 0.171224 0.171875 0.172526 0.173177 0.173828 0.174479 0.175130 0.175781 0.176432 0.177083 0.177734 0.178385 0.179036 0.179688 0.180339 0.180990 0.181641 0.182292 0.182943 0.183594 0.184245 0.184896 0.185547 0.186198 0.186849 0.187500 0.188151 0.188802 0.189453 0.190104 0.190755 0.191406 0.192057 0.192708 0.193359 0.194010 0.194661 0.195312 0.195964 0.196615 0.197266 0.197917 0.198568 0.199219 0.199870 0.200521 0.201172 0.201823 0.202474 0.203125 0.203776 0.204427 0.205078 0.205729 0.206380 0.207031 0.207682 0.208333 0.208984 0.209635 0.210286 0.210938 0.211589 0.212240 0.212891 0.213542 0.214193 0.214844 0.215495 0.216146 0.216797 0.217448 0.218099 0.218750 0.219401 0.220052 0.220703 0.221354 0.222005 0.222656 0.223307 0.223958 0.224609 0.225260 0.225911 0.226562 0.227214 0.227865 0.228516 0.229167 0.229818 0.230469 0.231120 0.231771 0.232422 0.233073 0.233724 0.234375 0.235026 0.235677
       0.31804        0.31804        0.31804        0.31804        0.31804        0.31804        0.31804        0.31804        0.31804        0.31804        0.31804        0.31804        0.31804        0.31804        0.31804        0.31804        0.31804        0.31804        0.31804        0.31804        0.31804        0.31804        0.31804        0.31804        0.31804        0.31804        0.31804        0.31804        0.31804        0.31804        0.31804        0.31804        0.31804        0.31804        0.31804        0.31804        0.31804        0.31804        0.31804        0.31804        0.31804        0.31804        0.31804        0.31804        0.31804        0.31804        0.31804        0.31804        0.31804        0.31804        0.31804        0.68505        0.86994        0.52350        0.08965       -0.06116       -0.42089       -0.20638       -0.29500       -0.11567       -0.07404       -0.11735       -0.06563       -0.20565       -0.23158       -0.25637       -0.32596       -0.33585       -0.48497       -0.38045       -0.46454       -0.44793       -0.41848       -0.46723       -0.54021       -0.55857       -0.58606       -0.62394       -0.57594       -0.41470       -0.37784       -0.32574       -0.31111       -0.21415       -0.20118        0.01813        0.07566        0.10928        0.22762        0.37283        0.44217        0.51264        0.55968        0.55660        0.56735        0.69868        0.81327        0.73818        0.73366        0.66740        0.58161        0.48402        0.41013        0.49454        0.37802        0.20970        0.07689        0.05300        0.01631       -0.06008       -0.03488       -0.02091       -0.07034       -0.00891       -0.01632        0.21166        0.24959        0.28802        0.42982        0.46238        0.40664        0.54177        0.63011        0.70071        0.76236        0.68933        0.65210        0.69783        0.58690        0.50408        0.42014        0.28727        0.18648        0.15612        0.10396        0.04196        0.01523        0.00035        0.07557        0.13054        0.20698        0.28470        0.39914        0.42229        0.51246        0.60657        0.63308        0.62240        0.63049        0.55725        0.44777        0.44974        0.35338        0.23191        0.17808        0.14828        0.11455        0.11999        0.06994        0.10105        0.23196        0.26444        0.34670        0.35536        0.44969        0.51256        0.53911        0.55191        0.47188        0.43489        0.39377        0.36633        0.30420        0.25179        0.20073        0.18905        0.16282        0.18958        0.17972        0.27316        0.33442        0.37053        0.42862        0.46041        0.48010        0.44276        0.39338        0.41918        0.37062        0.28886        0.26970        0.22454        0.21544        0.19438        0.21731        0.23179        0.32900        0.37416        0.36782        0.45944        0.44031        0.43742        0.43175        0.39723        0.34505        0.32587        0.27490        0.24303        0.23883        0.27414        0.27154        0.30230        0.30739        0.33959        0.32762        0.40983        0.42166        0.37706        0.34623        0.36958        0.28175        0.28314        0.26115        0.28299        0.26268        0.27736        0.28728        0.30951        0.35234        0.36458        0.36250        0.33755        0.35433        0.28378        0.31825        0.26726        0.24612        0.28971        0.28223        0.30975        0.31195        0.33078        0.33292        0.31526        0.31493        0.28599        0.29294        0.26617        0.27901        0.25857        0.30770        0.28513        0.27024        0.30705        0.31371        0.32410        0.28630        0.30356        0.28890        0.25162        0.24387        0.22200        0.28253        0.27577        0.32017        0.31500        0.31827        0.31807        0.31058        0.27628        0.28833        0.32958        0.27180        0.26353        0.29789        0.29298        0.33647        0.33305        0.35447        0.33173        0.30971        0.27994        0.26842        0.25853        0.22918        0.27626        0.30325        0.29417        0.28114        0.29607        0.27553        0.32562        0.31824        0.24816        0.21809        0.28000        0.33025        0.27475        0.31404        0.32550        0.32712        0.30802        0.32257        0.34100        0.30560        0.29764        0.26428        0.28545        0.35942        0.35511        0.26047        0.26489        0.25700        0.29314        0.22250        0.29019        0.22309        0.25014        0.32918        0.32075        0.34095        0.29501        0.24773        0.24272        0.24401        0.23596        0.19712        0.23194        0.26434        0.30856        0.26694        0.30661        0.30962        0.27924        0.27102        0.21158        0.17005        0.19345        0.23518        0.20813        0.21188        0.23030        0.20112        0.23907        0.33935        0.30756        0.31884        0.23562        0.23012        0.22671        0.29137        0.29941        0.13554        0.20933        0.22594        0.11523        0.20410        0.10876        0.14774        0.17033        0.08746       -0.11413       -0.56442
2.611840 2.584487 2.557283 2.530227 2.503320 2.476561 2.449952 2.423490 2.397178 2.371014 2.344999 2.319132 2.293414 2.267845 2.242424 2.217152 2.192029 2.167054 2.142228 2.117551 2.093022 2.068642 2.044410 2.020327 1.996393 1.972608 1.948971 1.925482 1.902143 1.878952 1.855909 1.833016 1.810271 1.787674 1.765226 1.742927 1.720777 1.698775 1.676921 1.655217 1.633661 1.612254 1.590995 1.569885 1.548924 1.528111 1.507447 1.486931 1.466564 1.446346 1.426277 1.647556 2.056117 1.627652 1.139925 0.996041 0.431748 0.816336 0.568899 0.839977 0.782065 0.794247 0.758600 0.715014 0.570935 0.519816 0.492407 0.447362 0.212562 0.385071 0.205344 0.307945 0.242997 0.183453 0.133923 0.010684 0.043287 -0.014798 -0.056161 0.106190 0.208415 0.198576 0.159753 0.328535 0.196467 0.494650 0.582258 0.555071 0.598206 0.878639 0.811958 0.944130 0.890213 0.977303 0.944786 1.080547 1.144196 1.078097 1.122992 0.949082 0.946807 0.782873 0.654799 0.772444 0.707955 0.468136 0.307617 0.252536 0.220658 0.147164 0.089825 0.127712 0.070154 0.143864 0.055258 0.260000 0.376821 0.352027 0.478636 0.578219 0.464758 0.553447 0.700337 0.745756 0.770946 0.737146 0.723221 0.711773 0.628120 0.569788 0.425453 0.285016 0.200846 0.074697 0.125287 -0.049640 -0.028408 -0.082448 -0.043253 -0.001626 0.142836 0.090635 0.294041 0.280377 0.363913 0.459610 0.522197 0.512610 0.515644 0.510503 0.331413 0.308069 0.277237 0.102335 0.042716 -0.015530 -0.028856 -0.044644 -0.094886 -0.108961 -0.010230 0.060058 0.129580 0.145216 0.225687 0.326360 0.309598 0.426744 0.392211 0.280838 0.235139 0.242859 0.194792 0.104920 0.071537 0.012142 0.003936 0.001409 -0.022140 0.062212 0.146549 0.145273 0.232104 0.252499 0.309759 0.249876 0.221055 0.189596 0.210733 0.142156 0.044623 0.035280 -0.007998 -0.010530 -0.034001 0.021098 0.014784 0.171483 0.129294 0.178049 0.239760 0.196706 0.187492 0.200189 0.140268 0.097895 0.059451 0.045534 -0.033033 0.006690 0.025872 0.052233 0.053270 0.083201 0.092896 0.118000 0.144502 0.195451 0.082217 0.101175 0.075507 0.006304 0.009946 0.008289 0.000598 0.021793 0.000218 0.025568 0.069002 0.087131 0.126708 0.054016 0.109449 0.056705 0.011259 0.061190 -0.033974 -0.010239 0.032561 -0.000602 0.061534 0.051536 0.054748 0.070810 0.053905 0.043260 0.024358 0.009403 0.015197 0.006870 -0.015254 0.073999 -0.010932 0.015973 0.057344 0.052237 0.046906 0.045065 0.041492 0.019368 -0.013185 -0.040845 -0.010997 0.023071 0.028020 0.073208 0.059439 0.062303 0.081181 0.066228 0.029219 0.068144 0.087560 0.018983 0.021381 0.065369 0.050462 0.098611 0.105789 0.103893 0.115788 0.065169 0.034267 0.032226 -0.000776 0.001138 0.051921 0.074594 0.038999 0.034794 0.030665 0.022473 0.090426 0.046543 -0.049858 -0.050120 0.032349 0.087872 0.003416 0.028805 0.067386 0.078958 0.034626 0.053234 0.079681 0.038920 0.043545 -0.037508 0.022895 0.124758 0.062080 -0.047980 -0.027190 -0.046729 0.039272 -0.112433 0.031152 -0.101363 -0.034109 0.048551 0.039579 0.018926 -0.038876 -0.054155 -0.073494 -0.079866 -0.063137 -0.098498 -0.092330 -0.028716 0.047097 -0.030650 0.050338 0.003813 -0.035760 0.048531 -0.098725 -0.094338 -0.080913 0.008350 -0.035412 -0.043668 0.017332 0.005173 0.013380 0.201469 0.004944 0.172629 0.046395 0.235300 0.252239 0.330514 0.284723 0.100997 0.212493 0.270292 0.045290 0.226589 0.116218 0.120769 0.237228 0.089150 -0.586453
0.072396 0.072899 0.074406 0.076918 0.080434 0.084953 0.090474 0.096995 0.104514 0.113028 0.122535 0.133028 0.144505 0.156957 0.170377 0.184756 0.200083 0.216345 0.233527 0.251612 0.270580 0.290407 0.311069 0.332535 0.354772 0.377744 0.401409 0.425720 0.450628 0.476076 0.502004 0.528343 0.555023 0.581962 0.609077 0.636276 0.663460 0.690525 0.717358 0.743840 0.769847 0.795245 0.819897 0.843656 0.866372 0.887887 0.908040 0.926664 0.943588 0.958637 0.971637 0.982408 0.990772 0.996553 0.999575 0.999668 0.996664 0.990406 0.980741 0.967531 0.950647 0.929977 0.905424 0.876911 0.844382 0.807803 0.767167 0.722493 0.673833 0.621267 0.564910 0.504915 0.441468 0.374797 0.305167 0.232883 0.158293 0.081783 0.003780 0.075252 0.154808 0.234351 0.313310 0.391085 0.467050 0.540558 0.610947 0.677546 0.739678 0.796674 0.847872 0.892633 0.930346 0.960437 0.982378 0.995698 0.999994 0.994935 0.980277 0.955869 0.921661 0.877713 0.824201 0.761422 0.689797 0.609878 0.522343 0.428000 0.327781 0.222737 0.114031 0.002931 0.109206 0.220950 0.330808 0.437250 0.538727 0.633694 0.720638 0.798098 0.864698 0.919172 0.960392 0.987394 0.999405 0.995866 0.976458 0.941113 0.890038 0.823721 0.742937 0.648754 0.542522 0.425867 0.300669 0.169046 0.033315 0.104038 0.240404 0.373097 0.499408 0.616661 0.722272 0.813808 0.889055 0.946071 0.983249 0.999364 0.993626 0.965717 0.915820 0.844639 0.753406 0.643878 0.518313 0.379440 0.230408 0.074726 0.083815 0.241227 0.393425 0.536334 0.665995 0.778689 0.871047 0.940158 0.983676 0.999913 0.987914 0.947515 0.879386 0.785041 0.666829 0.527896 0.372117 0.204007 0.028598 0.148699 0.322260 0.486418 0.635661 0.764812 0.869230 0.944983 0.989017 0.999294 0.974906 0.916150 0.824563 0.702911 0.555135 0.386252 0.202191 0.009617 0.184310 0.372186 0.546654 0.700696 0.827919 0.922848 0.981173 0.999970 0.977878 0.915202 0.813965 0.677880 0.512246 0.323771 0.120327 0.089361 0.296082 0.490536 0.663756 0.807534 0.914835 0.980156 0.999845 0.972336 0.898290 0.780636 0.624506 0.437041 0.227105 0.004897 0.218540 0.431850 0.623939 0.784576 0.904949 0.978180 0.999758 0.967852 0.883495 0.750611 0.575891 0.368499 0.139627 0.098073 0.331179 0.546253 0.730616 0.873122 0.964864 0.999769 0.975048 0.891462 0.753373 0.568585 0.347950 0.104783 0.145917 0.388370 0.607009 0.787494 0.917671 0.988445 0.994462 0.934563 0.811990 0.634275 0.412846 0.162354 0.100263 0.356900 0.589524 0.781457 0.918606 0.990533 0.991322 0.920124 0.781349 0.584488 0.343523 0.075999 0.198207 0.458348 0.684378 0.858518 0.966700 0.999761 0.954299 0.833080 0.644975 0.404400 0.130277 0.155405 0.429312 0.668676 0.853223 0.966917 0.999430 0.947169 0.813736 0.609797 0.352322 0.063249 0.232334 0.508336 0.739978 0.906040 0.990878 0.985981 0.890909 0.713528 0.469469 0.180853 0.125659 0.421270 0.677755 0.870183 0.979396 0.994007 0.911686 0.739595 0.493894 0.198325 0.118001 0.423408 0.686847 0.881055 0.985457 0.988439 0.888756 0.695882 0.429253 0.116409 0.209756 0.514420 0.764551 0.932534 0.999301 0.956616 0.808214 0.569633 0.266732 0.067016 0.394151 0.677405 0.883984 0.989451 0.980712 0.857790 0.634093 0.335093 0.004434 0.344377 0.644009 0.866871 0.985289 0.983944 0.861988 0.633437 0.325734 0.023415 0.370580 0.671961 0.888967 0.993224 0.970436 0.822492 0.567544 0.237941 0.123710
1.000000 1.000000 1.000000 1.000000 1.000000 1.000000 1.000000 1.000000 1.000000 1.000000 1.000000 1.000000 1.000000 1.000000 1.000000 1.000000 1.000000 1.000000 1.000000 1.000000 1.000000 1.000000 1.000000 1.000000 1.000000 1.000000 1.000000 1.000000 1.000000 1.000000 1.000000 1.000000 1.000000 1.000000 1.000000 1.000000 1.000000 1.000000 1.000000 1.000000 1.000000 1.000000 1.000000 1.000000 1.000000 1.000000 1.000000 1.000000 1.000000 1.000000 1.000000 1.000000 0.931882 0.931882 0.931882 0.922233 0.922233 0.922233 0.922233 0.922233 0.922233 0.922233 0.922233 0.922233 0.922233 0.922233 0.922233 0.922233 0.922233 0.922233 0.922233 0.922233 0.922233 0.922233 0.922233 0.922233 0.922233 0.922233 0.922233 0.922233 0.922233 0.922233 0.922233 0.922233 0.922233 0.922233 0.922233 0.922233 0.922233 0.922233 0.922233 0.922233 0.922233 0.922233 0.922233 0.922233 0.947519 0.948782 0.956695 0.956530 0.956010 0.953899 0.952938 0.951816 0.951349 0.951640 0.952280 0.953156 0.964909 0.965945 0.967490 0.968320 0.969044 0.969705 0.969551 0.970286 0.969520 0.968983 0.968491 0.964583 0.965171 0.965743 0.965890 0.966924 0.966813 0.968812 0.968946 0.968364 0.967500 0.966774 0.966070 0.965655 0.965384 0.965883 0.966174 0.967466 0.970623 0.970075 0.969757 0.969915 0.970020 0.970205 0.970643 0.972325 0.968677 0.969297 0.967689 0.968149 0.969711 0.969612 0.969399 0.970753 0.971110 0.971482 0.969285 0.965159 0.959609 0.958427 0.955317 0.946432 0.944560 0.945458 0.947510 0.947778 0.946677 0.939166 0.939781 0.933457 0.934817 0.938097 0.932859 0.932119 0.933233 0.932208 0.930605 0.930052 0.927342 0.924026 0.922211 0.922074 0.925130 0.925906 0.927060 0.926688 0.921072 0.913051 0.899020 0.894719 0.889470 0.892623 0.880650 0.880004 0.879729 0.875380 0.879142 0.881001 0.881975 0.878004 0.857227 0.834502 0.825047 0.829596 0.835375 0.832102 0.830698 0.823794 0.836034 0.818502 0.831510 0.836605 0.834283 0.834305 0.833284 0.830097 0.823966 0.823842 0.825904 0.827098 0.826338 0.826989 0.823009 0.812932 0.816279 0.753466 0.740008 0.735621 0.741208 0.747460 0.750167 0.749220 0.756419 0.761177 0.751964 0.735184 0.727759 0.720068 0.725379 0.728142 0.731946 0.720266 0.697902 0.690928 0.654433 0.671695 0.694390 0.649789 0.674354 0.685363 0.680553 0.678995 0.671909 0.665446 0.660144 0.663357 0.675666 0.693685 0.713558 0.739448 0.735481 0.726625 0.722973 0.707136 0.701303 0.695968 0.703830 0.685944 0.682045 0.700837 0.701210 0.686953 0.667161 0.652157 0.644323 0.640401 0.643967 0.634321 0.631301 0.616219 0.589365 0.583083 0.618848 0.634053 0.652113 0.628656 0.615562 0.604463 0.575851 0.590180 0.535738 0.535529 0.559613 0.566913 0.544421 0.533127 0.543518 0.557521 0.563315 0.553861 0.528586 0.516635 0.531169 0.561444 0.553148 0.530896 0.536977 0.534637 0.528483 0.459690 0.455092 0.424663 0.393045 0.343288 0.319394 0.313492 0.296733 0.291954 0.259205 0.254801 0.267270 0.276219 0.281524 0.281661 0.262199 0.270934 0.266609 0.253180 0.193160 0.184021 0.177006 0.166677 0.165732 0.149756 0.172628 0.230592 0.232048 0.232048 0.232048 0.232048 0.232048 0.232048 0.238147 0.238147 0.238147 0.238147 0.238147 0.238147 0.238147 0.238147 0.238147 0.247568 0.247568 0.247568 0.247568 0.247568 0.247568 0.247568 0.247568 0.247568 0.247568 0.247568 0.247568 0.247568 0.247568
0.000000 0.000000 0.000000 0.000000 0.000000 0.000000 0.000000 0.000000 0.000000 0.000000 0.000000 0.000000 0.000000 0.000000 0.000000 0.000000 0.000000 0.000000 0.000000 0.000000 0.000000 0.000000 0.000000 0.000000 0.000000 0.000000 0.000000 0.000000 0.000000 0.000000 0.000000 0.000000 0.000000 0.000000 0.000000 0.000000 0.000000 0.000000 0.000000 0.000000 0.000000 0.000000 0.000000 0.000000 0.000000 0.000000 0.000000 0.000000 0.000000 0.000000 0.000000 0.000000 0.180334 0.180334 0.180334 0.199007 0.199007 0.199007 0.199007 0.199007 0.199007 0.199007 0.199007 0.199007 0.199007 0.199007 0.199007 0.199007 0.199007 0.199007 0.199007 0.199007 0.199007 0.199007 0.199007 0.199007 0.199007 0.199007 0.199007 0.199007 0.199007 0.199007 0.199007 0.199007 0.199007 0.199007 0.199007 0.199007 0.199007 0.199007 0.199007 0.199007 0.199007 0.199007 0.199007 0.199007 0.225018 0.225018 0.225018 0.225018 0.225018 0.225018 0.225018 0.225018 0.225018 0.225018 0.225018 0.225018 0.225018 0.225018 0.225018 0.225018 0.225018 0.225018 0.225018 0.225018 0.225018 0.225018 0.225018 0.225018 0.225018 0.225018 0.225018 0.225018 0.225018 0.244339 0.244339 0.244339 0.244339 0.244339 0.244339 0.244339 0.244339 0.244339 0.244339 0.244339 0.244339 0.244339 0.244339 0.244339 0.244339 0.244339 0.244339 0.244339 0.244339 0.244339 0.244339 0.244339 0.251976 0.251976 0.251976 0.251976 0.251976 0.251976 0.251976 0.251976 0.251976 0.251976 0.251976 0.251976 0.251976 0.251976 0.251976 0.251976 0.251976 0.251976 0.251976 0.251976 0.264906 0.264906 0.264906 0.264906 0.264906 0.264906 0.264906 0.264906 0.264906 0.264906 0.264906 0.264906 0.264906 0.264906 0.264906 0.264906 0.264906 0.264906 0.264906 0.264906 0.264906 0.264906 0.264906 0.264906 0.264906 0.264906 0.264906 0.264906 0.264906 0.264906 0.264906 0.264906 0.264906 0.264906 0.264906 0.264906 0.264906 0.264906 0.264906 0.264906 0.264906 0.264906 0.264906 0.264906 0.264906 0.264906 0.264906 0.264906 0.264906 0.264906 0.264906 0.264906 0.264906 0.264906 0.264906 0.264906 0.264906 0.264906 0.264906 0.264906 0.264906 0.264906 0.256074 0.256074 0.256074 0.256074 0.256074 0.256074 0.256074 0.256074 0.256074 0.256074 0.256074 0.256074 0.256074 0.256074 0.269680 0.269680 0.269680 0.269680 0.269680 0.269680 0.269680 0.269680 0.269680 0.269680 0.269680 0.269680 0.264906 0.264906 0.264906 0.264906 0.264906 0.264906 0.264906 0.264906 0.264906 0.264906 0.264906 0.264906 0.269680 0.269680 0.269680 0.269680 0.269680 0.269680 0.269680 0.269680 0.269680 0.269680 0.269680 0.264906 0.264906 0.264906 0.264906 0.264906 0.264906 0.264906 0.264906 0.264906 0.264906 0.264906 0.256074 0.256074 0.256074 0.256074 0.256074 0.256074 0.256074 0.256074 0.256074 0.256074 0.256074 0.264906 0.264906 0.264906 0.264906 0.264906 0.264906 0.264906 0.264906 0.264906 0.264906 0.260378 0.260378 0.260378 0.260378 0.260378 0.260378 0.260378 0.260378 0.260378 0.260378 0.256074 0.256074 0.256074 0.256074 0.256074 0.256074 0.256074 0.256074 0.256074 0.256074 0.260378 0.260378 0.260378 0.260378 0.260378 0.260378 0.260378 0.260378 0.260378 0.256074 0.256074 0.256074 0.256074 0.256074 0.256074 0.256074 0.256074 0.256074 0.251976 0.251976 0.251976 0.251976 0.251976 0.251976 0.251976 0.251976 0.251976 0.251976 0.251976 0.251976 0.251976 0.251976
