# Output from CTFFind version 4.1.9, run on 2019-11-02 17:58:29
# Input file: stack1_bm3d_averaged_1_1.75_0_50_half.mrc ; Number of micrographs: 1
# Pixel size: 3.000 Angstroms ; acceleration voltage: 300.0 keV ; spherical aberration: 0.00 mm ; amplitude contrast: 0.07
# Box size: 512 pixels ; min. res.: 30.0 Angstroms ; max. res.: 5.0 Angstroms ; min. def.: 5000.0 um; max. def. 50000.0 um; num. frames averaged: 1
# 6 lines per micrograph: #1 - spatial frequency (1/Angstroms); #2 - 1D rotational average of spectrum (assuming no astigmatism); #3 - 1D rotational average of spectrum; #4 - CTF fit; #5 - cross-correlation between spectrum and CTF fit; #6 - 2sigma of expected cross correlation of noise
0.000000 0.000651 0.001302 0.001953 0.002604 0.003255 0.003906 0.004557 0.005208 0.005859 0.006510 0.007161 0.007812 0.008464 0.009115 0.009766 0.010417 0.011068 0.011719 0.012370 0.013021 0.013672 0.014323 0.014974 0.015625 0.016276 0.016927 0.017578 0.018229 0.018880 0.019531 0.020182 0.020833 0.021484 0.022135 0.022786 0.023438 0.024089 0.024740 0.025391 0.026042 0.026693 0.027344 0.027995 0.028646 0.029297 0.029948 0.030599 0.031250 0.031901 0.032552 0.033203 0.033854 0.034505 0.035156 0.035807 0.036458 0.037109 0.037760 0.038411 0.039062 0.039714 0.040365 0.041016 0.041667 0.042318 0.042969 0.043620 0.044271 0.044922 0.045573 0.046224 0.046875 0.047526 0.048177 0.048828 0.049479 0.050130 0.050781 0.051432 0.052083 0.052734 0.053385 0.054036 0.054688 0.055339 0.055990 0.056641 0.057292 0.057943 0.058594 0.059245 0.059896 0.060547 0.061198 0.061849 0.062500 0.063151 0.063802 0.064453 0.065104 0.065755 0.066406 0.067057 0.067708 0.068359 0.069010 0.069661 0.070312 0.070964 0.071615 0.072266 0.072917 0.073568 0.074219 0.074870 0.075521 0.076172 0.076823 0.077474 0.078125 0.078776 0.079427 0.080078 0.080729 0.081380 0.082031 0.082682 0.083333 0.083984 0.084635 0.085286 0.085938 0.086589 0.087240 0.087891 0.088542 0.089193 0.089844 0.090495 0.091146 0.091797 0.092448 0.093099 0.093750 0.094401 0.095052 0.095703 0.096354 0.097005 0.097656 0.098307 0.098958 0.099609 0.100260 0.100911 0.101562 0.102214 0.102865 0.103516 0.104167 0.104818 0.105469 0.106120 0.106771 0.107422 0.108073 0.108724 0.109375 0.110026 0.110677 0.111328 0.111979 0.112630 0.113281 0.113932 0.114583 0.115234 0.115885 0.116536 0.117188 0.117839 0.118490 0.119141 0.119792 0.120443 0.121094 0.121745 0.122396 0.123047 0.123698 0.124349 0.125000 0.125651 0.126302 0.126953 0.127604 0.128255 0.128906 0.129557 0.130208 0.130859 0.131510 0.132161 0.132812 0.133464 0.134115 0.134766 0.135417 0.136068 0.136719 0.137370 0.138021 0.138672 0.139323 0.139974 0.140625 0.141276 0.141927 0.142578 0.143229 0.143880 0.144531 0.145182 0.145833 0.146484 0.147135 0.147786 0.148438 0.149089 0.149740 0.150391 0.151042 0.151693 0.152344 0.152995 0.153646 0.154297 0.154948 0.155599 0.156250 0.156901 0.157552 0.158203 0.158854 0.159505 0.160156 0.160807 0.161458 0.162109 0.162760 0.163411 0.164062 0.164714 0.165365 0.166016 0.166667 0.167318 0.167969 0.168620 0.169271 0.169922 0.170573 0.171224 0.171875 0.172526 0.173177 0.173828 0.174479 0.175130 0.175781 0.176432 0.177083 0.177734 0.178385 0.179036 0.179688 0.180339 0.180990 0.181641 0.182292 0.182943 0.183594 0.184245 0.184896 0.185547 0.186198 0.186849 0.187500 0.188151 0.188802 0.189453 0.190104 0.190755 0.191406 0.192057 0.192708 0.193359 0.194010 0.194661 0.195312 0.195964 0.196615 0.197266 0.197917 0.198568 0.199219 0.199870 0.200521 0.201172 0.201823 0.202474 0.203125 0.203776 0.204427 0.205078 0.205729 0.206380 0.207031 0.207682 0.208333 0.208984 0.209635 0.210286 0.210938 0.211589 0.212240 0.212891 0.213542 0.214193 0.214844 0.215495 0.216146 0.216797 0.217448 0.218099 0.218750 0.219401 0.220052 0.220703 0.221354 0.222005 0.222656 0.223307 0.223958 0.224609 0.225260 0.225911 0.226562 0.227214 0.227865 0.228516 0.229167 0.229818 0.230469 0.231120 0.231771 0.232422 0.233073 0.233724 0.234375 0.235026 0.235677
       0.32875        0.32875        0.32875        0.32875        0.32875        0.32875        0.32875        0.32875        0.32875        0.32875        0.32875        0.32875        0.32875        0.32875        0.32875        0.32875        0.32875        0.32875        0.32875        0.32875        0.32875        0.32875        0.32875        0.32875        0.32875        0.32875        0.32875        0.32875        0.32875        0.32875        0.32875        0.32875        0.32875        0.32875        0.32875        0.32875        0.32875        0.32875        0.32875        0.32875        0.32875        0.32875        0.32875        0.32875        0.32875        0.32875        0.32875        0.32875        0.32875        0.32875        0.32875        0.49845        0.71887        0.42371        0.19309       -0.07190       -0.25539       -0.06988       -0.12368       -0.06277       -0.00336       -0.15966       -0.10589       -0.05456       -0.00774       -0.15802       -0.23327       -0.34408       -0.46816       -0.57020       -0.52442       -0.44891       -0.37753       -0.56459       -0.46052       -0.62367       -0.51522       -0.47450       -0.39564       -0.37783       -0.32940       -0.25372       -0.17774       -0.14113        0.02886       -0.01495        0.10916        0.16850        0.30892        0.41966        0.46037        0.50632        0.54794        0.55613        0.68035        0.63263        0.66822        0.58860        0.55842        0.63824        0.51269        0.43244        0.39298        0.30898        0.23155        0.25042        0.24998        0.09095        0.07064        0.00538       -0.00197        0.02810       -0.02447        0.05511        0.09796        0.22417        0.28256        0.27754        0.38125        0.56837        0.53940        0.57027        0.65629        0.70179        0.63155        0.64224        0.63702        0.55001        0.56865        0.39764        0.34536        0.25758        0.18094        0.08174        0.14050        0.10570        0.11082        0.12137        0.20520        0.19539        0.31349        0.34805        0.40485        0.49189        0.55528        0.54537        0.54222        0.59583        0.50579        0.44363        0.47982        0.32494        0.24639        0.25208        0.23961        0.13095        0.13329        0.14937        0.20981        0.23850        0.33500        0.38704        0.40769        0.45675        0.43679        0.48549        0.44565        0.47277        0.44031        0.39206        0.36789        0.36747        0.32659        0.28848        0.20679        0.19486        0.21684        0.26643        0.25416        0.35313        0.38192        0.35257        0.40650        0.45152        0.43603        0.43428        0.44129        0.36579        0.32814        0.29086        0.25020        0.28174        0.24845        0.28605        0.30330        0.32783        0.32233        0.38511        0.37897        0.42240        0.40727        0.45752        0.40196        0.35007        0.27650        0.27768        0.28191        0.26178        0.25604        0.32173        0.34730        0.33018        0.36231        0.36375        0.34596        0.42082        0.39192        0.36613        0.34238        0.29426        0.31156        0.32114        0.31393        0.31290        0.28355        0.32570        0.34362        0.36298        0.34590        0.34007        0.33857        0.34932        0.31930        0.28559        0.31026        0.30544        0.33224        0.31745        0.32519        0.34153        0.31967        0.32123        0.33570        0.30767        0.27091        0.25237        0.25707        0.30770        0.31428        0.36045        0.28421        0.29113        0.31327        0.29013        0.31017        0.28526        0.27611        0.28554        0.28502        0.29404        0.33349        0.31989        0.32152        0.32046        0.33102        0.33528        0.30933        0.31371        0.31995        0.26034        0.28013        0.31967        0.29477        0.30646        0.31571        0.32069        0.32997        0.34829        0.33433        0.28648        0.24197        0.28347        0.33193        0.33788        0.34111        0.31544        0.29840        0.31137        0.31114        0.26875        0.28810        0.30192        0.32710        0.29267        0.27742        0.25394        0.31934        0.32944        0.32579        0.29357        0.29184        0.29798        0.38101        0.33161        0.30195        0.29882        0.28864        0.29480        0.28970        0.30398        0.29894        0.23401        0.27169        0.31090        0.30784        0.29461        0.25256        0.26533        0.22263        0.22135        0.30025        0.29257        0.30076        0.27017        0.27173        0.33139        0.26337        0.22115        0.25616        0.25152        0.26087        0.28332        0.35207        0.24517        0.28834        0.29396        0.22766        0.28371        0.28728        0.24592        0.21067        0.24858        0.20747        0.20982        0.28606        0.25519        0.37695        0.36012        0.26228        0.23476        0.19074        0.27568        0.32621        0.25134        0.20614        0.23329        0.25107        0.19224        0.21063        0.12741       -0.00180       -0.44814       -0.84493
2.578738 2.552061 2.525526 2.499133 2.472882 2.446772 2.420804 2.394978 2.369293 2.343750 2.318349 2.293089 2.267971 2.242995 2.218161 2.193468 2.168916 2.144507 2.120239 2.096113 2.072128 2.048286 2.024585 2.001025 1.977607 1.954331 1.931197 1.908204 1.885353 1.862644 1.840076 1.817650 1.795366 1.773223 1.751222 1.729363 1.707645 1.686069 1.664635 1.643343 1.622192 1.601183 1.580315 1.559589 1.539005 1.518563 1.498262 1.478103 1.458085 1.438210 1.418476 1.485255 1.804553 1.547297 1.096347 0.925909 0.553004 0.885424 0.624210 0.838412 0.899526 0.562356 0.671910 0.753579 0.799003 0.602138 0.499607 0.345125 0.086101 0.053548 0.028499 0.066540 0.291966 -0.059364 0.052294 -0.137764 -0.033284 -0.018991 0.069354 0.059178 0.122369 0.175184 0.261251 0.242359 0.478255 0.399291 0.539712 0.536244 0.774599 0.795135 0.880411 0.950767 0.935547 0.975922 1.083910 1.004161 1.121609 0.947461 0.873806 1.010916 0.844334 0.762941 0.655298 0.590603 0.486100 0.414646 0.518286 0.270713 0.198252 0.185133 0.037306 0.218761 -0.002310 0.116502 0.184657 0.283256 0.357732 0.347516 0.440037 0.569936 0.692760 0.552102 0.766862 0.836931 0.667414 0.736352 0.696993 0.621409 0.556764 0.490985 0.329531 0.223920 0.152312 0.000476 0.003481 0.066757 -0.043060 -0.024089 0.100649 0.064651 0.121908 0.251675 0.253737 0.351596 0.436974 0.495863 0.434730 0.456140 0.452629 0.295234 0.350273 0.254336 0.058259 0.074728 0.032047 -0.042106 -0.099159 -0.086161 -0.008714 -0.041976 0.085116 0.162498 0.176061 0.273812 0.215464 0.291055 0.319497 0.242396 0.250887 0.232377 0.161078 0.129310 0.138397 0.043358 0.033374 -0.107184 -0.038933 0.015606 0.016213 0.021846 0.141335 0.096295 0.157367 0.191342 0.249385 0.173204 0.233364 0.120458 0.145881 0.039014 -0.013899 0.001827 -0.000627 -0.019056 0.018526 0.044780 0.051464 0.069562 0.139406 0.125433 0.184137 0.127844 0.222253 0.100009 0.023974 -0.012895 -0.014765 -0.011060 -0.046879 -0.010875 0.071596 0.084164 0.001559 0.142606 0.095480 0.096647 0.181773 0.092951 0.111310 0.064511 -0.000889 0.065262 0.033449 0.041317 0.055151 0.013636 0.066204 0.049114 0.098145 0.068315 0.066282 0.035145 0.082457 0.024906 -0.010067 0.043022 0.012082 0.078044 0.037486 0.064193 0.029192 0.055256 0.025244 0.058226 0.011976 -0.027547 -0.034145 -0.023599 0.020677 0.051977 0.101888 -0.012019 0.034165 0.059566 0.000311 0.063623 0.018087 0.013199 0.031963 0.040185 0.031863 0.090341 0.051026 0.064270 0.075099 0.139940 0.061499 0.078182 0.092366 0.042653 0.000518 0.046945 0.078501 0.053517 0.058664 0.059418 0.063584 0.110452 0.098791 0.052540 0.042789 -0.054311 0.037301 0.109007 0.056030 0.101430 0.026275 0.033846 0.036943 0.044043 -0.044168 0.031298 0.039956 0.065416 0.030428 -0.026142 -0.017964 0.010306 0.043691 0.022062 0.003313 -0.016805 0.021413 0.101465 0.023782 -0.016787 0.010932 0.008242 -0.000214 -0.007850 0.034854 0.001031 -0.078102 0.002430 0.019219 0.033642 0.032713 -0.018520 0.004858 -0.048899 -0.024306 0.004499 0.064956 0.032345 0.014951 -0.003715 0.122643 -0.051038 -0.050745 -0.009914 -0.068297 0.036095 -0.009454 0.118818 -0.017325 -0.073425 0.056158 -0.073628 -0.018876 0.019435 -0.089578 -0.106852 -0.045746 -0.118960 -0.014166 -0.041226 -0.063307 0.141292 0.070233 -0.021352 -0.077076 -0.085377 -0.056789 0.364283 0.276429 0.233551 0.285067 0.289135 0.227981 0.244755 0.118273 0.098955 -0.353062
0.072396 0.072912 0.074460 0.077040 0.080651 0.085293 0.090963 0.097660 0.105382 0.114126 0.123888 0.134664 0.146447 0.159232 0.173010 0.187770 0.203502 0.220191 0.237821 0.256373 0.275827 0.296157 0.317335 0.339330 0.362105 0.385622 0.409835 0.434695 0.460147 0.486131 0.512581 0.539425 0.566584 0.593975 0.621504 0.649074 0.676580 0.703907 0.730937 0.757542 0.783588 0.808934 0.833430 0.856924 0.879253 0.900252 0.919748 0.937565 0.953524 0.967441 0.979133 0.988412 0.995095 0.998999 0.999944 0.997755 0.992264 0.983313 0.970752 0.954447 0.934275 0.910134 0.881938 0.849624 0.813155 0.772519 0.727732 0.678842 0.625932 0.569117 0.508552 0.444431 0.376985 0.306492 0.233268 0.157672 0.080108 0.001020 0.079106 0.159745 0.240335 0.320279 0.398951 0.475697 0.549842 0.620695 0.687555 0.749721 0.806494 0.857192 0.901152 0.937746 0.966386 0.986536 0.997722 0.999541 0.991675 0.973894 0.946073 0.908193 0.860357 0.802788 0.735842 0.660006 0.575904 0.484295 0.386072 0.282258 0.174000 0.062557 0.050708 0.164342 0.276825 0.386580 0.492002 0.591477 0.683412 0.766259 0.838544 0.898897 0.946083 0.979028 0.996848 0.998878 0.984695 0.954136 0.907324 0.844673 0.766901 0.675031 0.570390 0.454596 0.329546 0.197388 0.060489 0.078594 0.217167 0.352444 0.481607 0.601860 0.710497 0.804964 0.882927 0.942335 0.981483 0.999067 0.994239 0.966643 0.916453 0.844395 0.751749 0.640347 0.512552 0.371221 0.219653 0.061520 0.099213 0.258380 0.411729 0.555022 0.684170 0.795344 0.885105 0.950518 0.989261 0.999722 0.981077 0.933347 0.857439 0.755149 0.629149 0.482931 0.320735 0.147437 0.031583 0.210599 0.383719 0.545084 0.689062 0.810458 0.904713 0.968095 0.997860 0.992391 0.951305 0.875512 0.767229 0.629952 0.468364 0.288202 0.096077 0.100760 0.294685 0.477980 0.643159 0.783273 0.892224 0.965045 0.998154 0.989555 0.938984 0.847977 0.719869 0.559711 0.374097 0.170933 0.040895 0.251882 0.452331 0.632799 0.784560 0.900032 0.973194 0.999926 0.978275 0.908621 0.793743 0.638750 0.450898 0.239289 0.014460 0.212122 0.428639 0.623541 0.786163 0.907344 0.979968 0.999425 0.963938 0.874758 0.736183 0.555411 0.342208 0.108427 0.132629 0.366940 0.580586 0.760585 0.895705 0.977201 0.999425 0.960269 0.861403 0.708273 0.509874 0.278270 0.027909 0.225253 0.464752 0.674687 0.840799 0.951482 0.998623 0.978273 0.891027 0.742105 0.541129 0.301546 0.039801 0.225758 0.476167 0.693185 0.860645 0.965722 0.999949 0.959979 0.847971 0.671575 0.443486 0.180602 0.097167 0.368387 0.611745 0.807728 0.940244 0.997994 0.975508 0.873749 0.700188 0.468353 0.196863 0.092019 0.374155 0.625568 0.824473 0.953219 0.999933 0.959688 0.835114 0.636349 0.380316 0.089363 0.210614 0.492470 0.730249 0.901610 0.990007 0.986357 0.890083 0.709362 0.460557 0.166838 0.143915 0.441697 0.697280 0.885114 0.985941 0.988870 0.892662 0.706071 0.447184 0.141785 0.179151 0.482534 0.736583 0.914187 0.995883 0.972097 0.844382 0.625505 0.338303 0.013409 0.313928 0.607650 0.834875 0.969639 0.995968 0.909907 0.720214 0.447645 0.122801 0.217192 0.532899 0.787133 0.949394 0.999644 0.930901 0.750364 0.478825 0.148435 0.201004 0.526757 0.788410 0.952909 0.998877 0.919519 0.723792 0.435568 0.090902 0.266400 0.590251 0.838280 0.977424 0.988481 0.868918 0.633542 0.312853 0.050741 0.408452 0.711612 0.918335 0.999427 0.942656
1.000000 1.000000 1.000000 1.000000 1.000000 1.000000 1.000000 1.000000 1.000000 1.000000 1.000000 1.000000 1.000000 1.000000 1.000000 1.000000 1.000000 1.000000 1.000000 1.000000 1.000000 1.000000 1.000000 1.000000 1.000000 1.000000 1.000000 1.000000 1.000000 1.000000 1.000000 1.000000 1.000000 1.000000 1.000000 1.000000 1.000000 1.000000 1.000000 1.000000 1.000000 1.000000 1.000000 1.000000 1.000000 1.000000 1.000000 1.000000 1.000000 1.000000 1.000000 1.000000 0.906468 0.906468 0.898608 0.898608 0.898608 0.898608 0.898608 0.898608 0.898608 0.898608 0.898608 0.898608 0.898608 0.898608 0.898608 0.898608 0.898608 0.898608 0.898608 0.898608 0.898608 0.898608 0.898608 0.898608 0.898608 0.898608 0.898608 0.898608 0.898608 0.898608 0.898608 0.898608 0.898608 0.898608 0.898608 0.898608 0.898608 0.898608 0.898608 0.898608 0.898608 0.898608 0.898608 0.898108 0.902555 0.904400 0.896637 0.900958 0.900672 0.897672 0.897780 0.897496 0.898082 0.900393 0.910662 0.921316 0.932101 0.932364 0.937891 0.941413 0.943663 0.943508 0.944912 0.954314 0.951912 0.951602 0.953227 0.954032 0.955268 0.951337 0.952328 0.956139 0.955874 0.951284 0.950359 0.948850 0.947655 0.947210 0.946962 0.940505 0.941293 0.941992 0.942238 0.942057 0.942022 0.941946 0.940950 0.940436 0.944322 0.946319 0.946259 0.944549 0.941567 0.950206 0.950783 0.950878 0.950780 0.950704 0.950432 0.950314 0.937767 0.932973 0.932447 0.930577 0.926551 0.924620 0.921996 0.923481 0.927261 0.930589 0.929075 0.914531 0.897625 0.876453 0.862826 0.835403 0.827754 0.825592 0.827361 0.826866 0.819244 0.817630 0.817717 0.820309 0.821642 0.822546 0.812438 0.798257 0.792569 0.785922 0.752605 0.783030 0.736477 0.734231 0.726369 0.732862 0.729119 0.731942 0.725135 0.720965 0.730004 0.725125 0.718900 0.706300 0.690789 0.652477 0.654405 0.653787 0.661204 0.670847 0.663755 0.646333 0.600612 0.597968 0.618578 0.614674 0.611183 0.604980 0.589352 0.594747 0.582865 0.579177 0.569326 0.588529 0.581842 0.558147 0.539431 0.540531 0.564998 0.585151 0.593829 0.606698 0.620063 0.578507 0.562411 0.535309 0.532159 0.530860 0.519382 0.518837 0.521997 0.508608 0.497893 0.483170 0.470338 0.478134 0.479053 0.480036 0.473413 0.500661 0.530938 0.519059 0.516541 0.510431 0.513536 0.521349 0.535860 0.529234 0.491864 0.471705 0.493416 0.527660 0.512512 0.524991 0.511071 0.494679 0.498797 0.546019 0.544787 0.523511 0.530196 0.524707 0.437257 0.439465 0.414785 0.363228 0.355424 0.347937 0.351058 0.347998 0.368853 0.364627 0.338176 0.318665 0.249933 0.223693 0.240727 0.240676 0.276739 0.291433 0.260423 0.278612 0.309633 0.303178 0.288610 0.265217 0.275504 0.282777 0.258748 0.256850 0.256568 0.251161 0.258547 0.225295 0.228529 0.206214 0.212743 0.134458 0.114766 0.124078 0.176099 0.182176 0.184250 0.187102 0.160975 0.155411 0.144713 0.147690 0.130014 0.113950 0.123309 0.122432 0.086933 0.057280 0.040170 0.021157 0.016931 -0.023551 -0.027273 0.001689 0.018536 0.002411 0.027971 0.089966 0.095567 0.092444 0.065277 0.067590 0.063301 0.012683 -0.016938 -0.036179 -0.052699 -0.026050 -0.026050 -0.026050 -0.026050 -0.026050 -0.026050 -0.026050 -0.026050 -0.026050 -0.022126 -0.022126 -0.022126 -0.022126 -0.022126 -0.022126 -0.022126 -0.022126 -0.022126 -0.022217 -0.022217 -0.022217 -0.022217 -0.022217 -0.022217 -0.022217 -0.022217 -0.022217 -0.022217
0.000000 0.000000 0.000000 0.000000 0.000000 0.000000 0.000000 0.000000 0.000000 0.000000 0.000000 0.000000 0.000000 0.000000 0.000000 0.000000 0.000000 0.000000 0.000000 0.000000 0.000000 0.000000 0.000000 0.000000 0.000000 0.000000 0.000000 0.000000 0.000000 0.000000 0.000000 0.000000 0.000000 0.000000 0.000000 0.000000 0.000000 0.000000 0.000000 0.000000 0.000000 0.000000 0.000000 0.000000 0.000000 0.000000 0.000000 0.000000 0.000000 0.000000 0.000000 0.000000 0.181818 0.181818 0.199007 0.199007 0.199007 0.199007 0.199007 0.199007 0.199007 0.199007 0.199007 0.199007 0.199007 0.199007 0.199007 0.199007 0.199007 0.199007 0.199007 0.199007 0.199007 0.199007 0.199007 0.199007 0.199007 0.199007 0.199007 0.199007 0.199007 0.199007 0.199007 0.199007 0.199007 0.199007 0.199007 0.199007 0.199007 0.199007 0.199007 0.199007 0.199007 0.199007 0.199007 0.230940 0.230940 0.230940 0.230940 0.230940 0.230940 0.230940 0.230940 0.230940 0.230940 0.230940 0.230940 0.230940 0.230940 0.230940 0.230940 0.230940 0.230940 0.230940 0.230940 0.230940 0.230940 0.230940 0.230940 0.230940 0.230940 0.230940 0.230940 0.244339 0.244339 0.244339 0.244339 0.244339 0.244339 0.244339 0.244339 0.244339 0.244339 0.244339 0.244339 0.244339 0.244339 0.244339 0.244339 0.244339 0.244339 0.244339 0.244339 0.244339 0.244339 0.244339 0.256074 0.256074 0.256074 0.256074 0.256074 0.256074 0.256074 0.256074 0.256074 0.256074 0.256074 0.256074 0.256074 0.256074 0.256074 0.256074 0.256074 0.256074 0.256074 0.256074 0.256074 0.256074 0.256074 0.256074 0.256074 0.256074 0.256074 0.256074 0.256074 0.256074 0.256074 0.256074 0.256074 0.256074 0.256074 0.256074 0.256074 0.264906 0.264906 0.264906 0.264906 0.264906 0.264906 0.264906 0.264906 0.264906 0.264906 0.264906 0.264906 0.264906 0.264906 0.264906 0.264906 0.264906 0.264906 0.264906 0.264906 0.264906 0.264906 0.264906 0.264906 0.264906 0.264906 0.264906 0.264906 0.264906 0.264906 0.264906 0.274721 0.274721 0.274721 0.274721 0.274721 0.274721 0.274721 0.274721 0.274721 0.274721 0.274721 0.274721 0.274721 0.264906 0.264906 0.264906 0.264906 0.264906 0.264906 0.264906 0.264906 0.264906 0.264906 0.264906 0.264906 0.264906 0.260378 0.260378 0.260378 0.260378 0.260378 0.260378 0.260378 0.260378 0.260378 0.260378 0.260378 0.260378 0.260378 0.274721 0.274721 0.274721 0.274721 0.274721 0.274721 0.274721 0.274721 0.274721 0.274721 0.274721 0.260378 0.260378 0.260378 0.260378 0.260378 0.260378 0.260378 0.260378 0.260378 0.260378 0.260378 0.260378 0.264906 0.264906 0.264906 0.264906 0.264906 0.264906 0.264906 0.264906 0.264906 0.264906 0.264906 0.269680 0.269680 0.269680 0.269680 0.269680 0.269680 0.269680 0.269680 0.269680 0.269680 0.264906 0.264906 0.264906 0.264906 0.264906 0.264906 0.264906 0.264906 0.264906 0.264906 0.260378 0.260378 0.260378 0.260378 0.260378 0.260378 0.260378 0.260378 0.260378 0.260378 0.264906 0.264906 0.264906 0.264906 0.264906 0.264906 0.264906 0.264906 0.264906 0.260378 0.260378 0.260378 0.260378 0.260378 0.260378 0.260378 0.260378 0.260378 0.256074 0.256074 0.256074 0.256074 0.256074 0.256074 0.256074 0.256074 0.256074 0.251976 0.251976 0.251976 0.251976 0.251976 0.251976 0.251976 0.251976 0.251976 0.248069 0.248069 0.248069 0.248069 0.248069 0.248069 0.248069 0.248069 0.248069 0.248069
