# Output from CTFFind version 4.1.9, run on 2019-11-03 19:44:51
# Input file: stack1_bm3d_averaged_1_5.25_0_250_half.mrc ; Number of micrographs: 1
# Pixel size: 3.000 Angstroms ; acceleration voltage: 300.0 keV ; spherical aberration: 0.00 mm ; amplitude contrast: 0.07
# Box size: 512 pixels ; min. res.: 30.0 Angstroms ; max. res.: 5.0 Angstroms ; min. def.: 5000.0 um; max. def. 50000.0 um; num. frames averaged: 1
# 6 lines per micrograph: #1 - spatial frequency (1/Angstroms); #2 - 1D rotational average of spectrum (assuming no astigmatism); #3 - 1D rotational average of spectrum; #4 - CTF fit; #5 - cross-correlation between spectrum and CTF fit; #6 - 2sigma of expected cross correlation of noise
0.000000 0.000651 0.001302 0.001953 0.002604 0.003255 0.003906 0.004557 0.005208 0.005859 0.006510 0.007161 0.007812 0.008464 0.009115 0.009766 0.010417 0.011068 0.011719 0.012370 0.013021 0.013672 0.014323 0.014974 0.015625 0.016276 0.016927 0.017578 0.018229 0.018880 0.019531 0.020182 0.020833 0.021484 0.022135 0.022786 0.023438 0.024089 0.024740 0.025391 0.026042 0.026693 0.027344 0.027995 0.028646 0.029297 0.029948 0.030599 0.031250 0.031901 0.032552 0.033203 0.033854 0.034505 0.035156 0.035807 0.036458 0.037109 0.037760 0.038411 0.039062 0.039714 0.040365 0.041016 0.041667 0.042318 0.042969 0.043620 0.044271 0.044922 0.045573 0.046224 0.046875 0.047526 0.048177 0.048828 0.049479 0.050130 0.050781 0.051432 0.052083 0.052734 0.053385 0.054036 0.054688 0.055339 0.055990 0.056641 0.057292 0.057943 0.058594 0.059245 0.059896 0.060547 0.061198 0.061849 0.062500 0.063151 0.063802 0.064453 0.065104 0.065755 0.066406 0.067057 0.067708 0.068359 0.069010 0.069661 0.070312 0.070964 0.071615 0.072266 0.072917 0.073568 0.074219 0.074870 0.075521 0.076172 0.076823 0.077474 0.078125 0.078776 0.079427 0.080078 0.080729 0.081380 0.082031 0.082682 0.083333 0.083984 0.084635 0.085286 0.085938 0.086589 0.087240 0.087891 0.088542 0.089193 0.089844 0.090495 0.091146 0.091797 0.092448 0.093099 0.093750 0.094401 0.095052 0.095703 0.096354 0.097005 0.097656 0.098307 0.098958 0.099609 0.100260 0.100911 0.101562 0.102214 0.102865 0.103516 0.104167 0.104818 0.105469 0.106120 0.106771 0.107422 0.108073 0.108724 0.109375 0.110026 0.110677 0.111328 0.111979 0.112630 0.113281 0.113932 0.114583 0.115234 0.115885 0.116536 0.117188 0.117839 0.118490 0.119141 0.119792 0.120443 0.121094 0.121745 0.122396 0.123047 0.123698 0.124349 0.125000 0.125651 0.126302 0.126953 0.127604 0.128255 0.128906 0.129557 0.130208 0.130859 0.131510 0.132161 0.132812 0.133464 0.134115 0.134766 0.135417 0.136068 0.136719 0.137370 0.138021 0.138672 0.139323 0.139974 0.140625 0.141276 0.141927 0.142578 0.143229 0.143880 0.144531 0.145182 0.145833 0.146484 0.147135 0.147786 0.148438 0.149089 0.149740 0.150391 0.151042 0.151693 0.152344 0.152995 0.153646 0.154297 0.154948 0.155599 0.156250 0.156901 0.157552 0.158203 0.158854 0.159505 0.160156 0.160807 0.161458 0.162109 0.162760 0.163411 0.164062 0.164714 0.165365 0.166016 0.166667 0.167318 0.167969 0.168620 0.169271 0.169922 0.170573 0.171224 0.171875 0.172526 0.173177 0.173828 0.174479 0.175130 0.175781 0.176432 0.177083 0.177734 0.178385 0.179036 0.179688 0.180339 0.180990 0.181641 0.182292 0.182943 0.183594 0.184245 0.184896 0.185547 0.186198 0.186849 0.187500 0.188151 0.188802 0.189453 0.190104 0.190755 0.191406 0.192057 0.192708 0.193359 0.194010 0.194661 0.195312 0.195964 0.196615 0.197266 0.197917 0.198568 0.199219 0.199870 0.200521 0.201172 0.201823 0.202474 0.203125 0.203776 0.204427 0.205078 0.205729 0.206380 0.207031 0.207682 0.208333 0.208984 0.209635 0.210286 0.210938 0.211589 0.212240 0.212891 0.213542 0.214193 0.214844 0.215495 0.216146 0.216797 0.217448 0.218099 0.218750 0.219401 0.220052 0.220703 0.221354 0.222005 0.222656 0.223307 0.223958 0.224609 0.225260 0.225911 0.226562 0.227214 0.227865 0.228516 0.229167 0.229818 0.230469 0.231120 0.231771 0.232422 0.233073 0.233724 0.234375 0.235026 0.235677
       0.34868        0.34868        0.34868        0.34868        0.34868        0.34868        0.34868        0.34868        0.34868        0.34868        0.34868        0.34868        0.34868        0.34868        0.34868        0.34868        0.34868        0.34868        0.34868        0.34868        0.34868        0.34868        0.34868        0.34868        0.34868        0.34868        0.34868        0.34868        0.34868        0.34868        0.34868        0.34868        0.34868        0.34868        0.34868        0.34868        0.34868        0.34868        0.34868        0.34868        0.34868        0.34868        0.34868        0.34868        0.34868        0.34868        0.34868        0.34868        0.34868        0.34868        0.34868        0.40383        0.59225        0.27857        0.12445       -0.01526       -0.26870       -0.09599       -0.17515       -0.20662        0.01371       -0.13328       -0.11054       -0.05988       -0.04176       -0.13051       -0.15955       -0.29692       -0.39934       -0.50489       -0.44463       -0.34717       -0.27361       -0.39659       -0.30637       -0.40217       -0.33875       -0.38553       -0.20532       -0.20259       -0.25678       -0.09087       -0.04418       -0.05028        0.07949        0.02832        0.20409        0.21926        0.33456        0.36736        0.44971        0.48413        0.54018        0.60011        0.66195        0.56464        0.52596        0.50671        0.48397        0.56823        0.48050        0.42519        0.40426        0.32928        0.28624        0.30781        0.32197        0.21897        0.18621        0.09258        0.12880        0.13142        0.15845        0.12758        0.19006        0.24014        0.30424        0.29502        0.33153        0.46119        0.41959        0.48342        0.62960        0.61984        0.55159        0.55116        0.57530        0.42213        0.48066        0.37142        0.31491        0.28854        0.24863        0.24967        0.19333        0.17034        0.14980        0.22067        0.24686        0.27230        0.33948        0.32783        0.40696        0.47248        0.47117        0.45128        0.47900        0.54650        0.48991        0.47479        0.42361        0.35230        0.33946        0.26887        0.29749        0.23473        0.22114        0.28091        0.23289        0.25409        0.31929        0.41310        0.41186        0.44211        0.42524        0.50362        0.49885        0.47069        0.43754        0.39121        0.38037        0.39133        0.40009        0.33964        0.28232        0.31266        0.29028        0.29758        0.29786        0.34136        0.37526        0.39443        0.45148        0.48324        0.40348        0.42803        0.42727        0.39812        0.32692        0.36892        0.32348        0.31742        0.33240        0.28784        0.25732        0.32209        0.34142        0.41671        0.42462        0.41160        0.40494        0.39615        0.37156        0.37086        0.31227        0.31953        0.34783        0.30126        0.31004        0.32587        0.34666        0.34776        0.35123        0.38580        0.38612        0.45998        0.39599        0.34230        0.35869        0.34365        0.33348        0.32912        0.33332        0.37274        0.33468        0.35298        0.34835        0.41358        0.37491        0.35940        0.38316        0.37928        0.35887        0.33739        0.33026        0.30714        0.35166        0.33154        0.31004        0.32552        0.36013        0.34992        0.33785        0.33559        0.30505        0.29946        0.27964        0.31543        0.33432        0.34877        0.33310        0.32521        0.37137        0.33344        0.33760        0.32471        0.29860        0.33658        0.31348        0.31543        0.34077        0.32566        0.31603        0.29791        0.34249        0.36842        0.32583        0.31306        0.31603        0.32006        0.29738        0.34902        0.32353        0.28517        0.33886        0.29984        0.34287        0.35061        0.37191        0.31629        0.31055        0.26498        0.33342        0.36196        0.34369        0.31572        0.31141        0.32895        0.32346        0.29250        0.31800        0.32072        0.31684        0.30141        0.29460        0.29733        0.29248        0.29607        0.31894        0.27335        0.30520        0.35795        0.36594        0.34278        0.31329        0.32888        0.28305        0.30635        0.29231        0.33004        0.33652        0.26985        0.26079        0.31742        0.33124        0.32492        0.28614        0.30050        0.32583        0.29116        0.30357        0.32942        0.33382        0.28104        0.25439        0.29908        0.33791        0.28555        0.25755        0.28476        0.27358        0.30832        0.36261        0.30586        0.33281        0.27874        0.26014        0.29412        0.28957        0.23262        0.25623        0.28187        0.24871        0.21401        0.26250        0.30233        0.39539        0.29705        0.25140        0.20210        0.23086        0.25757        0.24303        0.35049        0.22572        0.16571        0.30398        0.40036        0.29859        0.12425        0.08676       -0.56187       -1.11969
2.356844 2.333091 2.309461 2.285954 2.262570 2.239309 2.216171 2.193155 2.170263 2.147493 2.124847 2.102323 2.079923 2.057645 2.035490 2.013458 1.991549 1.969763 1.948100 1.926559 1.905142 1.883848 1.862676 1.841628 1.820702 1.799900 1.779220 1.758663 1.738229 1.717918 1.697730 1.677665 1.657723 1.637903 1.618207 1.598634 1.579183 1.559855 1.540651 1.521569 1.502610 1.483774 1.465061 1.446471 1.428004 1.409660 1.391439 1.373340 1.355365 1.337512 1.319783 1.286936 1.701351 1.411709 0.954373 0.679096 0.028796 0.593664 0.164176 0.333480 0.603621 0.379174 0.274230 0.479217 0.419100 0.337487 0.235125 0.023320 -0.220301 -0.366426 -0.350898 -0.313821 0.131861 -0.357481 -0.157303 -0.294244 -0.211500 -0.349688 -0.037737 -0.068092 -0.159785 0.058255 0.199729 0.083230 0.317593 0.227215 0.565342 0.444879 0.730428 0.686496 0.811734 1.006950 0.897577 1.128222 1.150384 1.099244 0.898865 0.887186 0.877156 0.907762 0.865692 0.740881 0.620365 0.566463 0.481153 0.443796 0.490763 0.332195 0.274707 0.108044 0.071554 0.117560 0.152769 0.078615 0.125816 0.230305 0.334562 0.333591 0.408083 0.431403 0.587890 0.405193 0.802949 0.853195 0.713414 0.667114 0.742117 0.495418 0.473095 0.449874 0.230668 0.245039 0.078673 0.187486 -0.005466 0.013088 -0.072989 -0.050836 0.142116 0.049473 0.150013 0.221486 0.262024 0.360498 0.434436 0.372327 0.391484 0.474649 0.462064 0.410880 0.350645 0.245329 0.190663 0.102552 0.025652 0.038001 -0.086844 0.038860 0.043149 -0.068148 -0.020713 0.169396 0.320986 0.217386 0.320672 0.288775 0.473881 0.317339 0.313539 0.305952 0.176629 0.122066 0.332236 0.074823 0.084497 0.008640 0.084710 -0.008680 0.094757 -0.007315 0.189388 0.059051 0.227523 0.301217 0.292676 0.144041 0.218661 0.187628 0.101774 0.091416 0.089097 0.001172 0.020571 0.053633 -0.103296 -0.081138 0.050968 0.057409 0.246813 0.135324 0.168862 0.080069 0.111397 0.049805 0.031148 -0.074186 0.002101 0.000764 -0.076781 -0.028877 -0.006390 0.028461 -0.026613 0.032274 0.079423 0.101203 0.241000 0.004144 0.032488 0.029021 -0.023507 -0.001864 -0.019748 0.020627 0.085105 -0.037697 0.017564 0.041835 0.158533 0.024201 0.042189 0.097933 0.024550 0.047995 -0.020445 -0.001096 -0.041007 0.030906 -0.014689 -0.036211 -0.019179 0.069460 -0.022965 0.017414 -0.020996 -0.061395 -0.060647 -0.093844 -0.019770 0.015068 0.042304 -0.022616 -0.006703 0.081760 -0.006764 0.044378 -0.017886 -0.025843 0.032513 -0.032637 0.027742 0.045351 0.022118 -0.012956 -0.021726 0.088104 0.069387 0.028672 0.010596 0.044112 -0.018684 0.028289 0.083849 0.025145 -0.011265 0.076933 0.035876 0.024887 0.056650 0.089459 0.028121 -0.027072 -0.088569 0.064009 0.119958 0.005637 0.015653 -0.007358 0.120907 -0.024270 -0.042623 0.032807 0.047361 0.014705 -0.010120 -0.049738 0.013515 -0.050692 -0.005919 -0.011854 -0.096722 0.038793 0.096918 0.104247 0.023051 0.014771 -0.006078 -0.029946 -0.031735 -0.024448 0.013952 0.034815 -0.116857 -0.096436 0.007756 0.008142 0.029830 -0.068507 -0.059688 -0.029659 -0.047382 -0.075072 0.065105 -0.011883 -0.042877 -0.119586 -0.031311 0.053757 -0.066506 -0.043790 -0.021284 0.023472 0.055746 0.143946 0.013630 0.084339 0.080377 -0.164763 0.092276 -0.004457 -0.050740 -0.015461 0.071483 0.013673 -0.042306 0.019972 0.102272 0.229772 0.023836 0.101763 -0.134704 -0.000401 0.106362 -0.001767 0.249930 0.335494 0.272481 0.592653 0.730139 0.339316 0.082469 0.150288 -1.839688
0.072396 0.072906 0.074434 0.076981 0.080546 0.085128 0.090726 0.097338 0.104962 0.113594 0.123233 0.133872 0.145507 0.158130 0.171735 0.186311 0.201847 0.218329 0.235742 0.254068 0.273287 0.293374 0.314302 0.336042 0.358557 0.381811 0.405759 0.430355 0.455544 0.481270 0.507469 0.534070 0.561000 0.588174 0.615506 0.642900 0.670253 0.697458 0.724397 0.750948 0.776981 0.802358 0.826937 0.850567 0.873092 0.894350 0.914174 0.932393 0.948830 0.963307 0.975645 0.985659 0.993171 0.997997 0.999963 0.998893 0.994622 0.986989 0.975846 0.961053 0.942486 0.920038 0.893617 0.863153 0.828599 0.789932 0.747156 0.700307 0.649449 0.594682 0.536141 0.473998 0.408464 0.339791 0.268269 0.194233 0.118058 0.040160 0.039005 0.118939 0.199110 0.278950 0.357858 0.435206 0.510342 0.582596 0.651287 0.715724 0.775219 0.829095 0.876688 0.917362 0.950515 0.975592 0.992090 0.999571 0.997670 0.986110 0.964702 0.933361 0.892114 0.841102 0.780590 0.710973 0.632774 0.546650 0.453389 0.353910 0.249255 0.140584 0.029166 0.083635 0.196373 0.307537 0.415572 0.518898 0.615936 0.705130 0.784978 0.854058 0.911055 0.954791 0.984253 0.998620 0.997289 0.979896 0.946338 0.896789 0.831713 0.751868 0.658313 0.552397 0.435756 0.310289 0.178138 0.041658 0.096626 0.234054 0.367886 0.495358 0.613733 0.720369 0.812782 0.888704 0.946151 0.983479 0.999444 0.993242 0.964558 0.913593 0.841083 0.748310 0.637090 0.509755 0.369120 0.218427 0.061282 0.098422 0.256604 0.409087 0.551717 0.680476 0.791600 0.881702 0.947879 0.987824 0.999917 0.983300 0.937940 0.864662 0.765162 0.641985 0.498490 0.338765 0.167539 0.009963 0.188150 0.361258 0.523519 0.669368 0.793635 0.891744 0.959897 0.995232 0.995971 0.961522 0.892545 0.790975 0.660003 0.504001 0.328395 0.139505 0.055673 0.249717 0.435052 0.604250 0.750340 0.867099 0.949345 0.993182 0.996218 0.957710 0.878663 0.761841 0.611713 0.434316 0.237032 0.028315 0.182661 0.386401 0.573508 0.735131 0.863394 0.951808 0.995625 0.992124 0.940813 0.843525 0.704404 0.529772 0.327881 0.108550 0.117282 0.338093 0.542366 0.719187 0.858858 0.953445 0.997271 0.987294 0.923354 0.808273 0.647790 0.450321 0.226563 0.011051 0.249024 0.473548 0.671313 0.830311 0.940594 0.994935 0.989353 0.923445 0.800524 0.627511 0.414611 0.174752 0.077149 0.325112 0.553080 0.745979 0.890740 0.977224 0.998980 0.953783 0.843910 0.676097 0.461204 0.213572 0.049893 0.310840 0.550750 0.752250 0.900405 0.983872 0.995823 0.934579 0.803858 0.612655 0.374684 0.107466 0.168914 0.433303 0.665079 0.845805 0.960714 0.999999 0.959715 0.842242 0.656262 0.416190 0.141158 0.146483 0.422931 0.664901 0.851621 0.966647 0.999396 0.946194 0.810772 0.604116 0.343664 0.051934 0.245395 0.521690 0.751779 0.914271 0.993608 0.981650 0.878598 0.693175 0.442001 0.148202 0.160651 0.455090 0.706553 0.890197 0.987413 0.987798 0.890384 0.703944 0.446334 0.142876 0.176028 0.477923 0.731589 0.910309 0.994766 0.975224 0.852781 0.639474 0.357251 0.035806 0.290474 0.586132 0.818536 0.961513 0.998417 0.924175 0.746116 0.483388 0.165055 0.173041 0.492246 0.755516 0.931763 0.999615 0.950144 0.788176 0.531994 0.211441 0.135456 0.466936 0.742496 0.927916 0.999579 0.947640 0.777516 0.509520 0.176598 0.179614 0.513910 0.783266 0.952423 0.998622 0.914821 0.710925 0.412813 0.059211 0.303221 0.625998 0.865312
1.000000 1.000000 1.000000 1.000000 1.000000 1.000000 1.000000 1.000000 1.000000 1.000000 1.000000 1.000000 1.000000 1.000000 1.000000 1.000000 1.000000 1.000000 1.000000 1.000000 1.000000 1.000000 1.000000 1.000000 1.000000 1.000000 1.000000 1.000000 1.000000 1.000000 1.000000 1.000000 1.000000 1.000000 1.000000 1.000000 1.000000 1.000000 1.000000 1.000000 1.000000 1.000000 1.000000 1.000000 1.000000 1.000000 1.000000 1.000000 1.000000 1.000000 1.000000 1.000000 0.822820 0.822820 0.822820 0.822953 0.822953 0.822953 0.822953 0.822953 0.822953 0.822953 0.822953 0.822953 0.822953 0.822953 0.822953 0.822953 0.822953 0.822953 0.822953 0.822953 0.822953 0.822953 0.822953 0.822953 0.822953 0.822953 0.822953 0.822953 0.822953 0.822953 0.822953 0.822953 0.822953 0.822953 0.822953 0.822953 0.822953 0.822953 0.822953 0.822953 0.822953 0.822953 0.822953 0.822953 0.828887 0.834888 0.838071 0.841284 0.844034 0.840921 0.839602 0.838904 0.839076 0.840306 0.852041 0.876950 0.893932 0.900110 0.912570 0.916459 0.921063 0.921506 0.928675 0.930898 0.962341 0.959224 0.958338 0.959730 0.948703 0.938458 0.936031 0.933511 0.949700 0.938604 0.934680 0.930613 0.928670 0.926079 0.927087 0.927656 0.927621 0.928120 0.927926 0.926991 0.925351 0.923188 0.921934 0.905320 0.906213 0.905678 0.908867 0.887356 0.880814 0.871626 0.868968 0.880095 0.872833 0.865951 0.864787 0.854023 0.855129 0.855291 0.855217 0.842757 0.841044 0.838402 0.835084 0.834612 0.833319 0.838937 0.838918 0.840162 0.827447 0.802297 0.785845 0.763617 0.762577 0.763116 0.766905 0.761090 0.762007 0.757750 0.754769 0.747155 0.745396 0.739881 0.743287 0.739672 0.732436 0.726445 0.702049 0.692656 0.694564 0.666193 0.659156 0.664484 0.665370 0.637265 0.631925 0.634371 0.640200 0.645455 0.650441 0.644463 0.634457 0.602823 0.578560 0.558934 0.574254 0.586773 0.574364 0.577267 0.553487 0.591177 0.596920 0.620258 0.633040 0.635861 0.626571 0.589804 0.546772 0.546684 0.539960 0.540482 0.539112 0.538019 0.545975 0.573966 0.552038 0.536446 0.529091 0.523392 0.528070 0.541463 0.523356 0.518202 0.490844 0.465553 0.448145 0.455503 0.427391 0.408316 0.402295 0.395224 0.380853 0.384330 0.393499 0.389847 0.383242 0.388754 0.386973 0.395523 0.363480 0.321097 0.323794 0.315928 0.314849 0.304205 0.288195 0.294253 0.305179 0.314531 0.346949 0.315942 0.292208 0.263847 0.275838 0.265069 0.287533 0.267759 0.253274 0.234222 0.205019 0.176895 0.177953 0.211229 0.242344 0.208504 0.176120 0.160575 0.157199 0.132989 0.126872 0.064926 0.008274 -0.009375 0.002433 0.003532 0.011097 0.019374 0.003528 0.024264 0.031434 0.072222 0.044393 0.035570 0.033017 0.039397 0.003706 0.000098 -0.022439 -0.034430 -0.022172 0.003362 -0.031379 -0.026384 -0.050879 -0.035270 -0.082429 -0.075429 -0.085771 -0.083810 -0.099376 -0.142113 -0.142543 -0.154849 -0.166560 -0.157659 -0.154589 -0.160774 -0.210099 -0.217397 -0.204810 -0.207126 -0.204024 -0.178180 -0.183587 -0.156798 -0.158050 -0.158324 -0.126013 -0.130381 -0.146804 -0.149570 -0.135136 -0.150791 -0.148205 -0.098756 -0.095557 -0.132325 -0.132136 -0.132136 -0.132136 -0.132136 -0.132136 -0.132136 -0.116548 -0.116548 -0.116548 -0.116548 -0.116548 -0.116548 -0.116548 -0.116548 -0.116548 -0.056004 -0.056004 -0.056004 -0.056004 -0.056004 -0.056004 -0.056004 -0.056004 -0.056004 -0.056004 -0.056004 -0.056004 -0.056004 -0.056004 -0.056004 -0.056004
0.000000 0.000000 0.000000 0.000000 0.000000 0.000000 0.000000 0.000000 0.000000 0.000000 0.000000 0.000000 0.000000 0.000000 0.000000 0.000000 0.000000 0.000000 0.000000 0.000000 0.000000 0.000000 0.000000 0.000000 0.000000 0.000000 0.000000 0.000000 0.000000 0.000000 0.000000 0.000000 0.000000 0.000000 0.000000 0.000000 0.000000 0.000000 0.000000 0.000000 0.000000 0.000000 0.000000 0.000000 0.000000 0.000000 0.000000 0.000000 0.000000 0.000000 0.000000 0.000000 0.180334 0.180334 0.180334 0.199007 0.199007 0.199007 0.199007 0.199007 0.199007 0.199007 0.199007 0.199007 0.199007 0.199007 0.199007 0.199007 0.199007 0.199007 0.199007 0.199007 0.199007 0.199007 0.199007 0.199007 0.199007 0.199007 0.199007 0.199007 0.199007 0.199007 0.199007 0.199007 0.199007 0.199007 0.199007 0.199007 0.199007 0.199007 0.199007 0.199007 0.199007 0.199007 0.199007 0.199007 0.230940 0.230940 0.230940 0.230940 0.230940 0.230940 0.230940 0.230940 0.230940 0.230940 0.230940 0.230940 0.230940 0.230940 0.230940 0.230940 0.230940 0.230940 0.230940 0.230940 0.230940 0.230940 0.230940 0.230940 0.230940 0.230940 0.230940 0.230940 0.244339 0.244339 0.244339 0.244339 0.244339 0.244339 0.244339 0.244339 0.244339 0.244339 0.244339 0.244339 0.244339 0.244339 0.244339 0.244339 0.244339 0.244339 0.244339 0.244339 0.244339 0.244339 0.244339 0.256074 0.256074 0.256074 0.256074 0.256074 0.256074 0.256074 0.256074 0.256074 0.256074 0.256074 0.256074 0.256074 0.256074 0.256074 0.256074 0.256074 0.256074 0.256074 0.256074 0.256074 0.256074 0.256074 0.256074 0.256074 0.256074 0.256074 0.256074 0.256074 0.256074 0.256074 0.256074 0.256074 0.256074 0.256074 0.256074 0.256074 0.264906 0.264906 0.264906 0.264906 0.264906 0.264906 0.264906 0.264906 0.264906 0.264906 0.264906 0.264906 0.264906 0.264906 0.264906 0.264906 0.264906 0.264906 0.264906 0.264906 0.264906 0.264906 0.264906 0.264906 0.264906 0.264906 0.264906 0.264906 0.264906 0.264906 0.264906 0.264906 0.264906 0.264906 0.264906 0.264906 0.264906 0.264906 0.264906 0.264906 0.264906 0.264906 0.264906 0.264906 0.264906 0.264906 0.264906 0.264906 0.264906 0.264906 0.264906 0.264906 0.264906 0.264906 0.264906 0.264906 0.264906 0.264906 0.269680 0.269680 0.269680 0.269680 0.269680 0.269680 0.269680 0.269680 0.269680 0.269680 0.269680 0.269680 0.264906 0.264906 0.264906 0.264906 0.264906 0.264906 0.264906 0.264906 0.264906 0.264906 0.264906 0.264906 0.269680 0.269680 0.269680 0.269680 0.269680 0.269680 0.269680 0.269680 0.269680 0.269680 0.269680 0.264906 0.264906 0.264906 0.264906 0.264906 0.264906 0.264906 0.264906 0.264906 0.264906 0.264906 0.256074 0.256074 0.256074 0.256074 0.256074 0.256074 0.256074 0.256074 0.256074 0.256074 0.256074 0.264906 0.264906 0.264906 0.264906 0.264906 0.264906 0.264906 0.264906 0.264906 0.264906 0.260378 0.260378 0.260378 0.260378 0.260378 0.260378 0.260378 0.260378 0.260378 0.260378 0.264906 0.264906 0.264906 0.264906 0.264906 0.264906 0.264906 0.264906 0.264906 0.251976 0.251976 0.251976 0.251976 0.251976 0.251976 0.251976 0.251976 0.251976 0.251976 0.256074 0.256074 0.256074 0.256074 0.256074 0.256074 0.256074 0.256074 0.256074 0.269680 0.269680 0.269680 0.269680 0.269680 0.269680 0.269680 0.269680 0.269680 0.269680 0.269680 0.269680 0.269680 0.269680 0.269680 0.269680
