# Output from CTFFind version 4.1.9, run on 2019-11-03 20:02:16
# Input file: stack1_bm3d_averaged_1_10_0_50_half.mrc ; Number of micrographs: 1
# Pixel size: 3.000 Angstroms ; acceleration voltage: 300.0 keV ; spherical aberration: 0.00 mm ; amplitude contrast: 0.07
# Box size: 512 pixels ; min. res.: 30.0 Angstroms ; max. res.: 5.0 Angstroms ; min. def.: 5000.0 um; max. def. 50000.0 um; num. frames averaged: 1
# 6 lines per micrograph: #1 - spatial frequency (1/Angstroms); #2 - 1D rotational average of spectrum (assuming no astigmatism); #3 - 1D rotational average of spectrum; #4 - CTF fit; #5 - cross-correlation between spectrum and CTF fit; #6 - 2sigma of expected cross correlation of noise
0.000000 0.000651 0.001302 0.001953 0.002604 0.003255 0.003906 0.004557 0.005208 0.005859 0.006510 0.007161 0.007812 0.008464 0.009115 0.009766 0.010417 0.011068 0.011719 0.012370 0.013021 0.013672 0.014323 0.014974 0.015625 0.016276 0.016927 0.017578 0.018229 0.018880 0.019531 0.020182 0.020833 0.021484 0.022135 0.022786 0.023438 0.024089 0.024740 0.025391 0.026042 0.026693 0.027344 0.027995 0.028646 0.029297 0.029948 0.030599 0.031250 0.031901 0.032552 0.033203 0.033854 0.034505 0.035156 0.035807 0.036458 0.037109 0.037760 0.038411 0.039062 0.039714 0.040365 0.041016 0.041667 0.042318 0.042969 0.043620 0.044271 0.044922 0.045573 0.046224 0.046875 0.047526 0.048177 0.048828 0.049479 0.050130 0.050781 0.051432 0.052083 0.052734 0.053385 0.054036 0.054688 0.055339 0.055990 0.056641 0.057292 0.057943 0.058594 0.059245 0.059896 0.060547 0.061198 0.061849 0.062500 0.063151 0.063802 0.064453 0.065104 0.065755 0.066406 0.067057 0.067708 0.068359 0.069010 0.069661 0.070312 0.070964 0.071615 0.072266 0.072917 0.073568 0.074219 0.074870 0.075521 0.076172 0.076823 0.077474 0.078125 0.078776 0.079427 0.080078 0.080729 0.081380 0.082031 0.082682 0.083333 0.083984 0.084635 0.085286 0.085938 0.086589 0.087240 0.087891 0.088542 0.089193 0.089844 0.090495 0.091146 0.091797 0.092448 0.093099 0.093750 0.094401 0.095052 0.095703 0.096354 0.097005 0.097656 0.098307 0.098958 0.099609 0.100260 0.100911 0.101562 0.102214 0.102865 0.103516 0.104167 0.104818 0.105469 0.106120 0.106771 0.107422 0.108073 0.108724 0.109375 0.110026 0.110677 0.111328 0.111979 0.112630 0.113281 0.113932 0.114583 0.115234 0.115885 0.116536 0.117188 0.117839 0.118490 0.119141 0.119792 0.120443 0.121094 0.121745 0.122396 0.123047 0.123698 0.124349 0.125000 0.125651 0.126302 0.126953 0.127604 0.128255 0.128906 0.129557 0.130208 0.130859 0.131510 0.132161 0.132812 0.133464 0.134115 0.134766 0.135417 0.136068 0.136719 0.137370 0.138021 0.138672 0.139323 0.139974 0.140625 0.141276 0.141927 0.142578 0.143229 0.143880 0.144531 0.145182 0.145833 0.146484 0.147135 0.147786 0.148438 0.149089 0.149740 0.150391 0.151042 0.151693 0.152344 0.152995 0.153646 0.154297 0.154948 0.155599 0.156250 0.156901 0.157552 0.158203 0.158854 0.159505 0.160156 0.160807 0.161458 0.162109 0.162760 0.163411 0.164062 0.164714 0.165365 0.166016 0.166667 0.167318 0.167969 0.168620 0.169271 0.169922 0.170573 0.171224 0.171875 0.172526 0.173177 0.173828 0.174479 0.175130 0.175781 0.176432 0.177083 0.177734 0.178385 0.179036 0.179688 0.180339 0.180990 0.181641 0.182292 0.182943 0.183594 0.184245 0.184896 0.185547 0.186198 0.186849 0.187500 0.188151 0.188802 0.189453 0.190104 0.190755 0.191406 0.192057 0.192708 0.193359 0.194010 0.194661 0.195312 0.195964 0.196615 0.197266 0.197917 0.198568 0.199219 0.199870 0.200521 0.201172 0.201823 0.202474 0.203125 0.203776 0.204427 0.205078 0.205729 0.206380 0.207031 0.207682 0.208333 0.208984 0.209635 0.210286 0.210938 0.211589 0.212240 0.212891 0.213542 0.214193 0.214844 0.215495 0.216146 0.216797 0.217448 0.218099 0.218750 0.219401 0.220052 0.220703 0.221354 0.222005 0.222656 0.223307 0.223958 0.224609 0.225260 0.225911 0.226562 0.227214 0.227865 0.228516 0.229167 0.229818 0.230469 0.231120 0.231771 0.232422 0.233073 0.233724 0.234375 0.235026 0.235677
       0.35193        0.35193        0.35193        0.35193        0.35193        0.35193        0.35193        0.35193        0.35193        0.35193        0.35193        0.35193        0.35193        0.35193        0.35193        0.35193        0.35193        0.35193        0.35193        0.35193        0.35193        0.35193        0.35193        0.35193        0.35193        0.35193        0.35193        0.35193        0.35193        0.35193        0.35193        0.35193        0.35193        0.35193        0.35193        0.35193        0.35193        0.35193        0.35193        0.35192        0.35193        0.35193        0.35193        0.35193        0.35193        0.35193        0.35193        0.35193        0.35193        0.35193        0.35193        0.31623        0.41764        0.21838        0.07141        0.01721       -0.23921       -0.10502       -0.11424       -0.20023        0.01345       -0.12635       -0.00613       -0.04400       -0.02794       -0.09273       -0.15203       -0.20445       -0.23037       -0.33177       -0.26403       -0.17840       -0.17466       -0.27301       -0.18995       -0.22508       -0.19523       -0.22141       -0.08312       -0.10696       -0.14106        0.00429        0.07702        0.01517        0.06960        0.07857        0.28500        0.26696        0.34865        0.36964        0.36810        0.40221        0.47923        0.52021        0.51725        0.49258        0.50213        0.52276        0.49239        0.49535        0.41701        0.42020        0.41142        0.37522        0.31771        0.32803        0.32408        0.21459        0.21389        0.16403        0.18580        0.17547        0.16811        0.17558        0.27447        0.34900        0.33764        0.28481        0.41937        0.48648        0.40331        0.49754        0.57659        0.51075        0.50529        0.58576        0.59066        0.43581        0.48798        0.42704        0.36149        0.33050        0.29032        0.27022        0.20995        0.21461        0.20255        0.23027        0.25676        0.28398        0.34811        0.33012        0.41004        0.40997        0.45707        0.51286        0.46098        0.47660        0.42854        0.43854        0.41063        0.35466        0.31494        0.32356        0.32227        0.25988        0.26039        0.26487        0.27316        0.28777        0.32562        0.43206        0.48718        0.43267        0.46922        0.46633        0.42177        0.45897        0.44811        0.41856        0.37002        0.37697        0.35599        0.32923        0.31205        0.29960        0.28432        0.30270        0.32299        0.34412        0.40629        0.38006        0.38272        0.39476        0.37202        0.42596        0.40631        0.36555        0.33858        0.34554        0.32126        0.29569        0.32851        0.34115        0.34775        0.34833        0.32839        0.41108        0.40370        0.41328        0.43206        0.45736        0.40326        0.37685        0.35389        0.34918        0.30051        0.28856        0.33595        0.39953        0.40203        0.35867        0.36843        0.40834        0.39700        0.45849        0.37396        0.39653        0.35149        0.31792        0.30958        0.30959        0.35027        0.35536        0.37525        0.37942        0.33439        0.42464        0.34089        0.34863        0.36094        0.40380        0.37638        0.30606        0.32437        0.28240        0.34725        0.33011        0.34509        0.34979        0.32647        0.36376        0.32924        0.36018        0.35288        0.32138        0.29543        0.31761        0.36263        0.31194        0.30694        0.33368        0.32563        0.33730        0.33765        0.31425        0.30517        0.28536        0.32530        0.33746        0.34775        0.29319        0.31296        0.34556        0.32761        0.30820        0.38889        0.35384        0.30354        0.32818        0.34072        0.33184        0.34525        0.30687        0.33740        0.27865        0.32825        0.39168        0.36562        0.30384        0.33936        0.33411        0.33042        0.34241        0.33947        0.30717        0.28610        0.29813        0.30158        0.36406        0.37484        0.32671        0.36306        0.31856        0.29405        0.28595        0.33250        0.37147        0.30929        0.27778        0.32038        0.35610        0.28365        0.31363        0.31789        0.28687        0.31612        0.33186        0.30788        0.34379        0.32169        0.32076        0.33848        0.35395        0.26493        0.31161        0.38094        0.32097        0.24532        0.30011        0.29452        0.31652        0.27682        0.21866        0.24126        0.33065        0.39984        0.33937        0.27900        0.21634        0.29221        0.29945        0.27389        0.32841        0.31310        0.27924        0.27386        0.26607        0.26102        0.34939        0.24289        0.31846        0.28555        0.27355        0.27484        0.34426        0.22509        0.27865        0.18468        0.31241        0.23633        0.27912        0.22943        0.30424        0.23508        0.28499        0.33925        0.32817        0.21296       -0.14012       -0.21309       -0.56593       -0.61024
2.747356 2.720383 2.693550 2.666856 2.640301 2.613886 2.587610 2.561474 2.535477 2.509619 2.483901 2.458322 2.432882 2.407582 2.382422 2.357401 2.332519 2.307776 2.283173 2.258709 2.234385 2.210200 2.186155 2.162249 2.138482 2.114855 2.091367 2.068018 2.044809 2.021740 1.998809 1.976018 1.953367 1.930855 1.908482 1.886249 1.864155 1.842200 1.820385 1.798710 1.777173 1.755776 1.734519 1.713401 1.692422 1.671583 1.650883 1.630322 1.609901 1.589619 1.569477 1.394669 1.756538 1.369501 0.842532 0.661213 -0.287916 0.422449 0.017100 0.136620 0.523847 0.168069 0.357714 0.336210 0.296194 0.275547 -0.062995 -0.116406 -0.247497 -0.486413 -0.463379 -0.246128 0.030899 -0.526575 -0.247694 -0.394101 -0.122074 -0.487936 -0.056805 -0.194590 -0.204003 0.036915 0.366604 0.096657 0.186014 0.175082 0.860753 0.603827 0.854468 1.001139 0.763701 1.081475 0.987410 1.385695 1.228324 1.078024 1.217886 1.236781 1.182702 1.024483 1.032772 0.894859 0.834199 0.744503 0.791897 0.497085 0.635311 0.432095 0.232079 0.234324 0.127112 0.154658 0.159961 0.068173 0.272266 0.571416 0.472152 0.462923 0.604207 0.772218 0.753188 0.550109 1.131532 0.939581 0.896968 0.973241 1.078320 0.827625 0.576351 0.815781 0.353514 0.465052 0.197740 0.236035 0.055068 0.018221 -0.028987 0.019480 0.161738 0.030414 0.209986 0.425325 0.304434 0.484416 0.486816 0.647755 0.626721 0.630007 0.531839 0.415264 0.462718 0.361273 0.199955 0.186172 0.147662 0.111800 0.091334 -0.074945 -0.021290 0.098258 0.020044 0.305873 0.541949 0.533829 0.370920 0.566788 0.462382 0.452076 0.502250 0.470552 0.312038 0.279472 0.336364 0.092282 0.151762 0.021572 0.157836 0.007424 0.179495 0.092126 0.327236 0.175554 0.255834 0.308929 0.182072 0.438976 0.191498 0.243625 0.146172 0.121015 0.089975 0.040715 0.009761 0.080898 0.151889 0.070857 0.083090 0.126775 0.346152 0.215130 0.282312 0.464986 0.174124 0.324634 0.062475 0.121073 0.068538 -0.106792 -0.014977 0.078657 0.301993 0.158191 0.075983 0.206431 0.175854 0.338459 0.275223 0.177288 0.233502 0.002025 -0.017464 0.000224 0.042756 0.095410 0.176845 0.154971 0.092144 0.067565 0.250282 0.005174 0.133804 0.137539 0.244897 0.061658 0.034385 -0.039456 -0.039011 0.114661 0.043540 0.119425 0.028584 0.074391 0.090651 0.006640 0.128726 0.090002 -0.067807 -0.007627 -0.026066 0.172173 -0.081508 0.011597 0.049863 -0.024225 0.014224 0.039676 -0.068739 -0.059362 -0.120371 0.035882 0.027086 0.075519 -0.109726 -0.039461 0.027432 0.011951 -0.098514 0.131370 0.006297 -0.107270 -0.050949 0.080487 0.005056 -0.069356 -0.088501 0.068280 -0.245706 0.061021 0.166335 0.027893 -0.050233 0.042475 -0.042103 0.033009 0.045468 0.024700 -0.039136 -0.202230 -0.027062 -0.050335 0.115654 0.068008 -0.011921 0.138386 -0.058529 -0.079972 -0.084884 0.005742 0.103629 -0.095119 -0.120713 0.073638 0.123371 0.000858 -0.020511 0.024047 -0.047370 0.003622 0.112920 0.034656 0.107074 0.148290 0.102764 0.197180 0.154907 -0.031582 0.106244 0.228062 0.073531 -0.145621 0.166707 -0.070618 0.171029 -0.092668 -0.163664 -0.143414 0.237666 0.293139 0.065772 -0.229967 -0.311534 -0.048865 -0.207152 -0.168784 0.103865 0.039135 -0.138000 -0.025181 -0.246737 -0.072319 0.225240 -0.213079 0.215569 0.110010 0.175933 0.101874 0.364167 0.129377 0.527919 0.220859 0.527950 0.506296 0.452084 0.461207 0.778622 0.530777 0.727521 0.932556 0.687154 1.028255 -0.861933 -0.525779 -1.547683
0.072396 0.072904 0.074427 0.076964 0.080516 0.085082 0.090659 0.097247 0.104843 0.113444 0.123047 0.133648 0.145240 0.157818 0.171374 0.185897 0.201378 0.217801 0.235153 0.253415 0.272567 0.292585 0.313443 0.335110 0.357552 0.380730 0.404603 0.429123 0.454238 0.479891 0.506018 0.532550 0.559413 0.586526 0.613801 0.641143 0.668453 0.695621 0.722533 0.749066 0.775093 0.800478 0.825078 0.848743 0.871321 0.892649 0.912563 0.930891 0.947460 0.962092 0.974608 0.984827 0.992568 0.997651 0.999901 0.999143 0.995212 0.987948 0.977201 0.962832 0.944715 0.922742 0.896820 0.866877 0.832863 0.794752 0.752546 0.706275 0.656000 0.601817 0.543854 0.482278 0.417294 0.349147 0.278121 0.204542 0.128778 0.051237 0.027632 0.107342 0.187367 0.267146 0.346087 0.423570 0.498949 0.571561 0.640729 0.705766 0.765990 0.820722 0.869300 0.911087 0.945479 0.971913 0.989880 0.998934 0.998698 0.988880 0.969276 0.939783 0.900407 0.851267 0.792604 0.724785 0.648307 0.563798 0.472017 0.373853 0.270319 0.162547 0.051776 0.060652 0.173318 0.284728 0.393344 0.497598 0.595917 0.686747 0.768581 0.839984 0.899623 0.946294 0.978952 0.996735 0.998992 0.985307 0.955515 0.909726 0.848332 0.772020 0.681772 0.578862 0.464850 0.341563 0.211076 0.075682 0.062145 0.199790 0.334542 0.463651 0.584386 0.694089 0.790240 0.870524 0.932888 0.975603 0.997320 0.997120 0.974555 0.929684 0.863093 0.775908 0.669790 0.546919 0.409966 0.262039 0.106632 0.052459 0.211216 0.365502 0.511169 0.644167 0.760668 0.857179 0.930659 0.978626 0.999253 0.991451 0.954931 0.890250 0.798826 0.682934 0.545666 0.390871 0.223062 0.047295 0.130970 0.306034 0.472144 0.623674 0.755335 0.862362 0.940699 0.987175 0.999650 0.977126 0.919834 0.829270 0.708185 0.560533 0.391369 0.206688 0.013240 0.181709 0.370650 0.546108 0.700951 0.828693 0.923775 0.981834 0.999926 0.976697 0.912504 0.809452 0.671370 0.503698 0.313308 0.108244 0.102600 0.309849 0.504071 0.676202 0.817988 0.922393 0.983983 0.999234 0.966770 0.887495 0.764628 0.603616 0.411935 0.198774 0.025377 0.249232 0.461257 0.650279 0.806088 0.920004 0.985396 0.998109 0.956763 0.862915 0.721067 0.538501 0.324943 0.092099 0.146974 0.378586 0.589180 0.766155 0.898636 0.978173 0.999333 0.960111 0.862159 0.710785 0.514729 0.285718 0.037789 0.213518 0.452144 0.662518 0.830613 0.944888 0.997153 0.983192 0.903169 0.761728 0.567808 0.334136 0.076438 0.187560 0.439357 0.660969 0.836221 0.951973 0.999164 0.973575 0.876277 0.713686 0.497225 0.242581 0.031359 0.303886 0.554026 0.762154 0.911573 0.989903 0.990178 0.911538 0.759455 0.545450 0.286295 0.002772 0.281957 0.544217 0.761804 0.915904 0.992765 0.985017 0.892455 0.722234 0.488420 0.210914 0.086165 0.376553 0.634140 0.835331 0.961275 0.999696 0.946185 0.804792 0.587850 0.314997 0.011486 0.294083 0.572452 0.796517 0.944000 0.999754 0.957416 0.820237 0.600972 0.320815 0.007445 0.307643 0.592289 0.816945 0.957818 0.999464 0.936600 0.774880 0.530539 0.228884 0.098236 0.415722 0.688991 0.887769 0.989517 0.982100 0.865364 0.651396 0.363438 0.033464 0.301280 0.602442 0.834981 0.971305 0.994655 0.901301 0.701252 0.417345 0.082778 0.262676 0.577347 0.822720 0.968192 0.995020 0.898875 0.690675 0.395515 0.049800 0.303162 0.618517 0.855606 0.983266 0.984074 0.856872 0.617243 0.295789 0.065646 0.419307 0.717839
1.000000 1.000000 1.000000 1.000000 1.000000 1.000000 1.000000 1.000000 1.000000 1.000000 1.000000 1.000000 1.000000 1.000000 1.000000 1.000000 1.000000 1.000000 1.000000 1.000000 1.000000 1.000000 1.000000 1.000000 1.000000 1.000000 1.000000 1.000000 1.000000 1.000000 1.000000 1.000000 1.000000 1.000000 1.000000 1.000000 1.000000 1.000000 1.000000 1.000000 1.000000 1.000000 1.000000 1.000000 1.000000 1.000000 1.000000 1.000000 1.000000 1.000000 1.000000 1.000000 0.790811 0.790811 0.790811 0.751295 0.751295 0.751295 0.751295 0.751295 0.751295 0.751295 0.751295 0.751295 0.751295 0.751295 0.751295 0.751295 0.751295 0.751295 0.751295 0.751295 0.751295 0.751295 0.751295 0.751295 0.751295 0.751295 0.751295 0.751295 0.751295 0.751295 0.751295 0.751295 0.751295 0.751295 0.751295 0.751295 0.751295 0.751295 0.751295 0.751295 0.751295 0.751295 0.751295 0.751295 0.801716 0.810703 0.815432 0.823930 0.825844 0.824182 0.821817 0.820818 0.821230 0.821958 0.829354 0.850989 0.862382 0.865138 0.877071 0.880942 0.884216 0.883171 0.906161 0.905018 0.954020 0.952211 0.951611 0.952533 0.959716 0.960720 0.959654 0.958085 0.963156 0.963977 0.962326 0.959884 0.959078 0.957763 0.957218 0.954418 0.954462 0.954432 0.953472 0.954022 0.954079 0.953704 0.951338 0.949231 0.946781 0.946142 0.949239 0.935679 0.932739 0.928548 0.925129 0.934255 0.929782 0.926415 0.927430 0.928921 0.917453 0.886756 0.886741 0.865007 0.857065 0.843405 0.835896 0.835200 0.839919 0.848879 0.852846 0.854915 0.847868 0.835977 0.818968 0.829354 0.813804 0.798171 0.802848 0.791544 0.786405 0.787573 0.774262 0.769757 0.758034 0.753010 0.751248 0.760825 0.765119 0.766149 0.758214 0.757641 0.744287 0.734119 0.715132 0.715223 0.724243 0.719639 0.721404 0.716718 0.717554 0.724624 0.721451 0.712804 0.699758 0.692008 0.679168 0.656641 0.667259 0.640801 0.637396 0.641150 0.612544 0.640844 0.638778 0.671808 0.685474 0.685425 0.682270 0.677072 0.657978 0.673065 0.669986 0.661751 0.663881 0.666142 0.663390 0.660720 0.651805 0.553256 0.546955 0.546212 0.546893 0.534099 0.548369 0.550406 0.535989 0.524263 0.505125 0.470498 0.411112 0.347352 0.353170 0.349254 0.328837 0.319584 0.306882 0.339247 0.344810 0.348758 0.304877 0.269903 0.263584 0.237188 0.225486 0.191139 0.203105 0.232281 0.224760 0.194883 0.161082 0.153140 0.132958 0.138896 0.140624 0.108999 0.138704 0.101350 0.080504 0.055226 0.074346 0.063765 0.014442 -0.081692 -0.036543 -0.040058 -0.000900 -0.006661 -0.022781 0.021901 -0.019408 -0.050289 -0.051949 -0.071057 -0.104852 -0.044622 -0.040509 -0.062851 -0.043654 -0.058131 -0.040447 -0.044628 -0.064682 -0.072856 -0.087046 -0.060899 -0.047998 0.015225 0.014034 0.011860 -0.029437 -0.026814 -0.025887 -0.063489 -0.042467 0.010355 0.026841 0.027380 0.021117 0.034958 0.055696 0.052206 0.069444 0.057137 0.057529 0.032667 0.052299 0.041061 0.024140 0.023295 0.036900 0.043308 0.062285 0.049441 0.059947 0.075293 0.046875 0.062351 0.067331 0.048789 0.059854 0.057031 0.101522 0.060060 0.032689 0.028414 0.032524 0.026201 0.055729 0.115749 0.136942 0.113420 0.111440 0.111440 0.111440 0.111440 0.115500 0.115500 0.115500 0.115500 0.115500 0.115500 0.115500 0.115500 0.115500 0.076328 0.076328 0.076328 0.076328 0.076328 0.076328 0.076328 0.076328 0.076328 0.076328 0.076328 0.076328 0.076328 0.076328 0.076328 0.076328
0.000000 0.000000 0.000000 0.000000 0.000000 0.000000 0.000000 0.000000 0.000000 0.000000 0.000000 0.000000 0.000000 0.000000 0.000000 0.000000 0.000000 0.000000 0.000000 0.000000 0.000000 0.000000 0.000000 0.000000 0.000000 0.000000 0.000000 0.000000 0.000000 0.000000 0.000000 0.000000 0.000000 0.000000 0.000000 0.000000 0.000000 0.000000 0.000000 0.000000 0.000000 0.000000 0.000000 0.000000 0.000000 0.000000 0.000000 0.000000 0.000000 0.000000 0.000000 0.000000 0.180334 0.180334 0.180334 0.199007 0.199007 0.199007 0.199007 0.199007 0.199007 0.199007 0.199007 0.199007 0.199007 0.199007 0.199007 0.199007 0.199007 0.199007 0.199007 0.199007 0.199007 0.199007 0.199007 0.199007 0.199007 0.199007 0.199007 0.199007 0.199007 0.199007 0.199007 0.199007 0.199007 0.199007 0.199007 0.199007 0.199007 0.199007 0.199007 0.199007 0.199007 0.199007 0.199007 0.199007 0.230940 0.230940 0.230940 0.230940 0.230940 0.230940 0.230940 0.230940 0.230940 0.230940 0.230940 0.230940 0.230940 0.230940 0.230940 0.230940 0.230940 0.230940 0.230940 0.230940 0.230940 0.230940 0.230940 0.230940 0.230940 0.230940 0.230940 0.230940 0.244339 0.244339 0.244339 0.244339 0.244339 0.244339 0.244339 0.244339 0.244339 0.244339 0.244339 0.244339 0.244339 0.244339 0.244339 0.244339 0.244339 0.244339 0.244339 0.244339 0.244339 0.244339 0.244339 0.251976 0.251976 0.251976 0.251976 0.251976 0.251976 0.251976 0.251976 0.251976 0.251976 0.251976 0.251976 0.251976 0.251976 0.251976 0.251976 0.251976 0.251976 0.251976 0.251976 0.264906 0.264906 0.264906 0.264906 0.264906 0.264906 0.264906 0.264906 0.264906 0.264906 0.264906 0.264906 0.264906 0.264906 0.264906 0.264906 0.264906 0.264906 0.264906 0.264906 0.264906 0.264906 0.264906 0.264906 0.264906 0.264906 0.264906 0.264906 0.264906 0.264906 0.264906 0.264906 0.264906 0.264906 0.264906 0.264906 0.264906 0.264906 0.264906 0.264906 0.264906 0.264906 0.264906 0.264906 0.264906 0.264906 0.264906 0.264906 0.264906 0.264906 0.264906 0.264906 0.264906 0.264906 0.264906 0.264906 0.264906 0.264906 0.264906 0.264906 0.264906 0.264906 0.264906 0.264906 0.264906 0.264906 0.264906 0.264906 0.264906 0.264906 0.264906 0.264906 0.264906 0.264906 0.264906 0.260378 0.260378 0.260378 0.260378 0.260378 0.260378 0.260378 0.260378 0.260378 0.260378 0.260378 0.260378 0.260378 0.264906 0.264906 0.264906 0.264906 0.264906 0.264906 0.264906 0.264906 0.264906 0.264906 0.264906 0.264906 0.269680 0.269680 0.269680 0.269680 0.269680 0.269680 0.269680 0.269680 0.269680 0.269680 0.269680 0.264906 0.264906 0.264906 0.264906 0.264906 0.264906 0.264906 0.264906 0.264906 0.264906 0.264906 0.269680 0.269680 0.269680 0.269680 0.269680 0.269680 0.269680 0.269680 0.269680 0.269680 0.251976 0.251976 0.251976 0.251976 0.251976 0.251976 0.251976 0.251976 0.251976 0.251976 0.251976 0.269680 0.269680 0.269680 0.269680 0.269680 0.269680 0.269680 0.269680 0.269680 0.256074 0.256074 0.256074 0.256074 0.256074 0.256074 0.256074 0.256074 0.256074 0.256074 0.260378 0.260378 0.260378 0.260378 0.260378 0.260378 0.260378 0.260378 0.260378 0.256074 0.256074 0.256074 0.256074 0.256074 0.256074 0.256074 0.256074 0.256074 0.251976 0.251976 0.251976 0.251976 0.251976 0.251976 0.251976 0.251976 0.251976 0.251976 0.251976 0.251976 0.251976 0.251976 0.251976 0.251976
