# Output from CTFFind version 4.1.9, run on 2019-11-03 20:06:33
# Input file: stack16_bm3d_averaged_1_6.5_0_1000_half.mrc ; Number of micrographs: 1
# Pixel size: 3.000 Angstroms ; acceleration voltage: 300.0 keV ; spherical aberration: 0.00 mm ; amplitude contrast: 0.07
# Box size: 512 pixels ; min. res.: 30.0 Angstroms ; max. res.: 5.0 Angstroms ; min. def.: 5000.0 um; max. def. 50000.0 um; num. frames averaged: 1
# 6 lines per micrograph: #1 - spatial frequency (1/Angstroms); #2 - 1D rotational average of spectrum (assuming no astigmatism); #3 - 1D rotational average of spectrum; #4 - CTF fit; #5 - cross-correlation between spectrum and CTF fit; #6 - 2sigma of expected cross correlation of noise
0.000000 0.000651 0.001302 0.001953 0.002604 0.003255 0.003906 0.004557 0.005208 0.005859 0.006510 0.007161 0.007812 0.008464 0.009115 0.009766 0.010417 0.011068 0.011719 0.012370 0.013021 0.013672 0.014323 0.014974 0.015625 0.016276 0.016927 0.017578 0.018229 0.018880 0.019531 0.020182 0.020833 0.021484 0.022135 0.022786 0.023438 0.024089 0.024740 0.025391 0.026042 0.026693 0.027344 0.027995 0.028646 0.029297 0.029948 0.030599 0.031250 0.031901 0.032552 0.033203 0.033854 0.034505 0.035156 0.035807 0.036458 0.037109 0.037760 0.038411 0.039062 0.039714 0.040365 0.041016 0.041667 0.042318 0.042969 0.043620 0.044271 0.044922 0.045573 0.046224 0.046875 0.047526 0.048177 0.048828 0.049479 0.050130 0.050781 0.051432 0.052083 0.052734 0.053385 0.054036 0.054688 0.055339 0.055990 0.056641 0.057292 0.057943 0.058594 0.059245 0.059896 0.060547 0.061198 0.061849 0.062500 0.063151 0.063802 0.064453 0.065104 0.065755 0.066406 0.067057 0.067708 0.068359 0.069010 0.069661 0.070312 0.070964 0.071615 0.072266 0.072917 0.073568 0.074219 0.074870 0.075521 0.076172 0.076823 0.077474 0.078125 0.078776 0.079427 0.080078 0.080729 0.081380 0.082031 0.082682 0.083333 0.083984 0.084635 0.085286 0.085938 0.086589 0.087240 0.087891 0.088542 0.089193 0.089844 0.090495 0.091146 0.091797 0.092448 0.093099 0.093750 0.094401 0.095052 0.095703 0.096354 0.097005 0.097656 0.098307 0.098958 0.099609 0.100260 0.100911 0.101562 0.102214 0.102865 0.103516 0.104167 0.104818 0.105469 0.106120 0.106771 0.107422 0.108073 0.108724 0.109375 0.110026 0.110677 0.111328 0.111979 0.112630 0.113281 0.113932 0.114583 0.115234 0.115885 0.116536 0.117188 0.117839 0.118490 0.119141 0.119792 0.120443 0.121094 0.121745 0.122396 0.123047 0.123698 0.124349 0.125000 0.125651 0.126302 0.126953 0.127604 0.128255 0.128906 0.129557 0.130208 0.130859 0.131510 0.132161 0.132812 0.133464 0.134115 0.134766 0.135417 0.136068 0.136719 0.137370 0.138021 0.138672 0.139323 0.139974 0.140625 0.141276 0.141927 0.142578 0.143229 0.143880 0.144531 0.145182 0.145833 0.146484 0.147135 0.147786 0.148438 0.149089 0.149740 0.150391 0.151042 0.151693 0.152344 0.152995 0.153646 0.154297 0.154948 0.155599 0.156250 0.156901 0.157552 0.158203 0.158854 0.159505 0.160156 0.160807 0.161458 0.162109 0.162760 0.163411 0.164062 0.164714 0.165365 0.166016 0.166667 0.167318 0.167969 0.168620 0.169271 0.169922 0.170573 0.171224 0.171875 0.172526 0.173177 0.173828 0.174479 0.175130 0.175781 0.176432 0.177083 0.177734 0.178385 0.179036 0.179688 0.180339 0.180990 0.181641 0.182292 0.182943 0.183594 0.184245 0.184896 0.185547 0.186198 0.186849 0.187500 0.188151 0.188802 0.189453 0.190104 0.190755 0.191406 0.192057 0.192708 0.193359 0.194010 0.194661 0.195312 0.195964 0.196615 0.197266 0.197917 0.198568 0.199219 0.199870 0.200521 0.201172 0.201823 0.202474 0.203125 0.203776 0.204427 0.205078 0.205729 0.206380 0.207031 0.207682 0.208333 0.208984 0.209635 0.210286 0.210938 0.211589 0.212240 0.212891 0.213542 0.214193 0.214844 0.215495 0.216146 0.216797 0.217448 0.218099 0.218750 0.219401 0.220052 0.220703 0.221354 0.222005 0.222656 0.223307 0.223958 0.224609 0.225260 0.225911 0.226562 0.227214 0.227865 0.228516 0.229167 0.229818 0.230469 0.231120 0.231771 0.232422 0.233073 0.233724 0.234375 0.235026 0.235677
       0.35159        0.35159        0.35159        0.35159        0.35159        0.35159        0.35159        0.35159        0.35159        0.35159        0.35159        0.35159        0.35159        0.35159        0.35159        0.35159        0.35159        0.35159        0.35159        0.35159        0.35159        0.35159        0.35159        0.35159        0.35159        0.35159        0.35159        0.35159        0.35159        0.35159        0.35159        0.35159        0.35159        0.35159        0.35159        0.35159        0.35159        0.35159        0.35159        0.35159        0.35159        0.35159        0.35159        0.35159        0.35159        0.35159        0.35159        0.35159        0.35159        0.35159        0.35159        0.43017        0.55698        0.34322       -0.21563       -0.45053       -0.54223       -0.64422       -0.71287       -0.71900       -0.81231       -0.88702       -0.67804       -0.83253       -0.81663       -0.95826       -0.99739       -0.87877       -0.83764       -0.79588       -0.70745       -0.63843       -0.54907       -0.45581       -0.39158       -0.16342       -0.06131        0.04182        0.26296        0.26037        0.31815        0.37282        0.40464        0.52494        0.53968        0.57502        0.53389        0.47501        0.50698        0.53079        0.45431        0.33404        0.21879        0.18513        0.11445        0.01584       -0.00014       -0.00950        0.06189        0.02850        0.08005        0.05293        0.16962        0.19950        0.41045        0.46107        0.54953        0.65810        0.68626        0.71355        0.63942        0.61223        0.54493        0.44314        0.39082        0.28187        0.22232        0.21851        0.10659        0.11752        0.11821        0.09163        0.10025        0.30781        0.41923        0.52660        0.53462        0.56945        0.60759        0.58783        0.57261        0.58469        0.56876        0.46957        0.31035        0.26930        0.26013        0.15703        0.09659        0.17444        0.21491        0.29020        0.35597        0.42884        0.47504        0.53240        0.60301        0.54753        0.50657        0.50608        0.35778        0.28249        0.26503        0.18035        0.20580        0.24250        0.28064        0.28667        0.33201        0.43199        0.46591        0.49999        0.45398        0.44358        0.48934        0.39790        0.33160        0.29070        0.26474        0.23766        0.23086        0.24194        0.34112        0.44927        0.43591        0.48978        0.55497        0.45211        0.41510        0.35839        0.32002        0.27640        0.28579        0.27376        0.29252        0.35676        0.36404        0.44112        0.47407        0.44250        0.46475        0.38067        0.38119        0.35590        0.27586        0.25718        0.25493        0.33755        0.38236        0.36679        0.39185        0.43465        0.44477        0.38281        0.34084        0.32498        0.35548        0.31909        0.28680        0.29079        0.36023        0.37723        0.39543        0.39040        0.39430        0.42286        0.40913        0.32763        0.29266        0.31699        0.34449        0.38448        0.36373        0.40571        0.34731        0.37273        0.39502        0.34253        0.35727        0.32421        0.30463        0.34031        0.34781        0.33272        0.36147        0.37819        0.33168        0.35102        0.32477        0.31998        0.30155        0.32408        0.32463        0.33007        0.36921        0.37678        0.36015        0.31236        0.30447        0.28992        0.33403        0.31719        0.31833        0.37408        0.36012        0.34399        0.31933        0.30879        0.31052        0.28045        0.32144        0.33549        0.34645        0.37397        0.35559        0.31823        0.34032        0.35584        0.33752        0.35833        0.34980        0.31730        0.33607        0.29500        0.32332        0.30136        0.31778        0.28891        0.32325        0.35250        0.33096        0.35798        0.31695        0.33572        0.35681        0.34447        0.32130        0.32840        0.36796        0.34795        0.34733        0.33231        0.31453        0.32151        0.31865        0.32857        0.32597        0.36241        0.33621        0.33722        0.29697        0.29246        0.27177        0.27664        0.36562        0.31505        0.34044        0.29890        0.26583        0.27785        0.36632        0.31144        0.28686        0.32112        0.31985        0.29729        0.26325        0.30511        0.27217        0.29998        0.30983        0.34282        0.33761        0.32318        0.31617        0.26900        0.28225        0.27813        0.28127        0.29959        0.36305        0.30066        0.20550        0.30651        0.29667        0.33263        0.26197        0.29780        0.29254        0.33425        0.28958        0.27670        0.27061        0.24909        0.31010        0.34080        0.33345        0.25449        0.30968        0.26063        0.23987        0.22098        0.33021        0.25610        0.16499        0.11568        0.20410        0.34313        0.24842        0.19110        0.13069       -0.43487       -0.54023
3.220153 3.179232 3.138576 3.098186 3.058062 3.018204 2.978611 2.939284 2.900223 2.861428 2.822899 2.784635 2.746637 2.708905 2.671438 2.634238 2.597303 2.560634 2.524231 2.488093 2.452221 2.416615 2.381275 2.346201 2.311392 2.276850 2.242572 2.208561 2.174816 2.141336 2.108122 2.075174 2.042491 2.010075 1.977924 1.946039 1.914419 1.883066 1.851978 1.821156 1.790600 1.760310 1.730285 1.700526 1.671033 1.641806 1.612844 1.584148 1.555718 1.527554 1.499656 1.535243 1.608719 1.549111 0.845166 0.599184 0.460399 0.390677 0.294239 0.220707 0.188399 -0.049033 0.209765 0.075327 -0.028999 -0.107213 -0.237881 -0.143656 -0.052932 -0.093866 -0.072810 0.037472 0.036546 0.231014 0.108639 0.357894 0.464321 0.496375 0.772753 0.685126 0.697424 0.825139 0.797353 0.844081 0.919488 0.858596 0.888523 0.726270 0.787585 0.846219 0.689737 0.605625 0.434826 0.427880 0.332074 0.190961 0.186777 0.113985 0.208355 0.119548 0.207797 0.104435 0.215272 0.227878 0.438348 0.401039 0.570915 0.609161 0.633062 0.718691 0.604848 0.575711 0.458557 0.409903 0.286705 0.260822 0.091374 0.151164 -0.030201 0.035542 -0.031409 -0.044584 -0.059311 0.024687 0.262607 0.290707 0.356483 0.296295 0.380272 0.389631 0.412478 0.393561 0.354759 0.325928 0.119692 0.072140 0.061377 -0.022830 -0.153896 -0.054868 -0.066420 0.034694 0.074810 0.147703 0.211898 0.222614 0.315196 0.403169 0.282675 0.360565 0.228429 0.140898 0.064386 0.034238 0.000358 0.050733 0.069132 0.093670 0.117243 0.170790 0.237884 0.304641 0.267506 0.209049 0.251890 0.225647 0.108928 0.058172 0.053294 0.025353 0.005790 -0.023037 0.029399 0.167524 0.192690 0.189483 0.296961 0.186824 0.194904 0.072225 0.065105 0.011347 -0.007295 -0.003020 -0.010859 0.044294 0.070408 0.098435 0.156814 0.140099 0.222119 0.136086 0.077191 0.098628 0.042088 -0.050900 -0.020576 0.026398 0.066385 0.072829 0.065923 0.151238 0.116568 0.152704 0.036685 0.048172 0.045326 0.046748 0.027312 -0.020728 0.040448 0.049079 0.091272 0.101923 0.085508 0.112363 0.124485 0.080106 0.012225 -0.008987 0.023266 0.075596 0.072514 0.089692 0.088297 0.049546 0.104150 0.066213 0.041708 0.077600 -0.013843 0.012509 0.065469 0.039415 0.042807 0.068206 0.078506 0.049091 0.065971 0.016068 0.019631 0.007274 0.054539 0.011511 0.040957 0.069115 0.079048 0.043556 -0.005330 -0.002968 -0.019302 0.042534 0.000701 0.012580 0.071622 0.049870 0.001821 0.011109 -0.016579 0.006314 -0.040172 0.007368 0.015038 0.043073 0.045315 0.027957 -0.006234 0.004846 0.032937 0.007440 0.037162 0.011930 -0.016422 0.026434 -0.049254 -0.028400 -0.055244 -0.012480 -0.065013 0.006557 0.019511 -0.011175 -0.010400 -0.005377 -0.001451 0.027483 0.015031 -0.012917 0.007956 0.026769 0.035727 0.025537 0.007127 0.014592 0.005040 -0.005095 0.016870 -0.006796 0.088364 0.042092 0.028502 0.002026 -0.009158 -0.031668 0.002459 0.074784 0.002271 0.056524 -0.019215 -0.024959 -0.023277 0.094403 0.003365 -0.024898 0.057231 0.051302 0.006784 0.002492 0.019172 0.003336 0.038567 0.029125 0.096916 0.054213 0.049951 0.043640 -0.008160 0.016816 -0.004572 -0.006665 0.013399 0.094298 -0.013171 -0.089499 0.043030 0.004372 0.059445 -0.053113 -0.006643 -0.001219 0.021324 -0.001285 -0.024995 -0.020323 -0.069056 0.045363 0.045696 0.054192 -0.121243 0.022206 0.011031 -0.005643 -0.096202 0.102513 0.023335 -0.048204 -0.113115 0.186529 0.297539 0.186776 0.134896 0.132919 -0.518447
0.072396 0.073047 0.074998 0.078250 0.082800 0.088649 0.095793 0.104229 0.113955 0.124963 0.137249 0.150803 0.165615 0.181673 0.198961 0.217461 0.237151 0.258004 0.279991 0.303074 0.327214 0.352364 0.378469 0.405470 0.433297 0.461875 0.491117 0.520930 0.551210 0.581841 0.612700 0.643651 0.674546 0.705228 0.735528 0.765263 0.794242 0.822260 0.849105 0.874552 0.898367 0.920309 0.940128 0.957569 0.972373 0.984278 0.993022 0.998345 0.999990 0.997710 0.991267 0.980436 0.965011 0.944805 0.919659 0.889439 0.854048 0.813425 0.767549 0.716448 0.660197 0.598927 0.532825 0.462139 0.387181 0.308326 0.226020 0.140774 0.053166 0.036158 0.126487 0.217051 0.307022 0.395522 0.481631 0.564394 0.642829 0.715946 0.782752 0.842268 0.893546 0.935684 0.967842 0.989263 0.999288 0.997374 0.983117 0.956263 0.916725 0.864603 0.800188 0.723980 0.636687 0.539237 0.432769 0.318636 0.198388 0.073764 0.053330 0.180846 0.306621 0.428417 0.543956 0.650964 0.747218 0.830600 0.899142 0.951086 0.984929 0.999478 0.993896 0.967742 0.921008 0.854147 0.768089 0.664249 0.544524 0.411273 0.267285 0.115734 0.039880 0.195805 0.348127 0.492857 0.626046 0.743895 0.842868 0.919814 0.972077 0.997604 0.995036 0.963792 0.904130 0.817177 0.704948 0.570321 0.416999 0.249419 0.072651 0.107745 0.285883 0.455743 0.611369 0.747092 0.857746 0.938881 0.986966 0.999566 0.975484 0.914874 0.819293 0.691711 0.536452 0.359092 0.166282 0.034476 0.235107 0.427278 0.602742 0.753712 0.873212 0.955433 0.996042 0.992448 0.943996 0.852083 0.720180 0.553754 0.360093 0.148017 0.072481 0.290698 0.495730 0.677013 0.824898 0.931186 0.989620 0.996302 0.949996 0.852303 0.707687 0.523337 0.308867 0.075861 0.162710 0.393202 0.602070 0.776678 0.906096 0.981826 0.998418 0.953918 0.850128 0.692621 0.490534 0.256096 0.003957 0.249701 0.488183 0.695377 0.856880 0.961038 0.999852 0.969664 0.871568 0.711498 0.499964 0.251456 0.016494 0.284492 0.532680 0.742205 0.896698 0.983602 0.995284 0.929784 0.791166 0.589382 0.339673 0.061504 0.222902 0.490293 0.718307 0.887371 0.982448 0.994470 0.921303 0.768155 0.547343 0.277426 0.018259 0.313562 0.581791 0.798151 0.942091 0.999349 0.963472 0.836667 0.629849 0.361838 0.057787 0.253125 0.540422 0.775352 0.933807 0.998899 0.962883 0.828227 0.607634 0.323018 0.003451 0.317716 0.606297 0.830929 0.966559 0.997362 0.918730 0.738103 0.474464 0.156502 0.180372 0.497902 0.759341 0.933740 0.999750 0.948386 0.784427 0.526201 0.203744 0.144561 0.476460 0.750939 0.933355 0.999932 0.941043 0.762793 0.486642 0.147020 0.212797 0.546127 0.808933 0.965730 0.994529 0.890130 0.665237 0.349175 0.015738 0.379696 0.692181 0.908986 0.998632 0.947124 0.760381 0.463855 0.099312 0.280861 0.621113 0.870855 0.992100 0.965456 0.793476 0.500784 0.130829 0.260363 0.612569 0.870647 0.993307 0.959926 0.774301 0.464599 0.079362 0.319869 0.668311 0.908459 0.999752 0.925668 0.697022 0.350750 0.055769 0.454020 0.775843 0.965181 0.988054 0.838965 0.542476 0.149517 0.271091 0.644552 0.903408 0.999893 0.915035 0.662735 0.287898 0.141226 0.545297 0.848472 0.992802 0.949579 0.725415 0.361682 0.072736 0.494247 0.820593 0.986977 0.959233 0.741218 0.374810 0.067760 0.497851 0.828108 0.990334 0.949844 0.713315 0.328189 0.126403 0.555682 0.868873 0.998605 0.915712 0.636248 0.218882 0.247016 0.660260
1.000000 1.000000 1.000000 1.000000 1.000000 1.000000 1.000000 1.000000 1.000000 1.000000 1.000000 1.000000 1.000000 1.000000 1.000000 1.000000 1.000000 1.000000 1.000000 1.000000 1.000000 1.000000 1.000000 1.000000 1.000000 1.000000 1.000000 1.000000 1.000000 1.000000 1.000000 1.000000 1.000000 1.000000 1.000000 1.000000 1.000000 1.000000 1.000000 1.000000 1.000000 1.000000 1.000000 1.000000 1.000000 1.000000 1.000000 1.000000 1.000000 1.000000 1.000000 1.000000 0.923218 0.923218 0.923218 0.923218 0.923218 0.923218 0.923218 0.923218 0.923218 0.923218 0.923218 0.923218 0.923218 0.923218 0.923218 0.923218 0.923218 0.923218 0.923218 0.923218 0.923218 0.923218 0.923218 0.923218 0.923218 0.923218 0.923218 0.923218 0.923218 0.923218 0.923218 0.923218 0.923218 0.913288 0.911386 0.912546 0.911101 0.909641 0.909053 0.908661 0.909702 0.911306 0.913381 0.935012 0.938118 0.939361 0.940684 0.942054 0.944336 0.942178 0.949763 0.956271 0.955215 0.956358 0.950210 0.951612 0.950962 0.950228 0.951570 0.951695 0.950004 0.947989 0.946416 0.945867 0.945557 0.949207 0.949696 0.949856 0.950450 0.950397 0.951114 0.951723 0.949883 0.952153 0.944293 0.942952 0.948218 0.946139 0.947515 0.947479 0.948167 0.948973 0.949292 0.949563 0.946464 0.945969 0.945000 0.937914 0.930918 0.931056 0.933262 0.936147 0.933442 0.930518 0.931786 0.933778 0.932982 0.936396 0.927397 0.923178 0.896894 0.883425 0.873825 0.874036 0.877969 0.880594 0.878294 0.871983 0.863155 0.859554 0.859057 0.855348 0.847164 0.862585 0.856859 0.853680 0.857289 0.860501 0.865864 0.863798 0.859579 0.854780 0.849903 0.839965 0.841298 0.844588 0.848804 0.831635 0.821083 0.837786 0.829144 0.819881 0.827578 0.829460 0.826482 0.825215 0.825615 0.823028 0.816617 0.809259 0.813150 0.822110 0.823032 0.813378 0.811050 0.808885 0.808624 0.800935 0.805938 0.807439 0.803797 0.796251 0.813701 0.780714 0.801711 0.802658 0.785701 0.769913 0.757677 0.766541 0.776439 0.775664 0.770164 0.775038 0.774676 0.767006 0.740942 0.734277 0.741173 0.739305 0.727720 0.714163 0.721233 0.721233 0.717906 0.714795 0.717983 0.718928 0.695679 0.709170 0.713649 0.704186 0.717970 0.720619 0.711565 0.714850 0.718750 0.721670 0.722521 0.692088 0.695699 0.651235 0.640041 0.593642 0.590106 0.587706 0.529784 0.534059 0.508073 0.491706 0.492477 0.470844 0.522148 0.434255 0.421114 0.449388 0.375705 0.328200 0.345640 0.346446 0.360142 0.365899 0.357834 0.359887 0.345438 0.322832 0.306414 0.330851 0.347332 0.317765 0.322067 0.305595 0.284370 0.242703 0.258346 0.262552 0.291697 0.293975 0.274071 0.297503 0.347462 0.286921 0.267605 0.245438 0.271350 0.281173 0.277966 0.267843 0.276617 0.227401 0.224062 0.244582 0.246918 0.277811 0.304962 0.330463 0.326880 0.332650 0.362158 0.314326 0.330093 0.334665 0.323709 0.341766 0.345148 0.347074 0.341442 0.379352 0.368690 0.379179 0.374164 0.372694 0.413599 0.391445 0.365859 0.338521 0.346870 0.345901 0.344526 0.287524 0.267269 0.265475 0.223889 0.186349 0.188134 0.188300 0.143968 0.128820 0.112593 0.076107 0.075308 0.083494 0.110949 0.082042 0.099114 0.105845 0.105845 0.105845 0.105845 0.105845 0.105845 0.105845 0.105845 0.105845 0.105845 0.105845 0.105845 0.105845 0.105845 0.128314 0.128314 0.128314 0.128314 0.128314 0.128314 0.128314 0.128314 0.128314 0.128314 0.128314 0.128314
0.000000 0.000000 0.000000 0.000000 0.000000 0.000000 0.000000 0.000000 0.000000 0.000000 0.000000 0.000000 0.000000 0.000000 0.000000 0.000000 0.000000 0.000000 0.000000 0.000000 0.000000 0.000000 0.000000 0.000000 0.000000 0.000000 0.000000 0.000000 0.000000 0.000000 0.000000 0.000000 0.000000 0.000000 0.000000 0.000000 0.000000 0.000000 0.000000 0.000000 0.000000 0.000000 0.000000 0.000000 0.000000 0.000000 0.000000 0.000000 0.000000 0.000000 0.000000 0.000000 0.209657 0.209657 0.209657 0.209657 0.209657 0.209657 0.209657 0.209657 0.209657 0.209657 0.209657 0.209657 0.209657 0.209657 0.209657 0.209657 0.209657 0.209657 0.209657 0.209657 0.209657 0.209657 0.209657 0.209657 0.209657 0.209657 0.209657 0.209657 0.209657 0.209657 0.209657 0.209657 0.209657 0.244339 0.244339 0.244339 0.244339 0.244339 0.244339 0.244339 0.244339 0.244339 0.244339 0.244339 0.244339 0.244339 0.244339 0.244339 0.244339 0.244339 0.244339 0.244339 0.244339 0.244339 0.244339 0.244339 0.244339 0.244339 0.260378 0.260378 0.260378 0.260378 0.260378 0.260378 0.260378 0.260378 0.260378 0.260378 0.260378 0.260378 0.260378 0.260378 0.260378 0.260378 0.260378 0.260378 0.260378 0.260378 0.269680 0.269680 0.269680 0.269680 0.269680 0.269680 0.269680 0.269680 0.269680 0.269680 0.269680 0.269680 0.269680 0.269680 0.269680 0.269680 0.269680 0.269680 0.269680 0.269680 0.269680 0.269680 0.269680 0.269680 0.269680 0.269680 0.269680 0.269680 0.269680 0.269680 0.269680 0.269680 0.269680 0.280056 0.280056 0.280056 0.280056 0.280056 0.280056 0.280056 0.280056 0.280056 0.280056 0.280056 0.280056 0.280056 0.280056 0.280056 0.280056 0.280056 0.280056 0.280056 0.280056 0.280056 0.280056 0.280056 0.280056 0.280056 0.280056 0.280056 0.274721 0.274721 0.274721 0.274721 0.274721 0.274721 0.274721 0.274721 0.274721 0.274721 0.274721 0.274721 0.274721 0.285714 0.285714 0.285714 0.285714 0.285714 0.285714 0.285714 0.285714 0.285714 0.285714 0.285714 0.280056 0.280056 0.280056 0.280056 0.280056 0.280056 0.280056 0.280056 0.280056 0.280056 0.280056 0.274721 0.274721 0.274721 0.274721 0.274721 0.274721 0.274721 0.274721 0.274721 0.274721 0.274721 0.280056 0.280056 0.280056 0.280056 0.280056 0.280056 0.280056 0.280056 0.280056 0.280056 0.285714 0.285714 0.285714 0.285714 0.285714 0.285714 0.285714 0.285714 0.285714 0.269680 0.269680 0.269680 0.269680 0.269680 0.269680 0.269680 0.269680 0.269680 0.269680 0.274721 0.274721 0.274721 0.274721 0.274721 0.274721 0.274721 0.274721 0.274721 0.285714 0.285714 0.285714 0.285714 0.285714 0.285714 0.285714 0.285714 0.264906 0.264906 0.264906 0.264906 0.264906 0.264906 0.264906 0.264906 0.264906 0.274721 0.274721 0.274721 0.274721 0.274721 0.274721 0.274721 0.274721 0.269680 0.269680 0.269680 0.269680 0.269680 0.269680 0.269680 0.269680 0.269680 0.269680 0.269680 0.269680 0.269680 0.269680 0.269680 0.269680 0.280056 0.280056 0.280056 0.280056 0.280056 0.280056 0.280056 0.260378 0.260378 0.260378 0.260378 0.260378 0.260378 0.260378 0.260378 0.269680 0.269680 0.269680 0.269680 0.269680 0.269680 0.269680 0.264906 0.264906 0.264906 0.264906 0.264906 0.264906 0.264906 0.264906 0.264906 0.264906 0.264906 0.264906 0.264906 0.264906 0.260378 0.260378 0.260378 0.260378 0.260378 0.260378 0.260378 0.260378 0.260378 0.260378 0.260378 0.260378
