# Output from CTFFind version 4.1.9, run on 2019-11-03 19:49:06
# Input file: stack1_bm3d_averaged_1_5.25_0_2500_half.mrc ; Number of micrographs: 1
# Pixel size: 3.000 Angstroms ; acceleration voltage: 300.0 keV ; spherical aberration: 0.00 mm ; amplitude contrast: 0.07
# Box size: 512 pixels ; min. res.: 30.0 Angstroms ; max. res.: 5.0 Angstroms ; min. def.: 5000.0 um; max. def. 50000.0 um; num. frames averaged: 1
# 6 lines per micrograph: #1 - spatial frequency (1/Angstroms); #2 - 1D rotational average of spectrum (assuming no astigmatism); #3 - 1D rotational average of spectrum; #4 - CTF fit; #5 - cross-correlation between spectrum and CTF fit; #6 - 2sigma of expected cross correlation of noise
0.000000 0.000651 0.001302 0.001953 0.002604 0.003255 0.003906 0.004557 0.005208 0.005859 0.006510 0.007161 0.007812 0.008464 0.009115 0.009766 0.010417 0.011068 0.011719 0.012370 0.013021 0.013672 0.014323 0.014974 0.015625 0.016276 0.016927 0.017578 0.018229 0.018880 0.019531 0.020182 0.020833 0.021484 0.022135 0.022786 0.023438 0.024089 0.024740 0.025391 0.026042 0.026693 0.027344 0.027995 0.028646 0.029297 0.029948 0.030599 0.031250 0.031901 0.032552 0.033203 0.033854 0.034505 0.035156 0.035807 0.036458 0.037109 0.037760 0.038411 0.039062 0.039714 0.040365 0.041016 0.041667 0.042318 0.042969 0.043620 0.044271 0.044922 0.045573 0.046224 0.046875 0.047526 0.048177 0.048828 0.049479 0.050130 0.050781 0.051432 0.052083 0.052734 0.053385 0.054036 0.054688 0.055339 0.055990 0.056641 0.057292 0.057943 0.058594 0.059245 0.059896 0.060547 0.061198 0.061849 0.062500 0.063151 0.063802 0.064453 0.065104 0.065755 0.066406 0.067057 0.067708 0.068359 0.069010 0.069661 0.070312 0.070964 0.071615 0.072266 0.072917 0.073568 0.074219 0.074870 0.075521 0.076172 0.076823 0.077474 0.078125 0.078776 0.079427 0.080078 0.080729 0.081380 0.082031 0.082682 0.083333 0.083984 0.084635 0.085286 0.085938 0.086589 0.087240 0.087891 0.088542 0.089193 0.089844 0.090495 0.091146 0.091797 0.092448 0.093099 0.093750 0.094401 0.095052 0.095703 0.096354 0.097005 0.097656 0.098307 0.098958 0.099609 0.100260 0.100911 0.101562 0.102214 0.102865 0.103516 0.104167 0.104818 0.105469 0.106120 0.106771 0.107422 0.108073 0.108724 0.109375 0.110026 0.110677 0.111328 0.111979 0.112630 0.113281 0.113932 0.114583 0.115234 0.115885 0.116536 0.117188 0.117839 0.118490 0.119141 0.119792 0.120443 0.121094 0.121745 0.122396 0.123047 0.123698 0.124349 0.125000 0.125651 0.126302 0.126953 0.127604 0.128255 0.128906 0.129557 0.130208 0.130859 0.131510 0.132161 0.132812 0.133464 0.134115 0.134766 0.135417 0.136068 0.136719 0.137370 0.138021 0.138672 0.139323 0.139974 0.140625 0.141276 0.141927 0.142578 0.143229 0.143880 0.144531 0.145182 0.145833 0.146484 0.147135 0.147786 0.148438 0.149089 0.149740 0.150391 0.151042 0.151693 0.152344 0.152995 0.153646 0.154297 0.154948 0.155599 0.156250 0.156901 0.157552 0.158203 0.158854 0.159505 0.160156 0.160807 0.161458 0.162109 0.162760 0.163411 0.164062 0.164714 0.165365 0.166016 0.166667 0.167318 0.167969 0.168620 0.169271 0.169922 0.170573 0.171224 0.171875 0.172526 0.173177 0.173828 0.174479 0.175130 0.175781 0.176432 0.177083 0.177734 0.178385 0.179036 0.179688 0.180339 0.180990 0.181641 0.182292 0.182943 0.183594 0.184245 0.184896 0.185547 0.186198 0.186849 0.187500 0.188151 0.188802 0.189453 0.190104 0.190755 0.191406 0.192057 0.192708 0.193359 0.194010 0.194661 0.195312 0.195964 0.196615 0.197266 0.197917 0.198568 0.199219 0.199870 0.200521 0.201172 0.201823 0.202474 0.203125 0.203776 0.204427 0.205078 0.205729 0.206380 0.207031 0.207682 0.208333 0.208984 0.209635 0.210286 0.210938 0.211589 0.212240 0.212891 0.213542 0.214193 0.214844 0.215495 0.216146 0.216797 0.217448 0.218099 0.218750 0.219401 0.220052 0.220703 0.221354 0.222005 0.222656 0.223307 0.223958 0.224609 0.225260 0.225911 0.226562 0.227214 0.227865 0.228516 0.229167 0.229818 0.230469 0.231120 0.231771 0.232422 0.233073 0.233724 0.234375 0.235026 0.235677
       0.35110        0.35110        0.35110        0.35110        0.35110        0.35110        0.35110        0.35110        0.35110        0.35110        0.35110        0.35110        0.35110        0.35110        0.35110        0.35110        0.35110        0.35110        0.35110        0.35110        0.35110        0.35110        0.35110        0.35110        0.35110        0.35110        0.35110        0.35110        0.35110        0.35110        0.35110        0.35110        0.35110        0.35110        0.35110        0.35110        0.35110        0.35110        0.35110        0.35110        0.35110        0.35110        0.35110        0.35110        0.35110        0.35110        0.35110        0.35110        0.35110        0.35110        0.35110        0.40740        0.59628        0.28215        0.12750       -0.01554       -0.27028       -0.09657       -0.17287       -0.20106        0.01790       -0.12879       -0.11136       -0.05647       -0.03520       -0.12809       -0.15673       -0.29599       -0.40081       -0.50426       -0.44732       -0.34697       -0.27189       -0.39613       -0.30709       -0.40496       -0.33898       -0.38672       -0.20567       -0.20082       -0.25682       -0.09218       -0.04672       -0.04482        0.08380        0.03199        0.20305        0.21888        0.33338        0.36832        0.45392        0.48767        0.54074        0.60250        0.67219        0.57195        0.52977        0.50630        0.48751        0.57191        0.48291        0.42946        0.40870        0.33181        0.28592        0.30970        0.32096        0.22107        0.19411        0.09109        0.13078        0.13401        0.15589        0.12512        0.18898        0.24046        0.29927        0.29886        0.32955        0.46346        0.42571        0.48875        0.63600        0.62759        0.55856        0.55506        0.57793        0.42979        0.48048        0.36816        0.31905        0.29222        0.24690        0.25194        0.19597        0.17087        0.15434        0.22485        0.24747        0.27769        0.34060        0.33014        0.40656        0.47523        0.47021        0.44980        0.47899        0.55490        0.49372        0.48222        0.42504        0.35563        0.34138        0.26366        0.29698        0.23378        0.21976        0.28738        0.23383        0.25683        0.32159        0.41269        0.41576        0.45060        0.42848        0.50650        0.49860        0.46821        0.43558        0.39343        0.38276        0.39237        0.40470        0.34990        0.28274        0.31443        0.29134        0.29413        0.30175        0.34699        0.37560        0.39895        0.45512        0.49396        0.41453        0.42950        0.43429        0.39477        0.33429        0.37038        0.32749        0.32134        0.33394        0.29764        0.26623        0.32872        0.34218        0.41363        0.42754        0.41920        0.40736        0.39859        0.37573        0.37445        0.31106        0.31581        0.35060        0.30187        0.31389        0.33041        0.34647        0.35016        0.35525        0.38706        0.38509        0.45582        0.39242        0.34376        0.36554        0.34327        0.33371        0.33351        0.33207        0.37254        0.33381        0.35814        0.35417        0.41125        0.37821        0.36603        0.38767        0.38247        0.36097        0.34206        0.33456        0.31138        0.35313        0.33072        0.31739        0.33052        0.36288        0.35222        0.34581        0.33659        0.30323        0.29980        0.27819        0.30987        0.33439        0.35108        0.33664        0.32115        0.37162        0.33411        0.34387        0.32511        0.30372        0.34460        0.32120        0.31513        0.34619        0.32703        0.31806        0.29937        0.34127        0.37049        0.32388        0.31280        0.32358        0.32159        0.30236        0.35490        0.32384        0.29479        0.34009        0.30564        0.34601        0.35885        0.37313        0.31097        0.31410        0.26841        0.33735        0.35958        0.34338        0.31455        0.30856        0.33365        0.32363        0.29143        0.31936        0.32098        0.31564        0.31497        0.30418        0.29516        0.29972        0.30284        0.32472        0.28867        0.31183        0.35694        0.36984        0.35192        0.31918        0.33196        0.28678        0.30685        0.28618        0.33699        0.34382        0.27297        0.25984        0.32815        0.32862        0.31611        0.29173        0.30685        0.32946        0.29048        0.30644        0.33397        0.32420        0.28253        0.25918        0.29947        0.33842        0.28568        0.26884        0.28950        0.27681        0.30437        0.37090        0.31167        0.32465        0.28187        0.26396        0.30113        0.28500        0.23447        0.25129        0.27392        0.24784        0.22131        0.27226        0.28522        0.39057        0.29530        0.26354        0.22144        0.24680        0.25910        0.24487        0.31158        0.20080        0.16150        0.29511        0.41642        0.31122        0.11657        0.05648       -0.56941       -1.10304
3.066779 3.033381 3.000168 2.967138 2.934294 2.901633 2.869157 2.836866 2.804758 2.772835 2.741097 2.709542 2.678172 2.646987 2.615986 2.585169 2.554536 2.524088 2.493824 2.463745 2.433850 2.404139 2.374612 2.345270 2.316113 2.287139 2.258350 2.229745 2.201325 2.173089 2.145038 2.117170 2.089487 2.061989 2.034674 2.007544 1.980599 1.953838 1.927261 1.900868 1.874660 1.848637 1.822797 1.797142 1.771671 1.746385 1.721283 1.696365 1.671632 1.647083 1.622718 1.586143 1.945639 1.682428 1.074909 1.120242 0.422611 0.917675 0.533633 0.678469 0.907925 0.702488 0.594423 0.775344 0.718288 0.632433 0.536717 0.336076 0.110447 -0.020784 -0.020419 0.006352 0.399165 -0.041507 0.124235 -0.005167 0.061065 -0.064182 0.204166 0.178019 0.081899 0.271433 0.384462 0.290379 0.487767 0.402351 0.688742 0.574719 0.824877 0.776946 0.893074 1.055854 0.954043 1.147781 1.173073 1.144388 0.935534 0.912198 0.902641 0.931516 0.881074 0.770328 0.660576 0.606001 0.517418 0.487157 0.523545 0.369674 0.335571 0.170044 0.131578 0.177100 0.189495 0.123562 0.166311 0.251440 0.338403 0.338322 0.397999 0.413022 0.563783 0.397601 0.741385 0.780332 0.669136 0.615246 0.674976 0.460283 0.427027 0.397648 0.210641 0.223155 0.063771 0.160395 -0.005021 0.003541 -0.072120 -0.052068 0.107914 0.031322 0.120163 0.172900 0.216533 0.290177 0.359143 0.299285 0.288153 0.422883 0.405715 0.341640 0.298467 0.194591 0.148639 0.057109 -0.011234 0.009077 -0.117504 0.019206 0.012529 -0.088739 -0.046433 0.121015 0.250875 0.172259 0.263847 0.211531 0.414722 0.286039 0.278322 0.280735 0.155315 0.116376 0.294711 0.084508 0.082487 0.012201 0.077618 -0.010155 0.082551 0.002454 0.171125 0.063210 0.208849 0.288173 0.265900 0.122624 0.210596 0.166336 0.093215 0.088162 0.078394 0.011925 0.018494 0.055411 -0.080889 -0.056134 0.050920 0.043555 0.213918 0.140476 0.134232 0.067329 0.094833 0.047568 0.019460 -0.076263 -0.008965 0.000411 -0.075946 -0.022770 -0.012733 0.022487 -0.023311 0.025371 0.084104 0.071665 0.190397 -0.010011 0.035818 0.026259 -0.025828 -0.002284 -0.022555 0.004233 0.075639 -0.029558 0.010467 0.041605 0.128183 0.038531 0.039507 0.091080 0.024657 0.043819 -0.018439 0.005064 -0.037070 0.025120 -0.010063 -0.031706 0.005268 0.030010 0.001703 0.030767 -0.024750 -0.050918 -0.059000 -0.087817 -0.024513 0.010697 0.048806 -0.026325 -0.012083 0.090487 -0.011491 0.041713 -0.014266 -0.014654 0.040687 -0.017121 0.022594 0.045322 0.018676 -0.006476 -0.021532 0.047493 0.101904 0.010048 0.022602 0.047660 -0.018417 0.030562 0.080688 0.025933 0.004661 0.067340 0.031861 0.031092 0.063975 0.068104 0.015779 -0.023893 -0.078968 0.057464 0.095359 -0.000345 0.008584 -0.019240 0.078685 -0.008190 -0.047324 0.024485 0.030413 0.007183 0.007249 -0.040951 -0.004826 -0.037000 -0.015933 0.003341 -0.049508 0.034539 0.077917 0.098558 0.032966 0.016039 -0.001024 -0.024928 -0.033595 -0.036225 0.018484 0.039096 -0.104935 -0.086532 0.023055 0.002486 0.016989 -0.053650 -0.087542 0.031904 -0.036589 -0.021374 0.085628 -0.008731 -0.011963 -0.068604 -0.018402 0.096533 -0.016862 0.012854 0.028285 0.064856 0.069689 0.186780 0.062797 0.087780 0.031553 0.085480 0.100520 0.035082 -0.006801 0.004988 0.075917 0.044920 -0.010578 0.013270 0.177783 0.290479 0.016716 0.115981 -0.093602 0.028863 0.080870 0.012869 0.147370 0.252049 0.231713 0.528993 0.728227 0.349352 0.068441 0.088826 -1.603975
0.072396 0.072906 0.074437 0.076987 0.080556 0.085143 0.090748 0.097368 0.105001 0.113644 0.123293 0.133945 0.145594 0.158232 0.171853 0.186446 0.202000 0.218501 0.235934 0.254282 0.273522 0.293632 0.314583 0.336346 0.358886 0.382164 0.406136 0.430756 0.455970 0.481720 0.507942 0.534567 0.561517 0.588712 0.616062 0.643473 0.670841 0.698057 0.725005 0.751561 0.777596 0.802971 0.827542 0.851160 0.873668 0.894903 0.914697 0.932879 0.949273 0.963700 0.975978 0.985926 0.993362 0.998105 0.999977 0.998805 0.994422 0.986668 0.975395 0.960463 0.941749 0.919145 0.892561 0.861926 0.827195 0.788347 0.745385 0.698347 0.647299 0.592341 0.533612 0.471285 0.405572 0.336728 0.265046 0.190862 0.114555 0.036542 0.042717 0.122723 0.202939 0.282796 0.361689 0.438990 0.514043 0.586177 0.654708 0.718945 0.778198 0.831790 0.879057 0.919363 0.952109 0.976739 0.992753 0.999717 0.997271 0.985139 0.963140 0.931196 0.889338 0.837715 0.776603 0.706402 0.627645 0.540999 0.447262 0.347361 0.242349 0.133396 0.021778 0.091131 0.203879 0.314948 0.422778 0.525786 0.622389 0.711033 0.790218 0.858525 0.914646 0.957411 0.985819 0.999063 0.996554 0.977947 0.943160 0.892387 0.826115 0.745129 0.650509 0.543631 0.426153 0.300001 0.167336 0.030534 0.107863 0.245183 0.378677 0.505574 0.623140 0.728738 0.819895 0.894361 0.950175 0.985723 0.999793 0.991624 0.960942 0.907995 0.833571 0.739000 0.626149 0.497403 0.355620 0.204085 0.046441 0.113392 0.271310 0.423127 0.564690 0.691991 0.801292 0.889242 0.952985 0.990275 0.999558 0.980058 0.931823 0.855768 0.753679 0.628190 0.482746 0.321511 0.149281 0.028663 0.206696 0.379033 0.539909 0.683777 0.805518 0.900621 0.965371 0.997018 0.993904 0.955569 0.882817 0.777728 0.643633 0.485038 0.307491 0.117408 0.078139 0.271681 0.455633 0.622592 0.765643 0.878662 0.956596 0.995711 0.993798 0.950319 0.866492 0.745298 0.591411 0.411055 0.211775 0.002148 0.208574 0.410868 0.595363 0.753291 0.876916 0.959940 0.997849 0.988193 0.930774 0.827732 0.683508 0.504704 0.299814 0.078853 0.147116 0.366516 0.567854 0.740324 0.874416 0.962462 0.999112 0.981699 0.910469 0.788658 0.622401 0.420474 0.193869 0.044766 0.281820 0.503480 0.696549 0.849245 0.951954 0.997874 0.983515 0.909009 0.778209 0.598552 0.380700 0.137951 0.114539 0.360682 0.584470 0.771047 0.907695 0.984772 0.996425 0.941100 0.821765 0.645831 0.424759 0.173380 0.091074 0.350106 0.585251 0.779406 0.918103 0.990637 0.990949 0.918208 0.777002 0.577141 0.333045 0.062779 0.213266 0.473866 0.698613 0.869535 0.972582 0.998841 0.945388 0.815670 0.619392 0.371873 0.092928 0.194677 0.467037 0.701123 0.876734 0.978303 0.996354 0.928464 0.779649 0.562111 0.294318 0.000476 0.296207 0.566276 0.785973 0.934759 0.998267 0.969779 0.851032 0.652249 0.391372 0.092542 0.216079 0.504920 0.745846 0.914933 0.994915 0.977041 0.862149 0.660783 0.392371 0.083436 0.234952 0.530244 0.771780 0.933984 0.999176 0.959601 0.818469 0.589858 0.297430 0.027904 0.351185 0.637147 0.854072 0.977394 0.992568 0.896924 0.700213 0.423773 0.098332 0.239301 0.550366 0.798611 0.954564 0.999134 0.926094 0.743072 0.470936 0.141554 0.205829 0.529216 0.788931 0.952542 0.999027 0.921616 0.728917 0.444160 0.102531 0.253057 0.577295 0.828267 0.972939 0.991630 0.880854 0.654084 0.340326 0.019473 0.377622 0.686023 0.902618
1.000000 1.000000 1.000000 1.000000 1.000000 1.000000 1.000000 1.000000 1.000000 1.000000 1.000000 1.000000 1.000000 1.000000 1.000000 1.000000 1.000000 1.000000 1.000000 1.000000 1.000000 1.000000 1.000000 1.000000 1.000000 1.000000 1.000000 1.000000 1.000000 1.000000 1.000000 1.000000 1.000000 1.000000 1.000000 1.000000 1.000000 1.000000 1.000000 1.000000 1.000000 1.000000 1.000000 1.000000 1.000000 1.000000 1.000000 1.000000 1.000000 1.000000 1.000000 1.000000 0.840262 0.840262 0.840262 0.850125 0.850125 0.850125 0.850125 0.850125 0.850125 0.850125 0.850125 0.850125 0.850125 0.850125 0.850125 0.850125 0.850125 0.850125 0.850125 0.850125 0.850125 0.850125 0.850125 0.850125 0.850125 0.850125 0.850125 0.850125 0.850125 0.850125 0.850125 0.850125 0.850125 0.850125 0.850125 0.850125 0.850125 0.850125 0.850125 0.850125 0.850125 0.850125 0.850125 0.850125 0.864600 0.869087 0.871424 0.873993 0.876943 0.874386 0.873249 0.872912 0.873187 0.874081 0.884950 0.909724 0.926305 0.929888 0.939273 0.942953 0.948390 0.949737 0.958834 0.963038 0.964926 0.961800 0.961158 0.962968 0.944289 0.941084 0.938517 0.935355 0.945430 0.941789 0.937216 0.932710 0.930961 0.928639 0.928109 0.929579 0.922913 0.923528 0.923596 0.922854 0.922879 0.920980 0.920005 0.902139 0.903690 0.902855 0.905856 0.894839 0.887944 0.879585 0.872081 0.883976 0.877348 0.869808 0.868742 0.864474 0.864895 0.865048 0.864475 0.848257 0.846535 0.843415 0.839726 0.839400 0.839061 0.844148 0.846262 0.847721 0.833848 0.808163 0.790428 0.763920 0.762383 0.768155 0.771971 0.768988 0.770503 0.768672 0.766377 0.760400 0.757809 0.748581 0.750710 0.746838 0.739685 0.734822 0.714000 0.707093 0.706415 0.680579 0.695188 0.685623 0.686435 0.654143 0.651051 0.653958 0.660670 0.665915 0.677176 0.671781 0.662719 0.629541 0.601856 0.584538 0.598745 0.622353 0.612376 0.614909 0.594230 0.610299 0.616204 0.633215 0.644751 0.646343 0.633112 0.593948 0.562222 0.562103 0.569825 0.570976 0.569923 0.570037 0.576696 0.600639 0.580212 0.557358 0.538603 0.533810 0.539345 0.554186 0.530817 0.521159 0.490755 0.468712 0.451464 0.457485 0.445319 0.434902 0.428510 0.418806 0.404871 0.400545 0.419384 0.407338 0.404292 0.406278 0.399251 0.414042 0.379429 0.347705 0.349194 0.342888 0.338469 0.324579 0.309143 0.314048 0.321815 0.333816 0.369348 0.344708 0.328530 0.302883 0.306164 0.287752 0.307758 0.297102 0.282442 0.260616 0.233766 0.204883 0.207877 0.232593 0.251273 0.220912 0.175860 0.133975 0.125325 0.103216 0.094229 0.030160 -0.028067 -0.034558 -0.023646 -0.033166 -0.027955 -0.028699 -0.048723 -0.026351 -0.010198 0.035152 0.006876 0.004718 -0.023545 -0.005201 -0.042438 -0.053410 -0.082418 -0.074852 -0.061091 -0.038162 -0.061662 -0.075576 -0.092012 -0.087872 -0.126577 -0.114031 -0.118588 -0.113032 -0.114758 -0.154198 -0.166331 -0.193296 -0.206600 -0.135197 -0.134711 -0.131114 -0.154104 -0.148640 -0.135821 -0.145133 -0.153982 -0.123199 -0.131063 -0.115566 -0.116750 -0.111249 -0.069793 -0.061335 -0.067708 -0.070820 -0.058547 -0.061653 -0.073678 -0.071331 -0.028775 -0.011780 0.000832 -0.015388 -0.062137 -0.062137 -0.062137 -0.075656 -0.075656 -0.075656 -0.075656 -0.075656 -0.075656 -0.075656 -0.075656 -0.075656 -0.089623 -0.089623 -0.089623 -0.089623 -0.089623 -0.089623 -0.089623 -0.089623 -0.089623 -0.089623 -0.089623 -0.089623 -0.089623 -0.089623 -0.089623 -0.089623 -0.089623
0.000000 0.000000 0.000000 0.000000 0.000000 0.000000 0.000000 0.000000 0.000000 0.000000 0.000000 0.000000 0.000000 0.000000 0.000000 0.000000 0.000000 0.000000 0.000000 0.000000 0.000000 0.000000 0.000000 0.000000 0.000000 0.000000 0.000000 0.000000 0.000000 0.000000 0.000000 0.000000 0.000000 0.000000 0.000000 0.000000 0.000000 0.000000 0.000000 0.000000 0.000000 0.000000 0.000000 0.000000 0.000000 0.000000 0.000000 0.000000 0.000000 0.000000 0.000000 0.000000 0.180334 0.180334 0.180334 0.199007 0.199007 0.199007 0.199007 0.199007 0.199007 0.199007 0.199007 0.199007 0.199007 0.199007 0.199007 0.199007 0.199007 0.199007 0.199007 0.199007 0.199007 0.199007 0.199007 0.199007 0.199007 0.199007 0.199007 0.199007 0.199007 0.199007 0.199007 0.199007 0.199007 0.199007 0.199007 0.199007 0.199007 0.199007 0.199007 0.199007 0.199007 0.199007 0.199007 0.199007 0.230940 0.230940 0.230940 0.230940 0.230940 0.230940 0.230940 0.230940 0.230940 0.230940 0.230940 0.230940 0.230940 0.230940 0.230940 0.230940 0.230940 0.230940 0.230940 0.230940 0.230940 0.230940 0.230940 0.230940 0.230940 0.230940 0.230940 0.230940 0.244339 0.244339 0.244339 0.244339 0.244339 0.244339 0.244339 0.244339 0.244339 0.244339 0.244339 0.244339 0.244339 0.244339 0.244339 0.244339 0.244339 0.244339 0.244339 0.244339 0.244339 0.244339 0.244339 0.256074 0.256074 0.256074 0.256074 0.256074 0.256074 0.256074 0.256074 0.256074 0.256074 0.256074 0.256074 0.256074 0.256074 0.256074 0.256074 0.256074 0.256074 0.256074 0.256074 0.256074 0.256074 0.256074 0.256074 0.256074 0.256074 0.256074 0.256074 0.256074 0.256074 0.256074 0.256074 0.256074 0.256074 0.256074 0.256074 0.256074 0.264906 0.264906 0.264906 0.264906 0.264906 0.264906 0.264906 0.264906 0.264906 0.264906 0.264906 0.264906 0.264906 0.264906 0.264906 0.264906 0.264906 0.264906 0.264906 0.264906 0.264906 0.264906 0.264906 0.264906 0.264906 0.264906 0.264906 0.264906 0.264906 0.264906 0.264906 0.264906 0.264906 0.264906 0.264906 0.264906 0.264906 0.264906 0.264906 0.264906 0.264906 0.264906 0.264906 0.264906 0.264906 0.264906 0.264906 0.264906 0.264906 0.264906 0.264906 0.264906 0.264906 0.264906 0.264906 0.264906 0.264906 0.264906 0.269680 0.269680 0.269680 0.269680 0.269680 0.269680 0.269680 0.269680 0.269680 0.269680 0.269680 0.269680 0.264906 0.264906 0.264906 0.264906 0.264906 0.264906 0.264906 0.264906 0.264906 0.264906 0.264906 0.264906 0.269680 0.269680 0.269680 0.269680 0.269680 0.269680 0.269680 0.269680 0.269680 0.269680 0.269680 0.264906 0.264906 0.264906 0.264906 0.264906 0.264906 0.264906 0.264906 0.264906 0.264906 0.264906 0.256074 0.256074 0.256074 0.256074 0.256074 0.256074 0.256074 0.256074 0.256074 0.256074 0.256074 0.264906 0.264906 0.264906 0.264906 0.264906 0.264906 0.264906 0.264906 0.264906 0.264906 0.260378 0.260378 0.260378 0.260378 0.260378 0.260378 0.260378 0.260378 0.260378 0.260378 0.264906 0.264906 0.264906 0.264906 0.264906 0.264906 0.264906 0.264906 0.264906 0.260378 0.260378 0.260378 0.260378 0.260378 0.260378 0.260378 0.260378 0.260378 0.256074 0.256074 0.256074 0.256074 0.256074 0.256074 0.256074 0.256074 0.256074 0.251976 0.251976 0.251976 0.251976 0.251976 0.251976 0.251976 0.251976 0.251976 0.251976 0.251976 0.251976 0.251976 0.251976 0.251976 0.251976 0.251976
