# Output from CTFFind version 4.1.9, run on 2019-11-03 20:08:41
# Input file: stack6_bm3d_averaged_1_7.5_0_2000_half.mrc ; Number of micrographs: 1
# Pixel size: 3.000 Angstroms ; acceleration voltage: 300.0 keV ; spherical aberration: 0.00 mm ; amplitude contrast: 0.07
# Box size: 512 pixels ; min. res.: 30.0 Angstroms ; max. res.: 5.0 Angstroms ; min. def.: 5000.0 um; max. def. 50000.0 um; num. frames averaged: 1
# 6 lines per micrograph: #1 - spatial frequency (1/Angstroms); #2 - 1D rotational average of spectrum (assuming no astigmatism); #3 - 1D rotational average of spectrum; #4 - CTF fit; #5 - cross-correlation between spectrum and CTF fit; #6 - 2sigma of expected cross correlation of noise
0.000000 0.000651 0.001302 0.001953 0.002604 0.003255 0.003906 0.004557 0.005208 0.005859 0.006510 0.007161 0.007812 0.008464 0.009115 0.009766 0.010417 0.011068 0.011719 0.012370 0.013021 0.013672 0.014323 0.014974 0.015625 0.016276 0.016927 0.017578 0.018229 0.018880 0.019531 0.020182 0.020833 0.021484 0.022135 0.022786 0.023438 0.024089 0.024740 0.025391 0.026042 0.026693 0.027344 0.027995 0.028646 0.029297 0.029948 0.030599 0.031250 0.031901 0.032552 0.033203 0.033854 0.034505 0.035156 0.035807 0.036458 0.037109 0.037760 0.038411 0.039062 0.039714 0.040365 0.041016 0.041667 0.042318 0.042969 0.043620 0.044271 0.044922 0.045573 0.046224 0.046875 0.047526 0.048177 0.048828 0.049479 0.050130 0.050781 0.051432 0.052083 0.052734 0.053385 0.054036 0.054688 0.055339 0.055990 0.056641 0.057292 0.057943 0.058594 0.059245 0.059896 0.060547 0.061198 0.061849 0.062500 0.063151 0.063802 0.064453 0.065104 0.065755 0.066406 0.067057 0.067708 0.068359 0.069010 0.069661 0.070312 0.070964 0.071615 0.072266 0.072917 0.073568 0.074219 0.074870 0.075521 0.076172 0.076823 0.077474 0.078125 0.078776 0.079427 0.080078 0.080729 0.081380 0.082031 0.082682 0.083333 0.083984 0.084635 0.085286 0.085938 0.086589 0.087240 0.087891 0.088542 0.089193 0.089844 0.090495 0.091146 0.091797 0.092448 0.093099 0.093750 0.094401 0.095052 0.095703 0.096354 0.097005 0.097656 0.098307 0.098958 0.099609 0.100260 0.100911 0.101562 0.102214 0.102865 0.103516 0.104167 0.104818 0.105469 0.106120 0.106771 0.107422 0.108073 0.108724 0.109375 0.110026 0.110677 0.111328 0.111979 0.112630 0.113281 0.113932 0.114583 0.115234 0.115885 0.116536 0.117188 0.117839 0.118490 0.119141 0.119792 0.120443 0.121094 0.121745 0.122396 0.123047 0.123698 0.124349 0.125000 0.125651 0.126302 0.126953 0.127604 0.128255 0.128906 0.129557 0.130208 0.130859 0.131510 0.132161 0.132812 0.133464 0.134115 0.134766 0.135417 0.136068 0.136719 0.137370 0.138021 0.138672 0.139323 0.139974 0.140625 0.141276 0.141927 0.142578 0.143229 0.143880 0.144531 0.145182 0.145833 0.146484 0.147135 0.147786 0.148438 0.149089 0.149740 0.150391 0.151042 0.151693 0.152344 0.152995 0.153646 0.154297 0.154948 0.155599 0.156250 0.156901 0.157552 0.158203 0.158854 0.159505 0.160156 0.160807 0.161458 0.162109 0.162760 0.163411 0.164062 0.164714 0.165365 0.166016 0.166667 0.167318 0.167969 0.168620 0.169271 0.169922 0.170573 0.171224 0.171875 0.172526 0.173177 0.173828 0.174479 0.175130 0.175781 0.176432 0.177083 0.177734 0.178385 0.179036 0.179688 0.180339 0.180990 0.181641 0.182292 0.182943 0.183594 0.184245 0.184896 0.185547 0.186198 0.186849 0.187500 0.188151 0.188802 0.189453 0.190104 0.190755 0.191406 0.192057 0.192708 0.193359 0.194010 0.194661 0.195312 0.195964 0.196615 0.197266 0.197917 0.198568 0.199219 0.199870 0.200521 0.201172 0.201823 0.202474 0.203125 0.203776 0.204427 0.205078 0.205729 0.206380 0.207031 0.207682 0.208333 0.208984 0.209635 0.210286 0.210938 0.211589 0.212240 0.212891 0.213542 0.214193 0.214844 0.215495 0.216146 0.216797 0.217448 0.218099 0.218750 0.219401 0.220052 0.220703 0.221354 0.222005 0.222656 0.223307 0.223958 0.224609 0.225260 0.225911 0.226562 0.227214 0.227865 0.228516 0.229167 0.229818 0.230469 0.231120 0.231771 0.232422 0.233073 0.233724 0.234375 0.235026 0.235677
       0.33312        0.33312        0.33312        0.33312        0.33312        0.33312        0.33312        0.33312        0.33312        0.33312        0.33312        0.33312        0.33312        0.33312        0.33312        0.33312        0.33312        0.33312        0.33312        0.33312        0.33312        0.33312        0.33312        0.33312        0.33312        0.33312        0.33312        0.33312        0.33312        0.33312        0.33312        0.33312        0.33312        0.33312        0.33312        0.33312        0.33312        0.33312        0.33312        0.33312        0.33312        0.33312        0.33312        0.33312        0.33312        0.33312        0.33312        0.33312        0.33312        0.33312        0.33312        0.59604        0.70869        0.36608        0.17265        0.13991       -0.12798        0.11320        0.04179        0.04413        0.09411        0.30993        0.30696        0.23614        0.14208       -0.03703       -0.00937        0.05255       -0.08840       -0.09495       -0.06805       -0.07420       -0.17214       -0.10920       -0.21833       -0.23757       -0.23590       -0.29402       -0.36453       -0.29337       -0.20246       -0.16668       -0.27409       -0.19943       -0.23885       -0.18011       -0.12103       -0.06238       -0.03452        0.02062        0.06949        0.15219        0.19318        0.23556        0.34727        0.41214        0.36217        0.48432        0.54583        0.55426        0.63000        0.55419        0.58427        0.60468        0.60476        0.59413        0.56026        0.59703        0.54174        0.39954        0.35559        0.37833        0.34453        0.21341        0.20514        0.17491        0.11826        0.11581        0.04412        0.11164        0.08926        0.05691        0.13756        0.19210        0.27871        0.34936        0.36709        0.39945        0.44911        0.48186        0.42323        0.63745        0.55081        0.48233        0.56977        0.50408        0.55939        0.51776        0.39167        0.32963        0.31574        0.27017        0.26010        0.21653        0.19872        0.17722        0.26899        0.24702        0.26586        0.23670        0.27592        0.33953        0.33885        0.45089        0.44642        0.43322        0.41865        0.48260        0.43662        0.41701        0.40858        0.39758        0.33697        0.28411        0.28420        0.27262        0.27111        0.21642        0.20595        0.25381        0.27074        0.29116        0.35196        0.38729        0.42802        0.41800        0.42983        0.49182        0.47570        0.43087        0.38337        0.41895        0.38304        0.33175        0.34146        0.33262        0.27466        0.28549        0.28192        0.25837        0.32207        0.30128        0.32040        0.34036        0.40024        0.42361        0.41348        0.44234        0.39189        0.43465        0.40777        0.33644        0.30219        0.27747        0.28792        0.26028        0.22922        0.31551        0.37824        0.33986        0.31223        0.36807        0.29462        0.35310        0.40442        0.38943        0.36664        0.38051        0.34942        0.36410        0.33628        0.30847        0.28971        0.27171        0.32326        0.33475        0.35456        0.36895        0.39094        0.37305        0.36915        0.32810        0.35811        0.36635        0.34686        0.33084        0.29182        0.29015        0.27268        0.34211        0.33802        0.35104        0.31990        0.35119        0.37403        0.34041        0.35815        0.35094        0.31663        0.31361        0.31094        0.28391        0.27449        0.26490        0.25600        0.27666        0.26940        0.30545        0.27667        0.31831        0.36227        0.26527        0.29702        0.28395        0.25092        0.30575        0.28826        0.28933        0.31578        0.33036        0.33117        0.31846        0.31742        0.31443        0.36390        0.36093        0.30418        0.32842        0.32047        0.37070        0.28115        0.27999        0.29731        0.30826        0.33388        0.36811        0.35909        0.29815        0.23404        0.29913        0.26960        0.26063        0.26207        0.27792        0.31092        0.24043        0.30770        0.33397        0.36885        0.31151        0.31810        0.28576        0.29592        0.29215        0.26861        0.29114        0.27146        0.28626        0.35347        0.35001        0.28594        0.32671        0.33090        0.26288        0.23185        0.18963        0.33365        0.32927        0.36177        0.34718        0.29419        0.23239        0.22165        0.27883        0.27280        0.27208        0.29480        0.29381        0.24772        0.28368        0.28477        0.31021        0.28317        0.28099        0.27580        0.24760        0.23373        0.29016        0.25194        0.21693        0.26170        0.25870        0.26401        0.22661        0.20625        0.27317        0.30440        0.28013        0.20383        0.14731        0.28930        0.22712        0.26043        0.27490        0.16760        0.16250        0.20374        0.24279        0.30268        0.09358       -0.11651       -0.60990       -0.97004
2.428847 2.408273 2.387790 2.367398 2.347097 2.326887 2.306768 2.286741 2.266804 2.246958 2.227204 2.207540 2.187967 2.168486 2.149095 2.129796 2.110588 2.091470 2.072444 2.053509 2.034664 2.015911 1.997249 1.978678 1.960198 1.941809 1.923511 1.905304 1.887188 1.869163 1.851229 1.833386 1.815634 1.797973 1.780404 1.762925 1.745537 1.728241 1.711035 1.693921 1.676897 1.659965 1.643123 1.626373 1.609714 1.593145 1.576668 1.560282 1.543987 1.527783 1.511670 1.869444 2.211715 1.535964 1.331631 1.106747 0.519574 0.936651 0.804059 0.847660 0.701376 1.427991 1.195676 1.212839 0.988625 0.595829 0.470090 0.748663 0.604927 0.284710 0.271331 0.488627 0.249058 0.266825 0.110618 -0.002002 -0.016463 -0.009101 -0.321023 -0.142375 0.013491 0.011532 -0.080630 -0.013541 -0.103544 -0.082405 0.069432 0.199329 0.261537 0.281961 0.388662 0.634262 0.564905 0.671880 0.830583 1.066233 0.807535 1.273421 1.198060 1.275067 1.374544 1.265558 1.163752 1.378954 1.242162 1.348850 1.209223 1.210329 1.224842 0.966638 0.718964 0.751570 0.798543 0.483796 0.450747 0.373840 0.242183 0.198497 0.035086 0.237194 0.175978 0.062423 0.143320 0.240397 0.366185 0.608494 0.611730 0.632515 0.698201 0.881987 0.595634 1.030072 1.056663 0.776953 0.928365 0.772419 0.891560 0.921994 0.654076 0.409726 0.440530 0.389077 0.223387 0.246712 0.162474 -0.014949 0.254976 0.235473 0.263038 0.158855 0.249084 0.335060 0.277035 0.502614 0.604548 0.557544 0.367593 0.650611 0.562676 0.417643 0.543198 0.434779 0.267187 0.311717 0.139774 0.216476 0.025401 0.216028 -0.053953 0.057701 0.067150 0.259860 0.048055 0.400127 0.351289 0.405977 0.380324 0.419888 0.592114 0.410510 0.345048 0.399496 0.197155 0.363757 0.107051 0.268653 0.064909 0.090375 0.080614 0.061857 0.045959 0.158189 0.057423 0.159117 0.242269 0.287358 0.329776 0.264081 0.345394 0.264028 0.293774 0.187938 0.104666 0.019460 -0.006846 0.017478 -0.063524 -0.071800 0.127337 0.219482 0.053029 0.108607 0.130770 0.007967 0.191753 0.260117 0.188683 0.180065 0.129819 0.169818 0.105043 0.096661 0.046080 -0.087078 -0.001129 0.133178 0.055260 0.155371 0.136376 0.222112 0.178785 0.152925 0.107427 0.187825 0.100973 0.145259 0.091398 0.007795 -0.011799 -0.012442 0.129228 0.122172 0.132522 0.060440 0.152397 0.164012 0.044325 0.145538 0.054437 -0.008754 0.028240 0.008539 -0.059973 -0.061036 -0.117137 -0.048863 -0.052693 -0.097970 0.010179 -0.049841 0.044743 0.104447 -0.114721 0.022105 -0.052197 -0.096205 0.050249 -0.023155 -0.060762 0.044391 0.100382 0.031120 0.058448 -0.044995 0.026714 0.205938 0.010899 -0.048806 0.079970 0.041005 0.112204 -0.111689 -0.047827 -0.005390 0.044382 0.060419 0.102541 0.131585 -0.050703 -0.110571 0.008981 -0.062267 -0.065602 -0.047013 -0.044594 0.054185 -0.176086 0.128597 0.132998 0.185080 0.037948 0.057972 0.034860 0.030686 0.095402 -0.023746 0.041197 0.010848 0.052829 0.144651 0.192388 0.043775 0.168636 0.169690 -0.039879 -0.010072 -0.160387 0.238979 0.134667 0.215650 0.174584 0.029069 -0.061706 -0.091462 0.019387 0.011597 -0.018939 0.049942 0.049289 -0.080126 0.017737 0.112707 0.068971 0.036620 0.006892 0.057095 -0.108653 -0.014474 0.058786 -0.033169 -0.122311 0.037730 -0.011693 -0.041250 -0.038601 -0.118869 0.082062 0.121690 -0.003405 -0.093434 -0.348769 0.180787 0.511622 0.454269 0.576616 0.263266 0.323755 0.413423 0.511645 0.581609 0.041141 0.016976 -0.934421
0.072396 0.072838 0.074163 0.076371 0.079462 0.083435 0.088289 0.094022 0.100634 0.108122 0.116484 0.125716 0.135815 0.146776 0.158594 0.171262 0.184772 0.199116 0.214282 0.230259 0.247032 0.264586 0.282903 0.301961 0.321739 0.342209 0.363344 0.385111 0.407474 0.430396 0.453833 0.477738 0.502061 0.526747 0.551735 0.576960 0.602354 0.627843 0.653346 0.678779 0.704051 0.729069 0.753731 0.777931 0.801559 0.824499 0.846629 0.867825 0.887956 0.906890 0.924488 0.940610 0.955112 0.967851 0.978680 0.987451 0.994019 0.998237 0.999964 0.999060 0.995388 0.988821 0.979236 0.966518 0.950564 0.931282 0.908590 0.882425 0.852736 0.819493 0.782682 0.742313 0.698416 0.651047 0.600285 0.546238 0.489041 0.428857 0.365881 0.300336 0.232478 0.162594 0.091002 0.018050 0.055883 0.130388 0.205031 0.279348 0.352856 0.425047 0.495396 0.563366 0.628407 0.689964 0.747479 0.800402 0.848190 0.890315 0.926273 0.955588 0.977820 0.992569 0.999485 0.998277 0.988713 0.970632 0.943948 0.908657 0.864842 0.812675 0.752424 0.684454 0.609231 0.527317 0.439375 0.346165 0.248540 0.147440 0.043885 0.061028 0.166143 0.270251 0.372106 0.470437 0.563965 0.651424 0.731572 0.803218 0.865233 0.916578 0.956321 0.983654 0.997916 0.998607 0.985407 0.958192 0.917039 0.862242 0.794319 0.714007 0.622269 0.520285 0.409446 0.291336 0.167716 0.040506 0.088250 0.216406 0.341757 0.462066 0.575119 0.678750 0.770902 0.849658 0.913296 0.960323 0.989521 0.999980 0.991137 0.962795 0.915150 0.848800 0.764752 0.664419 0.549605 0.422480 0.285552 0.141622 0.006269 0.154897 0.300927 0.440980 0.571721 0.689935 0.792613 0.877034 0.940842 0.982127 0.999484 0.992074 0.959665 0.902665 0.822136 0.719788 0.597962 0.459586 0.308120 0.147478 0.018066 0.183983 0.345614 0.498297 0.637510 0.759000 0.858929 0.934004 0.981593 0.999836 0.987727 0.945176 0.873050 0.773168 0.648289 0.502048 0.338864 0.163824 0.017463 0.199040 0.374797 0.538674 0.684877 0.808085 0.903659 0.967832 0.997874 0.992225 0.950588 0.873990 0.764777 0.626575 0.464192 0.283467 0.091080 0.105682 0.299199 0.481803 0.646095 0.785242 0.893285 0.965408 0.998170 0.989698 0.939809 0.850073 0.723801 0.565943 0.382939 0.182460 0.026882 0.235900 0.435226 0.615737 0.768976 0.887568 0.965597 0.998919 0.985421 0.925170 0.820481 0.675864 0.497862 0.294798 0.076395 0.146661 0.363236 0.562304 0.733521 0.867767 0.957665 0.998014 0.986118 0.922006 0.808499 0.651135 0.457938 0.239048 0.006209 0.227834 0.450029 0.647754 0.809529 0.925727 0.989163 0.995583 0.943987 0.836772 0.679681 0.481538 0.253798 0.009912 0.235431 0.467203 0.670938 0.833664 0.944749 0.996643 0.985427 0.911160 0.777971 0.593885 0.370404 0.121820 0.135662 0.384967 0.609279 0.793179 0.923751 0.991510 0.991152 0.922021 0.788260 0.598637 0.366026 0.106581 0.161341 0.418481 0.646035 0.827068 0.947796 0.998685 0.975268 0.878586 0.715243 0.497021 0.240102 0.036101 0.310362 0.561273 0.768927 0.916516 0.991754 0.987952 0.904681 0.747947 0.529842 0.267673 0.017345 0.301778 0.561874 0.775578 0.924413 0.995148 0.981031 0.882517 0.707374 0.470168 0.191118 0.105567 0.393759 0.647693 0.844311 0.965377 0.999256 0.942097 0.798357 0.580554 0.308267 0.006448 0.296823 0.572914 0.795383 0.942524 0.999570 0.960250 0.827572 0.613716 0.339009 0.030078 0.282680 0.568056 0.797160 0.946401 0.999962
1.000000 1.000000 1.000000 1.000000 1.000000 1.000000 1.000000 1.000000 1.000000 1.000000 1.000000 1.000000 1.000000 1.000000 1.000000 1.000000 1.000000 1.000000 1.000000 1.000000 1.000000 1.000000 1.000000 1.000000 1.000000 1.000000 1.000000 1.000000 1.000000 1.000000 1.000000 1.000000 1.000000 1.000000 1.000000 1.000000 1.000000 1.000000 1.000000 1.000000 1.000000 1.000000 1.000000 1.000000 1.000000 1.000000 1.000000 1.000000 1.000000 1.000000 1.000000 1.000000 0.771337 0.771337 0.771337 0.771337 0.771337 0.771337 0.771337 0.759934 0.759934 0.759934 0.759934 0.759934 0.759934 0.759934 0.759934 0.759934 0.759934 0.759934 0.759934 0.759934 0.759934 0.759934 0.759934 0.759934 0.759934 0.759934 0.759934 0.759934 0.759934 0.759934 0.759934 0.759934 0.759934 0.759934 0.759934 0.759934 0.759934 0.759934 0.759934 0.759934 0.759934 0.759934 0.759934 0.759934 0.759934 0.759934 0.759934 0.759934 0.759934 0.759934 0.759934 0.900294 0.901761 0.904817 0.900235 0.902166 0.900008 0.893575 0.896503 0.897123 0.896935 0.897724 0.899374 0.901375 0.908709 0.917617 0.919502 0.926485 0.929922 0.929907 0.931426 0.930049 0.937530 0.935043 0.933276 0.921372 0.924770 0.926665 0.925672 0.924512 0.921335 0.927103 0.925697 0.923617 0.918331 0.914407 0.912490 0.914130 0.911889 0.912471 0.912652 0.913578 0.911764 0.912563 0.908717 0.909659 0.908558 0.905005 0.901979 0.901689 0.903066 0.901376 0.898006 0.891753 0.897726 0.897892 0.897285 0.896194 0.896404 0.897198 0.897970 0.898635 0.896191 0.896243 0.893704 0.895487 0.892077 0.887421 0.881348 0.881696 0.884138 0.891158 0.893151 0.891769 0.888892 0.880438 0.869868 0.867771 0.856321 0.821640 0.823647 0.827502 0.829530 0.829925 0.828914 0.825116 0.820953 0.812918 0.804109 0.808878 0.809381 0.802144 0.798173 0.799099 0.799917 0.807279 0.810965 0.802807 0.799561 0.801969 0.797957 0.799132 0.803121 0.795984 0.793016 0.799923 0.808047 0.808059 0.792469 0.788222 0.785666 0.773688 0.780856 0.787385 0.786659 0.788097 0.785096 0.773295 0.771934 0.765248 0.776133 0.783219 0.782495 0.777519 0.760676 0.717142 0.702577 0.668337 0.666531 0.668140 0.634372 0.634619 0.636105 0.640202 0.583942 0.560483 0.546324 0.547311 0.556455 0.561558 0.555174 0.528743 0.546285 0.542616 0.528107 0.524045 0.505787 0.492278 0.474907 0.477365 0.476588 0.469133 0.437728 0.439169 0.459155 0.468272 0.463398 0.459528 0.431804 0.411399 0.410923 0.403149 0.402895 0.409206 0.417734 0.360101 0.336936 0.323447 0.352242 0.350175 0.348378 0.367218 0.360043 0.353408 0.328287 0.307661 0.277287 0.289931 0.310576 0.313957 0.317501 0.286044 0.276982 0.261820 0.265878 0.310999 0.300334 0.323431 0.329095 0.334111 0.358806 0.332134 0.308643 0.286924 0.329578 0.337740 0.307990 0.302077 0.316450 0.329438 0.328446 0.324304 0.319085 0.365575 0.368925 0.347098 0.347351 0.314611 0.334404 0.365200 0.363242 0.369394 0.379453 0.385640 0.348488 0.272556 0.243344 0.246829 0.223634 0.223574 0.209865 0.194917 0.186955 0.199319 0.220986 0.227042 0.259081 0.227569 0.182170 0.091883 0.158550 0.075023 0.089913 0.089913 0.089913 0.089913 0.089913 0.089913 0.089913 0.089913 0.126786 0.126786 0.126786 0.126786 0.126786 0.126786 0.126786 0.126786 0.126786 0.126786 0.126786 0.126786 0.126786 0.126786 0.126786 0.126786 0.126786 0.126786 0.126786 0.126786 0.126786
0.000000 0.000000 0.000000 0.000000 0.000000 0.000000 0.000000 0.000000 0.000000 0.000000 0.000000 0.000000 0.000000 0.000000 0.000000 0.000000 0.000000 0.000000 0.000000 0.000000 0.000000 0.000000 0.000000 0.000000 0.000000 0.000000 0.000000 0.000000 0.000000 0.000000 0.000000 0.000000 0.000000 0.000000 0.000000 0.000000 0.000000 0.000000 0.000000 0.000000 0.000000 0.000000 0.000000 0.000000 0.000000 0.000000 0.000000 0.000000 0.000000 0.000000 0.000000 0.000000 0.173422 0.173422 0.173422 0.173422 0.173422 0.173422 0.173422 0.191565 0.191565 0.191565 0.191565 0.191565 0.191565 0.191565 0.191565 0.191565 0.191565 0.191565 0.191565 0.191565 0.191565 0.191565 0.191565 0.191565 0.191565 0.191565 0.191565 0.191565 0.191565 0.191565 0.191565 0.191565 0.191565 0.191565 0.191565 0.191565 0.191565 0.191565 0.191565 0.191565 0.191565 0.191565 0.191565 0.191565 0.191565 0.191565 0.191565 0.191565 0.191565 0.191565 0.191565 0.222222 0.222222 0.222222 0.222222 0.222222 0.222222 0.222222 0.222222 0.222222 0.222222 0.222222 0.222222 0.222222 0.222222 0.222222 0.222222 0.222222 0.222222 0.222222 0.222222 0.222222 0.222222 0.222222 0.222222 0.222222 0.222222 0.222222 0.222222 0.222222 0.222222 0.234082 0.234082 0.234082 0.234082 0.234082 0.234082 0.234082 0.234082 0.234082 0.234082 0.234082 0.234082 0.234082 0.234082 0.234082 0.234082 0.234082 0.234082 0.234082 0.234082 0.234082 0.234082 0.234082 0.234082 0.234082 0.244339 0.244339 0.244339 0.244339 0.244339 0.244339 0.244339 0.244339 0.244339 0.244339 0.244339 0.244339 0.244339 0.244339 0.244339 0.244339 0.244339 0.244339 0.244339 0.244339 0.244339 0.248069 0.248069 0.248069 0.248069 0.248069 0.248069 0.248069 0.248069 0.248069 0.248069 0.248069 0.248069 0.248069 0.248069 0.248069 0.248069 0.248069 0.248069 0.248069 0.256074 0.256074 0.256074 0.256074 0.256074 0.256074 0.256074 0.256074 0.256074 0.256074 0.256074 0.256074 0.256074 0.256074 0.256074 0.256074 0.256074 0.256074 0.256074 0.256074 0.256074 0.256074 0.256074 0.256074 0.256074 0.256074 0.256074 0.256074 0.256074 0.256074 0.256074 0.256074 0.256074 0.256074 0.256074 0.256074 0.256074 0.256074 0.256074 0.256074 0.256074 0.256074 0.256074 0.256074 0.256074 0.256074 0.256074 0.256074 0.256074 0.256074 0.256074 0.256074 0.256074 0.256074 0.256074 0.256074 0.256074 0.256074 0.256074 0.256074 0.256074 0.256074 0.260378 0.260378 0.260378 0.260378 0.260378 0.260378 0.260378 0.260378 0.260378 0.260378 0.260378 0.260378 0.260378 0.256074 0.256074 0.256074 0.256074 0.256074 0.256074 0.256074 0.256074 0.256074 0.256074 0.256074 0.256074 0.256074 0.260378 0.260378 0.260378 0.260378 0.260378 0.260378 0.260378 0.260378 0.260378 0.260378 0.260378 0.260378 0.251976 0.251976 0.251976 0.251976 0.251976 0.251976 0.251976 0.251976 0.251976 0.251976 0.251976 0.251976 0.256074 0.256074 0.256074 0.256074 0.256074 0.256074 0.256074 0.256074 0.256074 0.256074 0.256074 0.251976 0.251976 0.251976 0.251976 0.251976 0.251976 0.251976 0.251976 0.251976 0.251976 0.251976 0.260378 0.260378 0.260378 0.260378 0.260378 0.260378 0.260378 0.260378 0.260378 0.260378 0.244339 0.244339 0.244339 0.244339 0.244339 0.244339 0.244339 0.244339 0.244339 0.244339 0.244339 0.244339 0.244339 0.244339 0.244339 0.244339 0.244339 0.244339 0.244339 0.244339 0.244339
