# Output from CTFFind version 4.1.9, run on 2019-11-03 20:09:21
# Input file: stack1_bm3d_averaged_1_7.0_0_2500_half.mrc ; Number of micrographs: 1
# Pixel size: 3.000 Angstroms ; acceleration voltage: 300.0 keV ; spherical aberration: 0.00 mm ; amplitude contrast: 0.07
# Box size: 512 pixels ; min. res.: 30.0 Angstroms ; max. res.: 5.0 Angstroms ; min. def.: 5000.0 um; max. def. 50000.0 um; num. frames averaged: 1
# 6 lines per micrograph: #1 - spatial frequency (1/Angstroms); #2 - 1D rotational average of spectrum (assuming no astigmatism); #3 - 1D rotational average of spectrum; #4 - CTF fit; #5 - cross-correlation between spectrum and CTF fit; #6 - 2sigma of expected cross correlation of noise
0.000000 0.000651 0.001302 0.001953 0.002604 0.003255 0.003906 0.004557 0.005208 0.005859 0.006510 0.007161 0.007812 0.008464 0.009115 0.009766 0.010417 0.011068 0.011719 0.012370 0.013021 0.013672 0.014323 0.014974 0.015625 0.016276 0.016927 0.017578 0.018229 0.018880 0.019531 0.020182 0.020833 0.021484 0.022135 0.022786 0.023438 0.024089 0.024740 0.025391 0.026042 0.026693 0.027344 0.027995 0.028646 0.029297 0.029948 0.030599 0.031250 0.031901 0.032552 0.033203 0.033854 0.034505 0.035156 0.035807 0.036458 0.037109 0.037760 0.038411 0.039062 0.039714 0.040365 0.041016 0.041667 0.042318 0.042969 0.043620 0.044271 0.044922 0.045573 0.046224 0.046875 0.047526 0.048177 0.048828 0.049479 0.050130 0.050781 0.051432 0.052083 0.052734 0.053385 0.054036 0.054688 0.055339 0.055990 0.056641 0.057292 0.057943 0.058594 0.059245 0.059896 0.060547 0.061198 0.061849 0.062500 0.063151 0.063802 0.064453 0.065104 0.065755 0.066406 0.067057 0.067708 0.068359 0.069010 0.069661 0.070312 0.070964 0.071615 0.072266 0.072917 0.073568 0.074219 0.074870 0.075521 0.076172 0.076823 0.077474 0.078125 0.078776 0.079427 0.080078 0.080729 0.081380 0.082031 0.082682 0.083333 0.083984 0.084635 0.085286 0.085938 0.086589 0.087240 0.087891 0.088542 0.089193 0.089844 0.090495 0.091146 0.091797 0.092448 0.093099 0.093750 0.094401 0.095052 0.095703 0.096354 0.097005 0.097656 0.098307 0.098958 0.099609 0.100260 0.100911 0.101562 0.102214 0.102865 0.103516 0.104167 0.104818 0.105469 0.106120 0.106771 0.107422 0.108073 0.108724 0.109375 0.110026 0.110677 0.111328 0.111979 0.112630 0.113281 0.113932 0.114583 0.115234 0.115885 0.116536 0.117188 0.117839 0.118490 0.119141 0.119792 0.120443 0.121094 0.121745 0.122396 0.123047 0.123698 0.124349 0.125000 0.125651 0.126302 0.126953 0.127604 0.128255 0.128906 0.129557 0.130208 0.130859 0.131510 0.132161 0.132812 0.133464 0.134115 0.134766 0.135417 0.136068 0.136719 0.137370 0.138021 0.138672 0.139323 0.139974 0.140625 0.141276 0.141927 0.142578 0.143229 0.143880 0.144531 0.145182 0.145833 0.146484 0.147135 0.147786 0.148438 0.149089 0.149740 0.150391 0.151042 0.151693 0.152344 0.152995 0.153646 0.154297 0.154948 0.155599 0.156250 0.156901 0.157552 0.158203 0.158854 0.159505 0.160156 0.160807 0.161458 0.162109 0.162760 0.163411 0.164062 0.164714 0.165365 0.166016 0.166667 0.167318 0.167969 0.168620 0.169271 0.169922 0.170573 0.171224 0.171875 0.172526 0.173177 0.173828 0.174479 0.175130 0.175781 0.176432 0.177083 0.177734 0.178385 0.179036 0.179688 0.180339 0.180990 0.181641 0.182292 0.182943 0.183594 0.184245 0.184896 0.185547 0.186198 0.186849 0.187500 0.188151 0.188802 0.189453 0.190104 0.190755 0.191406 0.192057 0.192708 0.193359 0.194010 0.194661 0.195312 0.195964 0.196615 0.197266 0.197917 0.198568 0.199219 0.199870 0.200521 0.201172 0.201823 0.202474 0.203125 0.203776 0.204427 0.205078 0.205729 0.206380 0.207031 0.207682 0.208333 0.208984 0.209635 0.210286 0.210938 0.211589 0.212240 0.212891 0.213542 0.214193 0.214844 0.215495 0.216146 0.216797 0.217448 0.218099 0.218750 0.219401 0.220052 0.220703 0.221354 0.222005 0.222656 0.223307 0.223958 0.224609 0.225260 0.225911 0.226562 0.227214 0.227865 0.228516 0.229167 0.229818 0.230469 0.231120 0.231771 0.232422 0.233073 0.233724 0.234375 0.235026 0.235677
       0.34524        0.34524        0.34524        0.34524        0.34524        0.34524        0.34524        0.34524        0.34524        0.34524        0.34524        0.34524        0.34524        0.34524        0.34524        0.34524        0.34524        0.34524        0.34524        0.34524        0.34524        0.34524        0.34524        0.34524        0.34524        0.34524        0.34524        0.34524        0.34524        0.34524        0.34524        0.34524        0.34524        0.34524        0.34524        0.34524        0.34524        0.34524        0.34524        0.34524        0.34524        0.34524        0.34524        0.34524        0.34524        0.34524        0.34524        0.34524        0.34524        0.34524        0.34524        0.34617        0.49199        0.22812        0.08024        0.00087       -0.27112       -0.11459       -0.15959       -0.22196        0.00925       -0.14478       -0.07345       -0.06253       -0.04588       -0.12518       -0.16131       -0.25551       -0.31035       -0.42392       -0.35790       -0.25828       -0.22717       -0.32467       -0.24175       -0.30428       -0.27299       -0.29652       -0.13522       -0.14669       -0.20894       -0.03959        0.02566       -0.02710        0.07348        0.03364        0.22987        0.24493        0.33614        0.35089        0.38609        0.42410        0.49940        0.55904        0.57111        0.51122        0.48797        0.51197        0.46497        0.52322        0.44663        0.41258        0.41582        0.35283        0.29725        0.30750        0.33491        0.22783        0.19711        0.12745        0.15228        0.16334        0.18265        0.16149        0.23193        0.28589        0.31328        0.29348        0.38713        0.46837        0.39729        0.48689        0.59849        0.55514        0.52274        0.56170        0.59783        0.41811        0.48263        0.39519        0.32459        0.30279        0.28330        0.25414        0.19214        0.18422        0.14926        0.20418        0.25814        0.28915        0.34398        0.30602        0.41024        0.42664        0.45932        0.48611        0.48336        0.51463        0.45760        0.43627        0.40889        0.33992        0.32033        0.31177        0.31852        0.25242        0.24468        0.25637        0.24386        0.27173        0.32636        0.42918        0.46018        0.42064        0.42148        0.47248        0.46027        0.46783        0.46214        0.38135        0.36489        0.40162        0.36343        0.30624        0.29929        0.32025        0.28365        0.29968        0.30013        0.31729        0.36140        0.37869        0.43137        0.44252        0.36324        0.45288        0.42191        0.35589        0.30571        0.34996        0.32997        0.30600        0.32161        0.28107        0.28379        0.32321        0.33806        0.44133        0.41014        0.37334        0.38950        0.43018        0.36445        0.35416        0.34007        0.34633        0.28186        0.27953        0.30095        0.37629        0.38157        0.33994        0.34835        0.39674        0.39186        0.45319        0.39685        0.36323        0.33277        0.32980        0.32284        0.31731        0.34244        0.38863        0.36821        0.37244        0.32909        0.43937        0.35982        0.34945        0.33430        0.37822        0.37224        0.30806        0.31432        0.27915        0.31187        0.32851        0.31439        0.33828        0.33463        0.35644        0.34566        0.33686        0.30785        0.29864        0.28456        0.33198        0.33865        0.34045        0.30094        0.34520        0.33995        0.33673        0.33817        0.30483        0.28482        0.31375        0.32708        0.32240        0.31625        0.29920        0.31587        0.34084        0.33219        0.33266        0.38419        0.33844        0.27404        0.31678        0.32498        0.32295        0.34076        0.29257        0.32610        0.28477        0.31689        0.31668        0.36835        0.31948        0.31174        0.29652        0.28544        0.37188        0.36037        0.32433        0.32470        0.30300        0.30444        0.33567        0.33194        0.28281        0.32208        0.27253        0.26440        0.27887        0.30570        0.31714        0.32699        0.23501        0.28300        0.34037        0.33793        0.34185        0.33021        0.31088        0.31204        0.32655        0.31494        0.25599        0.27874        0.28642        0.33355        0.32658        0.34532        0.35001        0.33883        0.33719        0.33128        0.32390        0.30936        0.31758        0.31664        0.26351        0.28262        0.32587        0.33665        0.24177        0.19788        0.21187        0.30082        0.30966        0.29759        0.27595        0.27406        0.28014        0.23870        0.26846        0.27056        0.26464        0.25840        0.25636        0.25134        0.20434        0.24945        0.32261        0.37258        0.26724        0.23936        0.20108        0.18807        0.28122        0.28992        0.38797        0.26235        0.23791        0.29713        0.36397        0.19056        0.00543       -0.10135       -0.54247       -0.75583
3.392646 3.354862 3.317292 3.279935 3.242792 3.205863 3.169147 3.132645 3.096357 3.060283 3.024422 2.988775 2.953342 2.918122 2.883117 2.848325 2.813746 2.779382 2.745231 2.711294 2.677570 2.644061 2.610764 2.577682 2.544814 2.512159 2.479718 2.447490 2.415477 2.383677 2.352091 2.320718 2.289559 2.258615 2.227883 2.197366 2.167062 2.136972 2.107095 2.077433 2.047984 2.018749 1.989727 1.960919 1.932325 1.903945 1.875778 1.847825 1.820086 1.792561 1.765249 1.666367 1.984224 1.713963 1.090567 1.158703 0.369264 0.909502 0.533191 0.647374 0.930991 0.676290 0.660565 0.764454 0.698031 0.647517 0.470428 0.346097 0.184363 -0.007895 -0.004329 0.106461 0.407566 -0.033497 0.164416 0.042715 0.146046 -0.060619 0.261600 0.184868 0.097516 0.301102 0.499684 0.291327 0.462822 0.368653 0.776433 0.644748 0.864304 0.873125 0.822011 1.044698 0.943502 1.249388 1.081728 1.122001 0.995701 1.017152 0.959668 0.902455 0.942042 0.766723 0.733203 0.659628 0.621255 0.465413 0.563322 0.450874 0.282837 0.201661 0.138790 0.183242 0.221869 0.158926 0.183005 0.362835 0.349057 0.363587 0.466896 0.533782 0.537245 0.419332 0.807371 0.789346 0.647145 0.676498 0.762725 0.534944 0.424303 0.496545 0.198527 0.248060 0.102508 0.165200 -0.017164 -0.035471 -0.109660 -0.105243 0.107106 0.002517 0.132280 0.188592 0.165972 0.313407 0.315527 0.387085 0.344711 0.454743 0.347302 0.269631 0.247416 0.147516 0.093387 0.055652 0.025071 0.004045 -0.066268 -0.091152 -0.092960 -0.065404 -0.059174 0.140317 0.314553 0.199685 0.211723 0.262123 0.351327 0.246038 0.346085 0.285729 0.151935 0.133692 0.280604 0.004252 0.044019 0.030087 0.060042 -0.011416 0.087452 -0.009802 0.140223 -0.011256 0.235374 0.282810 0.192527 0.252167 0.209831 0.156654 0.042756 0.077396 0.084591 0.023375 -0.003610 0.042738 -0.074496 -0.017301 0.026134 0.117386 0.285397 0.148669 0.121145 0.205750 0.144846 0.132093 0.048884 0.059936 0.060099 -0.089706 -0.012791 0.034041 0.141394 0.114633 0.034892 0.082127 0.176079 0.161301 0.283904 0.110451 0.092797 0.043787 0.015194 0.058987 0.029210 0.091745 0.165016 0.114323 0.083111 0.137197 0.185294 0.024909 0.071905 0.054985 0.132374 0.071620 -0.008755 0.009136 -0.054144 0.009318 0.047690 0.025877 0.022702 -0.005990 0.050214 0.021077 0.010721 -0.045556 -0.052189 -0.037694 -0.024187 0.058142 -0.018110 -0.008693 0.036138 0.050483 0.023041 0.054397 -0.034125 -0.031649 0.008327 0.024976 0.024801 0.022903 -0.024363 -0.003015 0.076656 0.036140 0.018772 0.167645 -0.038185 -0.061960 0.025801 0.014585 0.015212 0.035237 -0.042512 0.034281 -0.078844 0.017092 0.031113 0.103016 -0.022400 -0.024589 -0.045275 -0.031637 0.094107 0.067814 -0.028536 0.027279 -0.047817 -0.030961 0.023548 -0.004516 -0.070152 0.030751 -0.117577 -0.091791 -0.046426 -0.073873 0.053551 -0.073727 -0.222326 -0.021403 0.055810 -0.018888 -0.019380 0.029411 -0.054324 -0.029586 -0.045085 -0.056806 -0.135563 -0.118134 -0.137465 0.018212 -0.008065 -0.019262 0.019852 0.021046 -0.107392 0.028379 -0.014321 -0.089499 -0.018046 -0.006071 -0.129552 -0.057097 -0.004639 0.065385 -0.094535 -0.265999 -0.110416 0.109552 0.012067 -0.037153 0.031151 0.022437 0.016696 -0.049247 -0.058399 0.029788 -0.002937 0.022419 -0.004322 0.045131 -0.140350 0.052741 0.237774 0.189114 0.047807 0.068459 -0.119187 0.018679 0.076234 0.099559 0.404395 0.337912 0.412926 0.528353 0.753441 0.353868 -0.095207 -0.165507 -1.297001
0.072396 0.072907 0.074440 0.076995 0.080571 0.085167 0.090782 0.097414 0.105061 0.113720 0.123388 0.134060 0.145730 0.158392 0.172037 0.186657 0.202239 0.218770 0.236235 0.254615 0.273889 0.294034 0.315022 0.336822 0.359399 0.382715 0.406726 0.431385 0.456637 0.482424 0.508683 0.535342 0.562326 0.589553 0.616932 0.644368 0.671758 0.698992 0.725954 0.752519 0.778555 0.803926 0.828487 0.852086 0.874566 0.895764 0.915512 0.933637 0.949963 0.964310 0.976496 0.986339 0.993656 0.998266 0.999992 0.998659 0.994101 0.986158 0.974681 0.959532 0.940587 0.917739 0.890899 0.859998 0.824991 0.785858 0.742606 0.695272 0.643926 0.588672 0.529648 0.467033 0.401042 0.331931 0.259999 0.185586 0.109073 0.030882 0.048522 0.128636 0.208921 0.288801 0.367669 0.444892 0.519812 0.591754 0.660031 0.723950 0.782822 0.835966 0.882718 0.922446 0.954549 0.978477 0.993732 0.999885 0.996582 0.983556 0.960632 0.927743 0.884930 0.832355 0.770305 0.699194 0.619569 0.532113 0.437638 0.337087 0.231527 0.122142 0.010224 0.102843 0.215593 0.326499 0.433994 0.536488 0.632396 0.720165 0.798298 0.865382 0.920119 0.961355 0.988105 0.999584 0.995228 0.974722 0.938012 0.885330 0.817197 0.734436 0.638165 0.529802 0.411041 0.283842 0.150405 0.013132 0.125407 0.262522 0.395447 0.521408 0.637670 0.741609 0.830767 0.902927 0.956161 0.988905 1.000000 0.988747 0.954942 0.898908 0.821509 0.724154 0.608793 0.477885 0.334361 0.181571 0.023213 0.136748 0.294178 0.444879 0.584697 0.709649 0.816034 0.900562 0.960454 0.993557 0.998430 0.974418 0.921703 0.841339 0.735253 0.606220 0.457811 0.294317 0.120631 0.057884 0.235548 0.406549 0.565128 0.705783 0.823466 0.913776 0.973140 0.998976 0.989820 0.945426 0.866818 0.756304 0.617438 0.454928 0.274508 0.082743 0.113183 0.305739 0.487328 0.650594 0.788723 0.895751 0.966834 0.998497 0.988825 0.937604 0.846386 0.718486 0.558901 0.374144 0.172002 0.038766 0.248797 0.448533 0.628665 0.780567 0.896734 0.971177 0.999761 0.980468 0.913565 0.801668 0.649683 0.464645 0.255412 0.032281 0.193494 0.410276 0.606633 0.771949 0.897034 0.974649 0.999972 0.970934 0.888421 0.756314 0.581362 0.372885 0.142324 0.097370 0.332435 0.549083 0.734327 0.876771 0.967352 0.999952 0.971868 0.884072 0.741260 0.551669 0.326650 0.080039 0.172662 0.415247 0.631836 0.807943 0.931461 0.993554 0.989332 0.918301 0.784513 0.596415 0.366387 0.109970 0.155135 0.410264 0.637115 0.819063 0.942433 0.997559 0.979623 0.889133 0.732027 0.519369 0.266644 0.007320 0.281710 0.535292 0.748076 0.902908 0.986914 0.992637 0.918778 0.770447 0.558925 0.300878 0.017111 0.269060 0.533701 0.754274 0.911596 0.991560 0.986479 0.895915 0.726893 0.493455 0.215599 0.082375 0.373954 0.632747 0.834898 0.961339 0.999664 0.945440 0.802809 0.584299 0.309833 0.004993 0.301301 0.579515 0.802356 0.947511 0.999947 0.953580 0.812082 0.588731 0.305287 0.010034 0.325305 0.608094 0.828826 0.963926 0.998433 0.927771 0.758458 0.507665 0.201583 0.127205 0.443139 0.711528 0.902382 0.993856 0.974852 0.846504 0.622308 0.326847 0.006779 0.340595 0.636033 0.858414 0.981090 0.988758 0.879501 0.665298 0.370871 0.030969 0.313637 0.621019 0.853197 0.980923 0.987473 0.870994 0.645042 0.337168 0.014284 0.364880 0.669658 0.888937 0.993567 0.968954 0.817246 0.557400 0.222967 0.142077 0.489055 0.771041 0.949289
1.000000 1.000000 1.000000 1.000000 1.000000 1.000000 1.000000 1.000000 1.000000 1.000000 1.000000 1.000000 1.000000 1.000000 1.000000 1.000000 1.000000 1.000000 1.000000 1.000000 1.000000 1.000000 1.000000 1.000000 1.000000 1.000000 1.000000 1.000000 1.000000 1.000000 1.000000 1.000000 1.000000 1.000000 1.000000 1.000000 1.000000 1.000000 1.000000 1.000000 1.000000 1.000000 1.000000 1.000000 1.000000 1.000000 1.000000 1.000000 1.000000 1.000000 1.000000 1.000000 0.828959 0.828959 0.828959 0.808050 0.808050 0.808050 0.808050 0.808050 0.808050 0.808050 0.808050 0.808050 0.808050 0.808050 0.808050 0.808050 0.808050 0.808050 0.808050 0.808050 0.808050 0.808050 0.808050 0.808050 0.808050 0.808050 0.808050 0.808050 0.808050 0.808050 0.808050 0.808050 0.808050 0.808050 0.808050 0.808050 0.808050 0.808050 0.808050 0.808050 0.808050 0.808050 0.808050 0.808050 0.855711 0.862251 0.867386 0.870405 0.870656 0.867548 0.866425 0.865963 0.865329 0.866553 0.872876 0.898239 0.915531 0.917618 0.928927 0.930780 0.935638 0.938252 0.957940 0.959433 0.960856 0.959984 0.960897 0.962816 0.966891 0.967040 0.968014 0.968321 0.968491 0.969074 0.968781 0.967992 0.966964 0.966251 0.963716 0.963622 0.964131 0.964732 0.965342 0.959998 0.960277 0.960529 0.962451 0.960903 0.946407 0.940680 0.936904 0.934968 0.915105 0.916353 0.914808 0.910522 0.902370 0.902424 0.892138 0.893319 0.893389 0.887419 0.885917 0.883057 0.879699 0.870279 0.868971 0.867064 0.869094 0.872980 0.875890 0.861713 0.846032 0.829016 0.812248 0.796892 0.797779 0.802044 0.798228 0.802115 0.805267 0.803991 0.802435 0.797336 0.783411 0.792286 0.790900 0.786915 0.780476 0.779839 0.766453 0.760808 0.754239 0.730587 0.710990 0.695396 0.699122 0.688680 0.684650 0.686843 0.694893 0.698751 0.702279 0.695758 0.692989 0.679349 0.652994 0.659129 0.670286 0.673146 0.661945 0.658667 0.636699 0.661999 0.666644 0.684067 0.693092 0.693266 0.693011 0.673498 0.645694 0.625783 0.627392 0.610997 0.622378 0.631080 0.629297 0.616671 0.627078 0.638764 0.649023 0.608840 0.608014 0.591469 0.589157 0.591665 0.586612 0.554925 0.527149 0.514649 0.492803 0.476210 0.490418 0.484310 0.480040 0.503892 0.467399 0.464418 0.463155 0.465064 0.464650 0.458147 0.435999 0.439113 0.440267 0.422123 0.402479 0.343876 0.323870 0.326116 0.329020 0.332357 0.351777 0.368377 0.330984 0.308095 0.309948 0.331860 0.329093 0.341034 0.347915 0.320837 0.316919 0.222670 0.220854 0.244313 0.252866 0.261724 0.238221 0.259270 0.259528 0.237451 0.213116 0.144739 0.093102 0.072275 0.097414 0.106618 0.115592 0.102828 0.071169 0.072859 0.083844 0.039350 0.021900 0.016344 0.020548 0.036237 0.058182 0.049368 0.048196 0.059710 0.077144 0.045186 0.038683 0.045991 0.066662 0.049205 0.033039 0.007055 -0.002710 -0.023795 -0.031274 -0.009444 0.001682 0.007231 0.041596 0.015536 -0.028081 -0.054312 -0.045235 -0.057782 -0.068134 -0.095849 -0.085068 -0.106626 -0.081614 -0.066515 -0.000490 0.004115 0.006120 -0.016455 0.012181 -0.036546 -0.047819 -0.040179 -0.061459 -0.048502 0.001640 0.015783 0.021504 -0.025124 -0.042460 -0.042460 -0.042460 -0.063655 -0.063655 -0.063655 -0.063655 -0.063655 -0.063655 -0.063655 -0.063655 -0.063655 -0.075194 -0.075194 -0.075194 -0.075194 -0.075194 -0.075194 -0.075194 -0.075194 -0.075194 -0.075194 -0.075194 -0.075194 -0.075194 -0.075194 -0.075194 -0.075194 -0.075194
0.000000 0.000000 0.000000 0.000000 0.000000 0.000000 0.000000 0.000000 0.000000 0.000000 0.000000 0.000000 0.000000 0.000000 0.000000 0.000000 0.000000 0.000000 0.000000 0.000000 0.000000 0.000000 0.000000 0.000000 0.000000 0.000000 0.000000 0.000000 0.000000 0.000000 0.000000 0.000000 0.000000 0.000000 0.000000 0.000000 0.000000 0.000000 0.000000 0.000000 0.000000 0.000000 0.000000 0.000000 0.000000 0.000000 0.000000 0.000000 0.000000 0.000000 0.000000 0.000000 0.180334 0.180334 0.180334 0.199007 0.199007 0.199007 0.199007 0.199007 0.199007 0.199007 0.199007 0.199007 0.199007 0.199007 0.199007 0.199007 0.199007 0.199007 0.199007 0.199007 0.199007 0.199007 0.199007 0.199007 0.199007 0.199007 0.199007 0.199007 0.199007 0.199007 0.199007 0.199007 0.199007 0.199007 0.199007 0.199007 0.199007 0.199007 0.199007 0.199007 0.199007 0.199007 0.199007 0.199007 0.230940 0.230940 0.230940 0.230940 0.230940 0.230940 0.230940 0.230940 0.230940 0.230940 0.230940 0.230940 0.230940 0.230940 0.230940 0.230940 0.230940 0.230940 0.230940 0.230940 0.230940 0.230940 0.230940 0.230940 0.230940 0.230940 0.230940 0.230940 0.248069 0.248069 0.248069 0.248069 0.248069 0.248069 0.248069 0.248069 0.248069 0.248069 0.248069 0.248069 0.248069 0.248069 0.248069 0.248069 0.248069 0.248069 0.248069 0.248069 0.248069 0.248069 0.251976 0.251976 0.251976 0.251976 0.251976 0.251976 0.251976 0.251976 0.251976 0.251976 0.251976 0.251976 0.251976 0.251976 0.251976 0.251976 0.251976 0.251976 0.251976 0.251976 0.256074 0.256074 0.256074 0.256074 0.256074 0.256074 0.256074 0.256074 0.256074 0.256074 0.256074 0.256074 0.256074 0.256074 0.256074 0.256074 0.256074 0.256074 0.264906 0.264906 0.264906 0.264906 0.264906 0.264906 0.264906 0.264906 0.264906 0.264906 0.264906 0.264906 0.264906 0.264906 0.264906 0.264906 0.264906 0.264906 0.264906 0.264906 0.264906 0.264906 0.264906 0.264906 0.264906 0.264906 0.264906 0.264906 0.264906 0.264906 0.264906 0.274721 0.274721 0.274721 0.274721 0.274721 0.274721 0.274721 0.274721 0.274721 0.274721 0.274721 0.274721 0.274721 0.256074 0.256074 0.256074 0.256074 0.256074 0.256074 0.256074 0.256074 0.256074 0.256074 0.256074 0.256074 0.256074 0.256074 0.269680 0.269680 0.269680 0.269680 0.269680 0.269680 0.269680 0.269680 0.269680 0.269680 0.269680 0.269680 0.264906 0.264906 0.264906 0.264906 0.264906 0.264906 0.264906 0.264906 0.264906 0.264906 0.264906 0.264906 0.269680 0.269680 0.269680 0.269680 0.269680 0.269680 0.269680 0.269680 0.269680 0.269680 0.269680 0.264906 0.264906 0.264906 0.264906 0.264906 0.264906 0.264906 0.264906 0.264906 0.264906 0.264906 0.269680 0.269680 0.269680 0.269680 0.269680 0.269680 0.269680 0.269680 0.269680 0.269680 0.251976 0.251976 0.251976 0.251976 0.251976 0.251976 0.251976 0.251976 0.251976 0.251976 0.251976 0.269680 0.269680 0.269680 0.269680 0.269680 0.269680 0.269680 0.269680 0.269680 0.256074 0.256074 0.256074 0.256074 0.256074 0.256074 0.256074 0.256074 0.256074 0.256074 0.260378 0.260378 0.260378 0.260378 0.260378 0.260378 0.260378 0.260378 0.260378 0.256074 0.256074 0.256074 0.256074 0.256074 0.256074 0.256074 0.256074 0.256074 0.251976 0.251976 0.251976 0.251976 0.251976 0.251976 0.251976 0.251976 0.251976 0.251976 0.251976 0.251976 0.251976 0.251976 0.251976 0.251976 0.251976
