# Output from CTFFind version 4.1.9, run on 2019-11-03 19:01:42
# Input file: stack11_bm3d_averaged_1_3.25_0_50_half.mrc ; Number of micrographs: 1
# Pixel size: 3.000 Angstroms ; acceleration voltage: 300.0 keV ; spherical aberration: 0.00 mm ; amplitude contrast: 0.07
# Box size: 512 pixels ; min. res.: 30.0 Angstroms ; max. res.: 5.0 Angstroms ; min. def.: 5000.0 um; max. def. 50000.0 um; num. frames averaged: 1
# 6 lines per micrograph: #1 - spatial frequency (1/Angstroms); #2 - 1D rotational average of spectrum (assuming no astigmatism); #3 - 1D rotational average of spectrum; #4 - CTF fit; #5 - cross-correlation between spectrum and CTF fit; #6 - 2sigma of expected cross correlation of noise
0.000000 0.000651 0.001302 0.001953 0.002604 0.003255 0.003906 0.004557 0.005208 0.005859 0.006510 0.007161 0.007812 0.008464 0.009115 0.009766 0.010417 0.011068 0.011719 0.012370 0.013021 0.013672 0.014323 0.014974 0.015625 0.016276 0.016927 0.017578 0.018229 0.018880 0.019531 0.020182 0.020833 0.021484 0.022135 0.022786 0.023438 0.024089 0.024740 0.025391 0.026042 0.026693 0.027344 0.027995 0.028646 0.029297 0.029948 0.030599 0.031250 0.031901 0.032552 0.033203 0.033854 0.034505 0.035156 0.035807 0.036458 0.037109 0.037760 0.038411 0.039062 0.039714 0.040365 0.041016 0.041667 0.042318 0.042969 0.043620 0.044271 0.044922 0.045573 0.046224 0.046875 0.047526 0.048177 0.048828 0.049479 0.050130 0.050781 0.051432 0.052083 0.052734 0.053385 0.054036 0.054688 0.055339 0.055990 0.056641 0.057292 0.057943 0.058594 0.059245 0.059896 0.060547 0.061198 0.061849 0.062500 0.063151 0.063802 0.064453 0.065104 0.065755 0.066406 0.067057 0.067708 0.068359 0.069010 0.069661 0.070312 0.070964 0.071615 0.072266 0.072917 0.073568 0.074219 0.074870 0.075521 0.076172 0.076823 0.077474 0.078125 0.078776 0.079427 0.080078 0.080729 0.081380 0.082031 0.082682 0.083333 0.083984 0.084635 0.085286 0.085938 0.086589 0.087240 0.087891 0.088542 0.089193 0.089844 0.090495 0.091146 0.091797 0.092448 0.093099 0.093750 0.094401 0.095052 0.095703 0.096354 0.097005 0.097656 0.098307 0.098958 0.099609 0.100260 0.100911 0.101562 0.102214 0.102865 0.103516 0.104167 0.104818 0.105469 0.106120 0.106771 0.107422 0.108073 0.108724 0.109375 0.110026 0.110677 0.111328 0.111979 0.112630 0.113281 0.113932 0.114583 0.115234 0.115885 0.116536 0.117188 0.117839 0.118490 0.119141 0.119792 0.120443 0.121094 0.121745 0.122396 0.123047 0.123698 0.124349 0.125000 0.125651 0.126302 0.126953 0.127604 0.128255 0.128906 0.129557 0.130208 0.130859 0.131510 0.132161 0.132812 0.133464 0.134115 0.134766 0.135417 0.136068 0.136719 0.137370 0.138021 0.138672 0.139323 0.139974 0.140625 0.141276 0.141927 0.142578 0.143229 0.143880 0.144531 0.145182 0.145833 0.146484 0.147135 0.147786 0.148438 0.149089 0.149740 0.150391 0.151042 0.151693 0.152344 0.152995 0.153646 0.154297 0.154948 0.155599 0.156250 0.156901 0.157552 0.158203 0.158854 0.159505 0.160156 0.160807 0.161458 0.162109 0.162760 0.163411 0.164062 0.164714 0.165365 0.166016 0.166667 0.167318 0.167969 0.168620 0.169271 0.169922 0.170573 0.171224 0.171875 0.172526 0.173177 0.173828 0.174479 0.175130 0.175781 0.176432 0.177083 0.177734 0.178385 0.179036 0.179688 0.180339 0.180990 0.181641 0.182292 0.182943 0.183594 0.184245 0.184896 0.185547 0.186198 0.186849 0.187500 0.188151 0.188802 0.189453 0.190104 0.190755 0.191406 0.192057 0.192708 0.193359 0.194010 0.194661 0.195312 0.195964 0.196615 0.197266 0.197917 0.198568 0.199219 0.199870 0.200521 0.201172 0.201823 0.202474 0.203125 0.203776 0.204427 0.205078 0.205729 0.206380 0.207031 0.207682 0.208333 0.208984 0.209635 0.210286 0.210938 0.211589 0.212240 0.212891 0.213542 0.214193 0.214844 0.215495 0.216146 0.216797 0.217448 0.218099 0.218750 0.219401 0.220052 0.220703 0.221354 0.222005 0.222656 0.223307 0.223958 0.224609 0.225260 0.225911 0.226562 0.227214 0.227865 0.228516 0.229167 0.229818 0.230469 0.231120 0.231771 0.232422 0.233073 0.233724 0.234375 0.235026 0.235677
       0.33081        0.33081        0.33081        0.33081        0.33081        0.33081        0.33081        0.33081        0.33081        0.33081        0.33081        0.33081        0.33081        0.33081        0.33081        0.33081        0.33081        0.33081        0.33081        0.33081        0.33081        0.33081        0.33081        0.33081        0.33081        0.33081        0.33081        0.33081        0.33081        0.33081        0.33081        0.33081        0.33081        0.33081        0.33081        0.33081        0.33081        0.33081        0.33081        0.33081        0.33081        0.33081        0.33081        0.33081        0.33081        0.33081        0.33081        0.33081        0.33081        0.33081        0.33081        0.68930        0.86169        0.53069        0.10127       -0.04084       -0.40446       -0.18844       -0.29081       -0.11206       -0.05994       -0.11207       -0.05729       -0.18384       -0.21500       -0.23164       -0.31723       -0.32794       -0.46044       -0.37018       -0.44080       -0.43354       -0.40663       -0.43646       -0.48625       -0.53152       -0.56864       -0.58465       -0.55080       -0.38065       -0.35433       -0.31040       -0.28869       -0.19646       -0.18870        0.04084        0.11612        0.14690        0.24761        0.37622        0.45174        0.51514        0.58001        0.57775        0.57026        0.69337        0.80557        0.71488        0.73584        0.63527        0.56673        0.48231        0.42218        0.50535        0.38964        0.24149        0.09667        0.08095        0.05818       -0.03828        0.00658        0.02398       -0.02611        0.01030        0.00472        0.23111        0.26185        0.29042        0.42759        0.45020        0.40838        0.57344        0.62495        0.66327        0.73785        0.68068        0.64910        0.67628        0.56776        0.47492        0.41813        0.29738        0.23391        0.16721        0.12262        0.05063        0.03553        0.03720        0.08488        0.13836        0.22340        0.27855        0.40111        0.44935        0.48551        0.58807        0.61615        0.63829        0.62133        0.56172        0.45557        0.46322        0.37003        0.24995        0.19305        0.15398        0.14786        0.13808        0.12336        0.14995        0.28478        0.29520        0.37740        0.41178        0.43371        0.50144        0.55097        0.55464        0.48837        0.45182        0.40099        0.35156        0.31960        0.28274        0.22805        0.22251        0.21014        0.22756        0.20661        0.29689        0.35527        0.38160        0.43936        0.45219        0.47348        0.42164        0.39735        0.40399        0.36070        0.29838        0.26638        0.24269        0.24310        0.21550        0.26198        0.26241        0.33526        0.36927        0.39939        0.47613        0.42285        0.42852        0.43347        0.40527        0.34417        0.31817        0.28870        0.29744        0.26012        0.29870        0.29290        0.31453        0.32396        0.34284        0.32020        0.40238        0.41837        0.38169        0.34623        0.37137        0.30100        0.28748        0.27922        0.30604        0.28898        0.30212        0.31620        0.32989        0.33952        0.36647        0.36925        0.38442        0.37079        0.31858        0.33088        0.28707        0.26518        0.31707        0.30853        0.31795        0.32239        0.32284        0.35992        0.32735        0.32539        0.31084        0.32362        0.29107        0.29884        0.26856        0.29622        0.30872        0.29234        0.31321        0.33572        0.34332        0.27743        0.31383        0.28051        0.29610        0.27408        0.23511        0.29068        0.29238        0.33994        0.32705        0.32396        0.31976        0.33299        0.29202        0.33120        0.32469        0.29128        0.27395        0.31688        0.30368        0.34972        0.32721        0.32769        0.33198        0.28902        0.27537        0.30279        0.24828        0.22134        0.31499        0.31908        0.32661        0.31982        0.33290        0.30360        0.33915        0.33623        0.26018        0.23847        0.30336        0.29716        0.29463        0.31557        0.33369        0.33904        0.30548        0.29068        0.33646        0.31592        0.28720        0.27011        0.31703        0.35126        0.39197        0.31610        0.28746        0.27460        0.30455        0.26056        0.28737        0.26489        0.24835        0.31237        0.32666        0.33648        0.33268        0.29525        0.26693        0.27382        0.25229        0.24274        0.24296        0.32239        0.28951        0.22032        0.32780        0.31707        0.25622        0.26963        0.20386        0.20744        0.25646        0.19002        0.24837        0.28189        0.22438        0.20793        0.30082        0.33553        0.33887        0.33393        0.25378        0.20915        0.17140        0.21663        0.20318        0.16595        0.18660        0.23959        0.25116        0.23676        0.18901        0.10920        0.10622       -0.00453       -0.10733       -0.59869
2.665043 2.637086 2.609282 2.581629 2.554128 2.526779 2.499582 2.472537 2.445644 2.418902 2.392313 2.365876 2.339590 2.313457 2.287475 2.261646 2.235968 2.210442 2.185068 2.159846 2.134776 2.109858 2.085092 2.060478 2.036016 2.011706 1.987547 1.963541 1.939686 1.915983 1.892433 1.869034 1.845787 1.822692 1.799749 1.776958 1.754319 1.731832 1.709497 1.687314 1.665282 1.643403 1.621675 1.600100 1.578676 1.557404 1.536284 1.515317 1.494501 1.473837 1.453325 1.669906 2.089135 1.653763 1.156856 1.018183 0.428919 0.829521 0.554900 0.838113 0.792738 0.804347 0.750248 0.728164 0.580675 0.538957 0.488831 0.428916 0.230261 0.369919 0.201019 0.318007 0.225830 0.193435 0.159536 0.025757 0.023768 0.001842 -0.067663 0.122075 0.218153 0.187522 0.168709 0.331995 0.185346 0.504169 0.609449 0.601662 0.624025 0.875136 0.826902 0.939664 0.911761 1.008788 0.971621 1.082094 1.147378 1.047490 1.151321 0.922921 0.930534 0.790644 0.657678 0.793784 0.708812 0.481034 0.326642 0.250860 0.253716 0.150758 0.118169 0.155270 0.101304 0.137252 0.073246 0.262731 0.372870 0.350467 0.481753 0.557941 0.438087 0.585003 0.722962 0.707672 0.761915 0.710822 0.730191 0.681594 0.615085 0.533419 0.399784 0.287347 0.226959 0.087956 0.128475 -0.067473 -0.037638 -0.060245 -0.057614 -0.014335 0.149266 0.075171 0.259572 0.308713 0.349635 0.424668 0.517857 0.485896 0.520733 0.512996 0.330641 0.309425 0.294674 0.101968 0.053938 -0.042996 -0.002384 -0.045345 -0.076299 -0.082238 0.040337 0.083287 0.131054 0.207638 0.241164 0.278483 0.319369 0.429143 0.405653 0.294842 0.255120 0.230854 0.172442 0.144982 0.117594 0.011832 0.025246 0.060134 0.001287 0.079053 0.161035 0.153723 0.252393 0.257550 0.306352 0.187213 0.230368 0.155737 0.196332 0.119166 0.056099 0.003744 0.008496 -0.000871 -0.035708 0.055861 0.026564 0.138290 0.151750 0.191776 0.233572 0.185319 0.168045 0.186521 0.135902 0.065608 0.014048 0.058042 0.009228 -0.012349 0.028473 0.041618 0.057508 0.054344 0.061165 0.094831 0.132565 0.171427 0.067257 0.071357 0.063112 0.016925 -0.017657 0.012457 0.016468 0.010569 0.014525 0.037049 0.057791 0.066313 0.104438 0.060162 0.136051 0.062583 0.025054 0.044690 -0.032727 -0.001636 0.049059 0.001716 0.045375 0.049234 0.021207 0.105770 0.051061 0.017825 0.050512 0.015398 0.019726 0.009630 -0.014862 0.045244 0.004981 0.011386 0.058722 0.067229 0.034620 0.038108 0.029531 0.031031 0.022093 -0.015451 -0.023411 0.032621 0.052086 0.084858 0.077072 0.066930 0.070419 0.100601 0.039107 0.104058 0.092625 0.021921 0.032074 0.090098 0.071117 0.105779 0.103465 0.033217 0.136486 0.057086 0.017852 0.086683 -0.026230 -0.003111 0.096824 0.069073 0.107931 0.084243 0.078395 0.022739 0.106730 0.078476 -0.016355 -0.036670 0.054863 0.061908 0.036234 0.036066 0.087386 0.094219 0.009221 0.054147 0.076172 0.057714 0.037846 -0.013921 0.071118 0.103198 0.118487 0.027448 0.005991 -0.008257 0.044461 -0.032814 0.016350 -0.023698 -0.023611 0.027711 0.052171 0.027558 0.022390 -0.021546 -0.036544 -0.056703 -0.026574 -0.076025 -0.075742 0.042184 0.061309 -0.099841 0.051893 -0.003897 -0.062047 0.015813 -0.116051 -0.067588 -0.046464 -0.086678 -0.031236 0.025812 -0.021433 -0.121771 0.059728 0.140118 0.007241 0.136010 -0.000310 0.225462 0.147955 0.230533 0.252890 0.176407 0.194483 0.278155 0.230275 0.270559 0.177041 0.167005 0.166246 -0.008541 -0.642977
0.072396 0.072898 0.074405 0.076916 0.080430 0.084947 0.090465 0.096983 0.104499 0.113009 0.122511 0.133000 0.144470 0.156916 0.170330 0.184702 0.200022 0.216277 0.233451 0.251528 0.270487 0.290305 0.310958 0.332415 0.354643 0.377605 0.401259 0.425561 0.450460 0.475898 0.501816 0.528147 0.554817 0.581749 0.608856 0.636048 0.663227 0.690286 0.717115 0.743595 0.769601 0.795000 0.819653 0.843417 0.866139 0.887663 0.907827 0.926464 0.943404 0.958473 0.971494 0.982290 0.990683 0.996497 0.999555 0.999686 0.996726 0.990514 0.980899 0.967742 0.950916 0.930306 0.905817 0.877371 0.844910 0.808403 0.767840 0.723241 0.674656 0.622165 0.565884 0.505963 0.442589 0.375987 0.306423 0.234202 0.159668 0.083207 0.005246 0.073752 0.153284 0.232814 0.311771 0.389557 0.465546 0.539092 0.609535 0.676203 0.738421 0.795518 0.846835 0.891732 0.929596 0.959854 0.981977 0.995494 0.999999 0.995161 0.980732 0.956561 0.922594 0.878889 0.825619 0.763076 0.691682 0.611981 0.524650 0.430492 0.330435 0.225527 0.116928 0.005901 0.106200 0.217947 0.327851 0.434381 0.535992 0.631139 0.718307 0.796037 0.862950 0.917777 0.959386 0.986810 0.999270 0.996201 0.977276 0.942420 0.891831 0.825988 0.745657 0.651896 0.546045 0.429720 0.304794 0.173374 0.037770 0.099538 0.235947 0.368773 0.495311 0.612882 0.718902 0.810934 0.886756 0.944418 0.982300 0.999165 0.994208 0.967092 0.917984 0.847567 0.757056 0.648184 0.523193 0.384791 0.236111 0.080649 0.077818 0.235310 0.387746 0.531050 0.661264 0.774656 0.867845 0.937902 0.982459 0.999802 0.988945 0.949694 0.882681 0.789387 0.672125 0.534008 0.378880 0.211227 0.036059 0.141229 0.315021 0.479657 0.629614 0.759702 0.865256 0.942313 0.987778 0.999570 0.976728 0.919496 0.829352 0.709007 0.562352 0.394345 0.210883 0.018592 0.175386 0.363664 0.538879 0.693992 0.822584 0.919131 0.979266 0.999998 0.979887 0.919159 0.819751 0.685291 0.521003 0.333524 0.130672 0.078872 0.285914 0.481158 0.655616 0.801037 0.910322 0.977887 0.999980 0.974924 0.903263 0.787807 0.633573 0.447597 0.238658 0.016880 0.206724 0.420814 0.614272 0.776816 0.899547 0.975477 0.999957 0.971007 0.889497 0.759192 0.586629 0.380839 0.152905 0.084593 0.318268 0.534672 0.721067 0.866212 0.961059 0.999361 0.978133 0.897923 0.762883 0.580617 0.361807 0.119630 0.131000 0.374335 0.594776 0.777893 0.911382 0.985948 0.995997 0.940108 0.821250 0.646690 0.427630 0.178532 0.083789 0.341279 0.575874 0.770787 0.911734 0.988028 0.993448 0.926812 0.792193 0.598757 0.360213 0.093897 0.180441 0.442073 0.670876 0.848890 0.961765 0.999995 0.959775 0.843456 0.659502 0.421978 0.149521 0.136038 0.411425 0.653788 0.842628 0.961586 0.999909 0.953517 0.825508 0.626064 0.371741 0.084164 0.211747 0.489918 0.725412 0.896710 0.987723 0.989389 0.900676 0.728854 0.489018 0.202855 0.103240 0.400564 0.660770 0.858615 0.974456 0.996285 0.921073 0.755278 0.514414 0.221705 0.094070 0.401348 0.668932 0.869191 0.980963 0.991899 0.899931 0.713719 0.451963 0.141651 0.184648 0.492155 0.747584 0.922798 0.997975 0.963975 0.823571 0.591393 0.292544 0.040009 0.369001 0.657019 0.870780 0.985060 0.985776 0.871857 0.655634 0.361670 0.024086 0.317311 0.621673 0.852041 0.979882 0.988759 0.876576 0.656128 0.353818 0.006612 0.342361 0.649161 0.874566 0.989186 0.977426 0.839758 0.592973 0.268327 0.092310
1.000000 1.000000 1.000000 1.000000 1.000000 1.000000 1.000000 1.000000 1.000000 1.000000 1.000000 1.000000 1.000000 1.000000 1.000000 1.000000 1.000000 1.000000 1.000000 1.000000 1.000000 1.000000 1.000000 1.000000 1.000000 1.000000 1.000000 1.000000 1.000000 1.000000 1.000000 1.000000 1.000000 1.000000 1.000000 1.000000 1.000000 1.000000 1.000000 1.000000 1.000000 1.000000 1.000000 1.000000 1.000000 1.000000 1.000000 1.000000 1.000000 1.000000 1.000000 1.000000 0.921188 0.921188 0.921188 0.912212 0.912212 0.912212 0.912212 0.912212 0.912212 0.912212 0.912212 0.912212 0.912212 0.912212 0.912212 0.912212 0.912212 0.912212 0.912212 0.912212 0.912212 0.912212 0.912212 0.912212 0.912212 0.912212 0.912212 0.912212 0.912212 0.912212 0.912212 0.912212 0.912212 0.912212 0.912212 0.912212 0.912212 0.912212 0.912212 0.912212 0.912212 0.912212 0.912212 0.912212 0.938673 0.940251 0.950712 0.950553 0.949920 0.947684 0.946589 0.946089 0.945956 0.946266 0.946963 0.947923 0.956863 0.958062 0.960939 0.962625 0.963460 0.964235 0.965031 0.965924 0.961801 0.958932 0.955302 0.955119 0.957946 0.957536 0.957692 0.958771 0.958653 0.958373 0.958845 0.958580 0.957823 0.956944 0.956118 0.955736 0.955518 0.956218 0.956588 0.958038 0.961364 0.961879 0.961970 0.962125 0.962213 0.963528 0.961919 0.961653 0.957490 0.957956 0.957656 0.955331 0.961772 0.958782 0.959358 0.959896 0.961381 0.961656 0.951975 0.949546 0.939334 0.937525 0.932097 0.925192 0.920392 0.922301 0.924614 0.926058 0.926704 0.921846 0.921793 0.918459 0.914005 0.917102 0.915592 0.915799 0.917184 0.918290 0.918175 0.916869 0.915265 0.907670 0.897091 0.895897 0.898896 0.903713 0.905583 0.905669 0.903469 0.872945 0.873574 0.880155 0.873697 0.862925 0.858509 0.857973 0.863463 0.863684 0.866288 0.865740 0.857193 0.844856 0.831532 0.823951 0.824515 0.818493 0.820409 0.818533 0.814143 0.823765 0.820485 0.826259 0.833280 0.841711 0.842392 0.832354 0.828435 0.826544 0.819145 0.800198 0.802707 0.786265 0.786847 0.786189 0.784573 0.780029 0.785325 0.768947 0.763642 0.750578 0.752005 0.754803 0.752138 0.749608 0.750056 0.752746 0.758228 0.740025 0.730294 0.715629 0.720355 0.728974 0.732102 0.726445 0.700499 0.668233 0.628303 0.646607 0.670167 0.621390 0.645214 0.655938 0.633766 0.631792 0.622500 0.621229 0.593812 0.597773 0.599167 0.603930 0.610090 0.630393 0.614899 0.606822 0.616003 0.614091 0.621230 0.608710 0.611575 0.587057 0.582473 0.609191 0.610135 0.593969 0.609053 0.595628 0.596826 0.626163 0.635402 0.605308 0.599499 0.578284 0.539361 0.544014 0.543321 0.554301 0.583497 0.567179 0.529597 0.515747 0.515989 0.537522 0.539770 0.544182 0.537396 0.546857 0.536944 0.510128 0.515910 0.533010 0.531099 0.523242 0.496650 0.508485 0.512322 0.545984 0.537012 0.488318 0.508606 0.506874 0.507424 0.461746 0.488794 0.469463 0.459458 0.422618 0.427955 0.438105 0.426354 0.371322 0.347034 0.347120 0.348947 0.352508 0.342576 0.314441 0.303597 0.310600 0.316095 0.302891 0.274357 0.270340 0.254276 0.240809 0.241424 0.207729 0.247466 0.306524 0.308112 0.308112 0.308112 0.308112 0.308112 0.308112 0.308298 0.308298 0.308298 0.308298 0.308298 0.308298 0.308298 0.308298 0.308298 0.322618 0.322618 0.322618 0.322618 0.322618 0.322618 0.322618 0.322618 0.322618 0.322618 0.322618 0.322618 0.322618 0.322618
0.000000 0.000000 0.000000 0.000000 0.000000 0.000000 0.000000 0.000000 0.000000 0.000000 0.000000 0.000000 0.000000 0.000000 0.000000 0.000000 0.000000 0.000000 0.000000 0.000000 0.000000 0.000000 0.000000 0.000000 0.000000 0.000000 0.000000 0.000000 0.000000 0.000000 0.000000 0.000000 0.000000 0.000000 0.000000 0.000000 0.000000 0.000000 0.000000 0.000000 0.000000 0.000000 0.000000 0.000000 0.000000 0.000000 0.000000 0.000000 0.000000 0.000000 0.000000 0.000000 0.180334 0.180334 0.180334 0.199007 0.199007 0.199007 0.199007 0.199007 0.199007 0.199007 0.199007 0.199007 0.199007 0.199007 0.199007 0.199007 0.199007 0.199007 0.199007 0.199007 0.199007 0.199007 0.199007 0.199007 0.199007 0.199007 0.199007 0.199007 0.199007 0.199007 0.199007 0.199007 0.199007 0.199007 0.199007 0.199007 0.199007 0.199007 0.199007 0.199007 0.199007 0.199007 0.199007 0.199007 0.225018 0.225018 0.225018 0.225018 0.225018 0.225018 0.225018 0.225018 0.225018 0.225018 0.225018 0.225018 0.225018 0.225018 0.225018 0.225018 0.225018 0.225018 0.225018 0.225018 0.225018 0.225018 0.225018 0.225018 0.225018 0.225018 0.225018 0.225018 0.225018 0.244339 0.244339 0.244339 0.244339 0.244339 0.244339 0.244339 0.244339 0.244339 0.244339 0.244339 0.244339 0.244339 0.244339 0.244339 0.244339 0.244339 0.244339 0.244339 0.244339 0.244339 0.244339 0.244339 0.251976 0.251976 0.251976 0.251976 0.251976 0.251976 0.251976 0.251976 0.251976 0.251976 0.251976 0.251976 0.251976 0.251976 0.251976 0.251976 0.251976 0.251976 0.251976 0.251976 0.264906 0.264906 0.264906 0.264906 0.264906 0.264906 0.264906 0.264906 0.264906 0.264906 0.264906 0.264906 0.264906 0.264906 0.264906 0.264906 0.264906 0.256074 0.256074 0.256074 0.256074 0.256074 0.256074 0.256074 0.256074 0.256074 0.256074 0.256074 0.256074 0.256074 0.256074 0.256074 0.256074 0.256074 0.269680 0.269680 0.269680 0.269680 0.269680 0.269680 0.269680 0.269680 0.269680 0.269680 0.269680 0.269680 0.269680 0.269680 0.264906 0.264906 0.264906 0.264906 0.264906 0.264906 0.264906 0.264906 0.264906 0.264906 0.264906 0.264906 0.264906 0.264906 0.256074 0.256074 0.256074 0.256074 0.256074 0.256074 0.256074 0.256074 0.256074 0.256074 0.256074 0.256074 0.256074 0.256074 0.269680 0.269680 0.269680 0.269680 0.269680 0.269680 0.269680 0.269680 0.269680 0.269680 0.269680 0.269680 0.264906 0.264906 0.264906 0.264906 0.264906 0.264906 0.264906 0.264906 0.264906 0.264906 0.264906 0.264906 0.269680 0.269680 0.269680 0.269680 0.269680 0.269680 0.269680 0.269680 0.269680 0.269680 0.269680 0.264906 0.264906 0.264906 0.264906 0.264906 0.264906 0.264906 0.264906 0.264906 0.264906 0.264906 0.256074 0.256074 0.256074 0.256074 0.256074 0.256074 0.256074 0.256074 0.256074 0.256074 0.256074 0.264906 0.264906 0.264906 0.264906 0.264906 0.264906 0.264906 0.264906 0.264906 0.264906 0.260378 0.260378 0.260378 0.260378 0.260378 0.260378 0.260378 0.260378 0.260378 0.260378 0.256074 0.256074 0.256074 0.256074 0.256074 0.256074 0.256074 0.256074 0.256074 0.256074 0.260378 0.260378 0.260378 0.260378 0.260378 0.260378 0.260378 0.260378 0.260378 0.256074 0.256074 0.256074 0.256074 0.256074 0.256074 0.256074 0.256074 0.256074 0.251976 0.251976 0.251976 0.251976 0.251976 0.251976 0.251976 0.251976 0.251976 0.251976 0.251976 0.251976 0.251976 0.251976
