# Output from CTFFind version 4.1.9, run on 2019-11-03 20:03:53
# Input file: stack6_bm3d_averaged_1_7.0_0_250_half.mrc ; Number of micrographs: 1
# Pixel size: 3.000 Angstroms ; acceleration voltage: 300.0 keV ; spherical aberration: 0.00 mm ; amplitude contrast: 0.07
# Box size: 512 pixels ; min. res.: 30.0 Angstroms ; max. res.: 5.0 Angstroms ; min. def.: 5000.0 um; max. def. 50000.0 um; num. frames averaged: 1
# 6 lines per micrograph: #1 - spatial frequency (1/Angstroms); #2 - 1D rotational average of spectrum (assuming no astigmatism); #3 - 1D rotational average of spectrum; #4 - CTF fit; #5 - cross-correlation between spectrum and CTF fit; #6 - 2sigma of expected cross correlation of noise
0.000000 0.000651 0.001302 0.001953 0.002604 0.003255 0.003906 0.004557 0.005208 0.005859 0.006510 0.007161 0.007812 0.008464 0.009115 0.009766 0.010417 0.011068 0.011719 0.012370 0.013021 0.013672 0.014323 0.014974 0.015625 0.016276 0.016927 0.017578 0.018229 0.018880 0.019531 0.020182 0.020833 0.021484 0.022135 0.022786 0.023438 0.024089 0.024740 0.025391 0.026042 0.026693 0.027344 0.027995 0.028646 0.029297 0.029948 0.030599 0.031250 0.031901 0.032552 0.033203 0.033854 0.034505 0.035156 0.035807 0.036458 0.037109 0.037760 0.038411 0.039062 0.039714 0.040365 0.041016 0.041667 0.042318 0.042969 0.043620 0.044271 0.044922 0.045573 0.046224 0.046875 0.047526 0.048177 0.048828 0.049479 0.050130 0.050781 0.051432 0.052083 0.052734 0.053385 0.054036 0.054688 0.055339 0.055990 0.056641 0.057292 0.057943 0.058594 0.059245 0.059896 0.060547 0.061198 0.061849 0.062500 0.063151 0.063802 0.064453 0.065104 0.065755 0.066406 0.067057 0.067708 0.068359 0.069010 0.069661 0.070312 0.070964 0.071615 0.072266 0.072917 0.073568 0.074219 0.074870 0.075521 0.076172 0.076823 0.077474 0.078125 0.078776 0.079427 0.080078 0.080729 0.081380 0.082031 0.082682 0.083333 0.083984 0.084635 0.085286 0.085938 0.086589 0.087240 0.087891 0.088542 0.089193 0.089844 0.090495 0.091146 0.091797 0.092448 0.093099 0.093750 0.094401 0.095052 0.095703 0.096354 0.097005 0.097656 0.098307 0.098958 0.099609 0.100260 0.100911 0.101562 0.102214 0.102865 0.103516 0.104167 0.104818 0.105469 0.106120 0.106771 0.107422 0.108073 0.108724 0.109375 0.110026 0.110677 0.111328 0.111979 0.112630 0.113281 0.113932 0.114583 0.115234 0.115885 0.116536 0.117188 0.117839 0.118490 0.119141 0.119792 0.120443 0.121094 0.121745 0.122396 0.123047 0.123698 0.124349 0.125000 0.125651 0.126302 0.126953 0.127604 0.128255 0.128906 0.129557 0.130208 0.130859 0.131510 0.132161 0.132812 0.133464 0.134115 0.134766 0.135417 0.136068 0.136719 0.137370 0.138021 0.138672 0.139323 0.139974 0.140625 0.141276 0.141927 0.142578 0.143229 0.143880 0.144531 0.145182 0.145833 0.146484 0.147135 0.147786 0.148438 0.149089 0.149740 0.150391 0.151042 0.151693 0.152344 0.152995 0.153646 0.154297 0.154948 0.155599 0.156250 0.156901 0.157552 0.158203 0.158854 0.159505 0.160156 0.160807 0.161458 0.162109 0.162760 0.163411 0.164062 0.164714 0.165365 0.166016 0.166667 0.167318 0.167969 0.168620 0.169271 0.169922 0.170573 0.171224 0.171875 0.172526 0.173177 0.173828 0.174479 0.175130 0.175781 0.176432 0.177083 0.177734 0.178385 0.179036 0.179688 0.180339 0.180990 0.181641 0.182292 0.182943 0.183594 0.184245 0.184896 0.185547 0.186198 0.186849 0.187500 0.188151 0.188802 0.189453 0.190104 0.190755 0.191406 0.192057 0.192708 0.193359 0.194010 0.194661 0.195312 0.195964 0.196615 0.197266 0.197917 0.198568 0.199219 0.199870 0.200521 0.201172 0.201823 0.202474 0.203125 0.203776 0.204427 0.205078 0.205729 0.206380 0.207031 0.207682 0.208333 0.208984 0.209635 0.210286 0.210938 0.211589 0.212240 0.212891 0.213542 0.214193 0.214844 0.215495 0.216146 0.216797 0.217448 0.218099 0.218750 0.219401 0.220052 0.220703 0.221354 0.222005 0.222656 0.223307 0.223958 0.224609 0.225260 0.225911 0.226562 0.227214 0.227865 0.228516 0.229167 0.229818 0.230469 0.231120 0.231771 0.232422 0.233073 0.233724 0.234375 0.235026 0.235677
       0.33272        0.33272        0.33272        0.33272        0.33272        0.33272        0.33272        0.33272        0.33272        0.33272        0.33272        0.33272        0.33272        0.33272        0.33272        0.33272        0.33272        0.33272        0.33272        0.33272        0.33272        0.33272        0.33272        0.33272        0.33272        0.33272        0.33272        0.33272        0.33272        0.33272        0.33272        0.33272        0.33272        0.33272        0.33272        0.33272        0.33272        0.33272        0.33272        0.33272        0.33272        0.33272        0.33272        0.33272        0.33272        0.33272        0.33272        0.33272        0.33272        0.33272        0.33272        0.59605        0.70877        0.36579        0.17268        0.13970       -0.12845        0.11300        0.04135        0.04379        0.09402        0.30970        0.30714        0.23630        0.14212       -0.03710       -0.00949        0.05228       -0.08906       -0.09564       -0.06836       -0.07476       -0.17303       -0.10999       -0.21911       -0.23819       -0.23639       -0.29474       -0.36541       -0.29421       -0.20316       -0.16769       -0.27498       -0.20009       -0.24002       -0.18126       -0.12174       -0.06317       -0.03525        0.02003        0.06874        0.15163        0.19283        0.23513        0.34707        0.41181        0.36177        0.48373        0.54577        0.55416        0.63008        0.55458        0.58440        0.60423        0.60458        0.59460        0.55988        0.59667        0.54210        0.39913        0.35513        0.37811        0.34449        0.21312        0.20435        0.17423        0.11770        0.11536        0.04364        0.11057        0.08854        0.05584        0.13671        0.19127        0.27799        0.34964        0.36677        0.39874        0.44908        0.48199        0.42287        0.63748        0.55048        0.48245        0.56980        0.50374        0.55863        0.51749        0.39119        0.32906        0.31508        0.26936        0.25919        0.21629        0.19833        0.17658        0.26796        0.24604        0.26565        0.23605        0.27583        0.33926        0.33864        0.45063        0.44617        0.43282        0.41841        0.48212        0.43629        0.41703        0.40815        0.39772        0.33713        0.28449        0.28330        0.27215        0.27056        0.21608        0.20520        0.25350        0.26983        0.29091        0.35199        0.38691        0.42801        0.41746        0.43014        0.49121        0.47501        0.43051        0.38358        0.41880        0.38237        0.33153        0.34100        0.33211        0.27397        0.28530        0.28165        0.25768        0.32198        0.30110        0.32006        0.33977        0.40009        0.42315        0.41345        0.44235        0.39162        0.43431        0.40688        0.33548        0.30172        0.27631        0.28707        0.25945        0.22859        0.31520        0.37787        0.33954        0.31160        0.36770        0.29398        0.35219        0.40402        0.38896        0.36665        0.38068        0.34900        0.36423        0.33644        0.30805        0.28952        0.27105        0.32271        0.33426        0.35367        0.36804        0.39037        0.37301        0.36954        0.32779        0.35776        0.36574        0.34624        0.33041        0.29188        0.28986        0.27201        0.34164        0.33790        0.35023        0.31920        0.35062        0.37322        0.34028        0.35805        0.35029        0.31614        0.31272        0.31046        0.28360        0.27409        0.26438        0.25554        0.27613        0.26918        0.30549        0.27713        0.31845        0.36153        0.26494        0.29684        0.28406        0.24998        0.30497        0.28724        0.28837        0.31454        0.32974        0.33064        0.31833        0.31679        0.31400        0.36246        0.36057        0.30442        0.32879        0.32051        0.37067        0.28129        0.27965        0.29635        0.30778        0.33340        0.36760        0.35898        0.29813        0.23427        0.29878        0.26887        0.25979        0.26157        0.27718        0.31021        0.24000        0.30773        0.33323        0.36795        0.31176        0.31702        0.28485        0.29614        0.29274        0.26749        0.29007        0.27164        0.28681        0.35314        0.34938        0.28577        0.32603        0.33132        0.26278        0.23195        0.18930        0.33308        0.32990        0.36179        0.34616        0.29418        0.23172        0.22129        0.27756        0.27171        0.27129        0.29359        0.29333        0.24764        0.28318        0.28367        0.31036        0.28312        0.28056        0.27553        0.24781        0.23330        0.28857        0.25161        0.21761        0.26295        0.25797        0.26326        0.22592        0.20556        0.27320        0.30313        0.27935        0.20273        0.14697        0.29038        0.22701        0.25924        0.27541        0.16825        0.16302        0.20246        0.24215        0.29867        0.09425       -0.11582       -0.60955       -0.96624
2.426758 2.406197 2.385727 2.365347 2.345059 2.324862 2.304756 2.284740 2.264816 2.244983 2.225241 2.205590 2.186030 2.166560 2.147182 2.127895 2.108699 2.089594 2.070580 2.051657 2.032825 2.014084 1.995434 1.976876 1.958408 1.940031 1.921745 1.903550 1.885446 1.867434 1.849512 1.831681 1.813941 1.796293 1.778735 1.761269 1.743893 1.726608 1.709415 1.692312 1.675301 1.658380 1.641551 1.624812 1.608165 1.591608 1.575143 1.558768 1.542485 1.526293 1.510191 1.868140 2.210130 1.534488 1.331384 1.106339 0.519414 0.935955 0.804115 0.846830 0.701474 1.426544 1.195642 1.212981 0.988370 0.596490 0.470232 0.748534 0.604212 0.283573 0.271794 0.488340 0.248144 0.265788 0.110258 -0.002083 -0.016382 -0.009387 -0.320980 -0.142948 0.013579 0.010099 -0.080933 -0.013664 -0.104372 -0.083724 0.069157 0.198367 0.260898 0.281431 0.387834 0.633100 0.564537 0.670839 0.830336 1.065034 0.806775 1.271509 1.197349 1.273837 1.373704 1.265480 1.163748 1.377392 1.240621 1.349433 1.207841 1.208506 1.224738 0.965949 0.717785 0.751023 0.798074 0.483944 0.449567 0.373210 0.241396 0.198194 0.035207 0.235604 0.175584 0.061058 0.142409 0.239287 0.364878 0.608301 0.611878 0.631162 0.698075 0.881851 0.595221 1.029249 1.055609 0.776836 0.928555 0.771867 0.889473 0.921052 0.652995 0.409180 0.439615 0.387798 0.222894 0.245199 0.162604 -0.014641 0.253704 0.233955 0.262698 0.158045 0.249651 0.334895 0.277073 0.502295 0.603919 0.557046 0.366836 0.651567 0.561707 0.419123 0.541540 0.435418 0.268451 0.313196 0.139468 0.216008 0.025440 0.216015 -0.054522 0.058213 0.066859 0.259533 0.049017 0.400164 0.351184 0.405751 0.381198 0.419927 0.591361 0.410090 0.345476 0.400991 0.197154 0.362547 0.108109 0.268525 0.064715 0.090926 0.081008 0.062061 0.046002 0.159003 0.058309 0.159086 0.242412 0.287479 0.329966 0.264759 0.346077 0.264406 0.293898 0.186668 0.104579 0.019378 -0.007681 0.017326 -0.064034 -0.071440 0.127747 0.219528 0.053865 0.108421 0.130481 0.008315 0.190958 0.259578 0.188786 0.181615 0.130290 0.169543 0.106466 0.097255 0.046493 -0.087212 -0.001686 0.133780 0.054111 0.154690 0.134986 0.221526 0.179913 0.154220 0.107155 0.187963 0.100728 0.144371 0.091426 0.008710 -0.012089 -0.012607 0.129129 0.122946 0.130881 0.060097 0.151972 0.162399 0.044888 0.144991 0.053233 -0.009015 0.026998 0.007878 -0.059603 -0.061685 -0.117237 -0.049185 -0.053499 -0.097589 0.011167 -0.047805 0.045618 0.103152 -0.113959 0.023094 -0.051768 -0.097405 0.050184 -0.024811 -0.061817 0.043680 0.099259 0.030628 0.059031 -0.045527 0.027041 0.203681 0.010439 -0.046829 0.081260 0.041066 0.113002 -0.110521 -0.048252 -0.006999 0.044586 0.059470 0.101937 0.131706 -0.049534 -0.109762 0.008215 -0.063169 -0.066492 -0.047360 -0.045657 0.052944 -0.176291 0.128310 0.130606 0.183943 0.038739 0.054626 0.033494 0.031388 0.096153 -0.026382 0.040133 0.010356 0.054557 0.142435 0.191101 0.042834 0.166651 0.170541 -0.040549 -0.009733 -0.162102 0.237439 0.135470 0.215599 0.171896 0.029013 -0.063389 -0.092073 0.015185 0.008861 -0.019301 0.046601 0.048966 -0.079975 0.016356 0.110132 0.069154 0.037654 0.007128 0.056816 -0.106811 -0.014686 0.055070 -0.031813 -0.119468 0.040560 -0.012111 -0.041608 -0.037902 -0.117459 0.083247 0.122091 -0.002240 -0.092945 -0.346719 0.187469 0.510583 0.451922 0.577297 0.264965 0.324220 0.408555 0.510538 0.573633 0.046309 0.021160 -0.934955
0.072396 0.072838 0.074163 0.076371 0.079462 0.083435 0.088289 0.094022 0.100634 0.108122 0.116484 0.125716 0.135815 0.146776 0.158594 0.171262 0.184772 0.199116 0.214282 0.230259 0.247032 0.264586 0.282903 0.301961 0.321739 0.342209 0.363344 0.385111 0.407474 0.430396 0.453833 0.477738 0.502061 0.526747 0.551735 0.576960 0.602354 0.627843 0.653346 0.678779 0.704051 0.729069 0.753731 0.777931 0.801559 0.824499 0.846629 0.867825 0.887956 0.906890 0.924488 0.940610 0.955112 0.967851 0.978680 0.987451 0.994019 0.998237 0.999964 0.999060 0.995388 0.988821 0.979236 0.966518 0.950564 0.931282 0.908590 0.882425 0.852736 0.819493 0.782682 0.742313 0.698416 0.651047 0.600285 0.546238 0.489041 0.428857 0.365881 0.300336 0.232478 0.162594 0.091002 0.018050 0.055883 0.130388 0.205031 0.279348 0.352856 0.425047 0.495396 0.563366 0.628407 0.689964 0.747479 0.800402 0.848190 0.890315 0.926273 0.955588 0.977820 0.992569 0.999485 0.998277 0.988713 0.970632 0.943948 0.908657 0.864842 0.812675 0.752424 0.684454 0.609231 0.527317 0.439375 0.346165 0.248540 0.147440 0.043885 0.061028 0.166143 0.270251 0.372106 0.470437 0.563965 0.651424 0.731572 0.803218 0.865233 0.916578 0.956321 0.983654 0.997916 0.998607 0.985407 0.958192 0.917039 0.862242 0.794319 0.714007 0.622269 0.520285 0.409446 0.291336 0.167716 0.040506 0.088250 0.216406 0.341757 0.462066 0.575119 0.678750 0.770902 0.849658 0.913296 0.960323 0.989521 0.999980 0.991137 0.962795 0.915150 0.848800 0.764752 0.664419 0.549605 0.422480 0.285552 0.141622 0.006269 0.154897 0.300927 0.440980 0.571721 0.689935 0.792613 0.877034 0.940842 0.982127 0.999484 0.992074 0.959665 0.902665 0.822136 0.719788 0.597962 0.459586 0.308120 0.147478 0.018066 0.183983 0.345614 0.498297 0.637510 0.759000 0.858929 0.934004 0.981593 0.999836 0.987727 0.945176 0.873050 0.773168 0.648289 0.502048 0.338864 0.163824 0.017463 0.199040 0.374797 0.538674 0.684877 0.808085 0.903659 0.967832 0.997874 0.992225 0.950588 0.873990 0.764777 0.626575 0.464192 0.283467 0.091080 0.105682 0.299199 0.481803 0.646095 0.785242 0.893285 0.965408 0.998170 0.989698 0.939809 0.850073 0.723801 0.565943 0.382939 0.182460 0.026882 0.235900 0.435226 0.615737 0.768976 0.887568 0.965597 0.998919 0.985421 0.925170 0.820481 0.675864 0.497862 0.294798 0.076395 0.146661 0.363236 0.562304 0.733521 0.867767 0.957665 0.998014 0.986118 0.922006 0.808499 0.651135 0.457938 0.239048 0.006209 0.227834 0.450029 0.647754 0.809529 0.925727 0.989163 0.995583 0.943987 0.836772 0.679681 0.481538 0.253798 0.009912 0.235431 0.467203 0.670938 0.833664 0.944749 0.996643 0.985427 0.911160 0.777971 0.593885 0.370404 0.121820 0.135662 0.384967 0.609279 0.793179 0.923751 0.991510 0.991152 0.922021 0.788260 0.598637 0.366026 0.106581 0.161341 0.418481 0.646035 0.827068 0.947796 0.998685 0.975268 0.878586 0.715243 0.497021 0.240102 0.036101 0.310362 0.561273 0.768927 0.916516 0.991754 0.987952 0.904681 0.747947 0.529842 0.267673 0.017345 0.301778 0.561874 0.775578 0.924413 0.995148 0.981031 0.882517 0.707374 0.470168 0.191118 0.105567 0.393759 0.647693 0.844311 0.965377 0.999256 0.942097 0.798357 0.580554 0.308267 0.006448 0.296823 0.572914 0.795383 0.942524 0.999570 0.960250 0.827572 0.613716 0.339009 0.030078 0.282680 0.568056 0.797160 0.946401 0.999962
1.000000 1.000000 1.000000 1.000000 1.000000 1.000000 1.000000 1.000000 1.000000 1.000000 1.000000 1.000000 1.000000 1.000000 1.000000 1.000000 1.000000 1.000000 1.000000 1.000000 1.000000 1.000000 1.000000 1.000000 1.000000 1.000000 1.000000 1.000000 1.000000 1.000000 1.000000 1.000000 1.000000 1.000000 1.000000 1.000000 1.000000 1.000000 1.000000 1.000000 1.000000 1.000000 1.000000 1.000000 1.000000 1.000000 1.000000 1.000000 1.000000 1.000000 1.000000 1.000000 0.771276 0.771276 0.771276 0.771276 0.771276 0.771276 0.771276 0.759864 0.759864 0.759864 0.759864 0.759864 0.759864 0.759864 0.759864 0.759864 0.759864 0.759864 0.759864 0.759864 0.759864 0.759864 0.759864 0.759864 0.759864 0.759864 0.759864 0.759864 0.759864 0.759864 0.759864 0.759864 0.759864 0.759864 0.759864 0.759864 0.759864 0.759864 0.759864 0.759864 0.759864 0.759864 0.759864 0.759864 0.759864 0.759864 0.759864 0.759864 0.759864 0.759864 0.759864 0.900294 0.901761 0.904817 0.900235 0.902166 0.900008 0.893575 0.896503 0.897123 0.896935 0.897724 0.899374 0.901375 0.908709 0.917617 0.919502 0.926485 0.929922 0.929907 0.931426 0.930049 0.937530 0.935043 0.933276 0.921372 0.924770 0.926665 0.925672 0.924512 0.921335 0.927103 0.925697 0.923617 0.918331 0.914407 0.912490 0.914130 0.911889 0.912471 0.912652 0.913578 0.911764 0.912563 0.908717 0.909659 0.908558 0.905005 0.901979 0.901689 0.903066 0.901376 0.898006 0.891753 0.897726 0.897892 0.897285 0.896194 0.896404 0.897198 0.897970 0.898635 0.896196 0.896248 0.893694 0.895475 0.891958 0.887254 0.881137 0.881435 0.883905 0.890955 0.892964 0.891581 0.888729 0.880341 0.869712 0.867630 0.856102 0.821483 0.823442 0.827306 0.829382 0.829855 0.828882 0.825068 0.820754 0.812561 0.803605 0.808386 0.808899 0.801544 0.797508 0.798434 0.799171 0.806536 0.810174 0.801996 0.798812 0.801407 0.797320 0.798507 0.802454 0.795556 0.792555 0.799411 0.807549 0.807580 0.792026 0.787699 0.785151 0.773108 0.780240 0.786786 0.786393 0.787812 0.784785 0.773024 0.771684 0.764975 0.775715 0.782849 0.782136 0.777172 0.760244 0.716927 0.702779 0.669321 0.667790 0.669386 0.635615 0.635824 0.637333 0.641548 0.584857 0.561753 0.547649 0.548607 0.557642 0.562725 0.556567 0.529899 0.547564 0.543988 0.529509 0.525447 0.506633 0.492981 0.475144 0.477722 0.476949 0.469350 0.438068 0.439276 0.459276 0.468395 0.463610 0.459858 0.432060 0.411622 0.411502 0.403975 0.403789 0.409906 0.418369 0.361052 0.338153 0.324493 0.353179 0.351655 0.349913 0.367460 0.359385 0.352875 0.327862 0.307439 0.278151 0.290691 0.311297 0.314617 0.318118 0.286558 0.277238 0.261649 0.265797 0.310967 0.300058 0.322627 0.328042 0.333045 0.358274 0.331268 0.307719 0.285727 0.329119 0.336461 0.307799 0.301209 0.315431 0.328647 0.327826 0.323702 0.318341 0.365406 0.369157 0.348102 0.348393 0.315516 0.335822 0.366971 0.364573 0.370449 0.380680 0.386825 0.350439 0.275787 0.247049 0.250483 0.227083 0.226812 0.212825 0.197637 0.189420 0.201731 0.223613 0.229769 0.262011 0.230259 0.185054 0.094281 0.161219 0.078338 0.092091 0.092091 0.092091 0.092091 0.092091 0.092091 0.092091 0.092091 0.128943 0.128943 0.128943 0.128943 0.128943 0.128943 0.128943 0.128943 0.128943 0.128943 0.128943 0.128943 0.128943 0.128943 0.128943 0.128943 0.128943 0.128943 0.128943 0.128943 0.128943
0.000000 0.000000 0.000000 0.000000 0.000000 0.000000 0.000000 0.000000 0.000000 0.000000 0.000000 0.000000 0.000000 0.000000 0.000000 0.000000 0.000000 0.000000 0.000000 0.000000 0.000000 0.000000 0.000000 0.000000 0.000000 0.000000 0.000000 0.000000 0.000000 0.000000 0.000000 0.000000 0.000000 0.000000 0.000000 0.000000 0.000000 0.000000 0.000000 0.000000 0.000000 0.000000 0.000000 0.000000 0.000000 0.000000 0.000000 0.000000 0.000000 0.000000 0.000000 0.000000 0.173422 0.173422 0.173422 0.173422 0.173422 0.173422 0.173422 0.191565 0.191565 0.191565 0.191565 0.191565 0.191565 0.191565 0.191565 0.191565 0.191565 0.191565 0.191565 0.191565 0.191565 0.191565 0.191565 0.191565 0.191565 0.191565 0.191565 0.191565 0.191565 0.191565 0.191565 0.191565 0.191565 0.191565 0.191565 0.191565 0.191565 0.191565 0.191565 0.191565 0.191565 0.191565 0.191565 0.191565 0.191565 0.191565 0.191565 0.191565 0.191565 0.191565 0.191565 0.222222 0.222222 0.222222 0.222222 0.222222 0.222222 0.222222 0.222222 0.222222 0.222222 0.222222 0.222222 0.222222 0.222222 0.222222 0.222222 0.222222 0.222222 0.222222 0.222222 0.222222 0.222222 0.222222 0.222222 0.222222 0.222222 0.222222 0.222222 0.222222 0.222222 0.234082 0.234082 0.234082 0.234082 0.234082 0.234082 0.234082 0.234082 0.234082 0.234082 0.234082 0.234082 0.234082 0.234082 0.234082 0.234082 0.234082 0.234082 0.234082 0.234082 0.234082 0.234082 0.234082 0.234082 0.234082 0.244339 0.244339 0.244339 0.244339 0.244339 0.244339 0.244339 0.244339 0.244339 0.244339 0.244339 0.244339 0.244339 0.244339 0.244339 0.244339 0.244339 0.244339 0.244339 0.244339 0.244339 0.248069 0.248069 0.248069 0.248069 0.248069 0.248069 0.248069 0.248069 0.248069 0.248069 0.248069 0.248069 0.248069 0.248069 0.248069 0.248069 0.248069 0.248069 0.248069 0.256074 0.256074 0.256074 0.256074 0.256074 0.256074 0.256074 0.256074 0.256074 0.256074 0.256074 0.256074 0.256074 0.256074 0.256074 0.256074 0.256074 0.256074 0.256074 0.256074 0.256074 0.256074 0.256074 0.256074 0.256074 0.256074 0.256074 0.256074 0.256074 0.256074 0.256074 0.256074 0.256074 0.256074 0.256074 0.256074 0.256074 0.256074 0.256074 0.256074 0.256074 0.256074 0.256074 0.256074 0.256074 0.256074 0.256074 0.256074 0.256074 0.256074 0.256074 0.256074 0.256074 0.256074 0.256074 0.256074 0.256074 0.256074 0.256074 0.256074 0.256074 0.256074 0.260378 0.260378 0.260378 0.260378 0.260378 0.260378 0.260378 0.260378 0.260378 0.260378 0.260378 0.260378 0.260378 0.256074 0.256074 0.256074 0.256074 0.256074 0.256074 0.256074 0.256074 0.256074 0.256074 0.256074 0.256074 0.256074 0.260378 0.260378 0.260378 0.260378 0.260378 0.260378 0.260378 0.260378 0.260378 0.260378 0.260378 0.260378 0.251976 0.251976 0.251976 0.251976 0.251976 0.251976 0.251976 0.251976 0.251976 0.251976 0.251976 0.251976 0.256074 0.256074 0.256074 0.256074 0.256074 0.256074 0.256074 0.256074 0.256074 0.256074 0.256074 0.251976 0.251976 0.251976 0.251976 0.251976 0.251976 0.251976 0.251976 0.251976 0.251976 0.251976 0.260378 0.260378 0.260378 0.260378 0.260378 0.260378 0.260378 0.260378 0.260378 0.260378 0.244339 0.244339 0.244339 0.244339 0.244339 0.244339 0.244339 0.244339 0.244339 0.244339 0.244339 0.244339 0.244339 0.244339 0.244339 0.244339 0.244339 0.244339 0.244339 0.244339 0.244339
