# Output from CTFFind version 4.1.9, run on 2019-11-02 17:43:52
# Input file: stack1_bm3d_averaged_1_1.25_0_250_half.mrc ; Number of micrographs: 1
# Pixel size: 3.000 Angstroms ; acceleration voltage: 300.0 keV ; spherical aberration: 0.00 mm ; amplitude contrast: 0.07
# Box size: 512 pixels ; min. res.: 30.0 Angstroms ; max. res.: 5.0 Angstroms ; min. def.: 5000.0 um; max. def. 50000.0 um; num. frames averaged: 1
# 6 lines per micrograph: #1 - spatial frequency (1/Angstroms); #2 - 1D rotational average of spectrum (assuming no astigmatism); #3 - 1D rotational average of spectrum; #4 - CTF fit; #5 - cross-correlation between spectrum and CTF fit; #6 - 2sigma of expected cross correlation of noise
0.000000 0.000651 0.001302 0.001953 0.002604 0.003255 0.003906 0.004557 0.005208 0.005859 0.006510 0.007161 0.007812 0.008464 0.009115 0.009766 0.010417 0.011068 0.011719 0.012370 0.013021 0.013672 0.014323 0.014974 0.015625 0.016276 0.016927 0.017578 0.018229 0.018880 0.019531 0.020182 0.020833 0.021484 0.022135 0.022786 0.023438 0.024089 0.024740 0.025391 0.026042 0.026693 0.027344 0.027995 0.028646 0.029297 0.029948 0.030599 0.031250 0.031901 0.032552 0.033203 0.033854 0.034505 0.035156 0.035807 0.036458 0.037109 0.037760 0.038411 0.039062 0.039714 0.040365 0.041016 0.041667 0.042318 0.042969 0.043620 0.044271 0.044922 0.045573 0.046224 0.046875 0.047526 0.048177 0.048828 0.049479 0.050130 0.050781 0.051432 0.052083 0.052734 0.053385 0.054036 0.054688 0.055339 0.055990 0.056641 0.057292 0.057943 0.058594 0.059245 0.059896 0.060547 0.061198 0.061849 0.062500 0.063151 0.063802 0.064453 0.065104 0.065755 0.066406 0.067057 0.067708 0.068359 0.069010 0.069661 0.070312 0.070964 0.071615 0.072266 0.072917 0.073568 0.074219 0.074870 0.075521 0.076172 0.076823 0.077474 0.078125 0.078776 0.079427 0.080078 0.080729 0.081380 0.082031 0.082682 0.083333 0.083984 0.084635 0.085286 0.085938 0.086589 0.087240 0.087891 0.088542 0.089193 0.089844 0.090495 0.091146 0.091797 0.092448 0.093099 0.093750 0.094401 0.095052 0.095703 0.096354 0.097005 0.097656 0.098307 0.098958 0.099609 0.100260 0.100911 0.101562 0.102214 0.102865 0.103516 0.104167 0.104818 0.105469 0.106120 0.106771 0.107422 0.108073 0.108724 0.109375 0.110026 0.110677 0.111328 0.111979 0.112630 0.113281 0.113932 0.114583 0.115234 0.115885 0.116536 0.117188 0.117839 0.118490 0.119141 0.119792 0.120443 0.121094 0.121745 0.122396 0.123047 0.123698 0.124349 0.125000 0.125651 0.126302 0.126953 0.127604 0.128255 0.128906 0.129557 0.130208 0.130859 0.131510 0.132161 0.132812 0.133464 0.134115 0.134766 0.135417 0.136068 0.136719 0.137370 0.138021 0.138672 0.139323 0.139974 0.140625 0.141276 0.141927 0.142578 0.143229 0.143880 0.144531 0.145182 0.145833 0.146484 0.147135 0.147786 0.148438 0.149089 0.149740 0.150391 0.151042 0.151693 0.152344 0.152995 0.153646 0.154297 0.154948 0.155599 0.156250 0.156901 0.157552 0.158203 0.158854 0.159505 0.160156 0.160807 0.161458 0.162109 0.162760 0.163411 0.164062 0.164714 0.165365 0.166016 0.166667 0.167318 0.167969 0.168620 0.169271 0.169922 0.170573 0.171224 0.171875 0.172526 0.173177 0.173828 0.174479 0.175130 0.175781 0.176432 0.177083 0.177734 0.178385 0.179036 0.179688 0.180339 0.180990 0.181641 0.182292 0.182943 0.183594 0.184245 0.184896 0.185547 0.186198 0.186849 0.187500 0.188151 0.188802 0.189453 0.190104 0.190755 0.191406 0.192057 0.192708 0.193359 0.194010 0.194661 0.195312 0.195964 0.196615 0.197266 0.197917 0.198568 0.199219 0.199870 0.200521 0.201172 0.201823 0.202474 0.203125 0.203776 0.204427 0.205078 0.205729 0.206380 0.207031 0.207682 0.208333 0.208984 0.209635 0.210286 0.210938 0.211589 0.212240 0.212891 0.213542 0.214193 0.214844 0.215495 0.216146 0.216797 0.217448 0.218099 0.218750 0.219401 0.220052 0.220703 0.221354 0.222005 0.222656 0.223307 0.223958 0.224609 0.225260 0.225911 0.226562 0.227214 0.227865 0.228516 0.229167 0.229818 0.230469 0.231120 0.231771 0.232422 0.233073 0.233724 0.234375 0.235026 0.235677
       0.33148        0.33148        0.33148        0.33148        0.33148        0.33148        0.33148        0.33148        0.33148        0.33148        0.33148        0.33148        0.33148        0.33148        0.33148        0.33148        0.33148        0.33148        0.33148        0.33148        0.33148        0.33148        0.33148        0.33148        0.33148        0.33148        0.33148        0.33148        0.33148        0.33148        0.33148        0.33148        0.33148        0.33148        0.33148        0.33148        0.33148        0.33148        0.33148        0.33148        0.33148        0.33148        0.33148        0.33148        0.33148        0.33148        0.33148        0.33148        0.33148        0.33148        0.33148        0.50143        0.71820        0.42796        0.18860       -0.08143       -0.25788       -0.06600       -0.13330       -0.05334       -0.00458       -0.14916       -0.09326       -0.05569       -0.00487       -0.15476       -0.22403       -0.34672       -0.46103       -0.55685       -0.51498       -0.44559       -0.37041       -0.54636       -0.45213       -0.62243       -0.50567       -0.47232       -0.39019       -0.38762       -0.33855       -0.25132       -0.16279       -0.14210        0.03140       -0.01390        0.11794        0.16305        0.30655        0.41179        0.46039        0.50017        0.54251        0.55003        0.68538        0.64232        0.67525        0.58849        0.55379        0.64964        0.52558        0.42358        0.38200        0.31920        0.23062        0.25924        0.25067        0.10268        0.07930        0.00060       -0.00496        0.03885       -0.01102        0.07120        0.10169        0.23194        0.28588        0.29701        0.38009        0.56246        0.53222        0.57845        0.66577        0.70060        0.62830        0.63753        0.63304        0.55394        0.57264        0.40154        0.34580        0.26227        0.18234        0.07472        0.14292        0.11636        0.09483        0.10458        0.20535        0.20897        0.31617        0.36016        0.41102        0.49158        0.57809        0.54356        0.55667        0.60190        0.53187        0.45857        0.48522        0.32800        0.24382        0.25795        0.23934        0.13856        0.14287        0.15411        0.22050        0.23894        0.33241        0.36830        0.39068        0.46508        0.44300        0.48035        0.44678        0.46956        0.44755        0.40370        0.38159        0.35420        0.31568        0.29169        0.20395        0.19263        0.21970        0.26711        0.26404        0.34521        0.37412        0.35603        0.40948        0.44682        0.44024        0.42617        0.44580        0.37892        0.33414        0.28030        0.25625        0.29179        0.26314        0.29294        0.29917        0.34103        0.33891        0.39180        0.39952        0.42600        0.40603        0.43541        0.40049        0.35974        0.28127        0.28913        0.30258        0.27216        0.25088        0.32065        0.36933        0.33898        0.35228        0.36191        0.35396        0.40811        0.40716        0.36584        0.33758        0.30291        0.31212        0.31876        0.31622        0.29934        0.27977        0.33745        0.35907        0.37854        0.33546        0.33005        0.33611        0.34629        0.31002        0.28091        0.30305        0.31201        0.33725        0.31694        0.32494        0.35421        0.32632        0.31636        0.32482        0.29704        0.26083        0.25471        0.26550        0.30647        0.32080        0.35538        0.30050        0.30571        0.32553        0.29248        0.31593        0.28618        0.28302        0.29107        0.29344        0.30479        0.34376        0.33130        0.33129        0.33755        0.31955        0.33759        0.31755        0.32032        0.31109        0.27522        0.28627        0.30034        0.28995        0.32255        0.32717        0.33197        0.32901        0.34589        0.32328        0.28384        0.24485        0.26590        0.32903        0.35288        0.33989        0.31174        0.28906        0.29589        0.30887        0.25482        0.29901        0.30942        0.33774        0.29717        0.29868        0.27471        0.33280        0.33536        0.33738        0.31103        0.29095        0.31385        0.39679        0.32642        0.31043        0.31222        0.28753        0.28017        0.30220        0.28224        0.32357        0.22965        0.26551        0.29969        0.31119        0.29448        0.25808        0.28711        0.24231        0.21991        0.27194        0.29819        0.30632        0.27789        0.27611        0.32853        0.26181        0.22875        0.29464        0.26096        0.26479        0.27996        0.37826        0.28406        0.28506        0.25263        0.24019        0.27351        0.26329        0.23717        0.18043        0.25138        0.23529        0.24903        0.31659        0.25958        0.35473        0.31814        0.23705        0.22213        0.21326        0.24764        0.32083        0.23174        0.13647        0.17907        0.23162        0.23897        0.26830        0.20226        0.02667       -0.46366       -0.98671
2.647993 2.620085 2.592327 2.564718 2.537259 2.509949 2.482788 2.455778 2.428916 2.402204 2.375641 2.349228 2.322965 2.296850 2.270886 2.245071 2.219405 2.193889 2.168522 2.143304 2.118236 2.093318 2.068549 2.043930 2.019460 1.995139 1.970968 1.946946 1.923074 1.899351 1.875778 1.852354 1.829080 1.805955 1.782980 1.760154 1.737478 1.714951 1.692573 1.670345 1.648267 1.626337 1.604558 1.582928 1.561447 1.540116 1.518934 1.497902 1.477019 1.456285 1.435702 1.505740 1.806658 1.505866 1.140441 0.922443 0.535824 0.900311 0.621017 0.859152 0.908572 0.577593 0.697360 0.758835 0.806267 0.613527 0.522278 0.339392 0.097461 0.072726 0.041815 0.077947 0.296435 -0.041966 0.074144 -0.139936 -0.022442 -0.017594 0.077020 0.050264 0.100397 0.168933 0.274486 0.238233 0.472116 0.390359 0.540655 0.515422 0.757593 0.784529 0.865903 0.918033 0.929047 0.939423 1.070879 0.966987 1.129212 0.931905 0.843854 1.002072 0.838687 0.745483 0.611776 0.585764 0.457745 0.407825 0.502192 0.261757 0.189741 0.154382 0.014120 0.210507 -0.007801 0.110948 0.180190 0.258950 0.335380 0.339102 0.422614 0.540550 0.652475 0.536920 0.729206 0.866424 0.634828 0.693615 0.665748 0.590365 0.529398 0.469474 0.299688 0.211912 0.115369 -0.039632 -0.016029 0.052808 -0.092361 -0.055969 0.050550 0.048901 0.108561 0.223486 0.237248 0.311561 0.428165 0.429288 0.451272 0.469569 0.439152 0.314703 0.338637 0.248330 0.040757 0.060568 0.023170 -0.059243 -0.094354 -0.098685 -0.011587 -0.059584 0.072528 0.128475 0.128592 0.252473 0.220761 0.243804 0.285025 0.251073 0.246460 0.206996 0.172769 0.111316 0.108258 0.032017 0.016278 -0.122689 -0.054443 0.004164 0.002198 0.013753 0.098233 0.082996 0.128257 0.186959 0.252868 0.161677 0.196505 0.115218 0.145985 0.013904 -0.034088 0.014914 -0.017993 -0.008464 -0.003330 0.030572 0.064948 0.061339 0.139922 0.110401 0.155210 0.070851 0.151452 0.085648 -0.009424 -0.055218 -0.021175 -0.031333 -0.076542 -0.067390 0.046475 0.064482 -0.010799 0.053184 0.067201 0.068207 0.146994 0.079028 0.069818 0.039510 -0.023940 0.031908 0.006071 0.011774 0.004695 -0.010580 0.048528 0.068114 0.067667 0.033312 0.046376 0.017208 0.068859 -0.010211 -0.020090 0.019565 0.010947 0.063217 0.028729 0.037653 0.069074 0.029933 0.015687 0.029871 -0.007343 -0.044926 -0.026923 -0.027667 0.024173 0.044342 0.099837 0.002474 0.049813 0.056474 0.000276 0.069289 0.024964 0.020803 0.048066 0.051482 0.049326 0.104624 0.069724 0.083350 0.083533 0.101291 0.075711 0.072490 0.091619 0.040075 -0.004661 0.048148 0.031421 0.060214 0.066196 0.093791 0.005134 0.076538 0.078005 0.016926 0.022304 -0.077027 -0.017665 0.107338 0.072003 0.054849 0.034735 -0.022382 0.038781 0.020231 -0.050264 0.041582 0.049752 0.074229 0.034870 -0.009573 -0.003174 0.044489 0.051272 0.023417 0.032821 -0.030480 0.067751 0.118097 0.015459 -0.005017 0.014476 -0.031328 -0.021952 -0.011949 -0.033916 0.018130 -0.107195 -0.028592 -0.019097 0.018938 -0.031846 -0.060601 -0.003202 -0.057707 -0.053393 -0.046624 0.043524 0.012475 0.013791 -0.010681 0.080939 -0.044816 -0.034966 0.021987 -0.022290 0.030383 0.000486 0.176144 -0.024153 0.004823 0.040323 -0.034825 0.002554 0.005421 -0.021046 -0.137305 0.011203 -0.026780 -0.000603 0.038774 -0.018077 0.147405 0.066042 -0.003490 -0.093761 -0.032182 -0.042078 0.078849 0.276343 0.163187 0.226568 0.215892 0.317964 0.301283 0.222436 0.103436 -0.315051
0.072396 0.072910 0.074450 0.077017 0.080610 0.085228 0.090869 0.097532 0.105215 0.113915 0.123628 0.134350 0.146075 0.158796 0.172505 0.187192 0.202846 0.219453 0.236998 0.255461 0.274821 0.295055 0.316134 0.338028 0.360701 0.384113 0.408222 0.432977 0.458325 0.484207 0.510558 0.537306 0.564375 0.591681 0.619133 0.646634 0.674080 0.701360 0.728355 0.754940 0.780982 0.806341 0.830872 0.854421 0.876830 0.897933 0.917562 0.935540 0.951691 0.965833 0.977783 0.987357 0.994371 0.998643 0.999996 0.998253 0.993249 0.984823 0.972827 0.957124 0.937591 0.914122 0.886632 0.855053 0.819344 0.779488 0.735498 0.687416 0.635317 0.579311 0.519545 0.456202 0.389508 0.319729 0.247170 0.172182 0.095156 0.016526 0.063234 0.143611 0.224054 0.303977 0.382764 0.459772 0.534335 0.605769 0.673381 0.736474 0.794355 0.846339 0.891767 0.930004 0.960458 0.982584 0.995896 0.999978 0.994490 0.979185 0.953911 0.918623 0.873392 0.818409 0.753993 0.680594 0.598797 0.509318 0.413010 0.310854 0.203955 0.093535 0.019082 0.132476 0.245156 0.355570 0.462132 0.563239 0.657302 0.742768 0.818151 0.882057 0.933216 0.970511 0.993006 0.999970 0.990906 0.965571 0.923995 0.866495 0.793689 0.706492 0.606126 0.494103 0.372215 0.242514 0.107282 0.031004 0.169711 0.306099 0.437377 0.560754 0.673506 0.773039 0.856950 0.923097 0.969657 0.995184 0.998667 0.979567 0.937861 0.874061 0.789231 0.684985 0.563471 0.427339 0.279704 0.124074 0.035719 0.195608 0.351394 0.498848 0.633842 0.752454 0.851102 0.926653 0.976542 0.998866 0.992472 0.957026 0.893055 0.801967 0.686048 0.548422 0.392989 0.224327 0.047578 0.131707 0.307730 0.474637 0.626712 0.758581 0.865410 0.943099 0.988460 0.999357 0.974837 0.915201 0.822045 0.698249 0.547922 0.376277 0.189491 0.005518 0.201326 0.390277 0.564792 0.717678 0.842428 0.933522 0.986694 0.999156 0.969769 0.899149 0.789708 0.645605 0.472624 0.277979 0.070023 0.142074 0.348737 0.540407 0.707988 0.843304 0.939507 0.991459 0.996037 0.952356 0.861880 0.728432 0.558076 0.358883 0.140581 0.085899 0.308951 0.516880 0.698533 0.843903 0.944713 0.994919 0.991113 0.932794 0.822486 0.665690 0.470659 0.248012 0.010189 0.229225 0.456253 0.657359 0.820262 0.934715 0.993196 0.991442 0.928812 0.808434 0.637114 0.425019 0.185113 0.067588 0.316935 0.546668 0.741497 0.888121 0.976206 0.999142 0.954607 0.844846 0.676633 0.460944 0.212279 0.052255 0.314084 0.554476 0.755885 0.903260 0.985217 0.994984 0.931022 0.797284 0.603060 0.362411 0.093206 0.184139 0.448212 0.678240 0.855747 0.966095 0.999746 0.953166 0.829264 0.637317 0.392368 0.114118 0.174597 0.449668 0.687704 0.868057 0.974675 0.997587 0.933937 0.788396 0.572944 0.305973 0.010797 0.286332 0.558536 0.780755 0.932096 0.997867 0.971097 0.853368 0.654871 0.393632 0.093981 0.215661 0.505440 0.746936 0.916011 0.995283 0.976013 0.859175 0.655585 0.385019 0.074400 0.244802 0.539745 0.779573 0.938706 0.999661 0.955069 0.808693 0.575268 0.279144 0.048133 0.371140 0.654371 0.866174 0.982356 0.989057 0.884531 0.679604 0.396712 0.067556 0.270337 0.577879 0.818926 0.964615 0.996908 0.910974 0.716038 0.434560 0.099793 0.248041 0.566546 0.816307 0.965848 0.995712 0.901138 0.692964 0.396556 0.048886 0.305992 0.622475 0.859273 0.984905 0.981998 0.849864 0.604917 0.278821 0.085456 0.439207 0.734476 0.930622 0.999997
1.000000 1.000000 1.000000 1.000000 1.000000 1.000000 1.000000 1.000000 1.000000 1.000000 1.000000 1.000000 1.000000 1.000000 1.000000 1.000000 1.000000 1.000000 1.000000 1.000000 1.000000 1.000000 1.000000 1.000000 1.000000 1.000000 1.000000 1.000000 1.000000 1.000000 1.000000 1.000000 1.000000 1.000000 1.000000 1.000000 1.000000 1.000000 1.000000 1.000000 1.000000 1.000000 1.000000 1.000000 1.000000 1.000000 1.000000 1.000000 1.000000 1.000000 1.000000 1.000000 0.915895 0.915895 0.904221 0.904221 0.904221 0.904221 0.904221 0.904221 0.904221 0.904221 0.904221 0.904221 0.904221 0.904221 0.904221 0.904221 0.904221 0.904221 0.904221 0.904221 0.904221 0.904221 0.904221 0.904221 0.904221 0.904221 0.904221 0.904221 0.904221 0.904221 0.904221 0.904221 0.904221 0.904221 0.904221 0.904221 0.904221 0.904221 0.904221 0.904221 0.904221 0.904221 0.904221 0.900214 0.904771 0.906781 0.905019 0.908664 0.908759 0.908031 0.908297 0.907892 0.908161 0.909550 0.920159 0.931314 0.941899 0.943313 0.948386 0.952923 0.955141 0.956148 0.957528 0.966966 0.965795 0.965218 0.965945 0.967598 0.969886 0.968372 0.968277 0.971397 0.972156 0.970308 0.968350 0.967718 0.967079 0.966789 0.966346 0.966498 0.966412 0.966907 0.967138 0.967383 0.967518 0.967538 0.965752 0.965931 0.968191 0.969271 0.969029 0.967663 0.965303 0.969247 0.969798 0.969412 0.969295 0.968772 0.969127 0.955571 0.951176 0.951151 0.946291 0.945426 0.943024 0.940953 0.938185 0.938260 0.937457 0.938543 0.934773 0.923466 0.910108 0.896868 0.918999 0.904308 0.890571 0.870123 0.870582 0.869626 0.870350 0.864940 0.858191 0.853428 0.850400 0.851419 0.849742 0.852208 0.850085 0.838917 0.841527 0.839656 0.811617 0.794439 0.779251 0.777626 0.775571 0.776983 0.776489 0.775838 0.783909 0.773440 0.772333 0.764352 0.745543 0.709346 0.697236 0.707045 0.715350 0.720583 0.717166 0.702185 0.662511 0.673687 0.694331 0.691338 0.693842 0.683462 0.675378 0.676749 0.679137 0.669248 0.660717 0.659218 0.656951 0.665015 0.668565 0.665478 0.655321 0.639754 0.626384 0.614010 0.625497 0.629543 0.594359 0.588712 0.575385 0.566863 0.553325 0.533138 0.530196 0.505249 0.496357 0.498268 0.500886 0.504032 0.511329 0.513492 0.497726 0.517582 0.523078 0.551258 0.531862 0.532256 0.533570 0.536956 0.523865 0.508195 0.505332 0.506296 0.516589 0.540708 0.578307 0.562042 0.547523 0.536888 0.542780 0.502362 0.507875 0.533204 0.509012 0.452586 0.397062 0.395864 0.353968 0.352451 0.328877 0.317717 0.315544 0.310886 0.301703 0.287911 0.275233 0.214283 0.173264 0.157624 0.143545 0.139793 0.161426 0.159449 0.160688 0.178269 0.226164 0.225979 0.215976 0.180231 0.169925 0.139358 0.137627 0.160172 0.116072 0.108490 0.099054 0.073872 0.050441 0.003882 0.030515 -0.059587 -0.080239 -0.086885 -0.064995 -0.054037 -0.051955 -0.052160 -0.087632 -0.080718 -0.040833 -0.036545 -0.044891 -0.104278 -0.084051 -0.073200 -0.072800 -0.087528 -0.098158 -0.089724 -0.103523 -0.103780 -0.097868 -0.051398 0.010394 0.014105 0.007151 0.002108 -0.012178 -0.021927 -0.008916 0.011789 0.017696 -0.004554 -0.003664 -0.005137 -0.044706 -0.044706 -0.046041 -0.046041 -0.046041 -0.046041 -0.046041 -0.046041 -0.046041 -0.046041 -0.046041 -0.048671 -0.048671 -0.048671 -0.048671 -0.048671 -0.048671 -0.048671 -0.048671 -0.048671 -0.048671 -0.048671 -0.048671 -0.048671 -0.048671 -0.048671 -0.048671 -0.048671 -0.048671
0.000000 0.000000 0.000000 0.000000 0.000000 0.000000 0.000000 0.000000 0.000000 0.000000 0.000000 0.000000 0.000000 0.000000 0.000000 0.000000 0.000000 0.000000 0.000000 0.000000 0.000000 0.000000 0.000000 0.000000 0.000000 0.000000 0.000000 0.000000 0.000000 0.000000 0.000000 0.000000 0.000000 0.000000 0.000000 0.000000 0.000000 0.000000 0.000000 0.000000 0.000000 0.000000 0.000000 0.000000 0.000000 0.000000 0.000000 0.000000 0.000000 0.000000 0.000000 0.000000 0.181818 0.181818 0.199007 0.199007 0.199007 0.199007 0.199007 0.199007 0.199007 0.199007 0.199007 0.199007 0.199007 0.199007 0.199007 0.199007 0.199007 0.199007 0.199007 0.199007 0.199007 0.199007 0.199007 0.199007 0.199007 0.199007 0.199007 0.199007 0.199007 0.199007 0.199007 0.199007 0.199007 0.199007 0.199007 0.199007 0.199007 0.199007 0.199007 0.199007 0.199007 0.199007 0.199007 0.230940 0.230940 0.230940 0.230940 0.230940 0.230940 0.230940 0.230940 0.230940 0.230940 0.230940 0.230940 0.230940 0.230940 0.230940 0.230940 0.230940 0.230940 0.230940 0.230940 0.230940 0.230940 0.230940 0.230940 0.230940 0.230940 0.230940 0.230940 0.244339 0.244339 0.244339 0.244339 0.244339 0.244339 0.244339 0.244339 0.244339 0.244339 0.244339 0.244339 0.244339 0.244339 0.244339 0.244339 0.244339 0.244339 0.244339 0.244339 0.244339 0.244339 0.244339 0.251976 0.251976 0.251976 0.251976 0.251976 0.251976 0.251976 0.251976 0.251976 0.251976 0.251976 0.251976 0.251976 0.251976 0.251976 0.251976 0.251976 0.251976 0.251976 0.251976 0.264906 0.264906 0.264906 0.264906 0.264906 0.264906 0.264906 0.264906 0.264906 0.264906 0.264906 0.264906 0.264906 0.264906 0.264906 0.264906 0.264906 0.264906 0.264906 0.264906 0.264906 0.264906 0.264906 0.264906 0.264906 0.264906 0.264906 0.264906 0.264906 0.264906 0.264906 0.264906 0.264906 0.264906 0.264906 0.264906 0.264906 0.264906 0.264906 0.264906 0.264906 0.264906 0.264906 0.264906 0.264906 0.264906 0.264906 0.264906 0.264906 0.264906 0.264906 0.264906 0.264906 0.264906 0.264906 0.264906 0.264906 0.264906 0.264906 0.264906 0.264906 0.264906 0.264906 0.264906 0.264906 0.264906 0.264906 0.264906 0.264906 0.264906 0.264906 0.264906 0.264906 0.264906 0.264906 0.269680 0.269680 0.269680 0.269680 0.269680 0.269680 0.269680 0.269680 0.269680 0.269680 0.269680 0.269680 0.264906 0.264906 0.264906 0.264906 0.264906 0.264906 0.264906 0.264906 0.264906 0.264906 0.264906 0.264906 0.269680 0.269680 0.269680 0.269680 0.269680 0.269680 0.269680 0.269680 0.269680 0.269680 0.269680 0.264906 0.264906 0.264906 0.264906 0.264906 0.264906 0.264906 0.264906 0.264906 0.264906 0.264906 0.256074 0.256074 0.256074 0.256074 0.256074 0.256074 0.256074 0.256074 0.256074 0.256074 0.256074 0.264906 0.264906 0.264906 0.264906 0.264906 0.264906 0.264906 0.264906 0.264906 0.264906 0.260378 0.260378 0.260378 0.260378 0.260378 0.260378 0.260378 0.260378 0.260378 0.260378 0.264906 0.264906 0.264906 0.264906 0.264906 0.264906 0.264906 0.264906 0.264906 0.260378 0.260378 0.260378 0.260378 0.260378 0.260378 0.260378 0.260378 0.260378 0.256074 0.256074 0.256074 0.256074 0.256074 0.256074 0.256074 0.256074 0.256074 0.251976 0.251976 0.251976 0.251976 0.251976 0.251976 0.251976 0.251976 0.251976 0.251976 0.251976 0.251976 0.251976 0.251976 0.251976 0.251976 0.251976 0.251976
