# Output from CTFFind version 4.1.9, run on 2019-11-02 17:58:44
# Input file: stack6_bm3d_averaged_1_1.75_0_3000_half.mrc ; Number of micrographs: 1
# Pixel size: 3.000 Angstroms ; acceleration voltage: 300.0 keV ; spherical aberration: 0.00 mm ; amplitude contrast: 0.07
# Box size: 512 pixels ; min. res.: 30.0 Angstroms ; max. res.: 5.0 Angstroms ; min. def.: 5000.0 um; max. def. 50000.0 um; num. frames averaged: 1
# 6 lines per micrograph: #1 - spatial frequency (1/Angstroms); #2 - 1D rotational average of spectrum (assuming no astigmatism); #3 - 1D rotational average of spectrum; #4 - CTF fit; #5 - cross-correlation between spectrum and CTF fit; #6 - 2sigma of expected cross correlation of noise
0.000000 0.000651 0.001302 0.001953 0.002604 0.003255 0.003906 0.004557 0.005208 0.005859 0.006510 0.007161 0.007812 0.008464 0.009115 0.009766 0.010417 0.011068 0.011719 0.012370 0.013021 0.013672 0.014323 0.014974 0.015625 0.016276 0.016927 0.017578 0.018229 0.018880 0.019531 0.020182 0.020833 0.021484 0.022135 0.022786 0.023438 0.024089 0.024740 0.025391 0.026042 0.026693 0.027344 0.027995 0.028646 0.029297 0.029948 0.030599 0.031250 0.031901 0.032552 0.033203 0.033854 0.034505 0.035156 0.035807 0.036458 0.037109 0.037760 0.038411 0.039062 0.039714 0.040365 0.041016 0.041667 0.042318 0.042969 0.043620 0.044271 0.044922 0.045573 0.046224 0.046875 0.047526 0.048177 0.048828 0.049479 0.050130 0.050781 0.051432 0.052083 0.052734 0.053385 0.054036 0.054688 0.055339 0.055990 0.056641 0.057292 0.057943 0.058594 0.059245 0.059896 0.060547 0.061198 0.061849 0.062500 0.063151 0.063802 0.064453 0.065104 0.065755 0.066406 0.067057 0.067708 0.068359 0.069010 0.069661 0.070312 0.070964 0.071615 0.072266 0.072917 0.073568 0.074219 0.074870 0.075521 0.076172 0.076823 0.077474 0.078125 0.078776 0.079427 0.080078 0.080729 0.081380 0.082031 0.082682 0.083333 0.083984 0.084635 0.085286 0.085938 0.086589 0.087240 0.087891 0.088542 0.089193 0.089844 0.090495 0.091146 0.091797 0.092448 0.093099 0.093750 0.094401 0.095052 0.095703 0.096354 0.097005 0.097656 0.098307 0.098958 0.099609 0.100260 0.100911 0.101562 0.102214 0.102865 0.103516 0.104167 0.104818 0.105469 0.106120 0.106771 0.107422 0.108073 0.108724 0.109375 0.110026 0.110677 0.111328 0.111979 0.112630 0.113281 0.113932 0.114583 0.115234 0.115885 0.116536 0.117188 0.117839 0.118490 0.119141 0.119792 0.120443 0.121094 0.121745 0.122396 0.123047 0.123698 0.124349 0.125000 0.125651 0.126302 0.126953 0.127604 0.128255 0.128906 0.129557 0.130208 0.130859 0.131510 0.132161 0.132812 0.133464 0.134115 0.134766 0.135417 0.136068 0.136719 0.137370 0.138021 0.138672 0.139323 0.139974 0.140625 0.141276 0.141927 0.142578 0.143229 0.143880 0.144531 0.145182 0.145833 0.146484 0.147135 0.147786 0.148438 0.149089 0.149740 0.150391 0.151042 0.151693 0.152344 0.152995 0.153646 0.154297 0.154948 0.155599 0.156250 0.156901 0.157552 0.158203 0.158854 0.159505 0.160156 0.160807 0.161458 0.162109 0.162760 0.163411 0.164062 0.164714 0.165365 0.166016 0.166667 0.167318 0.167969 0.168620 0.169271 0.169922 0.170573 0.171224 0.171875 0.172526 0.173177 0.173828 0.174479 0.175130 0.175781 0.176432 0.177083 0.177734 0.178385 0.179036 0.179688 0.180339 0.180990 0.181641 0.182292 0.182943 0.183594 0.184245 0.184896 0.185547 0.186198 0.186849 0.187500 0.188151 0.188802 0.189453 0.190104 0.190755 0.191406 0.192057 0.192708 0.193359 0.194010 0.194661 0.195312 0.195964 0.196615 0.197266 0.197917 0.198568 0.199219 0.199870 0.200521 0.201172 0.201823 0.202474 0.203125 0.203776 0.204427 0.205078 0.205729 0.206380 0.207031 0.207682 0.208333 0.208984 0.209635 0.210286 0.210938 0.211589 0.212240 0.212891 0.213542 0.214193 0.214844 0.215495 0.216146 0.216797 0.217448 0.218099 0.218750 0.219401 0.220052 0.220703 0.221354 0.222005 0.222656 0.223307 0.223958 0.224609 0.225260 0.225911 0.226562 0.227214 0.227865 0.228516 0.229167 0.229818 0.230469 0.231120 0.231771 0.232422 0.233073 0.233724 0.234375 0.235026 0.235677
       0.30744        0.30744        0.30744        0.30744        0.30744        0.30744        0.30744        0.30744        0.30744        0.30744        0.30744        0.30744        0.30744        0.30744        0.30744        0.30744        0.30744        0.30744        0.30744        0.30744        0.30744        0.30744        0.30744        0.30744        0.30744        0.30744        0.30744        0.30744        0.30744        0.30744        0.30744        0.30744        0.30744        0.30744        0.30744        0.30744        0.30744        0.30744        0.30744        0.30744        0.30744        0.30744        0.30744        0.30744        0.30744        0.30744        0.30744        0.30744        0.30744        0.30744        0.30744        0.63182        0.80569        0.40635        0.30221        0.18298       -0.10825        0.11238        0.00012        0.03121        0.11304        0.33894        0.42204        0.39839        0.22028       -0.01453        0.04315        0.07235       -0.17203       -0.17918       -0.09136       -0.11251       -0.30038       -0.19113       -0.30983       -0.26380       -0.28559       -0.41029       -0.47663       -0.47239       -0.42029       -0.34750       -0.43377       -0.36357       -0.41544       -0.35598       -0.27630       -0.20429       -0.19800       -0.13151       -0.08444        0.03814        0.07896        0.25008        0.29073        0.37512        0.40025        0.51154        0.58245        0.60665        0.73431        0.69087        0.73633        0.64699        0.65939        0.69138        0.63105        0.61682        0.60707        0.42974        0.38843        0.35174        0.32844        0.22481        0.13527        0.06230        0.05058       -0.00272       -0.08022       -0.03008       -0.03511       -0.07329        0.06663        0.16420        0.25532        0.31070        0.33156        0.42133        0.53064        0.57547        0.52755        0.66700        0.55705        0.52870        0.60086        0.62310        0.52556        0.46327        0.40003        0.37830        0.24600        0.20261        0.12765        0.11583        0.05904        0.05859        0.09790        0.14762        0.14936        0.17236        0.22142        0.23895        0.32765        0.44296        0.48429        0.49049        0.51974        0.57547        0.57139        0.52500        0.41163        0.38508        0.36068        0.26458        0.24112        0.21576        0.20142        0.19421        0.17391        0.15906        0.12450        0.18324        0.23653        0.33787        0.37626        0.40359        0.45831        0.53333        0.46669        0.48317        0.42645        0.40639        0.38180        0.36461        0.28388        0.25046        0.20191        0.23618        0.21919        0.19680        0.21031        0.21139        0.24239        0.30945        0.39555        0.38483        0.37521        0.39393        0.44975        0.46862        0.43514        0.35753        0.31720        0.28257        0.26737        0.25018        0.21356        0.27926        0.29621        0.29591        0.31041        0.29891        0.32558        0.37274        0.36524        0.36646        0.34914        0.31437        0.33004        0.32080        0.29565        0.28589        0.26555        0.21715        0.26525        0.27165        0.29718        0.31197        0.33480        0.36374        0.32155        0.30310        0.35052        0.35987        0.25940        0.28993        0.30146        0.23601        0.21397        0.26712        0.26511        0.27276        0.29820        0.29855        0.32889        0.33253        0.35137        0.32037        0.32383        0.30577        0.29013        0.26159        0.23501        0.24965        0.25622        0.27419        0.29817        0.28896        0.28109        0.31748        0.33921        0.27149        0.30511        0.26912        0.25591        0.25318        0.24548        0.24737        0.26302        0.31222        0.27789        0.31330        0.29297        0.27248        0.30357        0.28950        0.32614        0.31456        0.30046        0.25079        0.24973        0.26343        0.26372        0.31431        0.30763        0.32963        0.32356        0.30579        0.26893        0.30160        0.22649        0.18547        0.26105        0.28307        0.26150        0.27697        0.30558        0.28891        0.35433        0.29458        0.24505        0.20665        0.23361        0.28555        0.28885        0.29770        0.26914        0.27433        0.25648        0.30559        0.27181        0.24623        0.27068        0.24507        0.29247        0.25172        0.27670        0.31855        0.28583        0.20636        0.24336        0.28696        0.31099        0.24388        0.26088        0.24815        0.28934        0.28541        0.37064        0.29269        0.26687        0.27785        0.24978        0.21128        0.18622        0.23817        0.21073        0.19270        0.17078        0.20814        0.25416        0.21668        0.24514        0.19096        0.22295        0.20029        0.21005        0.18540        0.17640        0.20180        0.22817        0.15780        0.07649        0.20166        0.17497        0.12127        0.22632        0.12937        0.19366        0.18338       -0.13524       -0.50064       -0.80792
2.884726 2.856223 2.827867 2.799658 2.771596 2.743681 2.715913 2.688292 2.660818 2.633491 2.606311 2.579278 2.552391 2.525652 2.499060 2.472615 2.446316 2.420165 2.394160 2.368303 2.342592 2.317029 2.291612 2.266343 2.241220 2.216244 2.191416 2.166734 2.142199 2.117811 2.093571 2.069477 2.045530 2.021730 1.998077 1.974571 1.951212 1.927999 1.904934 1.882016 1.859245 1.836621 1.814143 1.791813 1.769630 1.747593 1.725704 1.703961 1.682366 1.660917 1.639616 1.941763 2.281203 1.702618 1.747059 1.392336 0.949055 1.216032 1.043880 1.090581 1.036475 1.516658 1.528508 1.557409 1.284116 0.957080 0.829855 1.027451 0.727566 0.497797 0.596102 0.686690 0.421347 0.494300 0.328852 0.361831 0.258718 0.165902 -0.038963 0.014087 0.040292 0.073036 0.051228 0.096971 -0.043656 0.027033 0.109910 0.229556 0.283020 0.222969 0.340468 0.566529 0.443331 0.733722 0.823141 0.894444 0.910168 1.126322 1.138438 1.183413 1.334983 1.226428 1.380444 1.195608 1.113533 1.318530 1.131631 1.065417 1.136457 0.890050 0.731844 0.676125 0.670874 0.479875 0.400331 0.278008 0.213225 0.098236 -0.013981 0.096446 0.019114 -0.066659 0.115565 0.262734 0.312236 0.461411 0.476284 0.552797 0.706485 0.800023 0.644971 0.950479 0.798667 0.647067 0.771542 0.778194 0.704723 0.643823 0.443806 0.504973 0.285436 0.180097 0.131140 0.000436 -0.013032 -0.103023 -0.017356 -0.008224 0.086865 -0.055749 0.246960 0.110427 0.197968 0.370285 0.417671 0.524827 0.424181 0.559495 0.671146 0.505444 0.386465 0.325215 0.317675 0.141376 0.120798 0.022514 0.089449 0.010570 -0.002967 -0.037061 -0.114823 -0.024729 0.006237 0.095488 0.282186 0.209494 0.340990 0.370888 0.446593 0.382249 0.416706 0.343010 0.224049 0.317451 0.166255 0.159068 0.004762 0.062170 0.071696 -0.013621 0.002854 -0.000414 0.057331 0.085336 0.234396 0.291458 0.233571 0.230334 0.363614 0.366975 0.360916 0.255858 0.169131 0.153541 0.088858 0.083210 0.027037 0.021032 0.138161 0.054418 0.189348 0.084618 0.121659 0.212367 0.216475 0.219082 0.191935 0.190349 0.113149 0.170389 0.120693 0.098336 0.117744 -0.016099 0.028871 0.080737 0.049964 0.144824 0.103296 0.207182 0.187384 0.124968 0.118605 0.209210 0.126527 0.063542 0.096438 0.056409 -0.000035 -0.006134 0.063329 0.064984 0.040603 0.116011 0.103849 0.127448 0.149538 0.165480 0.142008 0.098304 0.106425 0.092398 0.010124 0.009002 0.039065 0.011548 0.071900 0.113345 0.078144 0.038060 0.124344 0.125770 0.016853 0.119110 0.024133 0.016416 0.012764 -0.002089 -0.010174 0.074983 0.082915 0.017853 0.107948 0.066462 0.019117 0.107061 0.050186 0.087811 0.104743 0.029931 -0.002903 -0.019194 0.039592 0.010489 0.073324 0.082172 0.097155 0.077294 0.121662 0.003221 0.085225 -0.094632 -0.049890 0.002117 0.041603 0.017043 0.010770 0.089621 0.052275 0.108860 -0.036878 -0.040851 -0.112505 -0.087511 0.074369 -0.001370 0.038210 -0.022989 -0.023752 -0.032271 0.068092 -0.036678 -0.036268 -0.010449 -0.089007 0.037837 -0.038303 0.011726 0.054175 -0.007635 -0.097833 -0.002783 0.044428 0.023640 -0.042532 -0.000605 -0.051692 0.100300 0.066238 0.166706 0.045863 0.004540 0.050559 0.058005 -0.062322 -0.017010 0.049216 -0.000938 -0.043784 -0.046400 0.000338 0.123688 -0.034568 0.136144 0.008232 0.097395 -0.027849 0.112281 -0.028594 0.029189 0.002799 0.124975 0.041657 0.039486 0.284655 0.241415 0.174789 0.372411 0.200883 0.236318 0.297847 -0.186782 -1.134742
0.072396 0.072835 0.074150 0.076342 0.079410 0.083353 0.088171 0.093862 0.100425 0.107857 0.116157 0.125321 0.135346 0.146227 0.157958 0.170533 0.183945 0.198185 0.213241 0.229104 0.245758 0.263188 0.281377 0.300303 0.319946 0.340278 0.361273 0.382898 0.405120 0.427899 0.451195 0.474961 0.499148 0.523701 0.548562 0.573667 0.598949 0.624334 0.649745 0.675099 0.700307 0.725276 0.749908 0.774098 0.797738 0.820714 0.842907 0.864194 0.884448 0.903536 0.921324 0.937673 0.952442 0.965488 0.976666 0.985832 0.992840 0.997547 0.999810 0.999490 0.996454 0.990571 0.981719 0.969783 0.954659 0.936251 0.914477 0.889270 0.860576 0.828360 0.792605 0.753313 0.710509 0.664242 0.614583 0.561631 0.505512 0.446380 0.384418 0.319839 0.252886 0.183834 0.112988 0.040684 0.032713 0.106808 0.181178 0.255376 0.328927 0.401338 0.472096 0.540671 0.606525 0.669109 0.727874 0.782270 0.831757 0.875809 0.913917 0.945600 0.970408 0.987931 0.997804 0.999716 0.993413 0.978710 0.955493 0.923723 0.883450 0.834806 0.778019 0.713411 0.641400 0.562504 0.477336 0.386608 0.291125 0.191779 0.089547 0.014518 0.119300 0.223622 0.326268 0.425991 0.521526 0.611615 0.695015 0.770523 0.836991 0.893347 0.938616 0.971938 0.992586 0.999986 0.993732 0.973603 0.939575 0.891830 0.830766 0.757002 0.671375 0.574942 0.468971 0.354929 0.234468 0.109406 0.018298 0.146573 0.273266 0.396177 0.513099 0.621858 0.720354 0.806609 0.878804 0.935330 0.974819 0.996192 0.998690 0.981903 0.945792 0.890714 0.817421 0.727073 0.621220 0.501791 0.371068 0.231647 0.086395 0.061605 0.209115 0.352812 0.489363 0.615502 0.728114 0.824314 0.901529 0.957576 0.990730 0.999786 0.984113 0.943688 0.879129 0.791693 0.683276 0.556383 0.414081 0.259941 0.097951 0.067571 0.232097 0.391004 0.539709 0.673799 0.789176 0.882180 0.949726 0.989408 0.999609 0.979568 0.929443 0.850334 0.744282 0.614237 0.463995 0.298099 0.121720 0.059499 0.239616 0.412581 0.572441 0.713551 0.830779 0.919709 0.976817 0.999631 0.986856 0.938457 0.855702 0.741162 0.598648 0.433116 0.250504 0.057546 0.138480 0.330005 0.509471 0.669630 0.803846 0.906379 0.972657 0.999497 0.985277 0.930058 0.835629 0.705481 0.544713 0.359856 0.158630 0.050368 0.258008 0.455034 0.632471 0.782050 0.896601 0.970429 0.999609 0.982234 0.918557 0.811043 0.664308 0.484968 0.281355 0.063164 0.158998 0.374108 0.571286 0.740349 0.872349 0.960073 0.998467 0.984960 0.919666 0.805451 0.647854 0.454859 0.236521 0.004473 0.228673 0.450016 0.647065 0.808475 0.924705 0.988629 0.995996 0.945764 0.840235 0.685010 0.488733 0.262657 0.020035 0.224647 0.456518 0.661230 0.825853 0.939732 0.995208 0.988171 0.918418 0.789756 0.609857 0.389852 0.143681 0.112747 0.362582 0.589115 0.776927 0.912950 0.987422 0.994631 0.933412 0.807322 0.624523 0.397289 0.141245 0.125668 0.384437 0.616331 0.804263 0.934079 0.995678 0.983847 0.898763 0.746101 0.536726 0.285994 0.012650 0.262508 0.518220 0.734410 0.893780 0.983246 0.995068 0.927584 0.785479 0.579540 0.325917 0.044903 0.240638 0.507121 0.732196 0.896640 0.986052 0.992183 0.913766 0.756773 0.534053 0.264355 0.029195 0.321024 0.585343 0.798424 0.940780 0.998999 0.967089 0.847174 0.649461 0.391472 0.096553 0.208167 0.494259 0.734648 0.906191 0.991986 0.983099 0.879590 0.690690 0.434069 0.134279 0.179533 0.476427 0.726725 0.904998
1.000000 1.000000 1.000000 1.000000 1.000000 1.000000 1.000000 1.000000 1.000000 1.000000 1.000000 1.000000 1.000000 1.000000 1.000000 1.000000 1.000000 1.000000 1.000000 1.000000 1.000000 1.000000 1.000000 1.000000 1.000000 1.000000 1.000000 1.000000 1.000000 1.000000 1.000000 1.000000 1.000000 1.000000 1.000000 1.000000 1.000000 1.000000 1.000000 1.000000 1.000000 1.000000 1.000000 1.000000 1.000000 1.000000 1.000000 1.000000 1.000000 1.000000 1.000000 1.000000 0.837252 0.837252 0.837252 0.837252 0.837252 0.837252 0.837252 0.812104 0.812104 0.812104 0.812104 0.812104 0.812104 0.812104 0.812104 0.812104 0.812104 0.812104 0.812104 0.812104 0.812104 0.812104 0.812104 0.812104 0.812104 0.812104 0.812104 0.812104 0.812104 0.812104 0.812104 0.812104 0.812104 0.812104 0.812104 0.812104 0.812104 0.812104 0.812104 0.812104 0.812104 0.812104 0.812104 0.812104 0.812104 0.812104 0.812104 0.812104 0.812104 0.812104 0.812104 0.954953 0.955664 0.948359 0.947364 0.945762 0.942274 0.938098 0.937587 0.938888 0.939121 0.939785 0.941192 0.942236 0.943892 0.944949 0.945798 0.946607 0.954579 0.958153 0.957783 0.957445 0.956152 0.962849 0.962477 0.962321 0.962864 0.963057 0.963711 0.963664 0.963545 0.963109 0.962201 0.962747 0.962599 0.961984 0.961122 0.959221 0.959235 0.958876 0.959006 0.959888 0.960583 0.961252 0.961692 0.961665 0.961773 0.961778 0.961712 0.957115 0.957103 0.950015 0.950371 0.949467 0.946755 0.945866 0.944476 0.944546 0.944467 0.944439 0.944314 0.944501 0.932990 0.933095 0.933110 0.933936 0.930541 0.921547 0.916719 0.912032 0.913342 0.916872 0.920720 0.920261 0.916325 0.915716 0.898411 0.902325 0.886195 0.882297 0.874816 0.884043 0.885228 0.886419 0.881495 0.880164 0.878753 0.875921 0.862072 0.866339 0.866106 0.862599 0.859583 0.857917 0.854614 0.856395 0.859200 0.853456 0.843059 0.839752 0.828994 0.816372 0.814731 0.817792 0.827066 0.838775 0.838243 0.837548 0.828437 0.824138 0.815364 0.809711 0.810671 0.812945 0.809698 0.813470 0.814351 0.824306 0.813681 0.814642 0.817136 0.828492 0.832771 0.833738 0.834323 0.831265 0.830045 0.796143 0.797084 0.799398 0.768476 0.767467 0.763095 0.763281 0.763974 0.762770 0.759453 0.751544 0.745741 0.733018 0.746084 0.754668 0.730825 0.736685 0.728663 0.717443 0.683362 0.683270 0.691449 0.700963 0.701534 0.710656 0.700515 0.701394 0.711269 0.713926 0.719252 0.717263 0.705878 0.703163 0.710937 0.708396 0.693363 0.686032 0.685731 0.682549 0.676625 0.658216 0.665521 0.647925 0.642386 0.631504 0.591178 0.581945 0.570842 0.560690 0.542315 0.520578 0.534413 0.526360 0.523386 0.510928 0.487114 0.442674 0.427598 0.425483 0.413297 0.425362 0.408488 0.353583 0.360550 0.349178 0.343690 0.319070 0.302558 0.285759 0.225289 0.231912 0.184273 0.209431 0.223916 0.208116 0.188663 0.180432 0.206045 0.221111 0.238094 0.236420 0.262106 0.231947 0.171207 0.195779 0.184578 0.184667 0.168455 0.132952 0.155311 0.145138 0.151488 0.157481 0.115516 0.084382 0.055279 0.055919 0.073678 0.097691 0.112955 0.098371 0.076559 -0.013334 0.020920 0.051659 0.051659 0.051659 0.051659 0.051659 0.051659 0.051659 0.051659 0.051659 0.051659 0.051659 -0.011340 -0.011340 -0.011340 -0.011340 -0.011340 -0.011340 -0.011340 -0.011340 -0.011340 -0.011340 -0.011340 -0.011340 -0.011340 -0.011340 -0.011340 -0.011340 -0.011340 -0.011340 -0.011340
0.000000 0.000000 0.000000 0.000000 0.000000 0.000000 0.000000 0.000000 0.000000 0.000000 0.000000 0.000000 0.000000 0.000000 0.000000 0.000000 0.000000 0.000000 0.000000 0.000000 0.000000 0.000000 0.000000 0.000000 0.000000 0.000000 0.000000 0.000000 0.000000 0.000000 0.000000 0.000000 0.000000 0.000000 0.000000 0.000000 0.000000 0.000000 0.000000 0.000000 0.000000 0.000000 0.000000 0.000000 0.000000 0.000000 0.000000 0.000000 0.000000 0.000000 0.000000 0.000000 0.173422 0.173422 0.173422 0.173422 0.173422 0.173422 0.173422 0.191565 0.191565 0.191565 0.191565 0.191565 0.191565 0.191565 0.191565 0.191565 0.191565 0.191565 0.191565 0.191565 0.191565 0.191565 0.191565 0.191565 0.191565 0.191565 0.191565 0.191565 0.191565 0.191565 0.191565 0.191565 0.191565 0.191565 0.191565 0.191565 0.191565 0.191565 0.191565 0.191565 0.191565 0.191565 0.191565 0.191565 0.191565 0.191565 0.191565 0.191565 0.191565 0.191565 0.191565 0.219529 0.219529 0.219529 0.219529 0.219529 0.219529 0.219529 0.219529 0.219529 0.219529 0.219529 0.219529 0.219529 0.219529 0.219529 0.219529 0.219529 0.219529 0.219529 0.219529 0.219529 0.219529 0.219529 0.219529 0.219529 0.219529 0.219529 0.219529 0.219529 0.219529 0.219529 0.237356 0.237356 0.237356 0.237356 0.237356 0.237356 0.237356 0.237356 0.237356 0.237356 0.237356 0.237356 0.237356 0.237356 0.237356 0.237356 0.237356 0.237356 0.237356 0.237356 0.237356 0.237356 0.237356 0.237356 0.244339 0.244339 0.244339 0.244339 0.244339 0.244339 0.244339 0.244339 0.244339 0.244339 0.244339 0.244339 0.244339 0.244339 0.244339 0.244339 0.244339 0.244339 0.244339 0.244339 0.244339 0.248069 0.248069 0.248069 0.248069 0.248069 0.248069 0.248069 0.248069 0.248069 0.248069 0.248069 0.248069 0.248069 0.248069 0.248069 0.248069 0.248069 0.248069 0.248069 0.248069 0.248069 0.248069 0.248069 0.248069 0.248069 0.248069 0.248069 0.248069 0.248069 0.248069 0.248069 0.248069 0.248069 0.248069 0.248069 0.248069 0.248069 0.256074 0.256074 0.256074 0.256074 0.256074 0.256074 0.256074 0.256074 0.256074 0.256074 0.256074 0.256074 0.256074 0.256074 0.256074 0.256074 0.256074 0.256074 0.256074 0.256074 0.256074 0.256074 0.256074 0.256074 0.256074 0.256074 0.256074 0.256074 0.256074 0.256074 0.256074 0.256074 0.256074 0.256074 0.256074 0.256074 0.256074 0.256074 0.256074 0.256074 0.256074 0.256074 0.256074 0.256074 0.256074 0.260378 0.260378 0.260378 0.260378 0.260378 0.260378 0.260378 0.260378 0.260378 0.260378 0.260378 0.260378 0.260378 0.256074 0.256074 0.256074 0.256074 0.256074 0.256074 0.256074 0.256074 0.256074 0.256074 0.256074 0.256074 0.256074 0.260378 0.260378 0.260378 0.260378 0.260378 0.260378 0.260378 0.260378 0.260378 0.260378 0.260378 0.260378 0.251976 0.251976 0.251976 0.251976 0.251976 0.251976 0.251976 0.251976 0.251976 0.251976 0.251976 0.251976 0.256074 0.256074 0.256074 0.256074 0.256074 0.256074 0.256074 0.256074 0.256074 0.256074 0.256074 0.251976 0.251976 0.251976 0.251976 0.251976 0.251976 0.251976 0.251976 0.251976 0.251976 0.251976 0.248069 0.248069 0.248069 0.248069 0.248069 0.248069 0.248069 0.248069 0.248069 0.248069 0.248069 0.256074 0.256074 0.256074 0.256074 0.256074 0.256074 0.256074 0.256074 0.256074 0.256074 0.256074 0.256074 0.256074 0.256074 0.256074 0.256074 0.256074 0.256074 0.256074
