# Output from CTFFind version 4.1.9, run on 2019-11-03 20:08:04
# Input file: stack11_bm3d_averaged_1_7.0_0_1500_half.mrc ; Number of micrographs: 1
# Pixel size: 3.000 Angstroms ; acceleration voltage: 300.0 keV ; spherical aberration: 0.00 mm ; amplitude contrast: 0.07
# Box size: 512 pixels ; min. res.: 30.0 Angstroms ; max. res.: 5.0 Angstroms ; min. def.: 5000.0 um; max. def. 50000.0 um; num. frames averaged: 1
# 6 lines per micrograph: #1 - spatial frequency (1/Angstroms); #2 - 1D rotational average of spectrum (assuming no astigmatism); #3 - 1D rotational average of spectrum; #4 - CTF fit; #5 - cross-correlation between spectrum and CTF fit; #6 - 2sigma of expected cross correlation of noise
0.000000 0.000651 0.001302 0.001953 0.002604 0.003255 0.003906 0.004557 0.005208 0.005859 0.006510 0.007161 0.007812 0.008464 0.009115 0.009766 0.010417 0.011068 0.011719 0.012370 0.013021 0.013672 0.014323 0.014974 0.015625 0.016276 0.016927 0.017578 0.018229 0.018880 0.019531 0.020182 0.020833 0.021484 0.022135 0.022786 0.023438 0.024089 0.024740 0.025391 0.026042 0.026693 0.027344 0.027995 0.028646 0.029297 0.029948 0.030599 0.031250 0.031901 0.032552 0.033203 0.033854 0.034505 0.035156 0.035807 0.036458 0.037109 0.037760 0.038411 0.039062 0.039714 0.040365 0.041016 0.041667 0.042318 0.042969 0.043620 0.044271 0.044922 0.045573 0.046224 0.046875 0.047526 0.048177 0.048828 0.049479 0.050130 0.050781 0.051432 0.052083 0.052734 0.053385 0.054036 0.054688 0.055339 0.055990 0.056641 0.057292 0.057943 0.058594 0.059245 0.059896 0.060547 0.061198 0.061849 0.062500 0.063151 0.063802 0.064453 0.065104 0.065755 0.066406 0.067057 0.067708 0.068359 0.069010 0.069661 0.070312 0.070964 0.071615 0.072266 0.072917 0.073568 0.074219 0.074870 0.075521 0.076172 0.076823 0.077474 0.078125 0.078776 0.079427 0.080078 0.080729 0.081380 0.082031 0.082682 0.083333 0.083984 0.084635 0.085286 0.085938 0.086589 0.087240 0.087891 0.088542 0.089193 0.089844 0.090495 0.091146 0.091797 0.092448 0.093099 0.093750 0.094401 0.095052 0.095703 0.096354 0.097005 0.097656 0.098307 0.098958 0.099609 0.100260 0.100911 0.101562 0.102214 0.102865 0.103516 0.104167 0.104818 0.105469 0.106120 0.106771 0.107422 0.108073 0.108724 0.109375 0.110026 0.110677 0.111328 0.111979 0.112630 0.113281 0.113932 0.114583 0.115234 0.115885 0.116536 0.117188 0.117839 0.118490 0.119141 0.119792 0.120443 0.121094 0.121745 0.122396 0.123047 0.123698 0.124349 0.125000 0.125651 0.126302 0.126953 0.127604 0.128255 0.128906 0.129557 0.130208 0.130859 0.131510 0.132161 0.132812 0.133464 0.134115 0.134766 0.135417 0.136068 0.136719 0.137370 0.138021 0.138672 0.139323 0.139974 0.140625 0.141276 0.141927 0.142578 0.143229 0.143880 0.144531 0.145182 0.145833 0.146484 0.147135 0.147786 0.148438 0.149089 0.149740 0.150391 0.151042 0.151693 0.152344 0.152995 0.153646 0.154297 0.154948 0.155599 0.156250 0.156901 0.157552 0.158203 0.158854 0.159505 0.160156 0.160807 0.161458 0.162109 0.162760 0.163411 0.164062 0.164714 0.165365 0.166016 0.166667 0.167318 0.167969 0.168620 0.169271 0.169922 0.170573 0.171224 0.171875 0.172526 0.173177 0.173828 0.174479 0.175130 0.175781 0.176432 0.177083 0.177734 0.178385 0.179036 0.179688 0.180339 0.180990 0.181641 0.182292 0.182943 0.183594 0.184245 0.184896 0.185547 0.186198 0.186849 0.187500 0.188151 0.188802 0.189453 0.190104 0.190755 0.191406 0.192057 0.192708 0.193359 0.194010 0.194661 0.195312 0.195964 0.196615 0.197266 0.197917 0.198568 0.199219 0.199870 0.200521 0.201172 0.201823 0.202474 0.203125 0.203776 0.204427 0.205078 0.205729 0.206380 0.207031 0.207682 0.208333 0.208984 0.209635 0.210286 0.210938 0.211589 0.212240 0.212891 0.213542 0.214193 0.214844 0.215495 0.216146 0.216797 0.217448 0.218099 0.218750 0.219401 0.220052 0.220703 0.221354 0.222005 0.222656 0.223307 0.223958 0.224609 0.225260 0.225911 0.226562 0.227214 0.227865 0.228516 0.229167 0.229818 0.230469 0.231120 0.231771 0.232422 0.233073 0.233724 0.234375 0.235026 0.235677
       0.34510        0.34510        0.34510        0.34510        0.34510        0.34510        0.34510        0.34510        0.34510        0.34510        0.34510        0.34510        0.34510        0.34510        0.34510        0.34510        0.34510        0.34510        0.34510        0.34510        0.34510        0.34510        0.34510        0.34510        0.34510        0.34510        0.34510        0.34510        0.34510        0.34510        0.34510        0.34510        0.34510        0.34510        0.34510        0.34510        0.34510        0.34510        0.34510        0.34510        0.34510        0.34510        0.34510        0.34510        0.34510        0.34510        0.34510        0.34510        0.34510        0.34510        0.34510        0.69906        0.85734        0.53801        0.10525       -0.02910       -0.38536       -0.17993       -0.28836       -0.11625       -0.05520       -0.11295       -0.05343       -0.16616       -0.20551       -0.21350       -0.30684       -0.31827       -0.44352       -0.36189       -0.42564       -0.42067       -0.39331       -0.40605       -0.44594       -0.50684       -0.55831       -0.54901       -0.52309       -0.35600       -0.32526       -0.29050       -0.27050       -0.18575       -0.16953        0.06180        0.14265        0.17613        0.26675        0.38147        0.45778        0.52314        0.60135        0.59840        0.58465        0.70040        0.80322        0.70260        0.74416        0.61907        0.56843        0.48352        0.43294        0.51238        0.39803        0.27237        0.11724        0.11411        0.09459       -0.01269        0.04587        0.05341        0.01265        0.02812        0.03175        0.23690        0.27161        0.29647        0.43561        0.45382        0.41492        0.60058        0.61821        0.63468        0.72363        0.67571        0.64725        0.65599        0.56008        0.46032        0.41897        0.30405        0.27096        0.18534        0.13689        0.05258        0.06688        0.07680        0.10037        0.16082        0.24614        0.29903        0.42320        0.46572        0.48152        0.56397        0.60178        0.63650        0.61501        0.55818        0.46245        0.47345        0.37885        0.27825        0.21269        0.15655        0.17350        0.15401        0.16208        0.19170        0.32411        0.33883        0.40850        0.44736        0.42566        0.47993        0.56337        0.55549        0.50345        0.45750        0.41422        0.37380        0.34280        0.31026        0.26564        0.24736        0.25591        0.25728        0.22682        0.31080        0.36520        0.38485        0.43918        0.45613        0.46760        0.42803        0.41305        0.40219        0.36358        0.33863        0.27512        0.28229        0.26947        0.24789        0.29667        0.29418        0.35284        0.38345        0.43584        0.47679        0.40696        0.42254        0.43277        0.41220        0.35089        0.32960        0.29317        0.32735        0.27658        0.32446        0.31645        0.33405        0.34225        0.36543        0.31380        0.38825        0.41205        0.38125        0.35254        0.36963        0.31954        0.29600        0.30881        0.32025        0.30859        0.32088        0.34581        0.35825        0.34122        0.36443        0.36291        0.42412        0.39097        0.34055        0.34975        0.30041        0.29506        0.32714        0.32056        0.33119        0.34397        0.34398        0.38833        0.33131        0.33032        0.33921        0.34984        0.30522        0.31340        0.28300        0.30354        0.33207        0.30468        0.33258        0.35939        0.37149        0.29988        0.34411        0.30030        0.29318        0.27971        0.24754        0.30837        0.30802        0.34339        0.34035        0.34548        0.32834        0.34999        0.31560        0.34646        0.30635        0.32644        0.29325        0.33759        0.33162        0.37353        0.33204        0.33721        0.33758        0.29362        0.27658        0.31322        0.25093        0.22994        0.34146        0.32401        0.36824        0.34798        0.36396        0.33640        0.33434        0.35218        0.26672        0.27005        0.31985        0.30195        0.31145        0.31474        0.33956        0.32944        0.28896        0.29139        0.34618        0.32253        0.32291        0.29955        0.32210        0.33818        0.39322        0.36387        0.32059        0.28332        0.30362        0.29016        0.30818        0.27923        0.27219        0.31326        0.32989        0.34588        0.35665        0.33245        0.29606        0.30177        0.27179        0.27883        0.25710        0.30661        0.26082        0.24933        0.28941        0.28465        0.26311        0.29418        0.22023        0.21646        0.23877        0.19438        0.27428        0.34941        0.25401        0.24491        0.31903        0.30176        0.30937        0.31435        0.27422        0.25194        0.19478        0.21154        0.20840        0.28332        0.23716        0.28447        0.36454        0.37142        0.25559        0.17918        0.12686       -0.01564       -0.13179       -0.62597
2.809072 2.779257 2.749605 2.720115 2.690787 2.661622 2.632619 2.603779 2.575101 2.546585 2.518232 2.490041 2.462013 2.434147 2.406443 2.378901 2.351522 2.324306 2.297252 2.270360 2.243631 2.217064 2.190659 2.164417 2.138337 2.112419 2.086664 2.061072 2.035641 2.010373 1.985268 1.960325 1.935544 1.910926 1.886470 1.862176 1.838045 1.814076 1.790269 1.766625 1.743144 1.719824 1.696667 1.673673 1.650841 1.628171 1.605664 1.583319 1.561136 1.539116 1.517258 1.735752 2.162557 1.717093 1.194648 1.057386 0.455974 0.853189 0.562980 0.848320 0.818345 0.821423 0.760149 0.758736 0.599166 0.563154 0.503315 0.428634 0.250268 0.365549 0.199432 0.331302 0.219228 0.211487 0.186017 0.041763 0.001563 0.018883 -0.070248 0.133679 0.234077 0.189269 0.180245 0.325078 0.184382 0.524148 0.627947 0.637847 0.654899 0.881222 0.839668 0.948333 0.945115 1.041786 1.011767 1.094284 1.177414 1.049498 1.172572 0.914377 0.934273 0.800355 0.657262 0.813192 0.698559 0.499677 0.335032 0.252675 0.271324 0.149825 0.138511 0.167095 0.109870 0.119580 0.083311 0.249379 0.351880 0.342751 0.479157 0.547350 0.418630 0.597442 0.735136 0.648199 0.722833 0.713107 0.722178 0.648667 0.598507 0.492067 0.368671 0.277843 0.220669 0.092376 0.116755 -0.117313 -0.049386 -0.063538 -0.084835 -0.017957 0.128889 0.071705 0.243276 0.308658 0.337620 0.374275 0.497586 0.466924 0.480652 0.491973 0.306202 0.294421 0.287738 0.086707 0.046065 -0.082434 -0.015741 -0.063045 -0.097282 -0.070756 0.040504 0.095476 0.127049 0.226546 0.223752 0.220913 0.316241 0.342639 0.447105 0.257021 0.232902 0.227717 0.144053 0.145774 0.119850 -0.004577 0.014958 0.077231 -0.010531 0.045168 0.134197 0.135797 0.213975 0.233901 0.258879 0.161649 0.212075 0.128881 0.127088 0.114827 0.027357 -0.026391 -0.001214 -0.020463 -0.052156 0.055722 0.004393 0.106770 0.138606 0.194417 0.164467 0.118213 0.140738 0.160009 0.110317 0.035970 -0.025774 0.028639 0.028933 -0.044014 0.038161 0.020318 0.048148 0.039591 0.055611 0.020124 0.139878 0.118977 0.046854 0.037390 0.042255 0.005412 -0.030773 0.008704 0.004381 -0.004196 0.003156 0.057354 0.053869 0.038896 0.073874 0.061263 0.164429 0.063946 0.041730 0.043514 -0.034804 0.012219 0.047456 0.007796 0.032796 0.056114 0.081251 0.050054 0.041644 0.008033 0.079757 0.027086 0.020762 0.024565 -0.006314 0.032363 0.026608 0.020614 0.069467 0.075791 0.077909 0.041987 0.053013 0.022884 0.015306 -0.024122 -0.024921 0.036960 0.052769 0.080816 0.081454 0.067168 0.070785 0.097648 0.042757 0.090539 0.057216 0.044795 0.018370 0.104377 0.062750 0.125208 0.066025 0.067613 0.097455 0.030852 0.002732 0.085598 -0.040218 -0.028970 0.093774 0.043275 0.159396 0.092004 0.088858 0.065704 0.031856 0.090533 -0.027050 -0.024625 0.047866 0.033470 0.032778 0.018108 0.102043 0.030916 -0.013526 0.049567 0.041060 0.053611 0.056358 -0.009629 0.057180 0.050144 0.117092 0.056992 0.027502 -0.029702 -0.027947 -0.004923 0.008283 -0.057372 -0.021433 0.000735 0.016735 0.035144 0.059191 0.004998 -0.032732 -0.029590 -0.018733 -0.067309 -0.046212 -0.034691 -0.131202 -0.095593 -0.059472 -0.094785 -0.105727 -0.027083 -0.153890 -0.104921 -0.115394 -0.189345 -0.069710 0.061205 -0.074370 -0.136491 0.051206 0.028873 -0.027631 0.072801 -0.023673 -0.004117 -0.084525 -0.039031 0.047424 0.130089 0.053982 0.138960 0.169087 0.436895 0.239214 0.323903 0.162181 -0.021361 -0.700933
0.072396 0.072899 0.074408 0.076923 0.080442 0.084966 0.090493 0.097021 0.104548 0.113071 0.122587 0.133092 0.144580 0.157045 0.170479 0.184873 0.200216 0.216494 0.233694 0.251797 0.270784 0.290631 0.311313 0.332800 0.355058 0.378051 0.401737 0.426070 0.451000 0.476469 0.502417 0.528776 0.555475 0.582432 0.609564 0.636778 0.663975 0.691050 0.717891 0.744379 0.770388 0.795786 0.820432 0.844182 0.866884 0.888381 0.908510 0.927104 0.943992 0.958999 0.971949 0.982664 0.990965 0.996675 0.999619 0.999625 0.996527 0.990166 0.980391 0.967062 0.950053 0.929249 0.904556 0.875897 0.843216 0.806479 0.765682 0.720845 0.672018 0.619285 0.562763 0.502604 0.438998 0.372174 0.302398 0.229979 0.155266 0.078647 0.000551 0.078554 0.158163 0.237734 0.316697 0.394447 0.470357 0.543779 0.614049 0.680494 0.742437 0.799207 0.850143 0.894606 0.931984 0.961705 0.983243 0.996131 0.999965 0.994421 0.979258 0.954328 0.919590 0.875107 0.821062 0.757760 0.685630 0.605231 0.517250 0.422501 0.321927 0.216586 0.107650 0.003606 0.115820 0.227553 0.337308 0.443550 0.544729 0.639297 0.725740 0.802603 0.868511 0.922204 0.962563 0.988633 0.999653 0.995079 0.974606 0.938185 0.886041 0.818681 0.736905 0.641797 0.534732 0.417355 0.291568 0.159506 0.023505 0.113938 0.250201 0.382590 0.508392 0.624932 0.729631 0.820066 0.894038 0.949627 0.985247 0.999707 0.992249 0.962592 0.910960 0.838100 0.745287 0.634324 0.507510 0.367614 0.217823 0.061677 0.097008 0.254224 0.405878 0.547892 0.676318 0.787457 0.877968 0.944982 0.986202 0.999999 0.985482 0.942561 0.871981 0.775335 0.655049 0.514341 0.357158 0.188072 0.012165 0.165117 0.338128 0.501203 0.648839 0.775896 0.877785 0.950647 0.991513 0.998447 0.970656 0.908555 0.813807 0.689303 0.539102 0.368323 0.182995 0.010151 0.203901 0.390837 0.563610 0.715239 0.839407 0.930738 0.985051 0.999576 0.973120 0.906171 0.800939 0.661318 0.492779 0.302176 0.097507 0.112421 0.318353 0.510985 0.681402 0.821499 0.924378 0.984723 0.999103 0.966196 0.886924 0.764479 0.604242 0.413586 0.201562 0.021489 0.244443 0.455921 0.644888 0.801235 0.916341 0.983582 0.998748 0.960344 0.869756 0.731267 0.551896 0.341100 0.110306 0.127687 0.359387 0.571388 0.751141 0.887730 0.972562 0.999952 0.967549 0.876580 0.731870 0.541659 0.317173 0.072013 0.178641 0.418955 0.633440 0.807970 0.930733 0.993086 0.990206 0.921522 0.790872 0.606357 0.379917 0.126587 0.136428 0.390936 0.618987 0.804162 0.932792 0.995016 0.985592 0.904411 0.756630 0.552431 0.306396 0.036518 0.237086 0.493636 0.713282 0.878680 0.976379 0.998007 0.941044 0.809178 0.612163 0.365178 0.087734 0.197826 0.468096 0.700527 0.875345 0.977269 0.996928 0.931805 0.786614 0.573072 0.309044 0.017113 0.277288 0.548076 0.770841 0.925089 0.996182 0.976823 0.867893 0.678562 0.425624 0.132105 0.174776 0.466081 0.713894 0.894020 0.988417 0.987089 0.889255 0.703622 0.447746 0.146465 0.170426 0.471093 0.724841 0.905300 0.993231 0.978676 0.862204 0.655080 0.378300 0.060587 0.264535 0.562223 0.800084 0.951725 0.999792 0.938070 0.772407 0.520314 0.209246 0.126283 0.448467 0.720479 0.910685 0.996440 0.966885 0.824463 0.584907 0.275660 0.067177 0.402948 0.691279 0.896933 0.994230 0.970362 0.827237 0.581532 0.262911 0.089422 0.431479 0.719949 0.917732 0.998807 0.951791 0.781701 0.509624 0.170259 0.192355
1.000000 1.000000 1.000000 1.000000 1.000000 1.000000 1.000000 1.000000 1.000000 1.000000 1.000000 1.000000 1.000000 1.000000 1.000000 1.000000 1.000000 1.000000 1.000000 1.000000 1.000000 1.000000 1.000000 1.000000 1.000000 1.000000 1.000000 1.000000 1.000000 1.000000 1.000000 1.000000 1.000000 1.000000 1.000000 1.000000 1.000000 1.000000 1.000000 1.000000 1.000000 1.000000 1.000000 1.000000 1.000000 1.000000 1.000000 1.000000 1.000000 1.000000 1.000000 1.000000 0.915590 0.915590 0.915590 0.911182 0.911182 0.911182 0.911182 0.911182 0.911182 0.911182 0.911182 0.911182 0.911182 0.911182 0.911182 0.911182 0.911182 0.911182 0.911182 0.911182 0.911182 0.911182 0.911182 0.911182 0.911182 0.911182 0.911182 0.911182 0.911182 0.911182 0.911182 0.911182 0.911182 0.911182 0.911182 0.911182 0.911182 0.911182 0.911182 0.911182 0.911182 0.911182 0.911182 0.911182 0.939647 0.941084 0.949426 0.948963 0.948418 0.946427 0.945166 0.944952 0.944864 0.945217 0.945953 0.946948 0.953172 0.954109 0.958523 0.961240 0.961212 0.962948 0.964911 0.964549 0.956227 0.955984 0.954553 0.953823 0.955932 0.954562 0.953321 0.953792 0.953408 0.955837 0.955395 0.954176 0.952523 0.950917 0.949613 0.949059 0.948825 0.949630 0.949708 0.951284 0.954312 0.954472 0.954207 0.951445 0.951062 0.952267 0.951702 0.953525 0.941350 0.940700 0.939234 0.939231 0.941827 0.941723 0.941623 0.942526 0.942226 0.942148 0.942294 0.935632 0.935375 0.927854 0.924226 0.922765 0.917336 0.913276 0.915924 0.918547 0.919765 0.920219 0.911015 0.908080 0.909029 0.907855 0.909324 0.909238 0.910339 0.910743 0.910667 0.905514 0.895792 0.894154 0.886197 0.888916 0.885575 0.882930 0.879965 0.871145 0.862650 0.874759 0.861834 0.820491 0.824184 0.828628 0.820708 0.816814 0.817713 0.819230 0.824203 0.818210 0.816864 0.810954 0.797779 0.793000 0.785492 0.771726 0.769578 0.760614 0.750212 0.744329 0.768173 0.761762 0.773486 0.777887 0.777484 0.774015 0.764969 0.754191 0.754405 0.749780 0.745542 0.722185 0.714422 0.714564 0.711868 0.699610 0.702790 0.690953 0.691075 0.678384 0.683130 0.688778 0.691994 0.688020 0.681571 0.673108 0.669244 0.682521 0.696596 0.688648 0.684577 0.690521 0.680918 0.676123 0.668736 0.672858 0.665184 0.656827 0.659195 0.692968 0.665068 0.654638 0.661866 0.663793 0.660324 0.660995 0.640615 0.634487 0.611640 0.628916 0.634285 0.650924 0.651874 0.654246 0.665118 0.670928 0.681665 0.686260 0.684958 0.645019 0.649090 0.667610 0.675292 0.663922 0.653820 0.653764 0.647370 0.683958 0.668660 0.626437 0.622458 0.621544 0.577541 0.556827 0.555145 0.557428 0.584587 0.581072 0.562976 0.536870 0.538625 0.539910 0.538145 0.536569 0.521708 0.529303 0.514091 0.490341 0.502378 0.510183 0.508516 0.492560 0.486075 0.499651 0.478129 0.505915 0.482042 0.463602 0.480470 0.479092 0.466899 0.394826 0.403170 0.392503 0.378261 0.333909 0.343418 0.353228 0.335340 0.260306 0.254456 0.255180 0.251698 0.231845 0.208864 0.195536 0.185030 0.162601 0.101963 0.053114 0.054694 0.058492 0.085211 0.044707 0.098809 0.166944 0.164907 0.164907 0.164907 0.164907 0.164907 0.164907 0.164907 0.164907 0.140809 0.140809 0.140809 0.140809 0.140809 0.140809 0.140809 0.140809 0.140809 0.164907 0.164907 0.164907 0.164907 0.164907 0.164907 0.164907 0.164907 0.164907 0.164907 0.164907 0.164907 0.164907 0.164907
0.000000 0.000000 0.000000 0.000000 0.000000 0.000000 0.000000 0.000000 0.000000 0.000000 0.000000 0.000000 0.000000 0.000000 0.000000 0.000000 0.000000 0.000000 0.000000 0.000000 0.000000 0.000000 0.000000 0.000000 0.000000 0.000000 0.000000 0.000000 0.000000 0.000000 0.000000 0.000000 0.000000 0.000000 0.000000 0.000000 0.000000 0.000000 0.000000 0.000000 0.000000 0.000000 0.000000 0.000000 0.000000 0.000000 0.000000 0.000000 0.000000 0.000000 0.000000 0.000000 0.180334 0.180334 0.180334 0.199007 0.199007 0.199007 0.199007 0.199007 0.199007 0.199007 0.199007 0.199007 0.199007 0.199007 0.199007 0.199007 0.199007 0.199007 0.199007 0.199007 0.199007 0.199007 0.199007 0.199007 0.199007 0.199007 0.199007 0.199007 0.199007 0.199007 0.199007 0.199007 0.199007 0.199007 0.199007 0.199007 0.199007 0.199007 0.199007 0.199007 0.199007 0.199007 0.199007 0.199007 0.225018 0.225018 0.225018 0.225018 0.225018 0.225018 0.225018 0.225018 0.225018 0.225018 0.225018 0.225018 0.225018 0.225018 0.225018 0.225018 0.225018 0.225018 0.225018 0.225018 0.225018 0.225018 0.225018 0.225018 0.225018 0.225018 0.225018 0.225018 0.225018 0.244339 0.244339 0.244339 0.244339 0.244339 0.244339 0.244339 0.244339 0.244339 0.244339 0.244339 0.244339 0.244339 0.244339 0.244339 0.244339 0.244339 0.244339 0.244339 0.244339 0.244339 0.244339 0.244339 0.256074 0.256074 0.256074 0.256074 0.256074 0.256074 0.256074 0.256074 0.256074 0.256074 0.256074 0.256074 0.256074 0.256074 0.256074 0.256074 0.256074 0.256074 0.256074 0.256074 0.256074 0.256074 0.256074 0.256074 0.256074 0.256074 0.256074 0.256074 0.256074 0.256074 0.256074 0.256074 0.256074 0.256074 0.256074 0.256074 0.256074 0.264906 0.264906 0.264906 0.264906 0.264906 0.264906 0.264906 0.264906 0.264906 0.264906 0.264906 0.264906 0.264906 0.264906 0.264906 0.264906 0.264906 0.264906 0.264906 0.264906 0.264906 0.264906 0.264906 0.264906 0.264906 0.264906 0.264906 0.264906 0.264906 0.264906 0.264906 0.264906 0.264906 0.264906 0.264906 0.264906 0.264906 0.264906 0.264906 0.264906 0.264906 0.264906 0.264906 0.264906 0.264906 0.264906 0.264906 0.264906 0.264906 0.264906 0.264906 0.264906 0.264906 0.264906 0.264906 0.264906 0.264906 0.264906 0.260378 0.260378 0.260378 0.260378 0.260378 0.260378 0.260378 0.260378 0.260378 0.260378 0.260378 0.260378 0.260378 0.264906 0.264906 0.264906 0.264906 0.264906 0.264906 0.264906 0.264906 0.264906 0.264906 0.264906 0.264906 0.269680 0.269680 0.269680 0.269680 0.269680 0.269680 0.269680 0.269680 0.269680 0.269680 0.269680 0.264906 0.264906 0.264906 0.264906 0.264906 0.264906 0.264906 0.264906 0.264906 0.264906 0.264906 0.256074 0.256074 0.256074 0.256074 0.256074 0.256074 0.256074 0.256074 0.256074 0.256074 0.256074 0.264906 0.264906 0.264906 0.264906 0.264906 0.264906 0.264906 0.264906 0.264906 0.264906 0.260378 0.260378 0.260378 0.260378 0.260378 0.260378 0.260378 0.260378 0.260378 0.260378 0.264906 0.264906 0.264906 0.264906 0.264906 0.264906 0.264906 0.264906 0.264906 0.251976 0.251976 0.251976 0.251976 0.251976 0.251976 0.251976 0.251976 0.251976 0.251976 0.256074 0.256074 0.256074 0.256074 0.256074 0.256074 0.256074 0.256074 0.256074 0.251976 0.251976 0.251976 0.251976 0.251976 0.251976 0.251976 0.251976 0.251976 0.251976 0.251976 0.251976 0.251976 0.251976
