# Output from CTFFind version 4.1.9, run on 2019-11-04 22:08:54
# Input file: stack11_bm3d_averaged_1_0_0_1250_half.mrc ; Number of micrographs: 1
# Pixel size: 3.000 Angstroms ; acceleration voltage: 300.0 keV ; spherical aberration: 0.00 mm ; amplitude contrast: 0.07
# Box size: 512 pixels ; min. res.: 30.0 Angstroms ; max. res.: 5.0 Angstroms ; min. def.: 5000.0 um; max. def. 50000.0 um; num. frames averaged: 1
# 6 lines per micrograph: #1 - spatial frequency (1/Angstroms); #2 - 1D rotational average of spectrum (assuming no astigmatism); #3 - 1D rotational average of spectrum; #4 - CTF fit; #5 - cross-correlation between spectrum and CTF fit; #6 - 2sigma of expected cross correlation of noise
0.000000 0.000651 0.001302 0.001953 0.002604 0.003255 0.003906 0.004557 0.005208 0.005859 0.006510 0.007161 0.007812 0.008464 0.009115 0.009766 0.010417 0.011068 0.011719 0.012370 0.013021 0.013672 0.014323 0.014974 0.015625 0.016276 0.016927 0.017578 0.018229 0.018880 0.019531 0.020182 0.020833 0.021484 0.022135 0.022786 0.023438 0.024089 0.024740 0.025391 0.026042 0.026693 0.027344 0.027995 0.028646 0.029297 0.029948 0.030599 0.031250 0.031901 0.032552 0.033203 0.033854 0.034505 0.035156 0.035807 0.036458 0.037109 0.037760 0.038411 0.039062 0.039714 0.040365 0.041016 0.041667 0.042318 0.042969 0.043620 0.044271 0.044922 0.045573 0.046224 0.046875 0.047526 0.048177 0.048828 0.049479 0.050130 0.050781 0.051432 0.052083 0.052734 0.053385 0.054036 0.054688 0.055339 0.055990 0.056641 0.057292 0.057943 0.058594 0.059245 0.059896 0.060547 0.061198 0.061849 0.062500 0.063151 0.063802 0.064453 0.065104 0.065755 0.066406 0.067057 0.067708 0.068359 0.069010 0.069661 0.070312 0.070964 0.071615 0.072266 0.072917 0.073568 0.074219 0.074870 0.075521 0.076172 0.076823 0.077474 0.078125 0.078776 0.079427 0.080078 0.080729 0.081380 0.082031 0.082682 0.083333 0.083984 0.084635 0.085286 0.085938 0.086589 0.087240 0.087891 0.088542 0.089193 0.089844 0.090495 0.091146 0.091797 0.092448 0.093099 0.093750 0.094401 0.095052 0.095703 0.096354 0.097005 0.097656 0.098307 0.098958 0.099609 0.100260 0.100911 0.101562 0.102214 0.102865 0.103516 0.104167 0.104818 0.105469 0.106120 0.106771 0.107422 0.108073 0.108724 0.109375 0.110026 0.110677 0.111328 0.111979 0.112630 0.113281 0.113932 0.114583 0.115234 0.115885 0.116536 0.117188 0.117839 0.118490 0.119141 0.119792 0.120443 0.121094 0.121745 0.122396 0.123047 0.123698 0.124349 0.125000 0.125651 0.126302 0.126953 0.127604 0.128255 0.128906 0.129557 0.130208 0.130859 0.131510 0.132161 0.132812 0.133464 0.134115 0.134766 0.135417 0.136068 0.136719 0.137370 0.138021 0.138672 0.139323 0.139974 0.140625 0.141276 0.141927 0.142578 0.143229 0.143880 0.144531 0.145182 0.145833 0.146484 0.147135 0.147786 0.148438 0.149089 0.149740 0.150391 0.151042 0.151693 0.152344 0.152995 0.153646 0.154297 0.154948 0.155599 0.156250 0.156901 0.157552 0.158203 0.158854 0.159505 0.160156 0.160807 0.161458 0.162109 0.162760 0.163411 0.164062 0.164714 0.165365 0.166016 0.166667 0.167318 0.167969 0.168620 0.169271 0.169922 0.170573 0.171224 0.171875 0.172526 0.173177 0.173828 0.174479 0.175130 0.175781 0.176432 0.177083 0.177734 0.178385 0.179036 0.179688 0.180339 0.180990 0.181641 0.182292 0.182943 0.183594 0.184245 0.184896 0.185547 0.186198 0.186849 0.187500 0.188151 0.188802 0.189453 0.190104 0.190755 0.191406 0.192057 0.192708 0.193359 0.194010 0.194661 0.195312 0.195964 0.196615 0.197266 0.197917 0.198568 0.199219 0.199870 0.200521 0.201172 0.201823 0.202474 0.203125 0.203776 0.204427 0.205078 0.205729 0.206380 0.207031 0.207682 0.208333 0.208984 0.209635 0.210286 0.210938 0.211589 0.212240 0.212891 0.213542 0.214193 0.214844 0.215495 0.216146 0.216797 0.217448 0.218099 0.218750 0.219401 0.220052 0.220703 0.221354 0.222005 0.222656 0.223307 0.223958 0.224609 0.225260 0.225911 0.226562 0.227214 0.227865 0.228516 0.229167 0.229818 0.230469 0.231120 0.231771 0.232422 0.233073 0.233724 0.234375 0.235026 0.235677
       0.31666        0.31666        0.31666        0.31666        0.31666        0.31666        0.31666        0.31666        0.31666        0.31666        0.31666        0.31666        0.31666        0.31666        0.31666        0.31666        0.31666        0.31666        0.31666        0.31666        0.31666        0.31666        0.31666        0.31666        0.31666        0.31666        0.31666        0.31666        0.31666        0.31666        0.31666        0.31666        0.31666        0.31666        0.31666        0.31666        0.31666        0.31666        0.31666        0.31666        0.31666        0.31666        0.31666        0.31666        0.31666        0.31666        0.31666        0.31666        0.31666        0.31666        0.31666        0.68485        0.87188        0.52219        0.08636       -0.06730       -0.42543       -0.20976       -0.29764       -0.11812       -0.07904       -0.11845       -0.06892       -0.21066       -0.23757       -0.26127       -0.33015       -0.33680       -0.49228       -0.38421       -0.46761       -0.45127       -0.42128       -0.47131       -0.54929       -0.56418       -0.58982       -0.62991       -0.58106       -0.41854       -0.38012       -0.32994       -0.31661       -0.21492       -0.20129        0.01853        0.06742        0.10165        0.22352        0.37213        0.44153        0.51609        0.55911        0.55460        0.57131        0.69936        0.81513        0.74550        0.73509        0.67479        0.58414        0.48661        0.40716        0.49286        0.37280        0.20099        0.07625        0.04538        0.00761       -0.06166       -0.04108       -0.02842       -0.07520       -0.00705       -0.02199        0.20905        0.24823        0.29130        0.43171        0.46882        0.40393        0.53273        0.63131        0.70421        0.76852        0.69234        0.66034        0.70056        0.58871        0.50800        0.41830        0.28817        0.18359        0.15620        0.10659        0.03706        0.01279       -0.00278        0.07498        0.13064        0.20208        0.28469        0.40354        0.41627        0.51276        0.60335        0.63592        0.61373        0.63074        0.55399        0.44560        0.44347        0.35026        0.23043        0.18539        0.14915        0.10495        0.11801        0.06299        0.09744        0.22078        0.26206        0.33938        0.34602        0.45346        0.51290        0.53616        0.55161        0.46874        0.42774        0.39379        0.37563        0.30869        0.25045        0.19922        0.18441        0.15991        0.18843        0.17652        0.26899        0.33149        0.36283        0.42179        0.46170        0.47849        0.44722        0.39265        0.41519        0.37538        0.28966        0.27454        0.22868        0.21263        0.19396        0.21162        0.23104        0.32895        0.37227        0.36486        0.45762        0.44067        0.43966        0.43171        0.39585        0.34416        0.32923        0.27596        0.23367        0.23600        0.26775        0.26754        0.29977        0.29895        0.34030        0.32878        0.41085        0.41722        0.37457        0.34348        0.36305        0.27868        0.27970        0.26281        0.27667        0.25970        0.27989        0.29166        0.31495        0.35301        0.35930        0.35974        0.33123        0.35121        0.28465        0.32149        0.26731        0.24987        0.28286        0.27899        0.30593        0.31446        0.33359        0.32664        0.31259        0.31700        0.28779        0.28655        0.26067        0.28077        0.26645        0.31063        0.28353        0.26200        0.30775        0.31136        0.31809        0.29168        0.29899        0.29274        0.24312        0.23572        0.21956        0.27902        0.27205        0.30780        0.31841        0.31890        0.31325        0.30348        0.27597        0.28221        0.33122        0.27531        0.26853        0.29507        0.29628        0.34083        0.33702        0.36358        0.33144        0.31259        0.27916        0.26292        0.26372        0.22684        0.26754        0.29830        0.29639        0.27712        0.29549        0.27097        0.32160        0.32997        0.25130        0.21780        0.27125        0.33803        0.27797        0.31480        0.32586        0.32777        0.29910        0.32114        0.34401        0.29855        0.29557        0.26623        0.27705        0.35173        0.35007        0.25823        0.26765        0.25432        0.27846        0.22681        0.28991        0.22020        0.25311        0.32456        0.31625        0.34153        0.29553        0.23948        0.24135        0.24162        0.24508        0.18140        0.22054        0.25902        0.29328        0.28028        0.29988        0.29179        0.28160        0.28169        0.20983        0.17883        0.18537        0.23598        0.20277        0.21771        0.23202        0.20990        0.24332        0.33145        0.29600        0.30495        0.22219        0.26078        0.23898        0.28537        0.30527        0.14844        0.21271        0.22519        0.13121        0.23574        0.10648        0.16004        0.17202        0.11462       -0.10787       -0.60672
2.591788 2.564708 2.537774 2.510987 2.484347 2.457854 2.431508 2.405309 2.379257 2.353351 2.327593 2.301981 2.276516 2.251199 2.226028 2.201004 2.176126 2.151396 2.126813 2.102376 2.078087 2.053944 2.029949 2.006100 1.982398 1.958843 1.935435 1.912173 1.889059 1.866092 1.843271 1.820597 1.798071 1.775691 1.753458 1.731372 1.709433 1.687640 1.665995 1.644496 1.623145 1.601940 1.580882 1.559972 1.539208 1.518591 1.498120 1.477797 1.457621 1.437591 1.417709 1.639839 2.044452 1.617440 1.130891 0.988199 0.427322 0.811644 0.564982 0.836843 0.774143 0.789167 0.755476 0.710920 0.563083 0.513384 0.488505 0.449211 0.206924 0.382468 0.206550 0.305421 0.242285 0.182339 0.130529 0.006140 0.045152 -0.015437 -0.054960 0.105084 0.206901 0.199459 0.155609 0.331015 0.198055 0.498688 0.573321 0.546556 0.591779 0.878028 0.807135 0.946091 0.888848 0.973285 0.939896 1.080137 1.141882 1.078243 1.125403 0.954974 0.945124 0.785148 0.652082 0.769034 0.702184 0.461530 0.306104 0.253465 0.211985 0.147419 0.088693 0.124835 0.065395 0.153974 0.050411 0.260366 0.376476 0.358412 0.478839 0.585844 0.469727 0.540495 0.698559 0.747219 0.780611 0.734778 0.732475 0.716273 0.626576 0.572787 0.429842 0.283344 0.204419 0.075320 0.130613 -0.044874 -0.027490 -0.083582 -0.038037 0.004623 0.139898 0.092967 0.303043 0.276563 0.365335 0.454774 0.522941 0.504916 0.517924 0.505029 0.331311 0.306646 0.274463 0.100623 0.047368 -0.001906 -0.037425 -0.042405 -0.096202 -0.105529 -0.019574 0.054983 0.133429 0.133477 0.225452 0.332975 0.303583 0.420092 0.390439 0.281349 0.231779 0.249677 0.208998 0.101363 0.069806 0.015474 0.002567 0.001041 -0.020450 0.058086 0.146453 0.140584 0.222183 0.251179 0.303438 0.263166 0.219453 0.189805 0.209154 0.150342 0.043936 0.048570 -0.008375 -0.010728 -0.031812 0.016362 0.016278 0.172856 0.121907 0.181372 0.236552 0.201972 0.192668 0.200273 0.135646 0.105338 0.065618 0.041846 -0.039445 0.006848 0.019657 0.051208 0.047553 0.079728 0.097652 0.119622 0.139462 0.185754 0.076798 0.097434 0.069090 -0.001092 0.006720 0.008214 -0.009553 0.019075 0.002326 0.030499 0.071262 0.083638 0.117346 0.050813 0.095899 0.055399 0.010582 0.062091 -0.035277 -0.012438 0.021089 -0.002338 0.050861 0.054674 0.052050 0.053403 0.050526 0.046655 0.019851 -0.000596 0.005064 0.013257 -0.014997 0.069038 -0.015197 0.005675 0.053473 0.047318 0.033252 0.043173 0.035794 0.014652 -0.028010 -0.050379 -0.018012 0.014513 0.016903 0.056660 0.061195 0.051818 0.076021 0.059108 0.017838 0.057637 0.084136 0.020757 0.022122 0.054425 0.052522 0.099541 0.107346 0.113092 0.107183 0.060407 0.036741 0.026939 0.004887 -0.007606 0.043937 0.071920 0.041086 0.028254 0.030698 0.020638 0.080470 0.061337 -0.048595 -0.054237 0.028758 0.092161 0.006473 0.032573 0.055031 0.088967 0.021915 0.055411 0.083300 0.034068 0.040641 -0.031536 0.014487 0.110393 0.065655 -0.058078 -0.021572 -0.049658 0.014370 -0.103676 0.033526 -0.111462 -0.030862 0.047082 0.024776 0.025819 -0.043715 -0.063031 -0.085815 -0.080113 -0.062562 -0.130322 -0.096381 -0.038113 0.014135 -0.025312 0.032833 -0.019053 -0.039567 0.053740 -0.108840 -0.092357 -0.098488 -0.003977 -0.050463 -0.040341 0.004538 0.014656 0.008215 0.174405 -0.006056 0.143174 0.007061 0.267411 0.254228 0.324591 0.282585 0.114492 0.215301 0.269854 0.053805 0.259331 0.111218 0.134891 0.227672 0.116112 -0.625422
0.072396 0.072899 0.074406 0.076917 0.080433 0.084951 0.090471 0.096991 0.104509 0.113022 0.122526 0.133018 0.144493 0.156942 0.170360 0.184737 0.200061 0.216321 0.233500 0.251582 0.270547 0.290371 0.311030 0.332493 0.354727 0.377695 0.401356 0.425664 0.450569 0.476014 0.501938 0.528274 0.554950 0.581887 0.609000 0.636196 0.663378 0.690441 0.717272 0.743754 0.769760 0.795159 0.819811 0.843572 0.866290 0.887808 0.907965 0.926594 0.943523 0.958579 0.971586 0.982366 0.990741 0.996533 0.999568 0.999674 0.996686 0.990444 0.980797 0.967605 0.950742 0.930093 0.905562 0.877073 0.844568 0.808014 0.767404 0.722757 0.674122 0.621583 0.565253 0.505283 0.441862 0.375216 0.305609 0.233347 0.158777 0.082284 0.004295 0.074724 0.154272 0.233811 0.312769 0.390548 0.466521 0.540042 0.610451 0.677074 0.739237 0.796268 0.847508 0.892317 0.930083 0.960232 0.982237 0.995627 0.999996 0.995015 0.980438 0.956113 0.921990 0.878127 0.824700 0.762004 0.690460 0.610618 0.523155 0.428877 0.328715 0.223718 0.115050 0.003976 0.108149 0.219894 0.329768 0.436242 0.537766 0.632796 0.719819 0.797374 0.864084 0.918683 0.960040 0.987190 0.999359 0.995986 0.976747 0.941574 0.890670 0.824520 0.743895 0.649860 0.543762 0.427223 0.302120 0.170569 0.034882 0.102455 0.238837 0.371578 0.497968 0.615334 0.721089 0.812800 0.888249 0.945493 0.982918 0.999297 0.993834 0.966204 0.916584 0.845671 0.754692 0.645395 0.520031 0.381323 0.232415 0.076809 0.081706 0.239147 0.391430 0.534478 0.664334 0.777274 0.869925 0.939369 0.983253 0.999880 0.988282 0.948287 0.880550 0.786574 0.668695 0.530049 0.374498 0.206548 0.031222 0.146073 0.319717 0.484044 0.633538 0.763020 0.867839 0.944051 0.988589 0.999399 0.975555 0.917334 0.826253 0.705061 0.557679 0.389102 0.205249 0.012773 0.181172 0.369192 0.543925 0.698345 0.826051 0.921551 0.980512 0.999991 0.978595 0.916604 0.816010 0.680495 0.515333 0.327205 0.123967 0.085673 0.292511 0.487244 0.660901 0.805260 0.913261 0.979372 0.999907 0.973260 0.900052 0.783171 0.627705 0.440760 0.231171 0.009112 0.214388 0.427976 0.620550 0.781861 0.903065 0.977247 0.999847 0.968980 0.885623 0.753644 0.579678 0.372846 0.144300 0.093334 0.326646 0.542192 0.727273 0.870711 0.963547 0.999649 0.976156 0.893755 0.756736 0.572831 0.352832 0.110009 0.140673 0.383443 0.602723 0.784139 0.915484 0.987595 0.995030 0.936541 0.815270 0.638659 0.418058 0.168050 0.094470 0.351417 0.584741 0.777730 0.916220 0.989685 0.992104 0.922507 0.785190 0.589528 0.349406 0.082297 0.191966 0.452639 0.679655 0.855164 0.965002 0.999884 0.956264 0.836764 0.650112 0.410601 0.137051 0.148600 0.423038 0.663469 0.849535 0.965086 0.999645 0.949446 0.817916 0.615550 0.359171 0.070610 0.225104 0.501883 0.734894 0.902806 0.989822 0.987234 0.894394 0.718959 0.476373 0.188603 0.117780 0.414012 0.671821 0.866167 0.977718 0.994870 0.915045 0.745159 0.501144 0.206558 0.109591 0.415676 0.680592 0.876943 0.983944 0.989726 0.892751 0.702207 0.437271 0.125297 0.200942 0.506627 0.758643 0.929182 0.998913 0.959280 0.813680 0.577334 0.275834 0.057525 0.385337 0.670291 0.879416 0.987993 0.982580 0.862815 0.641728 0.344471 0.005599 0.334891 0.636214 0.861737 0.983483 0.985735 0.867205 0.641481 0.335645 0.012858 0.360692 0.664012 0.883996 0.991911 0.973001 0.828657 0.576548 0.248657 0.112679
1.000000 1.000000 1.000000 1.000000 1.000000 1.000000 1.000000 1.000000 1.000000 1.000000 1.000000 1.000000 1.000000 1.000000 1.000000 1.000000 1.000000 1.000000 1.000000 1.000000 1.000000 1.000000 1.000000 1.000000 1.000000 1.000000 1.000000 1.000000 1.000000 1.000000 1.000000 1.000000 1.000000 1.000000 1.000000 1.000000 1.000000 1.000000 1.000000 1.000000 1.000000 1.000000 1.000000 1.000000 1.000000 1.000000 1.000000 1.000000 1.000000 1.000000 1.000000 1.000000 0.933352 0.933352 0.933352 0.924209 0.924209 0.924209 0.924209 0.924209 0.924209 0.924209 0.924209 0.924209 0.924209 0.924209 0.924209 0.924209 0.924209 0.924209 0.924209 0.924209 0.924209 0.924209 0.924209 0.924209 0.924209 0.924209 0.924209 0.924209 0.924209 0.924209 0.924209 0.924209 0.924209 0.924209 0.924209 0.924209 0.924209 0.924209 0.924209 0.924209 0.924209 0.924209 0.924209 0.924209 0.950162 0.951366 0.959214 0.959045 0.958542 0.956441 0.955533 0.954410 0.953960 0.954232 0.954836 0.955666 0.967411 0.968425 0.969956 0.970756 0.971463 0.972117 0.971973 0.972771 0.972025 0.971493 0.970994 0.967053 0.967675 0.968266 0.968442 0.969490 0.969375 0.971618 0.971734 0.971164 0.970335 0.969649 0.968987 0.968598 0.968327 0.968815 0.969080 0.970340 0.973476 0.972895 0.972579 0.972738 0.972841 0.973011 0.973402 0.974166 0.970289 0.968787 0.967133 0.964959 0.969157 0.966303 0.966083 0.967445 0.967826 0.968224 0.967328 0.963387 0.958166 0.957108 0.954742 0.945489 0.944420 0.945155 0.947389 0.947749 0.946341 0.939108 0.939668 0.932717 0.934661 0.937889 0.931941 0.931844 0.932985 0.932533 0.931484 0.930951 0.928072 0.925553 0.924048 0.923891 0.926822 0.926841 0.928020 0.927824 0.922113 0.914252 0.902130 0.900184 0.895533 0.898531 0.887248 0.887017 0.886724 0.882159 0.885507 0.885418 0.886309 0.883077 0.866257 0.848824 0.842361 0.846479 0.851431 0.847551 0.846419 0.839559 0.850823 0.830805 0.843225 0.853805 0.850996 0.850966 0.850330 0.848569 0.843267 0.844147 0.845940 0.847420 0.845670 0.844117 0.843912 0.827609 0.829972 0.766589 0.749551 0.739839 0.745575 0.752311 0.754486 0.753508 0.759666 0.764391 0.753367 0.735188 0.727791 0.721936 0.726002 0.723120 0.724903 0.709127 0.677575 0.672954 0.642176 0.658307 0.671244 0.631419 0.653771 0.664356 0.663731 0.662374 0.656006 0.653052 0.648854 0.651442 0.658403 0.670904 0.688095 0.710896 0.706842 0.697176 0.694862 0.676104 0.670186 0.664099 0.677924 0.656608 0.653316 0.671365 0.671006 0.655933 0.633401 0.622947 0.615900 0.608728 0.618643 0.606480 0.601102 0.588905 0.562906 0.557653 0.591868 0.607893 0.631190 0.602063 0.588851 0.576866 0.556242 0.568911 0.510439 0.510337 0.533038 0.541005 0.519647 0.511202 0.522709 0.527840 0.525799 0.515413 0.505315 0.496895 0.513285 0.550480 0.540481 0.522577 0.524131 0.523069 0.514696 0.424514 0.417841 0.391470 0.356691 0.298747 0.275549 0.268143 0.252643 0.245270 0.210139 0.206215 0.216726 0.222932 0.234836 0.237270 0.219705 0.229557 0.225539 0.211938 0.149234 0.138769 0.130653 0.120084 0.118485 0.096996 0.123578 0.190471 0.192529 0.192529 0.192529 0.192529 0.192529 0.192529 0.200963 0.200963 0.200963 0.200963 0.200963 0.200963 0.200963 0.200963 0.200963 0.209943 0.209943 0.209943 0.209943 0.209943 0.209943 0.209943 0.209943 0.209943 0.209943 0.209943 0.209943 0.209943 0.209943
0.000000 0.000000 0.000000 0.000000 0.000000 0.000000 0.000000 0.000000 0.000000 0.000000 0.000000 0.000000 0.000000 0.000000 0.000000 0.000000 0.000000 0.000000 0.000000 0.000000 0.000000 0.000000 0.000000 0.000000 0.000000 0.000000 0.000000 0.000000 0.000000 0.000000 0.000000 0.000000 0.000000 0.000000 0.000000 0.000000 0.000000 0.000000 0.000000 0.000000 0.000000 0.000000 0.000000 0.000000 0.000000 0.000000 0.000000 0.000000 0.000000 0.000000 0.000000 0.000000 0.180334 0.180334 0.180334 0.199007 0.199007 0.199007 0.199007 0.199007 0.199007 0.199007 0.199007 0.199007 0.199007 0.199007 0.199007 0.199007 0.199007 0.199007 0.199007 0.199007 0.199007 0.199007 0.199007 0.199007 0.199007 0.199007 0.199007 0.199007 0.199007 0.199007 0.199007 0.199007 0.199007 0.199007 0.199007 0.199007 0.199007 0.199007 0.199007 0.199007 0.199007 0.199007 0.199007 0.199007 0.225018 0.225018 0.225018 0.225018 0.225018 0.225018 0.225018 0.225018 0.225018 0.225018 0.225018 0.225018 0.225018 0.225018 0.225018 0.225018 0.225018 0.225018 0.225018 0.225018 0.225018 0.225018 0.225018 0.225018 0.225018 0.225018 0.225018 0.225018 0.225018 0.244339 0.244339 0.244339 0.244339 0.244339 0.244339 0.244339 0.244339 0.244339 0.244339 0.244339 0.244339 0.244339 0.244339 0.244339 0.244339 0.244339 0.244339 0.244339 0.244339 0.244339 0.244339 0.244339 0.251976 0.251976 0.251976 0.251976 0.251976 0.251976 0.251976 0.251976 0.251976 0.251976 0.251976 0.251976 0.251976 0.251976 0.251976 0.251976 0.251976 0.251976 0.251976 0.251976 0.264906 0.264906 0.264906 0.264906 0.264906 0.264906 0.264906 0.264906 0.264906 0.264906 0.264906 0.264906 0.264906 0.264906 0.264906 0.264906 0.264906 0.264906 0.264906 0.264906 0.264906 0.264906 0.264906 0.264906 0.264906 0.264906 0.264906 0.264906 0.264906 0.264906 0.264906 0.264906 0.264906 0.264906 0.264906 0.264906 0.264906 0.264906 0.264906 0.264906 0.264906 0.264906 0.264906 0.264906 0.264906 0.264906 0.264906 0.264906 0.264906 0.264906 0.264906 0.264906 0.264906 0.264906 0.264906 0.264906 0.264906 0.264906 0.264906 0.264906 0.264906 0.264906 0.256074 0.256074 0.256074 0.256074 0.256074 0.256074 0.256074 0.256074 0.256074 0.256074 0.256074 0.256074 0.256074 0.256074 0.269680 0.269680 0.269680 0.269680 0.269680 0.269680 0.269680 0.269680 0.269680 0.269680 0.269680 0.269680 0.264906 0.264906 0.264906 0.264906 0.264906 0.264906 0.264906 0.264906 0.264906 0.264906 0.264906 0.264906 0.269680 0.269680 0.269680 0.269680 0.269680 0.269680 0.269680 0.269680 0.269680 0.269680 0.269680 0.264906 0.264906 0.264906 0.264906 0.264906 0.264906 0.264906 0.264906 0.264906 0.264906 0.264906 0.256074 0.256074 0.256074 0.256074 0.256074 0.256074 0.256074 0.256074 0.256074 0.256074 0.256074 0.264906 0.264906 0.264906 0.264906 0.264906 0.264906 0.264906 0.264906 0.264906 0.264906 0.260378 0.260378 0.260378 0.260378 0.260378 0.260378 0.260378 0.260378 0.260378 0.260378 0.256074 0.256074 0.256074 0.256074 0.256074 0.256074 0.256074 0.256074 0.256074 0.256074 0.260378 0.260378 0.260378 0.260378 0.260378 0.260378 0.260378 0.260378 0.260378 0.256074 0.256074 0.256074 0.256074 0.256074 0.256074 0.256074 0.256074 0.256074 0.251976 0.251976 0.251976 0.251976 0.251976 0.251976 0.251976 0.251976 0.251976 0.251976 0.251976 0.251976 0.251976 0.251976
