# Output from CTFFind version 4.1.9, run on 2019-11-02 17:47:03
# Input file: stack16_bm3d_averaged_1_0.5_0_1250_half.mrc ; Number of micrographs: 1
# Pixel size: 3.000 Angstroms ; acceleration voltage: 300.0 keV ; spherical aberration: 0.00 mm ; amplitude contrast: 0.07
# Box size: 512 pixels ; min. res.: 30.0 Angstroms ; max. res.: 5.0 Angstroms ; min. def.: 5000.0 um; max. def. 50000.0 um; num. frames averaged: 1
# 6 lines per micrograph: #1 - spatial frequency (1/Angstroms); #2 - 1D rotational average of spectrum (assuming no astigmatism); #3 - 1D rotational average of spectrum; #4 - CTF fit; #5 - cross-correlation between spectrum and CTF fit; #6 - 2sigma of expected cross correlation of noise
0.000000 0.000651 0.001302 0.001953 0.002604 0.003255 0.003906 0.004557 0.005208 0.005859 0.006510 0.007161 0.007812 0.008464 0.009115 0.009766 0.010417 0.011068 0.011719 0.012370 0.013021 0.013672 0.014323 0.014974 0.015625 0.016276 0.016927 0.017578 0.018229 0.018880 0.019531 0.020182 0.020833 0.021484 0.022135 0.022786 0.023438 0.024089 0.024740 0.025391 0.026042 0.026693 0.027344 0.027995 0.028646 0.029297 0.029948 0.030599 0.031250 0.031901 0.032552 0.033203 0.033854 0.034505 0.035156 0.035807 0.036458 0.037109 0.037760 0.038411 0.039062 0.039714 0.040365 0.041016 0.041667 0.042318 0.042969 0.043620 0.044271 0.044922 0.045573 0.046224 0.046875 0.047526 0.048177 0.048828 0.049479 0.050130 0.050781 0.051432 0.052083 0.052734 0.053385 0.054036 0.054688 0.055339 0.055990 0.056641 0.057292 0.057943 0.058594 0.059245 0.059896 0.060547 0.061198 0.061849 0.062500 0.063151 0.063802 0.064453 0.065104 0.065755 0.066406 0.067057 0.067708 0.068359 0.069010 0.069661 0.070312 0.070964 0.071615 0.072266 0.072917 0.073568 0.074219 0.074870 0.075521 0.076172 0.076823 0.077474 0.078125 0.078776 0.079427 0.080078 0.080729 0.081380 0.082031 0.082682 0.083333 0.083984 0.084635 0.085286 0.085938 0.086589 0.087240 0.087891 0.088542 0.089193 0.089844 0.090495 0.091146 0.091797 0.092448 0.093099 0.093750 0.094401 0.095052 0.095703 0.096354 0.097005 0.097656 0.098307 0.098958 0.099609 0.100260 0.100911 0.101562 0.102214 0.102865 0.103516 0.104167 0.104818 0.105469 0.106120 0.106771 0.107422 0.108073 0.108724 0.109375 0.110026 0.110677 0.111328 0.111979 0.112630 0.113281 0.113932 0.114583 0.115234 0.115885 0.116536 0.117188 0.117839 0.118490 0.119141 0.119792 0.120443 0.121094 0.121745 0.122396 0.123047 0.123698 0.124349 0.125000 0.125651 0.126302 0.126953 0.127604 0.128255 0.128906 0.129557 0.130208 0.130859 0.131510 0.132161 0.132812 0.133464 0.134115 0.134766 0.135417 0.136068 0.136719 0.137370 0.138021 0.138672 0.139323 0.139974 0.140625 0.141276 0.141927 0.142578 0.143229 0.143880 0.144531 0.145182 0.145833 0.146484 0.147135 0.147786 0.148438 0.149089 0.149740 0.150391 0.151042 0.151693 0.152344 0.152995 0.153646 0.154297 0.154948 0.155599 0.156250 0.156901 0.157552 0.158203 0.158854 0.159505 0.160156 0.160807 0.161458 0.162109 0.162760 0.163411 0.164062 0.164714 0.165365 0.166016 0.166667 0.167318 0.167969 0.168620 0.169271 0.169922 0.170573 0.171224 0.171875 0.172526 0.173177 0.173828 0.174479 0.175130 0.175781 0.176432 0.177083 0.177734 0.178385 0.179036 0.179688 0.180339 0.180990 0.181641 0.182292 0.182943 0.183594 0.184245 0.184896 0.185547 0.186198 0.186849 0.187500 0.188151 0.188802 0.189453 0.190104 0.190755 0.191406 0.192057 0.192708 0.193359 0.194010 0.194661 0.195312 0.195964 0.196615 0.197266 0.197917 0.198568 0.199219 0.199870 0.200521 0.201172 0.201823 0.202474 0.203125 0.203776 0.204427 0.205078 0.205729 0.206380 0.207031 0.207682 0.208333 0.208984 0.209635 0.210286 0.210938 0.211589 0.212240 0.212891 0.213542 0.214193 0.214844 0.215495 0.216146 0.216797 0.217448 0.218099 0.218750 0.219401 0.220052 0.220703 0.221354 0.222005 0.222656 0.223307 0.223958 0.224609 0.225260 0.225911 0.226562 0.227214 0.227865 0.228516 0.229167 0.229818 0.230469 0.231120 0.231771 0.232422 0.233073 0.233724 0.234375 0.235026 0.235677
       0.34309        0.34309        0.34309        0.34309        0.34309        0.34309        0.34309        0.34309        0.34309        0.34309        0.34309        0.34309        0.34309        0.34309        0.34309        0.34309        0.34309        0.34309        0.34309        0.34309        0.34309        0.34309        0.34309        0.34309        0.34309        0.34309        0.34309        0.34309        0.34309        0.34309        0.34309        0.34309        0.34309        0.34309        0.34309        0.34309        0.34309        0.34309        0.34309        0.34309        0.34309        0.34309        0.34309        0.34309        0.34309        0.34309        0.34309        0.34309        0.34309        0.34309        0.34309        0.48936        0.70365        0.45542       -0.11085       -0.41329       -0.57178       -0.66160       -0.74609       -0.76300       -0.86916       -0.91419       -0.76020       -0.92505       -0.87169       -1.02451       -1.09654       -0.98949       -0.96218       -0.88367       -0.86274       -0.75164       -0.64173       -0.50085       -0.42381       -0.21831       -0.11822       -0.02294        0.20395        0.24396        0.30844        0.38596        0.43992        0.51681        0.58119        0.59563        0.59243        0.50253        0.54621        0.48635        0.39105        0.32417        0.20703        0.17339        0.10325       -0.06204       -0.11143       -0.09230        0.00969       -0.01697        0.01075        0.02948        0.21078        0.21997        0.39131        0.45764        0.56243        0.70056        0.76088        0.72924        0.70704        0.70376        0.58486        0.54384        0.40026        0.27261        0.19327        0.14403        0.06619        0.02235        0.02332        0.06142        0.07785        0.27107        0.41782        0.50526        0.58750        0.63897        0.70531        0.66142        0.65159        0.67150        0.60986        0.48028        0.28415        0.23384        0.20560        0.13080        0.04724        0.09278        0.12299        0.24999        0.33904        0.41494        0.50065        0.53919        0.66334        0.61060        0.55570        0.50874        0.36650        0.21055        0.21198        0.15274        0.11244        0.12007        0.21524        0.25386        0.36052        0.44351        0.44037        0.56759        0.51140        0.44705        0.45301        0.38408        0.32394        0.27731        0.21963        0.23815        0.20992        0.21231        0.32506        0.44868        0.48693        0.48007        0.55062        0.49590        0.45594        0.39527        0.29328        0.22428        0.23243        0.24682        0.26773        0.27245        0.32429        0.44285        0.49874        0.48617        0.45958        0.41827        0.38686        0.36271        0.24852        0.22765        0.24691        0.29412        0.35374        0.36285        0.39286        0.40870        0.44393        0.37081        0.34870        0.31341        0.30370        0.26607        0.25911        0.31089        0.34574        0.41626        0.41726        0.39858        0.39471        0.40802        0.34999        0.28806        0.29044        0.27577        0.31075        0.36042        0.36590        0.41542        0.36049        0.36729        0.39040        0.34636        0.31596        0.27958        0.29711        0.34029        0.33217        0.32672        0.37639        0.39628        0.33528        0.35295        0.29517        0.30834        0.28874        0.28236        0.30056        0.33119        0.38338        0.36637        0.34759        0.32825        0.28578        0.27765        0.29660        0.28214        0.31394        0.36885        0.39431        0.33843        0.31802        0.31184        0.29771        0.28120        0.27825        0.29944        0.34161        0.33658        0.34423        0.31750        0.34723        0.32440        0.28725        0.31604        0.32245        0.33157        0.33542        0.31946        0.31595        0.30700        0.32782        0.31323        0.33552        0.38998        0.33692        0.36125        0.32232        0.31516        0.28974        0.31041        0.28996        0.31065        0.31652        0.35211        0.36281        0.31802        0.32237        0.31460        0.29337        0.29344        0.28997        0.33447        0.34274        0.35762        0.33534        0.32553        0.25889        0.26783        0.31315        0.35016        0.31645        0.29987        0.28609        0.28717        0.32477        0.30712        0.30706        0.33365        0.34486        0.31379        0.24327        0.28855        0.28240        0.28759        0.32092        0.32124        0.34580        0.34315        0.27873        0.26541        0.29237        0.26735        0.28791        0.27588        0.24777        0.26642        0.24855        0.27884        0.27932        0.27665        0.26644        0.31667        0.32685        0.31630        0.29077        0.30960        0.24558        0.27008        0.25515        0.33732        0.34325        0.23169        0.25766        0.27193        0.24710        0.25138        0.29839        0.22892        0.14580        0.17296        0.25162        0.27807        0.22795        0.14499        0.03053       -0.40702       -0.73732
3.055721 3.017759 2.980041 2.942567 2.905336 2.868350 2.831607 2.795108 2.758853 2.722841 2.687073 2.651550 2.616270 2.581234 2.546441 2.511892 2.477588 2.443527 2.409709 2.376136 2.342806 2.309721 2.276879 2.244281 2.211926 2.179816 2.147949 2.116326 2.084947 2.053812 2.022920 1.992272 1.961868 1.931708 1.901792 1.872120 1.842691 1.813506 1.784565 1.755868 1.727414 1.699205 1.671239 1.643517 1.616039 1.588804 1.561814 1.535067 1.508564 1.482305 1.456289 1.513114 1.703359 1.613745 0.967056 0.683291 0.476641 0.431860 0.320856 0.264398 0.200311 0.021269 0.197323 0.081205 -0.006105 -0.058681 -0.198158 -0.151647 -0.091552 -0.091305 -0.098672 0.010191 0.030884 0.234315 0.149494 0.365685 0.446399 0.477934 0.717187 0.701161 0.709152 0.839998 0.824027 0.855868 0.923919 0.893239 0.941564 0.753811 0.837517 0.841894 0.621816 0.608770 0.458450 0.437403 0.388958 0.209482 0.120695 0.101318 0.205957 0.147318 0.193958 0.111979 0.314566 0.289743 0.457880 0.417705 0.582122 0.644879 0.766604 0.693648 0.663501 0.670080 0.533603 0.507124 0.370754 0.293191 0.118260 0.146329 0.002227 -0.013645 -0.037607 -0.027938 -0.001552 0.033518 0.274652 0.333365 0.383580 0.400496 0.469146 0.532534 0.459011 0.506528 0.401718 0.389871 0.155673 0.067345 0.073003 0.000001 -0.122554 -0.042054 -0.108638 0.018268 0.135098 0.156803 0.253962 0.256966 0.384237 0.463629 0.355977 0.389613 0.284295 0.128145 0.050387 0.052453 0.011985 0.002306 0.006754 0.108614 0.129959 0.263984 0.237844 0.307394 0.372796 0.235622 0.243155 0.219097 0.132892 0.081816 0.054183 0.027996 0.039167 -0.013078 0.029520 0.186150 0.222821 0.248281 0.279751 0.232601 0.239668 0.147865 0.106149 -0.022803 -0.016716 -0.004620 0.017727 0.009194 0.028003 0.104993 0.188615 0.201711 0.220144 0.138732 0.145897 0.079959 0.056562 -0.058844 -0.014174 -0.007078 0.054698 0.066118 0.078164 0.151548 0.086524 0.170363 0.069416 0.054489 0.045390 0.028294 0.001751 0.010443 0.055814 0.084170 0.134846 0.143628 0.067557 0.133216 0.102126 0.020014 0.008486 0.006036 -0.004045 0.059933 0.062620 0.099647 0.099723 0.077435 0.065122 0.083097 0.035509 0.014273 -0.012336 0.014516 0.057426 0.030329 0.041937 0.083823 0.085283 0.055922 0.034106 0.007732 0.015623 -0.006030 -0.011517 0.014930 0.053721 0.104325 0.060802 0.058169 0.040682 -0.013992 0.000090 0.014554 0.010944 0.028406 0.107396 0.054776 0.025187 0.044060 0.003337 0.026741 -0.012570 -0.003283 0.023566 0.066190 0.034044 0.046578 0.032231 0.056136 0.028360 -0.004119 0.031283 0.044284 0.040841 0.031412 0.030235 0.005893 -0.005984 0.028573 0.009972 0.045957 0.079244 0.048561 0.025203 0.014753 0.003696 -0.003031 0.007374 0.003100 0.013370 -0.003603 0.086588 0.052937 0.035756 0.039862 0.004891 0.009885 0.011161 -0.005124 0.055321 0.063116 0.087087 0.047728 0.050477 -0.025150 0.015548 0.036867 0.076784 0.027805 0.036441 0.008387 0.005012 0.050143 0.045782 0.036766 0.060031 0.076024 0.058757 -0.022074 0.019852 0.041188 0.025360 0.044589 0.074402 0.075705 0.071945 0.015501 0.003584 0.015873 -0.000550 0.018126 -0.015662 -0.029555 -0.008171 -0.047628 0.000481 -0.006756 0.004436 -0.071578 0.004476 0.014034 0.001661 -0.033920 0.031229 -0.092089 -0.021450 -0.040866 0.037418 0.067422 -0.104873 -0.016911 0.035402 0.017735 -0.039432 0.044782 0.030588 0.003832 -0.047239 0.080525 0.240869 0.198851 0.107368 0.029870 -0.647615
0.072396 0.073046 0.074994 0.078242 0.082786 0.088627 0.095761 0.104186 0.113898 0.124892 0.137161 0.150696 0.165489 0.181525 0.198791 0.217266 0.236930 0.257756 0.279714 0.302768 0.326878 0.351997 0.378071 0.405040 0.432836 0.461382 0.490593 0.520377 0.550628 0.581233 0.612068 0.642997 0.673874 0.704542 0.734831 0.764561 0.793541 0.821567 0.848427 0.873896 0.897742 0.919723 0.939592 0.957094 0.971970 0.983958 0.992798 0.998230 0.999997 0.997852 0.991558 0.980889 0.965638 0.945621 0.920674 0.890665 0.855495 0.815101 0.769463 0.718603 0.662597 0.601572 0.535713 0.465265 0.390535 0.311897 0.229790 0.144723 0.057270 0.031928 0.122165 0.212674 0.302633 0.391167 0.477360 0.560259 0.638888 0.712256 0.779374 0.839264 0.890977 0.933610 0.966321 0.988350 0.999031 0.997819 0.984299 0.958209 0.919454 0.868119 0.804486 0.729038 0.642471 0.545695 0.439837 0.326229 0.206410 0.082102 0.044803 0.172270 0.298148 0.420206 0.536173 0.643776 0.740794 0.825102 0.894726 0.947893 0.983083 0.999082 0.995026 0.970444 0.925295 0.859995 0.775434 0.672990 0.554517 0.422334 0.279192 0.128229 0.027086 0.183026 0.335694 0.481111 0.615330 0.734541 0.835190 0.914095 0.968557 0.996471 0.996418 0.967748 0.910639 0.826139 0.716178 0.583554 0.431886 0.265541 0.089524 0.090655 0.269145 0.439942 0.597087 0.734887 0.848125 0.932284 0.983740 0.999947 0.979584 0.922664 0.830597 0.706205 0.553670 0.378434 0.187032 0.013126 0.214027 0.407366 0.584887 0.738754 0.861897 0.948378 0.993698 0.995068 0.951614 0.864499 0.736957 0.574226 0.383384 0.173076 0.046837 0.265732 0.472721 0.657195 0.809388 0.920918 0.985288 0.998308 0.958412 0.866853 0.727741 0.547927 0.336733 0.105507 0.132945 0.365052 0.577235 0.756726 0.892359 0.975306 0.999708 0.963146 0.866924 0.716121 0.519407 0.288618 0.038097 0.216154 0.457477 0.669652 0.838011 0.950493 0.998570 0.977966 0.889105 0.737246 0.532271 0.288131 0.021963 0.247062 0.499102 0.715109 0.878302 0.975531 0.998407 0.944121 0.815843 0.622671 0.379093 0.103988 0.180767 0.452002 0.687150 0.866130 0.973154 0.998187 0.938002 0.796668 0.585420 0.321894 0.028760 0.268186 0.542226 0.768159 0.924659 0.996375 0.975545 0.862960 0.668142 0.408688 0.108804 0.202859 0.495907 0.741150 0.913575 0.994974 0.976003 0.857386 0.650126 0.374662 0.058974 0.264144 0.560463 0.797943 0.950271 0.999890 0.940164 0.776423 0.525689 0.215085 0.120975 0.444507 0.718247 0.909980 0.996449 0.966322 0.821860 0.578999 0.265794 0.080658 0.418528 0.706261 0.907747 0.996965 0.961508 0.804508 0.544638 0.214092 0.145223 0.486901 0.766031 0.945149 0.999423 0.920291 0.717013 0.415863 0.056943 0.311004 0.637135 0.875563 0.991938 0.968573 0.807377 0.530046 0.175399 0.205851 0.558252 0.829676 0.979118 0.983095 0.839575 0.568795 0.210688 0.180787 0.545641 0.827042 0.980265 0.980011 0.824850 0.537994 0.164126 0.237329 0.601521 0.868663 0.993967 0.955399 0.757845 0.432890 0.034085 0.371680 0.715279 0.937210 0.998044 0.885753 0.618394 0.241555 0.179088 0.569083 0.858336 0.993864 0.949738 0.732410 0.380203 0.043115 0.459635 0.791543 0.975808 0.976344 0.791459 0.454872 0.029956 0.401913 0.756847 0.964792 0.983604 0.807963 0.471161 0.039211 0.401781 0.762686 0.969393 0.978334 0.786027 0.430600 0.015345 0.459252 0.807714 0.986233 0.955457 0.720267 0.329593 0.133349 0.568492
1.000000 1.000000 1.000000 1.000000 1.000000 1.000000 1.000000 1.000000 1.000000 1.000000 1.000000 1.000000 1.000000 1.000000 1.000000 1.000000 1.000000 1.000000 1.000000 1.000000 1.000000 1.000000 1.000000 1.000000 1.000000 1.000000 1.000000 1.000000 1.000000 1.000000 1.000000 1.000000 1.000000 1.000000 1.000000 1.000000 1.000000 1.000000 1.000000 1.000000 1.000000 1.000000 1.000000 1.000000 1.000000 1.000000 1.000000 1.000000 1.000000 1.000000 1.000000 1.000000 0.932765 0.932765 0.932765 0.932765 0.932765 0.932765 0.932765 0.932765 0.932765 0.932765 0.932765 0.932765 0.932765 0.932765 0.932765 0.932765 0.932765 0.932765 0.932765 0.932765 0.932765 0.932765 0.932765 0.932765 0.932765 0.932765 0.932765 0.932765 0.932765 0.932765 0.932765 0.932765 0.932765 0.922228 0.923716 0.926709 0.927789 0.927749 0.927287 0.926965 0.927178 0.928893 0.931218 0.947855 0.950032 0.950604 0.951905 0.952151 0.954677 0.952920 0.952654 0.963233 0.962019 0.962710 0.955684 0.957299 0.956353 0.955402 0.955932 0.956206 0.954241 0.952061 0.950345 0.949689 0.949305 0.951079 0.951559 0.951508 0.952996 0.952946 0.952656 0.949242 0.947855 0.949334 0.951413 0.950574 0.956290 0.956108 0.964137 0.964903 0.963463 0.963376 0.963573 0.963773 0.952953 0.946177 0.940458 0.928521 0.918999 0.916913 0.919860 0.921885 0.921063 0.916668 0.915561 0.912911 0.907413 0.906538 0.906530 0.908198 0.904475 0.900916 0.884416 0.883761 0.886211 0.885543 0.883491 0.875281 0.870614 0.871338 0.874510 0.871887 0.868398 0.884491 0.879630 0.884706 0.887825 0.891072 0.894952 0.891297 0.890327 0.886493 0.882889 0.877771 0.879091 0.866410 0.869385 0.863773 0.854413 0.846898 0.850046 0.859732 0.867968 0.876210 0.875146 0.875398 0.874548 0.865350 0.866677 0.859148 0.860139 0.865739 0.871957 0.867778 0.865095 0.869285 0.867287 0.870588 0.872493 0.868422 0.866571 0.857266 0.857337 0.859278 0.876486 0.875629 0.864976 0.859490 0.851057 0.857740 0.861002 0.860303 0.862020 0.853008 0.854673 0.844488 0.833050 0.834826 0.839536 0.834435 0.835911 0.833775 0.837262 0.839229 0.837598 0.833082 0.831845 0.835735 0.813653 0.821067 0.824320 0.819517 0.823705 0.816284 0.809996 0.805249 0.804835 0.800679 0.813658 0.811916 0.779790 0.769029 0.777113 0.758666 0.749817 0.745541 0.746358 0.712343 0.693349 0.666494 0.660901 0.651227 0.653533 0.651304 0.641828 0.628647 0.614706 0.612465 0.627284 0.628473 0.595011 0.594835 0.587195 0.582143 0.577256 0.576902 0.573748 0.581216 0.586580 0.551485 0.547013 0.553319 0.527520 0.527148 0.525018 0.516867 0.488002 0.494700 0.494597 0.511482 0.533034 0.497948 0.495991 0.505081 0.518595 0.530767 0.531146 0.516457 0.496676 0.506270 0.480590 0.464979 0.481820 0.494904 0.486375 0.503667 0.491633 0.523582 0.516729 0.505206 0.528380 0.545074 0.543840 0.528291 0.541156 0.521341 0.524589 0.508261 0.466399 0.478407 0.464256 0.413515 0.406480 0.423781 0.410482 0.411129 0.385281 0.386941 0.363746 0.328247 0.340956 0.335858 0.301819 0.260720 0.261700 0.263844 0.232595 0.204792 0.224644 0.174178 0.166347 0.185130 0.195584 0.196274 0.187497 0.208913 0.208913 0.208913 0.208913 0.208913 0.208913 0.208913 0.208913 0.208913 0.208913 0.208913 0.208913 0.208913 0.208913 0.234857 0.234857 0.234857 0.234857 0.234857 0.234857 0.234857 0.234857 0.234857 0.234857 0.234857 0.234857
0.000000 0.000000 0.000000 0.000000 0.000000 0.000000 0.000000 0.000000 0.000000 0.000000 0.000000 0.000000 0.000000 0.000000 0.000000 0.000000 0.000000 0.000000 0.000000 0.000000 0.000000 0.000000 0.000000 0.000000 0.000000 0.000000 0.000000 0.000000 0.000000 0.000000 0.000000 0.000000 0.000000 0.000000 0.000000 0.000000 0.000000 0.000000 0.000000 0.000000 0.000000 0.000000 0.000000 0.000000 0.000000 0.000000 0.000000 0.000000 0.000000 0.000000 0.000000 0.000000 0.209657 0.209657 0.209657 0.209657 0.209657 0.209657 0.209657 0.209657 0.209657 0.209657 0.209657 0.209657 0.209657 0.209657 0.209657 0.209657 0.209657 0.209657 0.209657 0.209657 0.209657 0.209657 0.209657 0.209657 0.209657 0.209657 0.209657 0.209657 0.209657 0.209657 0.209657 0.209657 0.209657 0.244339 0.244339 0.244339 0.244339 0.244339 0.244339 0.244339 0.244339 0.244339 0.244339 0.244339 0.244339 0.244339 0.244339 0.244339 0.244339 0.244339 0.244339 0.244339 0.244339 0.244339 0.244339 0.244339 0.244339 0.244339 0.260378 0.260378 0.260378 0.260378 0.260378 0.260378 0.260378 0.260378 0.260378 0.260378 0.260378 0.260378 0.260378 0.260378 0.260378 0.260378 0.260378 0.260378 0.260378 0.260378 0.269680 0.269680 0.269680 0.269680 0.269680 0.269680 0.269680 0.269680 0.269680 0.269680 0.269680 0.269680 0.269680 0.269680 0.269680 0.269680 0.269680 0.269680 0.269680 0.269680 0.269680 0.269680 0.269680 0.269680 0.269680 0.269680 0.269680 0.269680 0.269680 0.269680 0.269680 0.269680 0.269680 0.280056 0.280056 0.280056 0.280056 0.280056 0.280056 0.280056 0.280056 0.280056 0.280056 0.280056 0.280056 0.280056 0.280056 0.280056 0.280056 0.280056 0.280056 0.280056 0.280056 0.280056 0.280056 0.280056 0.280056 0.280056 0.280056 0.280056 0.274721 0.274721 0.274721 0.274721 0.274721 0.274721 0.274721 0.274721 0.274721 0.274721 0.274721 0.274721 0.274721 0.285714 0.285714 0.285714 0.285714 0.285714 0.285714 0.285714 0.285714 0.285714 0.285714 0.285714 0.280056 0.280056 0.280056 0.280056 0.280056 0.280056 0.280056 0.280056 0.280056 0.280056 0.280056 0.274721 0.274721 0.274721 0.274721 0.274721 0.274721 0.274721 0.274721 0.274721 0.274721 0.274721 0.280056 0.280056 0.280056 0.280056 0.280056 0.280056 0.280056 0.280056 0.280056 0.280056 0.285714 0.285714 0.285714 0.285714 0.285714 0.285714 0.285714 0.285714 0.285714 0.269680 0.269680 0.269680 0.269680 0.269680 0.269680 0.269680 0.269680 0.269680 0.269680 0.274721 0.274721 0.274721 0.274721 0.274721 0.274721 0.274721 0.274721 0.274721 0.285714 0.285714 0.285714 0.285714 0.285714 0.285714 0.285714 0.285714 0.264906 0.264906 0.264906 0.264906 0.264906 0.264906 0.264906 0.264906 0.264906 0.274721 0.274721 0.274721 0.274721 0.274721 0.274721 0.274721 0.274721 0.269680 0.269680 0.269680 0.269680 0.269680 0.269680 0.269680 0.269680 0.269680 0.269680 0.269680 0.269680 0.269680 0.269680 0.269680 0.269680 0.280056 0.280056 0.280056 0.280056 0.280056 0.280056 0.280056 0.260378 0.260378 0.260378 0.260378 0.260378 0.260378 0.260378 0.260378 0.269680 0.269680 0.269680 0.269680 0.269680 0.269680 0.269680 0.264906 0.264906 0.264906 0.264906 0.264906 0.264906 0.264906 0.264906 0.264906 0.264906 0.264906 0.264906 0.264906 0.264906 0.260378 0.260378 0.260378 0.260378 0.260378 0.260378 0.260378 0.260378 0.260378 0.260378 0.260378 0.260378
