# Output from CTFFind version 4.1.9, run on 2019-11-03 19:41:51
# Input file: stack16_bm3d_averaged_1_4.75_0_1500_half.mrc ; Number of micrographs: 1
# Pixel size: 3.000 Angstroms ; acceleration voltage: 300.0 keV ; spherical aberration: 0.00 mm ; amplitude contrast: 0.07
# Box size: 512 pixels ; min. res.: 30.0 Angstroms ; max. res.: 5.0 Angstroms ; min. def.: 5000.0 um; max. def. 50000.0 um; num. frames averaged: 1
# 6 lines per micrograph: #1 - spatial frequency (1/Angstroms); #2 - 1D rotational average of spectrum (assuming no astigmatism); #3 - 1D rotational average of spectrum; #4 - CTF fit; #5 - cross-correlation between spectrum and CTF fit; #6 - 2sigma of expected cross correlation of noise
0.000000 0.000651 0.001302 0.001953 0.002604 0.003255 0.003906 0.004557 0.005208 0.005859 0.006510 0.007161 0.007812 0.008464 0.009115 0.009766 0.010417 0.011068 0.011719 0.012370 0.013021 0.013672 0.014323 0.014974 0.015625 0.016276 0.016927 0.017578 0.018229 0.018880 0.019531 0.020182 0.020833 0.021484 0.022135 0.022786 0.023438 0.024089 0.024740 0.025391 0.026042 0.026693 0.027344 0.027995 0.028646 0.029297 0.029948 0.030599 0.031250 0.031901 0.032552 0.033203 0.033854 0.034505 0.035156 0.035807 0.036458 0.037109 0.037760 0.038411 0.039062 0.039714 0.040365 0.041016 0.041667 0.042318 0.042969 0.043620 0.044271 0.044922 0.045573 0.046224 0.046875 0.047526 0.048177 0.048828 0.049479 0.050130 0.050781 0.051432 0.052083 0.052734 0.053385 0.054036 0.054688 0.055339 0.055990 0.056641 0.057292 0.057943 0.058594 0.059245 0.059896 0.060547 0.061198 0.061849 0.062500 0.063151 0.063802 0.064453 0.065104 0.065755 0.066406 0.067057 0.067708 0.068359 0.069010 0.069661 0.070312 0.070964 0.071615 0.072266 0.072917 0.073568 0.074219 0.074870 0.075521 0.076172 0.076823 0.077474 0.078125 0.078776 0.079427 0.080078 0.080729 0.081380 0.082031 0.082682 0.083333 0.083984 0.084635 0.085286 0.085938 0.086589 0.087240 0.087891 0.088542 0.089193 0.089844 0.090495 0.091146 0.091797 0.092448 0.093099 0.093750 0.094401 0.095052 0.095703 0.096354 0.097005 0.097656 0.098307 0.098958 0.099609 0.100260 0.100911 0.101562 0.102214 0.102865 0.103516 0.104167 0.104818 0.105469 0.106120 0.106771 0.107422 0.108073 0.108724 0.109375 0.110026 0.110677 0.111328 0.111979 0.112630 0.113281 0.113932 0.114583 0.115234 0.115885 0.116536 0.117188 0.117839 0.118490 0.119141 0.119792 0.120443 0.121094 0.121745 0.122396 0.123047 0.123698 0.124349 0.125000 0.125651 0.126302 0.126953 0.127604 0.128255 0.128906 0.129557 0.130208 0.130859 0.131510 0.132161 0.132812 0.133464 0.134115 0.134766 0.135417 0.136068 0.136719 0.137370 0.138021 0.138672 0.139323 0.139974 0.140625 0.141276 0.141927 0.142578 0.143229 0.143880 0.144531 0.145182 0.145833 0.146484 0.147135 0.147786 0.148438 0.149089 0.149740 0.150391 0.151042 0.151693 0.152344 0.152995 0.153646 0.154297 0.154948 0.155599 0.156250 0.156901 0.157552 0.158203 0.158854 0.159505 0.160156 0.160807 0.161458 0.162109 0.162760 0.163411 0.164062 0.164714 0.165365 0.166016 0.166667 0.167318 0.167969 0.168620 0.169271 0.169922 0.170573 0.171224 0.171875 0.172526 0.173177 0.173828 0.174479 0.175130 0.175781 0.176432 0.177083 0.177734 0.178385 0.179036 0.179688 0.180339 0.180990 0.181641 0.182292 0.182943 0.183594 0.184245 0.184896 0.185547 0.186198 0.186849 0.187500 0.188151 0.188802 0.189453 0.190104 0.190755 0.191406 0.192057 0.192708 0.193359 0.194010 0.194661 0.195312 0.195964 0.196615 0.197266 0.197917 0.198568 0.199219 0.199870 0.200521 0.201172 0.201823 0.202474 0.203125 0.203776 0.204427 0.205078 0.205729 0.206380 0.207031 0.207682 0.208333 0.208984 0.209635 0.210286 0.210938 0.211589 0.212240 0.212891 0.213542 0.214193 0.214844 0.215495 0.216146 0.216797 0.217448 0.218099 0.218750 0.219401 0.220052 0.220703 0.221354 0.222005 0.222656 0.223307 0.223958 0.224609 0.225260 0.225911 0.226562 0.227214 0.227865 0.228516 0.229167 0.229818 0.230469 0.231120 0.231771 0.232422 0.233073 0.233724 0.234375 0.235026 0.235677
       0.33241        0.33241        0.33241        0.33241        0.33241        0.33241        0.33241        0.33241        0.33241        0.33241        0.33241        0.33241        0.33241        0.33241        0.33241        0.33241        0.33241        0.33241        0.33241        0.33241        0.33241        0.33241        0.33241        0.33241        0.33241        0.33241        0.33241        0.33241        0.33241        0.33241        0.33241        0.33241        0.33241        0.33241        0.33241        0.33241        0.33241        0.33241        0.33241        0.33241        0.33241        0.33241        0.33241        0.33241        0.33241        0.33241        0.33241        0.33241        0.33241        0.33241        0.33241        0.41808        0.56011        0.34661       -0.20043       -0.45815       -0.55851       -0.65578       -0.72862       -0.74499       -0.84920       -0.91049       -0.70837       -0.86898       -0.84424       -0.99388       -1.02925       -0.91294       -0.87080       -0.81758       -0.74432       -0.67044       -0.58384       -0.48872       -0.41966       -0.19313       -0.08629        0.00626        0.23460        0.24248        0.30020        0.36563        0.39133        0.49829        0.53377        0.56894        0.53130        0.47087        0.50813        0.50314        0.42408        0.31867        0.19237        0.16719        0.10017       -0.02433       -0.03827       -0.04440        0.03202       -0.00572        0.05084        0.02889        0.14283        0.18371        0.39834        0.45519        0.55043        0.65579        0.69245        0.71347        0.63450        0.61220        0.52649        0.43373        0.37634        0.25737        0.20260        0.19172        0.08039        0.07759        0.06105        0.06399        0.08111        0.29409        0.40404        0.50626        0.53445        0.57537        0.61201        0.58844        0.58095        0.58200        0.56084        0.46087        0.28577        0.24659        0.22411        0.12219        0.07100        0.13538        0.16211        0.26556        0.34514        0.40898        0.46649        0.52870        0.60082        0.54852        0.50794        0.48680        0.35136        0.24077        0.23241        0.15921        0.15116        0.19702        0.24577        0.26591        0.30772        0.41302        0.43965        0.50110        0.45366        0.44479        0.46907        0.37170        0.31620        0.27206        0.23509        0.21159        0.21781        0.22855        0.32288        0.42603        0.41738        0.48462        0.54542        0.43942        0.41020        0.35164        0.29301        0.24462        0.25498        0.26314        0.27736        0.31390        0.32912        0.41282        0.46429        0.43287        0.44498        0.35359        0.36707        0.34864        0.24391        0.22785        0.22991        0.29502        0.35998        0.36438        0.38524        0.42845        0.42898        0.35861        0.33265        0.30891        0.33407        0.29202        0.26460        0.26688        0.32988        0.35733        0.36991        0.39019        0.37169        0.39917        0.37714        0.29200        0.27414        0.30592        0.33309        0.35229        0.35103        0.40098        0.33287        0.36666        0.38189        0.31988        0.33958        0.29808        0.28526        0.33173        0.32406        0.31499        0.33003        0.35354        0.31518        0.33376        0.29966        0.30365        0.27461        0.29751        0.29239        0.32649        0.36271        0.35409        0.33450        0.29049        0.27673        0.27703        0.31578        0.28895        0.30248        0.35514        0.36115        0.32965        0.30170        0.29965        0.30170        0.26438        0.28302        0.29125        0.31334        0.34815        0.32243        0.27942        0.32028        0.30570        0.30202        0.34711        0.33401        0.30293        0.32641        0.28545        0.31746        0.27698        0.29876        0.29075        0.31010        0.36871        0.32414        0.34086        0.29588        0.30572        0.31861        0.31830        0.28858        0.28612        0.31863        0.31236        0.31094        0.29944        0.30561        0.28877        0.29541        0.31286        0.31878        0.32457        0.32873        0.32530        0.28894        0.27106        0.26640        0.25902        0.34842        0.30693        0.35055        0.29098        0.26079        0.28620        0.34784        0.29818        0.28078        0.26790        0.30355        0.27905        0.26506        0.30898        0.27045        0.26235        0.29781        0.30304        0.33066        0.32395        0.29133        0.26413        0.24644        0.24986        0.26143        0.27795        0.33148        0.27135        0.20482        0.28982        0.26473        0.29224        0.22797        0.30602        0.30014        0.30635        0.27219        0.25730        0.26585        0.22150        0.28099        0.33094        0.36273        0.23812        0.25892        0.21461        0.21574        0.19790        0.33058        0.23456        0.23153        0.14290        0.24311        0.24223        0.22028        0.14387        0.03449       -0.61982       -0.89641
3.061752 3.023407 2.985309 2.947459 2.909856 2.872500 2.835392 2.798531 2.761917 2.725551 2.689432 2.653561 2.617937 2.582560 2.547431 2.512549 2.477914 2.443527 2.409388 2.375495 2.341850 2.308453 2.275303 2.242400 2.209744 2.177336 2.145175 2.113262 2.081596 2.050178 2.019006 1.988083 1.957406 1.926977 1.896796 1.866861 1.837175 1.807735 1.778543 1.749598 1.720901 1.692451 1.664248 1.636293 1.608585 1.581125 1.553912 1.526946 1.500228 1.473757 1.447534 1.481926 1.580396 1.520298 0.848578 0.582913 0.441041 0.373594 0.281531 0.199713 0.157068 -0.060132 0.186525 0.050780 -0.045044 -0.126287 -0.245468 -0.157540 -0.073700 -0.094964 -0.088578 0.026533 0.020106 0.212452 0.099584 0.343661 0.454441 0.471088 0.748888 0.684266 0.681245 0.828719 0.795734 0.826994 0.919430 0.861557 0.894601 0.729453 0.807872 0.842633 0.670269 0.602272 0.440858 0.422966 0.357384 0.180134 0.176678 0.117266 0.212714 0.118237 0.213134 0.107657 0.229902 0.236361 0.460729 0.416596 0.595007 0.632044 0.677412 0.731454 0.628320 0.611100 0.474235 0.423922 0.310216 0.276899 0.109943 0.171816 -0.015628 0.036952 -0.035598 -0.036548 -0.031395 0.043112 0.292736 0.308363 0.389780 0.334954 0.415696 0.454107 0.432907 0.435116 0.373936 0.363121 0.144442 0.094999 0.068886 0.001118 -0.146882 -0.032286 -0.072336 0.046587 0.102789 0.174746 0.244539 0.253754 0.346701 0.425837 0.331598 0.379846 0.270627 0.144339 0.068221 0.058836 0.010031 0.038775 0.075823 0.112074 0.122514 0.201479 0.252006 0.302663 0.317523 0.240349 0.267600 0.234910 0.114294 0.091565 0.044911 0.040635 0.009239 0.009099 0.047596 0.177003 0.195415 0.201965 0.317793 0.198020 0.222316 0.098160 0.083066 -0.007241 -0.004126 0.008225 0.010804 0.041882 0.048633 0.094563 0.160436 0.156902 0.217364 0.123789 0.080712 0.106457 0.047345 -0.069875 -0.025564 0.011070 0.050557 0.071933 0.089385 0.154978 0.136921 0.151959 0.040674 0.057901 0.050633 0.050891 0.019804 -0.018018 0.034457 0.043426 0.086962 0.109493 0.103111 0.105189 0.125258 0.065122 0.005422 0.004023 0.032841 0.079977 0.059900 0.106858 0.098532 0.057219 0.111458 0.070809 0.038692 0.074454 -0.026164 0.025607 0.059181 0.035185 0.041252 0.043518 0.066509 0.052570 0.049976 0.009877 0.020899 -0.014320 0.028201 0.000524 0.053352 0.074972 0.064618 0.032829 -0.016999 -0.015300 -0.011398 0.024982 -0.006082 0.013560 0.068476 0.062235 -0.013843 0.012788 -0.010591 0.006676 -0.044081 -0.020947 -0.012377 0.024552 0.031115 0.012361 -0.024579 0.008518 -0.012223 0.001307 0.040809 0.016670 0.021604 -0.085050 0.011827 -0.007086 -0.044775 -0.012307 -0.019632 0.020748 0.066260 0.006073 0.010114 -0.001806 0.012113 0.007718 0.028489 -0.014680 -0.008588 0.015992 0.034943 0.015656 0.004140 0.053073 -0.018406 0.001160 0.029743 0.012658 0.065956 0.051463 0.025523 0.007924 -0.003698 -0.031128 -0.001685 0.071390 -0.005018 0.074589 -0.014232 -0.021842 -0.014572 0.082820 -0.007475 0.000670 0.000590 0.025474 -0.004286 -0.000251 0.029092 0.006435 -0.006523 0.019785 0.050857 0.094285 0.053179 0.028897 0.012546 -0.026625 -0.000098 -0.004839 0.001665 0.093998 -0.028068 -0.087397 0.055552 -0.018044 0.036325 -0.062325 0.026898 0.004874 0.007202 -0.017335 -0.025276 -0.027618 -0.062227 0.014485 0.047870 0.080870 -0.105347 0.026847 -0.059223 -0.008802 -0.095306 0.136376 0.024857 0.073576 -0.038681 0.122840 0.248117 0.195319 0.085055 0.039477 -0.841851
0.072396 0.073047 0.074999 0.078252 0.082804 0.088654 0.095801 0.104240 0.113968 0.124980 0.137270 0.150828 0.165646 0.181709 0.199003 0.217508 0.237204 0.258064 0.280057 0.303148 0.327296 0.352453 0.378566 0.405574 0.433409 0.461994 0.491243 0.521064 0.551350 0.581988 0.612853 0.643809 0.674709 0.705394 0.735696 0.765432 0.794411 0.822428 0.849269 0.874711 0.898518 0.920450 0.940257 0.957683 0.972470 0.984355 0.993076 0.998372 0.999988 0.997675 0.991196 0.980326 0.964859 0.944608 0.919413 0.889142 0.853698 0.813019 0.767086 0.715926 0.659616 0.598287 0.532126 0.461383 0.386369 0.307463 0.225109 0.139819 0.052174 0.037180 0.127531 0.218107 0.308081 0.396573 0.482661 0.565390 0.643779 0.716834 0.783564 0.842989 0.894162 0.936180 0.968204 0.989478 0.999344 0.997261 0.982825 0.955786 0.916059 0.863747 0.799144 0.722751 0.635284 0.537672 0.431058 0.316798 0.196447 0.071748 0.055389 0.182915 0.308664 0.430396 0.545830 0.652692 0.748760 0.831916 0.900196 0.951843 0.985359 0.999558 0.993606 0.967072 0.919956 0.852718 0.766298 0.662123 0.542098 0.408592 0.264403 0.112713 0.042969 0.198888 0.351121 0.495682 0.628618 0.746133 0.844698 0.921168 0.972897 0.997844 0.994668 0.962803 0.902525 0.814982 0.702207 0.567102 0.413386 0.245514 0.068572 0.111868 0.289914 0.459539 0.614790 0.750004 0.860026 0.940426 0.987693 0.999418 0.974438 0.912939 0.816514 0.688166 0.532258 0.354396 0.161258 0.039632 0.240183 0.432057 0.607012 0.757269 0.875879 0.957062 0.996527 0.991732 0.942074 0.849009 0.716063 0.548757 0.354432 0.141950 0.078669 0.296702 0.501236 0.681728 0.828556 0.933563 0.990554 0.995701 0.947849 0.848685 0.702755 0.517329 0.302093 0.068689 0.169879 0.399950 0.607986 0.781388 0.909282 0.983253 0.997952 0.951539 0.845933 0.686829 0.483474 0.248194 0.004292 0.257763 0.495512 0.701463 0.861276 0.963400 0.999964 0.967463 0.867152 0.705127 0.492051 0.242539 0.025783 0.293473 0.540670 0.748579 0.900928 0.985313 0.994281 0.926084 0.784998 0.581182 0.330058 0.051221 0.233021 0.499407 0.725629 0.892245 0.984401 0.993269 0.916983 0.761023 0.537968 0.266590 0.029616 0.324423 0.591153 0.805120 0.945970 0.999707 0.960200 0.830000 0.620353 0.350378 0.045433 0.265169 0.550961 0.783297 0.938306 0.999420 0.959295 0.820815 0.597093 0.310391 0.009969 0.330513 0.617085 0.838497 0.970020 0.996251 0.913083 0.728460 0.461834 0.142259 0.194630 0.510535 0.768849 0.938954 0.999973 0.943497 0.774913 0.513122 0.188621 0.159921 0.490166 0.761262 0.938940 0.999991 0.935467 0.752192 0.472285 0.130700 0.228985 0.560053 0.818715 0.969992 0.992600 0.882160 0.652207 0.332776 0.033295 0.396000 0.704925 0.916316 0.999414 0.941133 0.748362 0.447444 0.080829 0.298747 0.635747 0.880009 0.994312 0.960276 0.781564 0.483851 0.111389 0.279346 0.628133 0.880300 0.995429 0.954057 0.761250 0.446346 0.058775 0.339478 0.683715 0.917051 0.999999 0.917399 0.681491 0.330464 0.077433 0.473378 0.789527 0.970733 0.984377 0.826562 0.523401 0.127054 0.292991 0.661938 0.913072 0.999963 0.905353 0.644934 0.265155 0.164764 0.565219 0.860979 0.995414 0.941653 0.708310 0.338564 0.097471 0.515798 0.834687 0.990725 0.951742 0.723821 0.350852 0.093531 0.520230 0.842484 0.993639 0.941238 0.694414 0.302800 0.153055 0.577974 0.882021 0.999676 0.904308 0.614652 0.191644 0.274033 0.681128
1.000000 1.000000 1.000000 1.000000 1.000000 1.000000 1.000000 1.000000 1.000000 1.000000 1.000000 1.000000 1.000000 1.000000 1.000000 1.000000 1.000000 1.000000 1.000000 1.000000 1.000000 1.000000 1.000000 1.000000 1.000000 1.000000 1.000000 1.000000 1.000000 1.000000 1.000000 1.000000 1.000000 1.000000 1.000000 1.000000 1.000000 1.000000 1.000000 1.000000 1.000000 1.000000 1.000000 1.000000 1.000000 1.000000 1.000000 1.000000 1.000000 1.000000 1.000000 1.000000 0.934116 0.934116 0.934116 0.934116 0.934116 0.934116 0.934116 0.934116 0.934116 0.934116 0.934116 0.934116 0.934116 0.934116 0.934116 0.934116 0.934116 0.934116 0.934116 0.934116 0.934116 0.934116 0.934116 0.934116 0.934116 0.934116 0.934116 0.934116 0.934116 0.934116 0.934116 0.934116 0.934116 0.921669 0.919839 0.922790 0.923829 0.923755 0.923285 0.922991 0.923266 0.924680 0.926545 0.948058 0.950297 0.950886 0.952104 0.953618 0.956337 0.954626 0.959070 0.969755 0.968972 0.969736 0.963630 0.964676 0.964140 0.963461 0.965475 0.965373 0.963955 0.962318 0.961060 0.960673 0.960421 0.962047 0.962413 0.962587 0.962988 0.962910 0.962760 0.962711 0.962966 0.965090 0.964147 0.963390 0.969205 0.968007 0.970127 0.970100 0.970821 0.971509 0.971684 0.971835 0.967427 0.966920 0.965984 0.952909 0.946236 0.942989 0.945237 0.948108 0.945552 0.941329 0.940226 0.943059 0.938079 0.937635 0.928939 0.927315 0.909690 0.900681 0.889201 0.889910 0.891591 0.892601 0.890527 0.881798 0.872182 0.868496 0.870352 0.865235 0.860484 0.877073 0.872279 0.873129 0.877098 0.879771 0.885113 0.879287 0.875255 0.871121 0.867325 0.864547 0.866979 0.871764 0.874929 0.862620 0.855199 0.858228 0.847744 0.842872 0.849580 0.851589 0.847984 0.847182 0.848239 0.848615 0.840656 0.836870 0.838196 0.847989 0.848184 0.838182 0.833596 0.827490 0.827547 0.824803 0.825557 0.824393 0.821395 0.815137 0.826988 0.797181 0.819941 0.816029 0.804046 0.790198 0.779070 0.786165 0.797688 0.800456 0.796206 0.776888 0.775339 0.774632 0.756032 0.761624 0.768583 0.766721 0.754978 0.731815 0.739005 0.747333 0.738982 0.730385 0.732606 0.733370 0.701533 0.715317 0.719084 0.706094 0.720141 0.718353 0.709977 0.706081 0.706792 0.706185 0.696571 0.658631 0.659726 0.667426 0.654647 0.603127 0.600828 0.603265 0.599671 0.526453 0.530250 0.518578 0.519591 0.506185 0.532187 0.512585 0.502655 0.528997 0.491000 0.400754 0.414233 0.405415 0.411869 0.415698 0.394875 0.354407 0.361941 0.388196 0.369472 0.338904 0.283385 0.322589 0.338404 0.383318 0.369596 0.378861 0.404148 0.386681 0.369083 0.344175 0.363245 0.354593 0.392886 0.336080 0.305944 0.298995 0.278710 0.290662 0.291366 0.274613 0.205436 0.248277 0.179819 0.200630 0.181694 0.162263 0.164679 0.196751 0.189731 0.195592 0.180424 0.213272 0.201589 0.200076 0.191469 0.203665 0.235233 0.233335 0.217756 0.227811 0.188703 0.196103 0.181031 0.159295 0.224804 0.208836 0.193668 0.184672 0.183647 0.198692 0.160488 0.122195 0.072202 0.078047 0.065128 0.032270 0.006438 -0.028672 -0.029014 -0.047473 -0.041327 -0.021851 -0.030899 -0.029790 -0.029790 -0.029790 -0.029790 -0.064735 -0.064735 -0.064735 -0.064735 -0.064735 -0.064735 -0.064735 -0.064735 -0.064735 -0.064735 -0.064735 -0.064735 -0.064735 -0.064735 -0.041540 -0.041540 -0.041540 -0.041540 -0.041540 -0.041540 -0.041540 -0.041540 -0.041540 -0.041540 -0.041540 -0.041540
0.000000 0.000000 0.000000 0.000000 0.000000 0.000000 0.000000 0.000000 0.000000 0.000000 0.000000 0.000000 0.000000 0.000000 0.000000 0.000000 0.000000 0.000000 0.000000 0.000000 0.000000 0.000000 0.000000 0.000000 0.000000 7.000000 4.000000 0.000000 0.000000 0.000000 0.000000 0.000000 0.000000 0.000000 0.000000 0.000000 0.000000 0.000000 0.000000 0.000000 0.000000 0.000000 0.000000 0.000000 0.000000 0.000000 0.000000 0.000000 0.000000 0.000000 0.000000 0.000000 0.209657 0.209657 0.209657 0.209657 0.209657 0.209657 0.209657 0.209657 0.209657 0.209657 0.209657 0.209657 0.209657 0.209657 0.209657 0.209657 0.209657 0.209657 0.209657 0.209657 0.209657 0.209657 0.209657 0.209657 0.209657 0.209657 0.209657 0.209657 0.209657 0.209657 0.209657 0.209657 0.209657 0.244339 0.244339 0.244339 0.244339 0.244339 0.244339 0.244339 0.244339 0.244339 0.244339 0.244339 0.244339 0.244339 0.244339 0.244339 0.244339 0.244339 0.244339 0.244339 0.244339 0.244339 0.244339 0.244339 0.244339 0.244339 0.260378 0.260378 0.260378 0.260378 0.260378 0.260378 0.260378 0.260378 0.260378 0.260378 0.260378 0.260378 0.260378 0.260378 0.260378 0.260378 0.260378 0.260378 0.260378 0.260378 0.269680 0.269680 0.269680 0.269680 0.269680 0.269680 0.269680 0.269680 0.269680 0.269680 0.269680 0.269680 0.269680 0.269680 0.269680 0.269680 0.269680 0.269680 0.269680 0.269680 0.269680 0.269680 0.269680 0.269680 0.269680 0.269680 0.269680 0.269680 0.269680 0.269680 0.269680 0.269680 0.269680 0.280056 0.280056 0.280056 0.280056 0.280056 0.280056 0.280056 0.280056 0.280056 0.280056 0.280056 0.280056 0.280056 0.280056 0.280056 0.280056 0.280056 0.280056 0.280056 0.280056 0.280056 0.280056 0.280056 0.280056 0.280056 0.280056 0.280056 0.274721 0.274721 0.274721 0.274721 0.274721 0.274721 0.274721 0.274721 0.274721 0.274721 0.274721 0.274721 0.274721 0.285714 0.285714 0.285714 0.285714 0.285714 0.285714 0.285714 0.285714 0.285714 0.285714 0.285714 0.280056 0.280056 0.280056 0.280056 0.280056 0.280056 0.280056 0.280056 0.280056 0.280056 0.280056 0.274721 0.274721 0.274721 0.274721 0.274721 0.274721 0.274721 0.274721 0.274721 0.274721 0.274721 0.280056 0.280056 0.280056 0.280056 0.280056 0.280056 0.280056 0.280056 0.280056 0.280056 0.285714 0.285714 0.285714 0.285714 0.285714 0.285714 0.285714 0.285714 0.285714 0.269680 0.269680 0.269680 0.269680 0.269680 0.269680 0.269680 0.269680 0.269680 0.269680 0.291730 0.291730 0.291730 0.291730 0.291730 0.291730 0.291730 0.291730 0.269680 0.269680 0.269680 0.269680 0.269680 0.269680 0.269680 0.269680 0.269680 0.264906 0.264906 0.264906 0.264906 0.264906 0.264906 0.264906 0.264906 0.264906 0.274721 0.274721 0.274721 0.274721 0.274721 0.274721 0.274721 0.274721 0.269680 0.269680 0.269680 0.269680 0.269680 0.269680 0.269680 0.269680 0.269680 0.269680 0.269680 0.269680 0.269680 0.269680 0.269680 0.269680 0.280056 0.280056 0.280056 0.280056 0.280056 0.280056 0.280056 0.274721 0.274721 0.274721 0.274721 0.274721 0.274721 0.274721 0.256074 0.256074 0.256074 0.256074 0.256074 0.256074 0.256074 0.256074 0.264906 0.264906 0.264906 0.264906 0.264906 0.264906 0.264906 0.264906 0.264906 0.264906 0.264906 0.264906 0.264906 0.264906 0.260378 0.260378 0.260378 0.260378 0.260378 0.260378 0.260378 0.260378 0.260378 0.260378 0.260378 0.260378
