# Output from CTFFind version 4.1.9, run on 2019-11-02 17:46:12
# Input file: stack16_bm3d_averaged_1_1.5_0_1000_half.mrc ; Number of micrographs: 1
# Pixel size: 3.000 Angstroms ; acceleration voltage: 300.0 keV ; spherical aberration: 0.00 mm ; amplitude contrast: 0.07
# Box size: 512 pixels ; min. res.: 30.0 Angstroms ; max. res.: 5.0 Angstroms ; min. def.: 5000.0 um; max. def. 50000.0 um; num. frames averaged: 1
# 6 lines per micrograph: #1 - spatial frequency (1/Angstroms); #2 - 1D rotational average of spectrum (assuming no astigmatism); #3 - 1D rotational average of spectrum; #4 - CTF fit; #5 - cross-correlation between spectrum and CTF fit; #6 - 2sigma of expected cross correlation of noise
0.000000 0.000651 0.001302 0.001953 0.002604 0.003255 0.003906 0.004557 0.005208 0.005859 0.006510 0.007161 0.007812 0.008464 0.009115 0.009766 0.010417 0.011068 0.011719 0.012370 0.013021 0.013672 0.014323 0.014974 0.015625 0.016276 0.016927 0.017578 0.018229 0.018880 0.019531 0.020182 0.020833 0.021484 0.022135 0.022786 0.023438 0.024089 0.024740 0.025391 0.026042 0.026693 0.027344 0.027995 0.028646 0.029297 0.029948 0.030599 0.031250 0.031901 0.032552 0.033203 0.033854 0.034505 0.035156 0.035807 0.036458 0.037109 0.037760 0.038411 0.039062 0.039714 0.040365 0.041016 0.041667 0.042318 0.042969 0.043620 0.044271 0.044922 0.045573 0.046224 0.046875 0.047526 0.048177 0.048828 0.049479 0.050130 0.050781 0.051432 0.052083 0.052734 0.053385 0.054036 0.054688 0.055339 0.055990 0.056641 0.057292 0.057943 0.058594 0.059245 0.059896 0.060547 0.061198 0.061849 0.062500 0.063151 0.063802 0.064453 0.065104 0.065755 0.066406 0.067057 0.067708 0.068359 0.069010 0.069661 0.070312 0.070964 0.071615 0.072266 0.072917 0.073568 0.074219 0.074870 0.075521 0.076172 0.076823 0.077474 0.078125 0.078776 0.079427 0.080078 0.080729 0.081380 0.082031 0.082682 0.083333 0.083984 0.084635 0.085286 0.085938 0.086589 0.087240 0.087891 0.088542 0.089193 0.089844 0.090495 0.091146 0.091797 0.092448 0.093099 0.093750 0.094401 0.095052 0.095703 0.096354 0.097005 0.097656 0.098307 0.098958 0.099609 0.100260 0.100911 0.101562 0.102214 0.102865 0.103516 0.104167 0.104818 0.105469 0.106120 0.106771 0.107422 0.108073 0.108724 0.109375 0.110026 0.110677 0.111328 0.111979 0.112630 0.113281 0.113932 0.114583 0.115234 0.115885 0.116536 0.117188 0.117839 0.118490 0.119141 0.119792 0.120443 0.121094 0.121745 0.122396 0.123047 0.123698 0.124349 0.125000 0.125651 0.126302 0.126953 0.127604 0.128255 0.128906 0.129557 0.130208 0.130859 0.131510 0.132161 0.132812 0.133464 0.134115 0.134766 0.135417 0.136068 0.136719 0.137370 0.138021 0.138672 0.139323 0.139974 0.140625 0.141276 0.141927 0.142578 0.143229 0.143880 0.144531 0.145182 0.145833 0.146484 0.147135 0.147786 0.148438 0.149089 0.149740 0.150391 0.151042 0.151693 0.152344 0.152995 0.153646 0.154297 0.154948 0.155599 0.156250 0.156901 0.157552 0.158203 0.158854 0.159505 0.160156 0.160807 0.161458 0.162109 0.162760 0.163411 0.164062 0.164714 0.165365 0.166016 0.166667 0.167318 0.167969 0.168620 0.169271 0.169922 0.170573 0.171224 0.171875 0.172526 0.173177 0.173828 0.174479 0.175130 0.175781 0.176432 0.177083 0.177734 0.178385 0.179036 0.179688 0.180339 0.180990 0.181641 0.182292 0.182943 0.183594 0.184245 0.184896 0.185547 0.186198 0.186849 0.187500 0.188151 0.188802 0.189453 0.190104 0.190755 0.191406 0.192057 0.192708 0.193359 0.194010 0.194661 0.195312 0.195964 0.196615 0.197266 0.197917 0.198568 0.199219 0.199870 0.200521 0.201172 0.201823 0.202474 0.203125 0.203776 0.204427 0.205078 0.205729 0.206380 0.207031 0.207682 0.208333 0.208984 0.209635 0.210286 0.210938 0.211589 0.212240 0.212891 0.213542 0.214193 0.214844 0.215495 0.216146 0.216797 0.217448 0.218099 0.218750 0.219401 0.220052 0.220703 0.221354 0.222005 0.222656 0.223307 0.223958 0.224609 0.225260 0.225911 0.226562 0.227214 0.227865 0.228516 0.229167 0.229818 0.230469 0.231120 0.231771 0.232422 0.233073 0.233724 0.234375 0.235026 0.235677
       0.34323        0.34323        0.34323        0.34323        0.34323        0.34323        0.34323        0.34323        0.34323        0.34323        0.34323        0.34323        0.34323        0.34323        0.34323        0.34323        0.34323        0.34323        0.34323        0.34323        0.34323        0.34323        0.34323        0.34323        0.34323        0.34323        0.34323        0.34323        0.34323        0.34323        0.34323        0.34323        0.34323        0.34323        0.34323        0.34323        0.34323        0.34323        0.34323        0.34323        0.34323        0.34323        0.34323        0.34323        0.34323        0.34323        0.34323        0.34323        0.34323        0.34323        0.34323        0.48823        0.69945        0.45675       -0.11225       -0.41143       -0.57114       -0.66055       -0.74286       -0.75986       -0.86942       -0.91495       -0.75848       -0.92542       -0.87197       -1.02537       -1.09885       -0.98858       -0.96086       -0.88390       -0.85422       -0.74836       -0.63995       -0.49897       -0.42236       -0.21937       -0.11586       -0.02351        0.20076        0.24272        0.30818        0.38246        0.43612        0.51305        0.57985        0.59969        0.59037        0.50133        0.54683        0.48496        0.39384        0.32705        0.20456        0.17117        0.09814       -0.05650       -0.11220       -0.08957        0.01376       -0.01638        0.01781        0.02673        0.20455        0.21789        0.39205        0.45700        0.56294        0.70066        0.76287        0.73364        0.70312        0.69711        0.58256        0.53898        0.39815        0.27668        0.19659        0.15119        0.06922        0.02963        0.02342        0.06446        0.08202        0.27616        0.41646        0.50530        0.59009        0.63818        0.70189        0.65947        0.65433        0.67039        0.60670        0.48397        0.28718        0.23875        0.20634        0.12875        0.04275        0.09233        0.11390        0.25159        0.34753        0.41633        0.50296        0.54156        0.65652        0.60436        0.55273        0.51169        0.36321        0.20585        0.21232        0.15616        0.12190        0.12348        0.21540        0.25468        0.35845        0.44187        0.43688        0.55583        0.51010        0.45548        0.45748        0.38048        0.32491        0.27349        0.21240        0.23209        0.21402        0.20776        0.31646        0.45183        0.48647        0.48430        0.55350        0.49818        0.45316        0.39779        0.29741        0.22846        0.23445        0.24103        0.26474        0.27557        0.33008        0.44232        0.50378        0.49200        0.46092        0.41420        0.38867        0.36014        0.24996        0.22434        0.25041        0.29509        0.35763        0.36265        0.39242        0.41413        0.44269        0.37523        0.34853        0.31589        0.31139        0.27005        0.25842        0.30627        0.34799        0.41422        0.41772        0.39351        0.39127        0.40396        0.34707        0.28699        0.29787        0.28661        0.30878        0.35759        0.37225        0.41534        0.35807        0.36325        0.38770        0.34431        0.31243        0.28435        0.29158        0.33838        0.32652        0.32382        0.37108        0.39568        0.33541        0.35355        0.30172        0.30836        0.28534        0.28160        0.30201        0.32991        0.38413        0.36504        0.34654        0.32525        0.28425        0.27546        0.29696        0.28401        0.31623        0.36775        0.39569        0.33561        0.31956        0.30949        0.30166        0.29421        0.27988        0.30574        0.33940        0.33269        0.34404        0.32247        0.35192        0.32503        0.28819        0.31263        0.32284        0.34355        0.34413        0.31972        0.31328        0.30080        0.32815        0.31384        0.33838        0.39143        0.33284        0.36175        0.31609        0.30698        0.29079        0.30871        0.29285        0.31064        0.31946        0.34913        0.35931        0.30597        0.32107        0.31861        0.29805        0.29116        0.29533        0.32361        0.34537        0.35434        0.33377        0.31512        0.26619        0.25709        0.31362        0.35038        0.31911        0.29360        0.27950        0.29237        0.32900        0.31494        0.30641        0.33681        0.33426        0.30793        0.24160        0.28382        0.28868        0.28751        0.33172        0.33036        0.34662        0.34507        0.28663        0.27493        0.29947        0.27497        0.30066        0.27254        0.25322        0.26153        0.26604        0.28546        0.29137        0.28559        0.26364        0.32015        0.32634        0.31478        0.27658        0.28101        0.23483        0.26028        0.24731        0.31378        0.35533        0.23044        0.24579        0.28376        0.24346        0.23398        0.31076        0.24139        0.12964        0.17848        0.21867        0.27442        0.24828        0.13765        0.06509       -0.39363       -0.76380
3.169383 3.129503 3.089882 3.050518 3.011413 2.972565 2.933976 2.895645 2.857571 2.819756 2.782199 2.744900 2.707859 2.671076 2.634551 2.598284 2.562275 2.526525 2.491032 2.455797 2.420821 2.386102 2.351642 2.317439 2.283495 2.249809 2.216381 2.183210 2.150298 2.117644 2.085248 2.053110 2.021231 1.989609 1.958245 1.927139 1.896292 1.865702 1.835370 1.805297 1.775481 1.745924 1.716625 1.687584 1.658800 1.630275 1.602008 1.573999 1.546248 1.518755 1.491520 1.549595 1.732163 1.648828 0.992531 0.708842 0.499216 0.451353 0.343276 0.283573 0.217058 0.033507 0.212728 0.093741 0.002163 -0.049525 -0.192689 -0.145818 -0.081551 -0.086431 -0.086480 0.017149 0.039012 0.238672 0.156670 0.370067 0.452075 0.483662 0.719598 0.705171 0.714137 0.842008 0.825237 0.852728 0.926579 0.901236 0.941680 0.753229 0.838482 0.840246 0.624284 0.607241 0.453722 0.432823 0.373750 0.206844 0.112697 0.091907 0.201996 0.134978 0.193553 0.103235 0.295845 0.276953 0.449919 0.405260 0.575499 0.636136 0.755689 0.693209 0.653644 0.654773 0.518010 0.494153 0.349738 0.283950 0.107032 0.137235 -0.011440 -0.022264 -0.054050 -0.043704 -0.016033 0.020203 0.263533 0.314702 0.372721 0.385868 0.452806 0.479786 0.440159 0.482331 0.373117 0.368583 0.130559 0.045858 0.050548 -0.031099 -0.153770 -0.069609 -0.142343 -0.010363 0.116356 0.135969 0.232263 0.237855 0.358137 0.436292 0.324882 0.366970 0.259187 0.097330 0.021702 0.026599 -0.004341 -0.020141 -0.016085 0.085095 0.102044 0.245261 0.214520 0.279835 0.343644 0.228453 0.235536 0.202581 0.114098 0.070404 0.030873 0.009657 0.027014 -0.029561 0.012096 0.171469 0.214137 0.239292 0.273580 0.242622 0.248119 0.153451 0.119573 -0.011690 -0.005324 0.001880 0.024614 0.019461 0.041026 0.116616 0.204341 0.221233 0.222925 0.131731 0.145167 0.079214 0.059555 -0.062322 -0.016883 0.000883 0.055673 0.067130 0.075598 0.149449 0.091341 0.171650 0.065983 0.051255 0.047990 0.030663 0.003238 0.004727 0.047400 0.088039 0.128035 0.134623 0.067544 0.125525 0.095507 0.009618 0.010151 0.009302 -0.001449 0.049434 0.059226 0.101004 0.094634 0.068072 0.064609 0.077574 0.031765 0.011953 -0.011279 0.004449 0.056632 0.022950 0.033757 0.078769 0.084842 0.057979 0.032757 0.013363 0.011880 -0.008447 -0.012030 0.011991 0.051941 0.106282 0.059821 0.058684 0.033995 -0.013285 -0.003656 0.018397 0.013064 0.028789 0.105802 0.061409 0.016701 0.046040 0.002374 0.029762 -0.004767 -0.002575 0.029205 0.057239 0.037474 0.042534 0.032305 0.057073 0.024673 -0.006920 0.025786 0.040455 0.046903 0.039918 0.027290 -0.004540 -0.011294 0.026553 0.008938 0.048829 0.074698 0.041273 0.027999 0.003701 -0.001086 -0.007051 0.007702 0.003220 0.010780 -0.000478 0.077505 0.043088 0.022845 0.036878 0.004058 0.009870 0.001443 -0.004235 0.043670 0.063474 0.076976 0.045770 0.038562 -0.024207 -0.001028 0.028239 0.076467 0.027203 0.031574 -0.007085 0.009882 0.049297 0.050682 0.026467 0.067444 0.054958 0.042509 -0.031351 0.009768 0.043514 0.012511 0.045473 0.067418 0.078607 0.062441 0.013187 0.005886 0.012780 -0.005107 0.027347 -0.030307 -0.022778 -0.029206 -0.035773 -0.004422 -0.007521 0.006059 -0.084760 0.004001 0.000858 -0.009463 -0.057814 -0.008306 -0.109380 -0.044470 -0.055533 0.001897 0.067555 -0.116874 -0.041607 0.030933 -0.008947 -0.061984 0.048145 0.023415 -0.051082 -0.046690 0.032404 0.247291 0.219861 0.084693 0.060617 -0.676304
0.072396 0.073046 0.074994 0.078241 0.082785 0.088625 0.095759 0.104183 0.113894 0.124887 0.137154 0.150689 0.165480 0.181515 0.198778 0.217252 0.236914 0.257738 0.279694 0.302747 0.326854 0.351971 0.378043 0.405009 0.432803 0.461347 0.490556 0.520337 0.550586 0.581190 0.612023 0.642950 0.673826 0.704493 0.734781 0.764511 0.793491 0.821518 0.848378 0.873849 0.897697 0.919682 0.939554 0.957060 0.971941 0.983936 0.992782 0.998222 0.999998 0.997862 0.991578 0.980921 0.965683 0.945678 0.920746 0.890752 0.855598 0.815220 0.769598 0.718756 0.662768 0.601760 0.535919 0.465487 0.390774 0.312151 0.230059 0.145004 0.057562 0.031627 0.121857 0.212362 0.302320 0.390857 0.477055 0.559964 0.638607 0.711993 0.779133 0.839049 0.890793 0.933461 0.966212 0.988283 0.999012 0.997849 0.984381 0.958346 0.919646 0.868368 0.804790 0.729396 0.642881 0.546154 0.440339 0.326769 0.206981 0.082695 0.044196 0.171659 0.297544 0.419621 0.535617 0.643262 0.740334 0.824708 0.894408 0.947662 0.982947 0.999049 0.995102 0.970631 0.925595 0.860407 0.775953 0.673609 0.555226 0.423119 0.280037 0.129117 0.026175 0.182116 0.334807 0.480272 0.614563 0.733870 0.834638 0.913680 0.968299 0.996382 0.996508 0.968021 0.911094 0.826769 0.716971 0.584490 0.432941 0.266686 0.090724 0.089437 0.267951 0.438812 0.596063 0.734009 0.847429 0.931802 0.983497 0.999960 0.979862 0.923204 0.831389 0.707225 0.554887 0.379804 0.188506 0.011607 0.212523 0.405940 0.583606 0.737674 0.861074 0.947857 0.993510 0.995233 0.952136 0.865364 0.738135 0.575669 0.385032 0.174857 0.045010 0.263950 0.471072 0.655766 0.808261 0.920161 0.984951 0.998421 0.958982 0.867862 0.729144 0.549660 0.338706 0.107614 0.130822 0.363034 0.575446 0.755278 0.891348 0.974805 0.999761 0.963764 0.868084 0.717764 0.521440 0.290920 0.040525 0.213756 0.455271 0.667790 0.836629 0.949696 0.998429 0.978507 0.890307 0.739039 0.534541 0.290725 0.024699 0.244383 0.496682 0.713137 0.876939 0.974896 0.998566 0.945081 0.817546 0.625000 0.381872 0.107005 0.177753 0.449244 0.684879 0.864553 0.972419 0.998375 0.939117 0.798633 0.588083 0.325035 0.032104 0.264932 0.539361 0.765953 0.923335 0.996071 0.976313 0.864751 0.670805 0.411983 0.112425 0.199261 0.492687 0.738638 0.912035 0.994587 0.976830 0.859366 0.653078 0.378295 0.062922 0.260297 0.557129 0.795495 0.948993 0.999942 0.941569 0.779049 0.529267 0.219226 0.116729 0.440641 0.715217 0.908157 0.996068 0.967456 0.824401 0.582669 0.270171 0.076095 0.414335 0.702964 0.905774 0.996587 0.962802 0.807340 0.548672 0.218829 0.140382 0.482594 0.762832 0.943505 0.999582 0.922261 0.720562 0.420530 0.062106 0.306047 0.633081 0.872998 0.991250 0.969891 0.810548 0.534641 0.180782 0.200457 0.553645 0.826548 0.977961 0.984114 0.842655 0.573501 0.216327 0.175070 0.540734 0.823719 0.979077 0.981180 0.828230 0.543077 0.170121 0.231381 0.596591 0.865575 0.993263 0.957232 0.761952 0.438617 0.040482 0.365694 0.710738 0.934915 0.998432 0.888801 0.623596 0.248035 0.172463 0.563505 0.854825 0.993083 0.951872 0.737114 0.386643 0.036109 0.453356 0.787187 0.974222 0.977871 0.795855 0.461335 0.037268 0.395167 0.751989 0.962806 0.984928 0.812378 0.477830 0.046826 0.394755 0.757680 0.967461 0.979917 0.790846 0.437699 0.007418 0.452155 0.802961 0.984868 0.957819 0.725901 0.337325 0.125178 0.561656
1.000000 1.000000 1.000000 1.000000 1.000000 1.000000 1.000000 1.000000 1.000000 1.000000 1.000000 1.000000 1.000000 1.000000 1.000000 1.000000 1.000000 1.000000 1.000000 1.000000 1.000000 1.000000 1.000000 1.000000 1.000000 1.000000 1.000000 1.000000 1.000000 1.000000 1.000000 1.000000 1.000000 1.000000 1.000000 1.000000 1.000000 1.000000 1.000000 1.000000 1.000000 1.000000 1.000000 1.000000 1.000000 1.000000 1.000000 1.000000 1.000000 1.000000 1.000000 1.000000 0.941598 0.941598 0.941598 0.941598 0.941598 0.941598 0.941598 0.941598 0.941598 0.941598 0.941598 0.941598 0.941598 0.941598 0.941598 0.941598 0.941598 0.941598 0.941598 0.941598 0.941598 0.941598 0.941598 0.941598 0.941598 0.941598 0.941598 0.941598 0.941598 0.941598 0.941598 0.941598 0.941598 0.923047 0.924518 0.927490 0.928564 0.928526 0.928068 0.927747 0.927955 0.929662 0.931974 0.948621 0.950775 0.951453 0.952756 0.952278 0.955023 0.953800 0.956727 0.965513 0.964424 0.964835 0.965372 0.966880 0.967259 0.967240 0.965861 0.966160 0.965742 0.964874 0.964004 0.963692 0.963396 0.965033 0.965379 0.965325 0.965767 0.965558 0.965252 0.961720 0.960354 0.961681 0.963444 0.962984 0.969088 0.969289 0.977916 0.978671 0.977172 0.977064 0.977172 0.977300 0.969228 0.964551 0.959692 0.948153 0.939757 0.936819 0.939017 0.939714 0.938316 0.933480 0.932643 0.930796 0.926694 0.925995 0.925806 0.927120 0.922275 0.918779 0.901463 0.900274 0.902797 0.902583 0.900519 0.892713 0.888531 0.889974 0.892910 0.896096 0.893494 0.895923 0.890867 0.891880 0.892438 0.894243 0.897438 0.893667 0.891434 0.887458 0.884021 0.878479 0.879524 0.868031 0.871131 0.862996 0.851934 0.844415 0.847462 0.857248 0.865840 0.873922 0.872878 0.873457 0.872603 0.863972 0.865006 0.852304 0.853147 0.858054 0.863914 0.861123 0.858452 0.863541 0.861611 0.863451 0.865913 0.863117 0.861221 0.851191 0.851784 0.853966 0.870289 0.871430 0.859472 0.851000 0.838887 0.845758 0.849340 0.848899 0.850402 0.843396 0.845207 0.836789 0.824562 0.826150 0.831491 0.825642 0.827712 0.827538 0.832253 0.834064 0.833061 0.828739 0.827410 0.832065 0.800448 0.808807 0.811009 0.805944 0.810317 0.803102 0.795802 0.792147 0.789494 0.787050 0.796618 0.795229 0.763113 0.758394 0.765871 0.751783 0.741873 0.738882 0.740356 0.722950 0.708179 0.676602 0.670981 0.656838 0.654005 0.652395 0.631735 0.616243 0.603180 0.591337 0.605409 0.608566 0.588078 0.588423 0.578379 0.572823 0.565884 0.562520 0.558512 0.564318 0.568891 0.536140 0.530625 0.539844 0.511717 0.510962 0.511751 0.502070 0.479770 0.486038 0.483329 0.508697 0.517512 0.477996 0.470709 0.487083 0.505084 0.516480 0.516722 0.501472 0.482988 0.491261 0.470184 0.446968 0.461413 0.470742 0.457021 0.471226 0.465814 0.495099 0.486256 0.463407 0.486506 0.472840 0.467867 0.482398 0.499613 0.499531 0.502193 0.495888 0.448191 0.467662 0.452353 0.393788 0.394721 0.401738 0.389118 0.390625 0.367192 0.365613 0.343148 0.317447 0.317554 0.309218 0.272347 0.231435 0.238121 0.240206 0.209487 0.178877 0.193662 0.148544 0.140607 0.158149 0.161425 0.159914 0.158029 0.182787 0.182787 0.182787 0.182787 0.182787 0.182787 0.182787 0.182787 0.182787 0.182787 0.182787 0.182787 0.182787 0.182787 0.208553 0.208553 0.208553 0.208553 0.208553 0.208553 0.208553 0.208553 0.208553 0.208553 0.208553 0.208553
0.000000 0.000000 0.000000 0.000000 0.000000 0.000000 0.000000 0.000000 0.000000 0.000000 0.000000 0.000000 0.000000 0.000000 0.000000 0.000000 0.000000 0.000000 0.000000 0.000000 0.000000 0.000000 0.000000 0.000000 0.000000 0.000000 0.000000 0.000000 0.000000 0.000000 0.000000 0.000000 0.000000 0.000000 0.000000 0.000000 0.000000 0.000000 0.000000 0.000000 0.000000 0.000000 0.000000 0.000000 0.000000 0.000000 0.000000 0.000000 0.000000 0.000000 0.000000 0.000000 0.209657 0.209657 0.209657 0.209657 0.209657 0.209657 0.209657 0.209657 0.209657 0.209657 0.209657 0.209657 0.209657 0.209657 0.209657 0.209657 0.209657 0.209657 0.209657 0.209657 0.209657 0.209657 0.209657 0.209657 0.209657 0.209657 0.209657 0.209657 0.209657 0.209657 0.209657 0.209657 0.209657 0.244339 0.244339 0.244339 0.244339 0.244339 0.244339 0.244339 0.244339 0.244339 0.244339 0.244339 0.244339 0.244339 0.244339 0.244339 0.244339 0.244339 0.244339 0.244339 0.244339 0.244339 0.244339 0.244339 0.244339 0.244339 0.260378 0.260378 0.260378 0.260378 0.260378 0.260378 0.260378 0.260378 0.260378 0.260378 0.260378 0.260378 0.260378 0.260378 0.260378 0.260378 0.260378 0.260378 0.260378 0.260378 0.269680 0.269680 0.269680 0.269680 0.269680 0.269680 0.269680 0.269680 0.269680 0.269680 0.269680 0.269680 0.269680 0.269680 0.269680 0.269680 0.269680 0.269680 0.269680 0.269680 0.269680 0.269680 0.269680 0.269680 0.269680 0.269680 0.269680 0.269680 0.269680 0.269680 0.269680 0.269680 0.269680 0.280056 0.280056 0.280056 0.280056 0.280056 0.280056 0.280056 0.280056 0.280056 0.280056 0.280056 0.280056 0.280056 0.280056 0.280056 0.280056 0.280056 0.280056 0.280056 0.280056 0.280056 0.280056 0.280056 0.280056 0.280056 0.280056 0.280056 0.274721 0.274721 0.274721 0.274721 0.274721 0.274721 0.274721 0.274721 0.274721 0.274721 0.274721 0.274721 0.274721 0.285714 0.285714 0.285714 0.285714 0.285714 0.285714 0.285714 0.285714 0.285714 0.285714 0.285714 0.280056 0.280056 0.280056 0.280056 0.280056 0.280056 0.280056 0.280056 0.280056 0.280056 0.280056 0.274721 0.274721 0.274721 0.274721 0.274721 0.274721 0.274721 0.274721 0.274721 0.274721 0.274721 0.280056 0.280056 0.280056 0.280056 0.280056 0.280056 0.280056 0.280056 0.280056 0.280056 0.285714 0.285714 0.285714 0.285714 0.285714 0.285714 0.285714 0.285714 0.285714 0.269680 0.269680 0.269680 0.269680 0.269680 0.269680 0.269680 0.269680 0.269680 0.269680 0.274721 0.274721 0.274721 0.274721 0.274721 0.274721 0.274721 0.274721 0.274721 0.285714 0.285714 0.285714 0.285714 0.285714 0.285714 0.285714 0.285714 0.264906 0.264906 0.264906 0.264906 0.264906 0.264906 0.264906 0.264906 0.264906 0.274721 0.274721 0.274721 0.274721 0.274721 0.274721 0.274721 0.274721 0.269680 0.269680 0.269680 0.269680 0.269680 0.269680 0.269680 0.269680 0.269680 0.269680 0.269680 0.269680 0.269680 0.269680 0.269680 0.269680 0.280056 0.280056 0.280056 0.280056 0.280056 0.280056 0.280056 0.260378 0.260378 0.260378 0.260378 0.260378 0.260378 0.260378 0.260378 0.269680 0.269680 0.269680 0.269680 0.269680 0.269680 0.269680 0.264906 0.264906 0.264906 0.264906 0.264906 0.264906 0.264906 0.264906 0.264906 0.264906 0.264906 0.264906 0.264906 0.264906 0.260378 0.260378 0.260378 0.260378 0.260378 0.260378 0.260378 0.260378 0.260378 0.260378 0.260378 0.260378
