# Output from CTFFind version 4.1.9, run on 2019-11-03 20:06:05
# Input file: stack6_bm3d_averaged_1_6.5_0_1000_half.mrc ; Number of micrographs: 1
# Pixel size: 3.000 Angstroms ; acceleration voltage: 300.0 keV ; spherical aberration: 0.00 mm ; amplitude contrast: 0.07
# Box size: 512 pixels ; min. res.: 30.0 Angstroms ; max. res.: 5.0 Angstroms ; min. def.: 5000.0 um; max. def. 50000.0 um; num. frames averaged: 1
# 6 lines per micrograph: #1 - spatial frequency (1/Angstroms); #2 - 1D rotational average of spectrum (assuming no astigmatism); #3 - 1D rotational average of spectrum; #4 - CTF fit; #5 - cross-correlation between spectrum and CTF fit; #6 - 2sigma of expected cross correlation of noise
0.000000 0.000651 0.001302 0.001953 0.002604 0.003255 0.003906 0.004557 0.005208 0.005859 0.006510 0.007161 0.007812 0.008464 0.009115 0.009766 0.010417 0.011068 0.011719 0.012370 0.013021 0.013672 0.014323 0.014974 0.015625 0.016276 0.016927 0.017578 0.018229 0.018880 0.019531 0.020182 0.020833 0.021484 0.022135 0.022786 0.023438 0.024089 0.024740 0.025391 0.026042 0.026693 0.027344 0.027995 0.028646 0.029297 0.029948 0.030599 0.031250 0.031901 0.032552 0.033203 0.033854 0.034505 0.035156 0.035807 0.036458 0.037109 0.037760 0.038411 0.039062 0.039714 0.040365 0.041016 0.041667 0.042318 0.042969 0.043620 0.044271 0.044922 0.045573 0.046224 0.046875 0.047526 0.048177 0.048828 0.049479 0.050130 0.050781 0.051432 0.052083 0.052734 0.053385 0.054036 0.054688 0.055339 0.055990 0.056641 0.057292 0.057943 0.058594 0.059245 0.059896 0.060547 0.061198 0.061849 0.062500 0.063151 0.063802 0.064453 0.065104 0.065755 0.066406 0.067057 0.067708 0.068359 0.069010 0.069661 0.070312 0.070964 0.071615 0.072266 0.072917 0.073568 0.074219 0.074870 0.075521 0.076172 0.076823 0.077474 0.078125 0.078776 0.079427 0.080078 0.080729 0.081380 0.082031 0.082682 0.083333 0.083984 0.084635 0.085286 0.085938 0.086589 0.087240 0.087891 0.088542 0.089193 0.089844 0.090495 0.091146 0.091797 0.092448 0.093099 0.093750 0.094401 0.095052 0.095703 0.096354 0.097005 0.097656 0.098307 0.098958 0.099609 0.100260 0.100911 0.101562 0.102214 0.102865 0.103516 0.104167 0.104818 0.105469 0.106120 0.106771 0.107422 0.108073 0.108724 0.109375 0.110026 0.110677 0.111328 0.111979 0.112630 0.113281 0.113932 0.114583 0.115234 0.115885 0.116536 0.117188 0.117839 0.118490 0.119141 0.119792 0.120443 0.121094 0.121745 0.122396 0.123047 0.123698 0.124349 0.125000 0.125651 0.126302 0.126953 0.127604 0.128255 0.128906 0.129557 0.130208 0.130859 0.131510 0.132161 0.132812 0.133464 0.134115 0.134766 0.135417 0.136068 0.136719 0.137370 0.138021 0.138672 0.139323 0.139974 0.140625 0.141276 0.141927 0.142578 0.143229 0.143880 0.144531 0.145182 0.145833 0.146484 0.147135 0.147786 0.148438 0.149089 0.149740 0.150391 0.151042 0.151693 0.152344 0.152995 0.153646 0.154297 0.154948 0.155599 0.156250 0.156901 0.157552 0.158203 0.158854 0.159505 0.160156 0.160807 0.161458 0.162109 0.162760 0.163411 0.164062 0.164714 0.165365 0.166016 0.166667 0.167318 0.167969 0.168620 0.169271 0.169922 0.170573 0.171224 0.171875 0.172526 0.173177 0.173828 0.174479 0.175130 0.175781 0.176432 0.177083 0.177734 0.178385 0.179036 0.179688 0.180339 0.180990 0.181641 0.182292 0.182943 0.183594 0.184245 0.184896 0.185547 0.186198 0.186849 0.187500 0.188151 0.188802 0.189453 0.190104 0.190755 0.191406 0.192057 0.192708 0.193359 0.194010 0.194661 0.195312 0.195964 0.196615 0.197266 0.197917 0.198568 0.199219 0.199870 0.200521 0.201172 0.201823 0.202474 0.203125 0.203776 0.204427 0.205078 0.205729 0.206380 0.207031 0.207682 0.208333 0.208984 0.209635 0.210286 0.210938 0.211589 0.212240 0.212891 0.213542 0.214193 0.214844 0.215495 0.216146 0.216797 0.217448 0.218099 0.218750 0.219401 0.220052 0.220703 0.221354 0.222005 0.222656 0.223307 0.223958 0.224609 0.225260 0.225911 0.226562 0.227214 0.227865 0.228516 0.229167 0.229818 0.230469 0.231120 0.231771 0.232422 0.233073 0.233724 0.234375 0.235026 0.235677
       0.32499        0.32498        0.32499        0.32498        0.32499        0.32498        0.32499        0.32498        0.32499        0.32498        0.32498        0.32499        0.32499        0.32498        0.32499        0.32498        0.32499        0.32498        0.32499        0.32499        0.32498        0.32498        0.32498        0.32499        0.32498        0.32499        0.32498        0.32499        0.32498        0.32499        0.32498        0.32498        0.32498        0.32498        0.32498        0.32498        0.32499        0.32498        0.32498        0.32498        0.32498        0.32499        0.32498        0.32498        0.32498        0.32499        0.32499        0.32499        0.32498        0.32499        0.32499        0.59748        0.71389        0.36188        0.17620        0.13516       -0.13589        0.11138        0.03708        0.03975        0.09267        0.30848        0.31319        0.24011        0.14332       -0.03828       -0.01149        0.04806       -0.10320       -0.11000       -0.07407       -0.08464       -0.19056       -0.12309       -0.23460       -0.25316       -0.24933       -0.31020       -0.38427       -0.31635       -0.22383       -0.19169       -0.29622       -0.21724       -0.26315       -0.20469       -0.13792       -0.08141       -0.05022        0.01040        0.05376        0.14234        0.18421        0.22532        0.34334        0.40955        0.35879        0.47493        0.54553        0.55414        0.63355        0.56088        0.59089        0.60124        0.60620        0.60319        0.55718        0.58833        0.54437        0.39370        0.34424        0.37342        0.34436        0.20528        0.18857        0.16047        0.10522        0.10682        0.03049        0.09145        0.07239        0.03413        0.11986        0.17803        0.26903        0.35224        0.35789        0.38552        0.44851        0.48459        0.41939        0.64344        0.54569        0.48191        0.57146        0.50066        0.54988        0.51195        0.38154        0.31915        0.30073        0.25258        0.24250        0.20826        0.18875        0.16145        0.24686        0.22554        0.25466        0.22338        0.27256        0.33082        0.33811        0.44837        0.44231        0.42358        0.41897        0.47592        0.43514        0.42184        0.40094        0.40047        0.33732        0.28514        0.26513        0.26234        0.26128        0.20739        0.18814        0.24185        0.25487        0.28297        0.34998        0.37700        0.42362        0.40700        0.42989        0.47801        0.46578        0.42924        0.38700        0.41667        0.37528        0.32771        0.33592        0.32341        0.26556        0.28059        0.27764        0.24858        0.31587        0.29144        0.30966        0.33088        0.39068        0.41672        0.41012        0.43810        0.38405        0.42533        0.39700        0.32038        0.29438        0.26086        0.27583        0.24262        0.21490        0.30613        0.36563        0.33032        0.30307        0.35793        0.28040        0.33903        0.39388        0.38227        0.36398        0.38206        0.33941        0.35805        0.33602        0.29869        0.28515        0.25644        0.30998        0.32288        0.33778        0.35542        0.38511        0.37233        0.37268        0.32534        0.35267        0.35488        0.33735        0.32705        0.29374        0.28826        0.26321        0.33520        0.33486        0.33765        0.30772        0.34273        0.35538        0.33589        0.35372        0.33988        0.30609        0.30113        0.30376        0.27461        0.26195        0.25265        0.24988        0.26940        0.25984        0.30031        0.28145        0.32010        0.34615        0.26306        0.29715        0.28087        0.23251        0.28597        0.26819        0.26806        0.29611        0.32015        0.31964        0.31083        0.30971        0.30620        0.33681        0.34955        0.29590        0.32397        0.31806        0.36763        0.28351        0.27491        0.28210        0.30853        0.32702        0.34992        0.35582        0.30170        0.23269        0.29591        0.25897        0.25320        0.25550        0.26158        0.29693        0.22914        0.30118        0.32424        0.36118        0.31538        0.30309        0.26829        0.28952        0.28981        0.25092        0.27377        0.27388        0.29831        0.34636        0.33630        0.28962        0.30627        0.32914        0.26315        0.23238        0.18636        0.31853        0.33473        0.34935        0.32975        0.29817        0.23265        0.21524        0.26014        0.26042        0.26345        0.28182        0.28953        0.24271        0.26524        0.25792        0.30424        0.27091        0.26571        0.26695        0.25283        0.20329        0.26156        0.24506        0.22095        0.27892        0.25030        0.25980        0.21912        0.20379        0.27074        0.26651        0.25624        0.17876        0.14984        0.31387        0.22335        0.22943        0.27741        0.17138        0.16303        0.17973        0.25306        0.24356        0.12805       -0.07315       -0.59217       -0.94304
2.375226 2.355045 2.334953 2.314952 2.295040 2.275218 2.255486 2.235844 2.216292 2.196830 2.177458 2.158175 2.138983 2.119880 2.100867 2.081944 2.063111 2.044368 2.025715 2.007152 1.988678 1.970295 1.952001 1.933797 1.915683 1.897659 1.879725 1.861881 1.844126 1.826462 1.808887 1.791402 1.774007 1.756702 1.739487 1.722362 1.705327 1.688381 1.671526 1.654760 1.638084 1.621498 1.605002 1.588596 1.572280 1.556053 1.539917 1.523870 1.507914 1.492047 1.476270 1.836207 2.172337 1.505040 1.329143 1.093609 0.521926 0.923959 0.813687 0.839234 0.702719 1.400998 1.198112 1.213204 0.980447 0.612686 0.477816 0.747945 0.589109 0.268757 0.284402 0.484761 0.238289 0.259429 0.110357 -0.001057 -0.014948 -0.008399 -0.311416 -0.156478 0.006854 -0.012770 -0.088587 -0.016179 -0.116221 -0.099133 0.066097 0.182856 0.249072 0.278572 0.373180 0.617410 0.555712 0.647662 0.824881 1.043204 0.800136 1.237516 1.177579 1.250416 1.353487 1.249445 1.168822 1.348009 1.222234 1.345959 1.187100 1.165304 1.206756 0.957213 0.688232 0.739455 0.787273 0.483583 0.425938 0.365791 0.222525 0.196102 0.039256 0.209793 0.165116 0.041319 0.123314 0.230055 0.349877 0.607348 0.604611 0.597668 0.696578 0.878282 0.586351 1.023612 1.036452 0.766740 0.922396 0.762501 0.861711 0.899505 0.631610 0.397159 0.418614 0.362910 0.218439 0.215177 0.167668 -0.012154 0.229331 0.198817 0.251686 0.139863 0.256908 0.330131 0.283270 0.498233 0.599123 0.535959 0.362368 0.660958 0.554544 0.444922 0.525015 0.440164 0.287712 0.326225 0.128944 0.205466 0.032441 0.211235 -0.061821 0.057391 0.055617 0.253520 0.067223 0.393334 0.340416 0.394720 0.389356 0.409033 0.576934 0.406337 0.365666 0.418085 0.210549 0.344891 0.128696 0.268795 0.071715 0.105172 0.090770 0.074608 0.049377 0.161312 0.066643 0.156766 0.242287 0.282891 0.336988 0.269839 0.346739 0.263151 0.295537 0.179188 0.102350 0.026277 -0.010236 0.020947 -0.077304 -0.063646 0.120573 0.213202 0.066213 0.111930 0.116847 0.014875 0.181330 0.248598 0.189775 0.203783 0.136678 0.156422 0.114833 0.106448 0.052000 -0.081638 -0.014879 0.141392 0.032613 0.144854 0.122801 0.226085 0.199162 0.175790 0.116093 0.190660 0.105469 0.133708 0.108521 0.037028 -0.009069 0.003104 0.134202 0.132028 0.120637 0.058793 0.152663 0.136321 0.057660 0.140208 0.047101 -0.008469 0.025074 0.004413 -0.054382 -0.066900 -0.109458 -0.042486 -0.056861 -0.087160 0.018883 -0.014326 0.066144 0.090081 -0.086735 0.045126 -0.045953 -0.107776 0.038738 -0.047564 -0.068730 0.038462 0.088864 0.030383 0.062273 -0.037148 0.040175 0.162917 0.000261 -0.025827 0.089501 0.043180 0.124729 -0.077646 -0.041283 -0.022269 0.071627 0.048519 0.083556 0.144026 -0.018031 -0.098474 0.010290 -0.060783 -0.065045 -0.049864 -0.058097 0.031171 -0.169874 0.112708 0.093481 0.181690 0.040203 0.015101 0.004279 0.024249 0.074243 -0.056495 0.028554 0.007722 0.083079 0.122679 0.167716 0.056570 0.123909 0.176947 -0.038859 -0.000845 -0.154894 0.201830 0.153589 0.193791 0.149436 0.051990 -0.050365 -0.083922 -0.013877 0.001810 -0.004202 0.036313 0.068873 -0.058884 -0.000955 0.062311 0.084395 0.052585 0.032393 0.060441 -0.045572 -0.042265 0.037444 0.007806 -0.060426 0.099898 0.013974 -0.009878 0.002716 -0.049799 0.091977 0.129620 0.028222 -0.080598 -0.266471 0.313246 0.501452 0.396451 0.558239 0.268390 0.310617 0.322655 0.535793 0.461191 0.182196 0.129753 -0.872587
0.072396 0.072838 0.074163 0.076371 0.079462 0.083435 0.088289 0.094022 0.100634 0.108122 0.116484 0.125716 0.135815 0.146776 0.158594 0.171262 0.184772 0.199116 0.214282 0.230259 0.247032 0.264586 0.282903 0.301961 0.321739 0.342209 0.363344 0.385111 0.407474 0.430396 0.453833 0.477738 0.502061 0.526747 0.551735 0.576960 0.602354 0.627843 0.653346 0.678779 0.704051 0.729069 0.753731 0.777931 0.801559 0.824499 0.846629 0.867825 0.887956 0.906890 0.924488 0.940610 0.955112 0.967851 0.978680 0.987451 0.994019 0.998237 0.999964 0.999060 0.995388 0.988821 0.979236 0.966518 0.950564 0.931282 0.908590 0.882425 0.852736 0.819493 0.782682 0.742313 0.698416 0.651047 0.600285 0.546238 0.489041 0.428857 0.365881 0.300336 0.232478 0.162594 0.091002 0.018050 0.055883 0.130388 0.205031 0.279348 0.352856 0.425047 0.495396 0.563366 0.628407 0.689964 0.747479 0.800402 0.848190 0.890315 0.926273 0.955588 0.977820 0.992569 0.999485 0.998277 0.988713 0.970632 0.943948 0.908657 0.864842 0.812675 0.752424 0.684454 0.609231 0.527317 0.439375 0.346165 0.248540 0.147440 0.043885 0.061028 0.166143 0.270251 0.372106 0.470437 0.563965 0.651424 0.731572 0.803218 0.865233 0.916578 0.956321 0.983654 0.997916 0.998607 0.985407 0.958192 0.917039 0.862242 0.794319 0.714007 0.622269 0.520285 0.409446 0.291336 0.167716 0.040506 0.088250 0.216406 0.341757 0.462066 0.575119 0.678750 0.770902 0.849658 0.913296 0.960323 0.989521 0.999980 0.991137 0.962795 0.915150 0.848800 0.764752 0.664419 0.549605 0.422480 0.285552 0.141622 0.006269 0.154897 0.300927 0.440980 0.571721 0.689935 0.792613 0.877034 0.940842 0.982127 0.999484 0.992074 0.959665 0.902665 0.822136 0.719788 0.597962 0.459586 0.308120 0.147478 0.018066 0.183983 0.345614 0.498297 0.637510 0.759000 0.858929 0.934004 0.981593 0.999836 0.987727 0.945176 0.873050 0.773168 0.648289 0.502048 0.338864 0.163824 0.017463 0.199040 0.374797 0.538674 0.684877 0.808085 0.903659 0.967832 0.997874 0.992225 0.950588 0.873990 0.764777 0.626575 0.464192 0.283467 0.091080 0.105682 0.299199 0.481803 0.646095 0.785242 0.893285 0.965408 0.998170 0.989698 0.939809 0.850073 0.723801 0.565943 0.382939 0.182460 0.026882 0.235900 0.435226 0.615737 0.768976 0.887568 0.965597 0.998919 0.985421 0.925170 0.820481 0.675864 0.497862 0.294798 0.076395 0.146661 0.363236 0.562304 0.733521 0.867767 0.957665 0.998014 0.986118 0.922006 0.808499 0.651135 0.457938 0.239048 0.006209 0.227834 0.450029 0.647754 0.809529 0.925727 0.989163 0.995583 0.943987 0.836772 0.679681 0.481538 0.253798 0.009912 0.235431 0.467203 0.670938 0.833664 0.944749 0.996643 0.985427 0.911160 0.777971 0.593885 0.370404 0.121820 0.135662 0.384967 0.609279 0.793179 0.923751 0.991510 0.991152 0.922021 0.788260 0.598637 0.366026 0.106581 0.161341 0.418481 0.646035 0.827068 0.947796 0.998685 0.975268 0.878586 0.715243 0.497021 0.240102 0.036101 0.310362 0.561273 0.768927 0.916516 0.991754 0.987952 0.904681 0.747947 0.529842 0.267673 0.017345 0.301778 0.561874 0.775578 0.924413 0.995148 0.981031 0.882517 0.707374 0.470168 0.191118 0.105567 0.393759 0.647693 0.844311 0.965377 0.999256 0.942097 0.798357 0.580554 0.308267 0.006448 0.296823 0.572914 0.795383 0.942524 0.999570 0.960250 0.827572 0.613716 0.339009 0.030078 0.282680 0.568056 0.797160 0.946401 0.999962
1.000000 1.000000 1.000000 1.000000 1.000000 1.000000 1.000000 1.000000 1.000000 1.000000 1.000000 1.000000 1.000000 1.000000 1.000000 1.000000 1.000000 1.000000 1.000000 1.000000 1.000000 1.000000 1.000000 1.000000 1.000000 1.000000 1.000000 1.000000 1.000000 1.000000 1.000000 1.000000 1.000000 1.000000 1.000000 1.000000 1.000000 1.000000 1.000000 1.000000 1.000000 1.000000 1.000000 1.000000 1.000000 1.000000 1.000000 1.000000 1.000000 1.000000 1.000000 1.000000 0.777590 0.777590 0.777590 0.777590 0.777590 0.777590 0.777590 0.760344 0.760344 0.760344 0.760344 0.760344 0.760344 0.760344 0.760344 0.760344 0.760344 0.760344 0.760344 0.760344 0.760344 0.760344 0.760344 0.760344 0.760344 0.760344 0.760344 0.760344 0.760344 0.760344 0.760344 0.760344 0.760344 0.760344 0.760344 0.760344 0.760344 0.760344 0.760344 0.760344 0.760344 0.760344 0.760344 0.760344 0.760344 0.760344 0.760344 0.760344 0.760344 0.760344 0.760344 0.902420 0.903856 0.906847 0.902244 0.904157 0.902019 0.895580 0.898515 0.898330 0.898153 0.899205 0.900832 0.902808 0.910136 0.919037 0.920908 0.927917 0.931377 0.932512 0.932392 0.931044 0.938544 0.936099 0.934340 0.922443 0.925797 0.927668 0.928600 0.927413 0.927529 0.928792 0.929422 0.927321 0.925513 0.923341 0.921578 0.923169 0.922378 0.922563 0.922725 0.922901 0.922803 0.923383 0.919528 0.921784 0.920662 0.917086 0.913686 0.913211 0.914289 0.912637 0.909433 0.903747 0.910014 0.910429 0.910565 0.909456 0.909664 0.910016 0.910740 0.911347 0.908585 0.908630 0.906191 0.908029 0.904425 0.900007 0.895007 0.895350 0.897057 0.903638 0.905700 0.904529 0.902194 0.895559 0.886020 0.885013 0.872159 0.839971 0.841928 0.845386 0.847802 0.848735 0.848249 0.845354 0.840432 0.830606 0.820854 0.825237 0.826097 0.817818 0.811927 0.812760 0.812459 0.819764 0.824037 0.816339 0.813726 0.813179 0.809065 0.808670 0.809565 0.806454 0.801258 0.804465 0.812673 0.813148 0.798985 0.793129 0.790432 0.775429 0.780004 0.786494 0.790214 0.791726 0.788351 0.776071 0.773900 0.767511 0.777951 0.786529 0.785126 0.780533 0.761764 0.719208 0.707732 0.687484 0.689763 0.691191 0.664941 0.662921 0.664339 0.669250 0.616508 0.599340 0.586831 0.586814 0.594155 0.599066 0.592788 0.562272 0.580548 0.578099 0.563140 0.559090 0.533670 0.518338 0.489686 0.492315 0.490617 0.477860 0.452954 0.447879 0.465181 0.474620 0.471273 0.468605 0.439939 0.419719 0.422061 0.417380 0.418970 0.421548 0.430256 0.379529 0.355518 0.339153 0.366313 0.367713 0.366628 0.379266 0.376255 0.371320 0.349017 0.329344 0.311325 0.323996 0.344078 0.350473 0.354018 0.319007 0.306202 0.285853 0.291232 0.335288 0.322372 0.333748 0.333165 0.337897 0.364553 0.341932 0.318805 0.295803 0.338208 0.332176 0.313234 0.293092 0.303865 0.323176 0.324801 0.320251 0.312718 0.359854 0.383758 0.368963 0.371500 0.338359 0.365849 0.403933 0.394656 0.396146 0.409245 0.409326 0.390417 0.343351 0.324174 0.325507 0.300826 0.298138 0.281546 0.266604 0.257944 0.268051 0.290255 0.295991 0.329438 0.302680 0.266834 0.173178 0.242828 0.161494 0.168045 0.168045 0.168045 0.168045 0.168045 0.168045 0.168045 0.168045 0.193281 0.193281 0.193281 0.193281 0.193281 0.193281 0.193281 0.193281 0.193281 0.193281 0.193281 0.193281 0.193281 0.193281 0.193281 0.193281 0.193281 0.193281 0.193281 0.193281 0.193281
0.000000 0.000000 0.000000 0.000000 0.000000 0.000000 0.000000 0.000000 0.000000 0.000000 0.000000 0.000000 0.000000 0.000000 0.000000 0.000000 0.000000 0.000000 0.000000 0.000000 0.000000 0.000000 0.000000 0.000000 0.000000 0.000000 0.000000 0.000000 0.000000 0.000000 0.000000 0.000000 0.000000 0.000000 0.000000 0.000000 0.000000 0.000000 0.000000 0.000000 0.000000 0.000000 0.000000 0.000000 0.000000 0.000000 0.000000 0.000000 0.000000 0.000000 0.000000 0.000000 0.173422 0.173422 0.173422 0.173422 0.173422 0.173422 0.173422 0.191565 0.191565 0.191565 0.191565 0.191565 0.191565 0.191565 0.191565 0.191565 0.191565 0.191565 0.191565 0.191565 0.191565 0.191565 0.191565 0.191565 0.191565 0.191565 0.191565 0.191565 0.191565 0.191565 0.191565 0.191565 0.191565 0.191565 0.191565 0.191565 0.191565 0.191565 0.191565 0.191565 0.191565 0.191565 0.191565 0.191565 0.191565 0.191565 0.191565 0.191565 0.191565 0.191565 0.191565 0.222222 0.222222 0.222222 0.222222 0.222222 0.222222 0.222222 0.222222 0.222222 0.222222 0.222222 0.222222 0.222222 0.222222 0.222222 0.222222 0.222222 0.222222 0.222222 0.222222 0.222222 0.222222 0.222222 0.222222 0.222222 0.222222 0.222222 0.222222 0.222222 0.222222 0.234082 0.234082 0.234082 0.234082 0.234082 0.234082 0.234082 0.234082 0.234082 0.234082 0.234082 0.234082 0.234082 0.234082 0.234082 0.234082 0.234082 0.234082 0.234082 0.234082 0.234082 0.234082 0.234082 0.234082 0.234082 0.244339 0.244339 0.244339 0.244339 0.244339 0.244339 0.244339 0.244339 0.244339 0.244339 0.244339 0.244339 0.244339 0.244339 0.244339 0.244339 0.244339 0.244339 0.244339 0.244339 0.244339 0.248069 0.248069 0.248069 0.248069 0.248069 0.248069 0.248069 0.248069 0.248069 0.248069 0.248069 0.248069 0.248069 0.248069 0.248069 0.248069 0.248069 0.248069 0.248069 0.256074 0.256074 0.256074 0.256074 0.256074 0.256074 0.256074 0.256074 0.256074 0.256074 0.256074 0.256074 0.256074 0.256074 0.256074 0.256074 0.256074 0.256074 0.256074 0.256074 0.256074 0.256074 0.256074 0.256074 0.256074 0.256074 0.256074 0.256074 0.256074 0.256074 0.256074 0.256074 0.256074 0.256074 0.256074 0.256074 0.256074 0.256074 0.256074 0.256074 0.256074 0.256074 0.256074 0.256074 0.256074 0.256074 0.256074 0.256074 0.256074 0.256074 0.256074 0.256074 0.256074 0.256074 0.256074 0.256074 0.256074 0.256074 0.256074 0.256074 0.256074 0.256074 0.260378 0.260378 0.260378 0.260378 0.260378 0.260378 0.260378 0.260378 0.260378 0.260378 0.260378 0.260378 0.260378 0.256074 0.256074 0.256074 0.256074 0.256074 0.256074 0.256074 0.256074 0.256074 0.256074 0.256074 0.256074 0.256074 0.260378 0.260378 0.260378 0.260378 0.260378 0.260378 0.260378 0.260378 0.260378 0.260378 0.260378 0.260378 0.251976 0.251976 0.251976 0.251976 0.251976 0.251976 0.251976 0.251976 0.251976 0.251976 0.251976 0.251976 0.256074 0.256074 0.256074 0.256074 0.256074 0.256074 0.256074 0.256074 0.256074 0.256074 0.256074 0.251976 0.251976 0.251976 0.251976 0.251976 0.251976 0.251976 0.251976 0.251976 0.251976 0.251976 0.260378 0.260378 0.260378 0.260378 0.260378 0.260378 0.260378 0.260378 0.260378 0.260378 0.244339 0.244339 0.244339 0.244339 0.244339 0.244339 0.244339 0.244339 0.244339 0.244339 0.244339 0.244339 0.244339 0.244339 0.244339 0.244339 0.244339 0.244339 0.244339 0.244339 0.244339
