# Output from CTFFind version 4.1.9, run on 2019-11-03 20:09:01
# Input file: stack11_bm3d_averaged_1_6.5_0_2000_half.mrc ; Number of micrographs: 1
# Pixel size: 3.000 Angstroms ; acceleration voltage: 300.0 keV ; spherical aberration: 0.00 mm ; amplitude contrast: 0.07
# Box size: 512 pixels ; min. res.: 30.0 Angstroms ; max. res.: 5.0 Angstroms ; min. def.: 5000.0 um; max. def. 50000.0 um; num. frames averaged: 1
# 6 lines per micrograph: #1 - spatial frequency (1/Angstroms); #2 - 1D rotational average of spectrum (assuming no astigmatism); #3 - 1D rotational average of spectrum; #4 - CTF fit; #5 - cross-correlation between spectrum and CTF fit; #6 - 2sigma of expected cross correlation of noise
0.000000 0.000651 0.001302 0.001953 0.002604 0.003255 0.003906 0.004557 0.005208 0.005859 0.006510 0.007161 0.007812 0.008464 0.009115 0.009766 0.010417 0.011068 0.011719 0.012370 0.013021 0.013672 0.014323 0.014974 0.015625 0.016276 0.016927 0.017578 0.018229 0.018880 0.019531 0.020182 0.020833 0.021484 0.022135 0.022786 0.023438 0.024089 0.024740 0.025391 0.026042 0.026693 0.027344 0.027995 0.028646 0.029297 0.029948 0.030599 0.031250 0.031901 0.032552 0.033203 0.033854 0.034505 0.035156 0.035807 0.036458 0.037109 0.037760 0.038411 0.039062 0.039714 0.040365 0.041016 0.041667 0.042318 0.042969 0.043620 0.044271 0.044922 0.045573 0.046224 0.046875 0.047526 0.048177 0.048828 0.049479 0.050130 0.050781 0.051432 0.052083 0.052734 0.053385 0.054036 0.054688 0.055339 0.055990 0.056641 0.057292 0.057943 0.058594 0.059245 0.059896 0.060547 0.061198 0.061849 0.062500 0.063151 0.063802 0.064453 0.065104 0.065755 0.066406 0.067057 0.067708 0.068359 0.069010 0.069661 0.070312 0.070964 0.071615 0.072266 0.072917 0.073568 0.074219 0.074870 0.075521 0.076172 0.076823 0.077474 0.078125 0.078776 0.079427 0.080078 0.080729 0.081380 0.082031 0.082682 0.083333 0.083984 0.084635 0.085286 0.085938 0.086589 0.087240 0.087891 0.088542 0.089193 0.089844 0.090495 0.091146 0.091797 0.092448 0.093099 0.093750 0.094401 0.095052 0.095703 0.096354 0.097005 0.097656 0.098307 0.098958 0.099609 0.100260 0.100911 0.101562 0.102214 0.102865 0.103516 0.104167 0.104818 0.105469 0.106120 0.106771 0.107422 0.108073 0.108724 0.109375 0.110026 0.110677 0.111328 0.111979 0.112630 0.113281 0.113932 0.114583 0.115234 0.115885 0.116536 0.117188 0.117839 0.118490 0.119141 0.119792 0.120443 0.121094 0.121745 0.122396 0.123047 0.123698 0.124349 0.125000 0.125651 0.126302 0.126953 0.127604 0.128255 0.128906 0.129557 0.130208 0.130859 0.131510 0.132161 0.132812 0.133464 0.134115 0.134766 0.135417 0.136068 0.136719 0.137370 0.138021 0.138672 0.139323 0.139974 0.140625 0.141276 0.141927 0.142578 0.143229 0.143880 0.144531 0.145182 0.145833 0.146484 0.147135 0.147786 0.148438 0.149089 0.149740 0.150391 0.151042 0.151693 0.152344 0.152995 0.153646 0.154297 0.154948 0.155599 0.156250 0.156901 0.157552 0.158203 0.158854 0.159505 0.160156 0.160807 0.161458 0.162109 0.162760 0.163411 0.164062 0.164714 0.165365 0.166016 0.166667 0.167318 0.167969 0.168620 0.169271 0.169922 0.170573 0.171224 0.171875 0.172526 0.173177 0.173828 0.174479 0.175130 0.175781 0.176432 0.177083 0.177734 0.178385 0.179036 0.179688 0.180339 0.180990 0.181641 0.182292 0.182943 0.183594 0.184245 0.184896 0.185547 0.186198 0.186849 0.187500 0.188151 0.188802 0.189453 0.190104 0.190755 0.191406 0.192057 0.192708 0.193359 0.194010 0.194661 0.195312 0.195964 0.196615 0.197266 0.197917 0.198568 0.199219 0.199870 0.200521 0.201172 0.201823 0.202474 0.203125 0.203776 0.204427 0.205078 0.205729 0.206380 0.207031 0.207682 0.208333 0.208984 0.209635 0.210286 0.210938 0.211589 0.212240 0.212891 0.213542 0.214193 0.214844 0.215495 0.216146 0.216797 0.217448 0.218099 0.218750 0.219401 0.220052 0.220703 0.221354 0.222005 0.222656 0.223307 0.223958 0.224609 0.225260 0.225911 0.226562 0.227214 0.227865 0.228516 0.229167 0.229818 0.230469 0.231120 0.231771 0.232422 0.233073 0.233724 0.234375 0.235026 0.235677
       0.34470        0.34470        0.34470        0.34470        0.34470        0.34470        0.34470        0.34470        0.34470        0.34470        0.34470        0.34470        0.34470        0.34470        0.34470        0.34470        0.34470        0.34470        0.34470        0.34470        0.34470        0.34470        0.34470        0.34470        0.34470        0.34470        0.34470        0.34470        0.34470        0.34470        0.34470        0.34470        0.34470        0.34470        0.34470        0.34470        0.34470        0.34470        0.34470        0.34470        0.34470        0.34470        0.34470        0.34470        0.34470        0.34470        0.34470        0.34470        0.34470        0.34470        0.34470        0.69884        0.85767        0.53803        0.10540       -0.02910       -0.38643       -0.18019       -0.28835       -0.11579       -0.05515       -0.11245       -0.05318       -0.16700       -0.20575       -0.21395       -0.30708       -0.31847       -0.44416       -0.36202       -0.42610       -0.42108       -0.39393       -0.40753       -0.44738       -0.50795       -0.55866       -0.55017       -0.52448       -0.35669       -0.32638       -0.29153       -0.27150       -0.18566       -0.16999        0.06126        0.14181        0.17484        0.26601        0.38169        0.45787        0.52323        0.60054        0.59789        0.58430        0.70013        0.80338        0.70332        0.74424        0.61988        0.56875        0.48365        0.43256        0.51226        0.39764        0.27117        0.11658        0.11294        0.09334       -0.01377        0.04438        0.05236        0.01131        0.02806        0.03053        0.23722        0.27166        0.29671        0.43522        0.45369        0.41464        0.59981        0.61920        0.63590        0.72461        0.67642        0.64718        0.65659        0.56025        0.46094        0.41906        0.30382        0.26973        0.18456        0.13661        0.05257        0.06550        0.07532        0.09986        0.15963        0.24546        0.29777        0.42183        0.46545        0.48141        0.56502        0.60274        0.63682        0.61548        0.55852        0.46205        0.47379        0.37894        0.27741        0.21226        0.15669        0.17283        0.15362        0.16059        0.18978        0.32304        0.33749        0.40690        0.44621        0.42636        0.48102        0.56353        0.55517        0.50299        0.45773        0.41376        0.37271        0.34204        0.30946        0.26479        0.24740        0.25438        0.25652        0.22623        0.31011        0.36473        0.38489        0.43959        0.45644        0.46806        0.42739        0.41203        0.40230        0.36333        0.33688        0.27491        0.28091        0.26904        0.24625        0.29575        0.29301        0.35233        0.38308        0.43453        0.47681        0.40734        0.42298        0.43285        0.41187        0.35031        0.32867        0.29330        0.32659        0.27590        0.32328        0.31559        0.33335        0.34167        0.36488        0.31459        0.38893        0.41251        0.38106        0.35206        0.37000        0.31909        0.29556        0.30804        0.32060        0.30832        0.32061        0.34486        0.35709        0.34128        0.36472        0.36360        0.42281        0.39046        0.33983        0.34876        0.30007        0.29430        0.32678        0.32047        0.33109        0.34331        0.34259        0.38769        0.33147        0.33050        0.33907        0.34879        0.30522        0.31309        0.28215        0.30353        0.33127        0.30519        0.33203        0.35853        0.36985        0.29895        0.34235        0.29979        0.29429        0.27972        0.24731        0.30739        0.30739        0.34298        0.33982        0.34454        0.32782        0.34998        0.31524        0.34659        0.30739        0.32532        0.29163        0.33702        0.33036        0.37207        0.33055        0.33659        0.33825        0.29385        0.27600        0.31271        0.25044        0.22938        0.34142        0.32338        0.36744        0.34772        0.36349        0.33553        0.33486        0.35105        0.26629        0.26819        0.31921        0.30190        0.31167        0.31584        0.33980        0.32944        0.28970        0.29087        0.34590        0.32255        0.32147        0.29828        0.32255        0.33868        0.39403        0.36231        0.31968        0.28321        0.30414        0.29022        0.30650        0.27820        0.27044        0.31284        0.33058        0.34607        0.35620        0.33183        0.29555        0.30170        0.27099        0.27854        0.25668        0.30753        0.26256        0.24770        0.29191        0.28689        0.26309        0.29492        0.21919        0.21569        0.24007        0.19276        0.27223        0.34856        0.25293        0.24168        0.31847        0.30348        0.31076        0.31457        0.27247        0.25182        0.19296        0.21080        0.20695        0.27820        0.23703        0.28443        0.36435        0.36707        0.25389        0.17429        0.11904       -0.01423       -0.12389       -0.62242
2.801337 2.771613 2.742051 2.712651 2.683413 2.654336 2.625422 2.596670 2.568079 2.539650 2.511383 2.483278 2.455335 2.427554 2.399934 2.372477 2.345181 2.318047 2.291075 2.264265 2.237617 2.211130 2.184806 2.158643 2.132642 2.106803 2.081127 2.055611 2.030258 2.005067 1.980037 1.955169 1.930464 1.905920 1.881538 1.857317 1.833259 1.809363 1.785628 1.762055 1.738644 1.715395 1.692308 1.669383 1.646619 1.624018 1.601578 1.579300 1.557185 1.535231 1.513438 1.731467 2.157281 1.712938 1.192387 1.055804 0.454540 0.851903 0.562762 0.847819 0.816988 0.820788 0.759948 0.756787 0.598399 0.562363 0.502841 0.428927 0.249782 0.365928 0.200009 0.331021 0.219871 0.210554 0.185418 0.041503 0.002963 0.019192 -0.069923 0.133692 0.233566 0.189267 0.179337 0.325814 0.184850 0.522979 0.627049 0.635537 0.652717 0.880137 0.838632 0.947077 0.942351 1.039351 1.008600 1.091934 1.174924 1.048168 1.170266 0.913326 0.933211 0.799158 0.656182 0.811255 0.697805 0.497928 0.334180 0.252515 0.270218 0.149668 0.137291 0.166385 0.109264 0.120915 0.082502 0.249867 0.352423 0.343122 0.478261 0.546682 0.418228 0.595996 0.734025 0.649342 0.722492 0.712768 0.720952 0.648116 0.597735 0.492812 0.369171 0.277235 0.220783 0.091437 0.116821 -0.115229 -0.049363 -0.063358 -0.083768 -0.018762 0.129453 0.070747 0.242380 0.308077 0.336945 0.375085 0.497873 0.466625 0.480884 0.491762 0.305687 0.294730 0.287458 0.086665 0.046058 -0.081267 -0.015156 -0.062643 -0.096660 -0.072411 0.039983 0.094755 0.126053 0.224285 0.224344 0.221766 0.316771 0.358397 0.434998 0.257143 0.232905 0.226505 0.143741 0.145388 0.119625 -0.004304 0.015491 0.075737 -0.010226 0.045519 0.133866 0.135563 0.214487 0.234164 0.259405 0.162348 0.211179 0.128163 0.128836 0.113418 0.027680 -0.026491 -0.000833 -0.020589 -0.052853 0.054927 0.004842 0.106566 0.138756 0.192675 0.169504 0.111447 0.140757 0.160451 0.110483 0.036208 -0.025501 0.029963 0.027785 -0.042953 0.036463 0.021247 0.047988 0.039548 0.050783 0.030599 0.133962 0.120394 0.046639 0.038638 0.043031 0.005926 -0.030878 0.009526 0.005690 -0.003754 0.004175 0.055884 0.053707 0.039143 0.076544 0.060945 0.162790 0.063939 0.040443 0.043018 -0.034447 0.011851 0.047021 0.007921 0.033548 0.055359 0.080288 0.049833 0.042224 0.008592 0.079582 0.025723 0.021412 0.023781 -0.006732 0.033092 0.026253 0.021148 0.069275 0.074616 0.076782 0.041175 0.051664 0.024515 0.016129 -0.023203 -0.024500 0.036683 0.052712 0.081021 0.081624 0.065855 0.069445 0.101924 0.043262 0.091874 0.059126 0.043740 0.018485 0.104180 0.062575 0.123765 0.070146 0.062202 0.100928 0.033370 0.003374 0.086549 -0.039137 -0.027153 0.096000 0.044276 0.160231 0.093410 0.090080 0.066778 0.036075 0.091713 -0.025081 -0.024598 0.050371 0.036665 0.035217 0.022121 0.105239 0.032555 -0.011066 0.051200 0.043607 0.052074 0.060730 -0.008643 0.060113 0.052940 0.119549 0.055527 0.028126 -0.027849 -0.023772 -0.004275 0.006879 -0.055237 -0.022538 0.001845 0.017200 0.035451 0.056791 0.005416 -0.032910 -0.030124 -0.019323 -0.066960 -0.047506 -0.031524 -0.130948 -0.096172 -0.055153 -0.090978 -0.104938 -0.024731 -0.152953 -0.105694 -0.112498 -0.187214 -0.070051 0.061103 -0.071881 -0.139429 0.051362 0.034632 -0.024934 0.075176 -0.023696 -0.001759 -0.087853 -0.036237 0.046217 0.123967 0.055556 0.139611 0.172675 0.430652 0.236535 0.316504 0.150889 -0.019884 -0.694604
0.072396 0.072899 0.074408 0.076923 0.080442 0.084965 0.090492 0.097019 0.104546 0.113069 0.122584 0.133089 0.144576 0.157040 0.170474 0.184867 0.200209 0.216486 0.233685 0.251787 0.270773 0.290619 0.311300 0.332785 0.355043 0.378035 0.401720 0.426051 0.450980 0.476448 0.502395 0.528753 0.555450 0.582407 0.609538 0.636751 0.663947 0.691022 0.717863 0.744350 0.770359 0.795757 0.820403 0.844154 0.866857 0.888355 0.908485 0.927080 0.943970 0.958980 0.971933 0.982651 0.990955 0.996669 0.999617 0.999628 0.996535 0.990179 0.980410 0.967088 0.950085 0.929289 0.904603 0.875952 0.843279 0.806551 0.765762 0.720933 0.672116 0.619392 0.562878 0.502729 0.439131 0.372315 0.302548 0.230136 0.155429 0.078816 0.000725 0.078376 0.157982 0.237552 0.316514 0.394266 0.470179 0.543606 0.613883 0.680336 0.742289 0.799071 0.850021 0.894500 0.931896 0.961637 0.983197 0.996108 0.999967 0.994449 0.979313 0.954412 0.919702 0.875248 0.821232 0.757958 0.685856 0.605482 0.517524 0.422798 0.322243 0.216918 0.107994 0.003254 0.115464 0.227197 0.336958 0.443212 0.544406 0.638996 0.725466 0.802361 0.868307 0.922042 0.962448 0.988568 0.999641 0.995123 0.974707 0.938344 0.886258 0.818955 0.737231 0.642174 0.535153 0.417815 0.292059 0.160021 0.024033 0.113405 0.249674 0.382079 0.507909 0.624488 0.729236 0.819731 0.893773 0.949438 0.985143 0.999692 0.992327 0.962764 0.911225 0.838455 0.745728 0.634841 0.508095 0.368253 0.218502 0.062380 0.096297 0.253525 0.405209 0.547271 0.675765 0.786989 0.877600 0.944727 0.986071 1.000000 0.985619 0.942834 0.872386 0.775863 0.655688 0.515075 0.357966 0.188932 0.013051 0.164234 0.337276 0.500409 0.648133 0.775304 0.877332 0.950350 0.991386 0.998501 0.970893 0.908972 0.814394 0.690042 0.539971 0.369293 0.184032 0.009085 0.202846 0.389836 0.562702 0.714463 0.838798 0.930323 0.984853 0.999609 0.973388 0.906669 0.801651 0.662221 0.493834 0.303345 0.098739 0.111179 0.317155 0.509890 0.680462 0.820758 0.923877 0.984492 0.999159 0.966542 0.887551 0.765362 0.605345 0.414857 0.202943 0.020068 0.243050 0.454632 0.643771 0.800352 0.915744 0.983310 0.998822 0.960768 0.870516 0.732325 0.553202 0.342586 0.111889 0.126094 0.357875 0.570046 0.750052 0.886964 0.972171 0.999967 0.967978 0.877405 0.733049 0.543125 0.318840 0.073782 0.176882 0.417318 0.632034 0.806889 0.930056 0.992866 0.990466 0.922254 0.792036 0.607882 0.381702 0.128520 0.134485 0.389116 0.617419 0.802965 0.932061 0.994810 0.985938 0.905291 0.757990 0.554182 0.308411 0.038645 0.234999 0.491754 0.711754 0.877629 0.975899 0.998145 0.941800 0.810503 0.613959 0.367311 0.090033 0.195549 0.466028 0.698846 0.874197 0.976760 0.997114 0.932681 0.788119 0.575084 0.311394 0.019600 0.274879 0.545962 0.769220 0.924115 0.995954 0.977375 0.869186 0.680488 0.428015 0.134740 0.172139 0.463696 0.711993 0.892793 0.987996 0.987529 0.890525 0.705609 0.450265 0.149272 0.167614 0.468554 0.722846 0.904060 0.992886 0.979277 0.863702 0.657331 0.381078 0.063603 0.261602 0.559694 0.798234 0.950769 0.999851 0.939152 0.774406 0.523018 0.212363 0.123096 0.445581 0.718222 0.909331 0.996158 0.967723 0.826341 0.587618 0.278893 0.063801 0.399831 0.688800 0.895406 0.993852 0.971198 0.829201 0.584396 0.266329 0.085872 0.428241 0.717443 0.916287 0.998623 0.952908 0.783994 0.512804 0.173934 0.188678
1.000000 1.000000 1.000000 1.000000 1.000000 1.000000 1.000000 1.000000 1.000000 1.000000 1.000000 1.000000 1.000000 1.000000 1.000000 1.000000 1.000000 1.000000 1.000000 1.000000 1.000000 1.000000 1.000000 1.000000 1.000000 1.000000 1.000000 1.000000 1.000000 1.000000 1.000000 1.000000 1.000000 1.000000 1.000000 1.000000 1.000000 1.000000 1.000000 1.000000 1.000000 1.000000 1.000000 1.000000 1.000000 1.000000 1.000000 1.000000 1.000000 1.000000 1.000000 1.000000 0.916490 0.916490 0.916490 0.912393 0.912393 0.912393 0.912393 0.912393 0.912393 0.912393 0.912393 0.912393 0.912393 0.912393 0.912393 0.912393 0.912393 0.912393 0.912393 0.912393 0.912393 0.912393 0.912393 0.912393 0.912393 0.912393 0.912393 0.912393 0.912393 0.912393 0.912393 0.912393 0.912393 0.912393 0.912393 0.912393 0.912393 0.912393 0.912393 0.912393 0.912393 0.912393 0.912393 0.912393 0.941223 0.942621 0.950928 0.950464 0.949880 0.947902 0.946668 0.946332 0.946246 0.946588 0.947306 0.948277 0.954485 0.955398 0.959802 0.962504 0.962472 0.964207 0.966173 0.965838 0.957494 0.957274 0.955872 0.955144 0.957259 0.955905 0.954677 0.955150 0.954761 0.957319 0.956863 0.955653 0.954019 0.952433 0.951146 0.950598 0.950366 0.951160 0.951229 0.952786 0.955802 0.955951 0.955678 0.952895 0.952525 0.953726 0.953089 0.952854 0.941125 0.940500 0.939051 0.939045 0.941609 0.941530 0.941425 0.942317 0.942013 0.941933 0.942079 0.935472 0.935156 0.927447 0.923976 0.922410 0.917039 0.913007 0.915634 0.918226 0.919495 0.919957 0.910938 0.907965 0.908907 0.907739 0.909210 0.906912 0.907710 0.908429 0.908258 0.902671 0.892639 0.891104 0.884138 0.886919 0.884075 0.881332 0.878043 0.868647 0.858077 0.872188 0.856986 0.823995 0.827762 0.832741 0.825901 0.823072 0.824248 0.825859 0.830711 0.823677 0.822009 0.816457 0.804043 0.799714 0.793240 0.779441 0.778281 0.769310 0.758859 0.753111 0.777233 0.770959 0.782359 0.786829 0.786601 0.783418 0.775037 0.764731 0.764412 0.760318 0.756851 0.733986 0.725313 0.725543 0.722658 0.710770 0.713971 0.701991 0.702002 0.689830 0.694589 0.699869 0.702884 0.699299 0.694630 0.686462 0.682035 0.694487 0.708557 0.701359 0.696661 0.699903 0.690077 0.682914 0.674704 0.679156 0.672264 0.662228 0.668030 0.695682 0.667634 0.657060 0.663916 0.665928 0.660048 0.661007 0.640680 0.635176 0.613482 0.630700 0.635482 0.651467 0.652490 0.654024 0.665179 0.670775 0.681528 0.686005 0.684964 0.645662 0.649271 0.668737 0.676310 0.664715 0.654483 0.654508 0.648764 0.684691 0.668133 0.625532 0.621825 0.620674 0.581215 0.559094 0.557676 0.559835 0.586220 0.581154 0.562411 0.536059 0.537924 0.540051 0.539912 0.538799 0.523138 0.531427 0.516832 0.493232 0.505074 0.512895 0.511314 0.495701 0.489108 0.503341 0.479789 0.509739 0.484794 0.465549 0.482973 0.481072 0.469486 0.396388 0.407046 0.395499 0.382060 0.337525 0.347175 0.356887 0.340224 0.265504 0.258771 0.259527 0.256373 0.238242 0.218028 0.204496 0.193675 0.171648 0.108532 0.060307 0.060639 0.064400 0.092040 0.052040 0.104464 0.171031 0.169778 0.169778 0.169778 0.169778 0.169778 0.169778 0.169778 0.169778 0.145522 0.145522 0.145522 0.145522 0.145522 0.145522 0.145522 0.145522 0.145522 0.169778 0.169778 0.169778 0.169778 0.169778 0.169778 0.169778 0.169778 0.169778 0.169778 0.169778 0.169778 0.169778 0.169778
0.000000 0.000000 0.000000 0.000000 0.000000 0.000000 0.000000 0.000000 0.000000 0.000000 0.000000 0.000000 0.000000 0.000000 0.000000 0.000000 0.000000 0.000000 0.000000 0.000000 0.000000 0.000000 0.000000 0.000000 0.000000 0.000000 0.000000 0.000000 0.000000 0.000000 0.000000 0.000000 0.000000 0.000000 0.000000 0.000000 0.000000 0.000000 0.000000 0.000000 0.000000 0.000000 0.000000 0.000000 0.000000 0.000000 0.000000 0.000000 0.000000 0.000000 0.000000 0.000000 0.180334 0.180334 0.180334 0.199007 0.199007 0.199007 0.199007 0.199007 0.199007 0.199007 0.199007 0.199007 0.199007 0.199007 0.199007 0.199007 0.199007 0.199007 0.199007 0.199007 0.199007 0.199007 0.199007 0.199007 0.199007 0.199007 0.199007 0.199007 0.199007 0.199007 0.199007 0.199007 0.199007 0.199007 0.199007 0.199007 0.199007 0.199007 0.199007 0.199007 0.199007 0.199007 0.199007 0.199007 0.225018 0.225018 0.225018 0.225018 0.225018 0.225018 0.225018 0.225018 0.225018 0.225018 0.225018 0.225018 0.225018 0.225018 0.225018 0.225018 0.225018 0.225018 0.225018 0.225018 0.225018 0.225018 0.225018 0.225018 0.225018 0.225018 0.225018 0.225018 0.225018 0.244339 0.244339 0.244339 0.244339 0.244339 0.244339 0.244339 0.244339 0.244339 0.244339 0.244339 0.244339 0.244339 0.244339 0.244339 0.244339 0.244339 0.244339 0.244339 0.244339 0.244339 0.244339 0.244339 0.256074 0.256074 0.256074 0.256074 0.256074 0.256074 0.256074 0.256074 0.256074 0.256074 0.256074 0.256074 0.256074 0.256074 0.256074 0.256074 0.256074 0.256074 0.256074 0.256074 0.256074 0.256074 0.256074 0.256074 0.256074 0.256074 0.256074 0.256074 0.256074 0.256074 0.256074 0.256074 0.256074 0.256074 0.256074 0.256074 0.256074 0.264906 0.264906 0.264906 0.264906 0.264906 0.264906 0.264906 0.264906 0.264906 0.264906 0.264906 0.264906 0.264906 0.264906 0.264906 0.264906 0.264906 0.264906 0.264906 0.264906 0.264906 0.264906 0.264906 0.264906 0.264906 0.264906 0.264906 0.264906 0.264906 0.264906 0.264906 0.264906 0.264906 0.264906 0.264906 0.264906 0.264906 0.264906 0.264906 0.264906 0.264906 0.264906 0.264906 0.264906 0.264906 0.264906 0.264906 0.264906 0.264906 0.264906 0.264906 0.264906 0.264906 0.264906 0.264906 0.264906 0.264906 0.264906 0.260378 0.260378 0.260378 0.260378 0.260378 0.260378 0.260378 0.260378 0.260378 0.260378 0.260378 0.260378 0.260378 0.264906 0.264906 0.264906 0.264906 0.264906 0.264906 0.264906 0.264906 0.264906 0.264906 0.264906 0.264906 0.269680 0.269680 0.269680 0.269680 0.269680 0.269680 0.269680 0.269680 0.269680 0.269680 0.269680 0.264906 0.264906 0.264906 0.264906 0.264906 0.264906 0.264906 0.264906 0.264906 0.264906 0.264906 0.256074 0.256074 0.256074 0.256074 0.256074 0.256074 0.256074 0.256074 0.256074 0.256074 0.256074 0.264906 0.264906 0.264906 0.264906 0.264906 0.264906 0.264906 0.264906 0.264906 0.264906 0.260378 0.260378 0.260378 0.260378 0.260378 0.260378 0.260378 0.260378 0.260378 0.260378 0.264906 0.264906 0.264906 0.264906 0.264906 0.264906 0.264906 0.264906 0.264906 0.251976 0.251976 0.251976 0.251976 0.251976 0.251976 0.251976 0.251976 0.251976 0.251976 0.256074 0.256074 0.256074 0.256074 0.256074 0.256074 0.256074 0.256074 0.256074 0.251976 0.251976 0.251976 0.251976 0.251976 0.251976 0.251976 0.251976 0.251976 0.251976 0.251976 0.251976 0.251976 0.251976
