# Output from CTFFind version 4.1.9, run on 2019-11-03 19:46:26
# Input file: stack6_bm3d_averaged_1_5.25_0_1000_half.mrc ; Number of micrographs: 1
# Pixel size: 3.000 Angstroms ; acceleration voltage: 300.0 keV ; spherical aberration: 0.00 mm ; amplitude contrast: 0.07
# Box size: 512 pixels ; min. res.: 30.0 Angstroms ; max. res.: 5.0 Angstroms ; min. def.: 5000.0 um; max. def. 50000.0 um; num. frames averaged: 1
# 6 lines per micrograph: #1 - spatial frequency (1/Angstroms); #2 - 1D rotational average of spectrum (assuming no astigmatism); #3 - 1D rotational average of spectrum; #4 - CTF fit; #5 - cross-correlation between spectrum and CTF fit; #6 - 2sigma of expected cross correlation of noise
0.000000 0.000651 0.001302 0.001953 0.002604 0.003255 0.003906 0.004557 0.005208 0.005859 0.006510 0.007161 0.007812 0.008464 0.009115 0.009766 0.010417 0.011068 0.011719 0.012370 0.013021 0.013672 0.014323 0.014974 0.015625 0.016276 0.016927 0.017578 0.018229 0.018880 0.019531 0.020182 0.020833 0.021484 0.022135 0.022786 0.023438 0.024089 0.024740 0.025391 0.026042 0.026693 0.027344 0.027995 0.028646 0.029297 0.029948 0.030599 0.031250 0.031901 0.032552 0.033203 0.033854 0.034505 0.035156 0.035807 0.036458 0.037109 0.037760 0.038411 0.039062 0.039714 0.040365 0.041016 0.041667 0.042318 0.042969 0.043620 0.044271 0.044922 0.045573 0.046224 0.046875 0.047526 0.048177 0.048828 0.049479 0.050130 0.050781 0.051432 0.052083 0.052734 0.053385 0.054036 0.054688 0.055339 0.055990 0.056641 0.057292 0.057943 0.058594 0.059245 0.059896 0.060547 0.061198 0.061849 0.062500 0.063151 0.063802 0.064453 0.065104 0.065755 0.066406 0.067057 0.067708 0.068359 0.069010 0.069661 0.070312 0.070964 0.071615 0.072266 0.072917 0.073568 0.074219 0.074870 0.075521 0.076172 0.076823 0.077474 0.078125 0.078776 0.079427 0.080078 0.080729 0.081380 0.082031 0.082682 0.083333 0.083984 0.084635 0.085286 0.085938 0.086589 0.087240 0.087891 0.088542 0.089193 0.089844 0.090495 0.091146 0.091797 0.092448 0.093099 0.093750 0.094401 0.095052 0.095703 0.096354 0.097005 0.097656 0.098307 0.098958 0.099609 0.100260 0.100911 0.101562 0.102214 0.102865 0.103516 0.104167 0.104818 0.105469 0.106120 0.106771 0.107422 0.108073 0.108724 0.109375 0.110026 0.110677 0.111328 0.111979 0.112630 0.113281 0.113932 0.114583 0.115234 0.115885 0.116536 0.117188 0.117839 0.118490 0.119141 0.119792 0.120443 0.121094 0.121745 0.122396 0.123047 0.123698 0.124349 0.125000 0.125651 0.126302 0.126953 0.127604 0.128255 0.128906 0.129557 0.130208 0.130859 0.131510 0.132161 0.132812 0.133464 0.134115 0.134766 0.135417 0.136068 0.136719 0.137370 0.138021 0.138672 0.139323 0.139974 0.140625 0.141276 0.141927 0.142578 0.143229 0.143880 0.144531 0.145182 0.145833 0.146484 0.147135 0.147786 0.148438 0.149089 0.149740 0.150391 0.151042 0.151693 0.152344 0.152995 0.153646 0.154297 0.154948 0.155599 0.156250 0.156901 0.157552 0.158203 0.158854 0.159505 0.160156 0.160807 0.161458 0.162109 0.162760 0.163411 0.164062 0.164714 0.165365 0.166016 0.166667 0.167318 0.167969 0.168620 0.169271 0.169922 0.170573 0.171224 0.171875 0.172526 0.173177 0.173828 0.174479 0.175130 0.175781 0.176432 0.177083 0.177734 0.178385 0.179036 0.179688 0.180339 0.180990 0.181641 0.182292 0.182943 0.183594 0.184245 0.184896 0.185547 0.186198 0.186849 0.187500 0.188151 0.188802 0.189453 0.190104 0.190755 0.191406 0.192057 0.192708 0.193359 0.194010 0.194661 0.195312 0.195964 0.196615 0.197266 0.197917 0.198568 0.199219 0.199870 0.200521 0.201172 0.201823 0.202474 0.203125 0.203776 0.204427 0.205078 0.205729 0.206380 0.207031 0.207682 0.208333 0.208984 0.209635 0.210286 0.210938 0.211589 0.212240 0.212891 0.213542 0.214193 0.214844 0.215495 0.216146 0.216797 0.217448 0.218099 0.218750 0.219401 0.220052 0.220703 0.221354 0.222005 0.222656 0.223307 0.223958 0.224609 0.225260 0.225911 0.226562 0.227214 0.227865 0.228516 0.229167 0.229818 0.230469 0.231120 0.231771 0.232422 0.233073 0.233724 0.234375 0.235026 0.235677
       0.30621        0.30621        0.30621        0.30621        0.30621        0.30621        0.30621        0.30621        0.30621        0.30621        0.30621        0.30621        0.30621        0.30621        0.30621        0.30621        0.30621        0.30621        0.30621        0.30621        0.30621        0.30621        0.30621        0.30621        0.30621        0.30621        0.30621        0.30621        0.30621        0.30621        0.30621        0.30621        0.30621        0.30621        0.30621        0.30621        0.30621        0.30621        0.30621        0.30621        0.30621        0.30621        0.30621        0.30621        0.30621        0.30621        0.30621        0.30621        0.30621        0.30621        0.30621        0.59689        0.72301        0.35345        0.18268        0.12394       -0.15194        0.10468        0.02425        0.02878        0.08624        0.30502        0.32661        0.25371        0.14783       -0.04200       -0.01466        0.03851       -0.13630       -0.14552       -0.08888       -0.10879       -0.23062       -0.15046       -0.26998       -0.28275       -0.28394       -0.34893       -0.42655       -0.36987       -0.27765       -0.24761       -0.34694       -0.25844       -0.31614       -0.25381       -0.17807       -0.12778       -0.09063       -0.01951        0.01283        0.11570        0.15941        0.20936        0.33155        0.39618        0.35226        0.46017        0.54771        0.55603        0.63706        0.57811        0.61316        0.59669        0.61077        0.61210        0.55219        0.56879        0.54998        0.38976        0.32614        0.35848        0.34087        0.18825        0.15362        0.12280        0.07868        0.08335       -0.00578        0.05230        0.02905       -0.01446        0.09112        0.15733        0.25458        0.34752        0.33648        0.36546        0.45699        0.49081        0.42068        0.64560        0.53125        0.47810        0.56543        0.49746        0.52732        0.48734        0.36314        0.30336        0.26418        0.21672        0.20141        0.18518        0.16413        0.11468        0.18991        0.17985        0.22141        0.19438        0.25889        0.30061        0.32484        0.44285        0.42519        0.40736        0.43186        0.47323        0.44814        0.43690        0.38499        0.39791        0.33418        0.28033        0.23143        0.24150        0.23271        0.18267        0.15492        0.20816        0.21106        0.25818        0.33113        0.34970        0.40678        0.38692        0.43765        0.45312        0.44732        0.42028        0.38808        0.40553        0.36749        0.32762        0.32463        0.30476        0.25186        0.26820        0.26654        0.22167        0.28316        0.26467        0.27467        0.31288        0.36392        0.40224        0.39643        0.41450        0.37273        0.40369        0.38671        0.29795        0.27999        0.23769        0.25270        0.21414        0.19552        0.27881        0.32993        0.30547        0.27571        0.33273        0.25987        0.32439        0.36705        0.36279        0.35906        0.37856        0.31963        0.33078        0.31247        0.27767        0.27419        0.23925        0.28099        0.29545        0.30362        0.32466        0.36757        0.37176        0.36346        0.32981        0.34885        0.32785        0.31315        0.31125        0.27860        0.28108        0.25061        0.30663        0.31881        0.30826        0.28638        0.31950        0.32225        0.32619        0.33584        0.30498        0.27232        0.28473        0.28085        0.26182        0.24078        0.22800        0.24198        0.25602        0.24087        0.27471        0.27748        0.31986        0.31218        0.26997        0.29966        0.25638        0.20288        0.25982        0.24002        0.22295        0.26854        0.29768        0.28740        0.29289        0.29426        0.29201        0.30304        0.31445        0.26558        0.30329        0.29845        0.34217        0.27286        0.26406        0.24992        0.30158        0.30710        0.31648        0.33221        0.30816        0.21799        0.27629        0.25434        0.23847        0.23871        0.24250        0.28145        0.24051        0.29743        0.30638        0.34178        0.30463        0.28189        0.24029        0.25286        0.25528        0.23562        0.26139        0.28012        0.31105        0.32663        0.28689        0.28367        0.25850        0.29202        0.26543        0.22983        0.19534        0.26289        0.32895        0.30951        0.30093        0.28598        0.23243        0.22890        0.23816        0.21810        0.22161        0.26797        0.27480        0.25949        0.22312        0.21229        0.25876        0.23766        0.24937        0.26209        0.25598        0.17898        0.21832        0.25144        0.23764        0.28248        0.24051        0.22937        0.18267        0.25753        0.28604        0.19052        0.19577        0.12033        0.14218        0.29890        0.16684        0.17492        0.32181        0.19804        0.16447        0.11419        0.20143        0.11953        0.14960       -0.05442       -0.63361       -0.99146
2.318106 2.298068 2.278123 2.258269 2.238508 2.218839 2.199262 2.179777 2.160385 2.141084 2.121876 2.102759 2.083735 2.064803 2.045963 2.027215 2.008559 1.989996 1.971524 1.953145 1.934857 1.916662 1.898559 1.880548 1.862630 1.844803 1.827068 1.809426 1.791876 1.774417 1.757051 1.739777 1.722596 1.705506 1.688508 1.671603 1.654789 1.638068 1.621439 1.604902 1.588457 1.572105 1.555844 1.539675 1.523599 1.507615 1.491723 1.475923 1.460215 1.444599 1.429075 1.790604 2.121166 1.470293 1.344950 1.083708 0.540256 0.917267 0.811913 0.852496 0.713711 1.367363 1.223827 1.235479 0.990890 0.652173 0.503673 0.763036 0.566049 0.242146 0.319213 0.478977 0.226565 0.259550 0.112843 0.018850 -0.017703 -0.013993 -0.292413 -0.180933 -0.022898 -0.055367 -0.109529 -0.016472 -0.146216 -0.117624 0.060732 0.148868 0.215162 0.265236 0.334254 0.584133 0.536300 0.612261 0.829194 0.988055 0.806904 1.180565 1.158166 1.220721 1.318606 1.232198 1.184208 1.332977 1.202158 1.333571 1.157051 1.094224 1.185154 0.948476 0.659116 0.716244 0.774469 0.476495 0.395622 0.336106 0.193358 0.188976 0.039523 0.166902 0.131005 -0.005770 0.108477 0.229726 0.340561 0.599037 0.589286 0.554608 0.717725 0.875328 0.594147 1.024817 0.966868 0.767865 0.895780 0.750232 0.828679 0.846551 0.571677 0.417806 0.372604 0.313158 0.210107 0.154976 0.172218 -0.015029 0.156146 0.130704 0.219389 0.104229 0.278643 0.310634 0.274697 0.488483 0.591509 0.502451 0.410485 0.601061 0.591097 0.492156 0.485208 0.437086 0.319310 0.322910 0.117042 0.166521 0.057183 0.163273 -0.060864 0.038448 0.010841 0.215945 0.102070 0.348964 0.316836 0.366346 0.419945 0.414156 0.584523 0.373076 0.392755 0.444540 0.247999 0.335991 0.182738 0.267793 0.105617 0.145971 0.102857 0.099138 0.038573 0.158654 0.062995 0.152043 0.248013 0.276596 0.344367 0.326052 0.355594 0.275544 0.319623 0.215423 0.121284 0.080153 0.022065 0.034671 -0.053227 -0.023312 0.113033 0.209087 0.090168 0.118125 0.121431 0.064067 0.205219 0.250481 0.216763 0.273253 0.169894 0.154500 0.138345 0.121066 0.079268 -0.024671 0.015326 0.163292 0.017094 0.153674 0.126976 0.258515 0.171344 0.235894 0.197083 0.207089 0.107466 0.137021 0.137613 0.065428 0.016971 0.056803 0.124781 0.146620 0.115047 0.072412 0.154992 0.087690 0.110998 0.123599 0.026872 -0.013101 0.044818 -0.009242 -0.005273 -0.074496 -0.084827 -0.013044 -0.048049 -0.065685 0.009546 0.022864 0.090737 0.050633 -0.031326 0.045146 -0.085631 -0.113519 0.009422 -0.088835 -0.105773 0.034488 0.035848 0.004552 0.057539 -0.050966 0.058445 0.118845 -0.029807 -0.008424 0.096856 0.021873 0.123744 -0.038392 -0.007708 -0.057733 0.120603 0.046537 0.068435 0.123848 0.045266 -0.092363 0.012358 -0.014590 -0.042577 -0.049250 -0.029687 0.018438 -0.056530 0.094356 0.098099 0.166850 0.066109 -0.001388 -0.014656 -0.000113 0.017818 -0.039527 0.053200 0.041380 0.136520 0.140346 0.058451 0.081583 0.035385 0.135928 -0.003775 0.010022 -0.104743 0.093400 0.177897 0.079337 0.144080 0.054298 -0.012313 -0.025994 -0.020146 -0.036678 -0.021308 0.056260 0.098437 0.035910 -0.029471 0.013784 0.060506 0.059553 0.064870 0.100145 0.051216 -0.005452 0.017610 0.127437 0.069596 0.201779 0.108289 0.058753 0.074415 0.169462 0.232937 0.083097 0.090388 -0.060440 -0.095728 0.468739 0.322543 0.279701 0.614536 0.282382 0.286146 0.127770 0.472558 0.206506 0.289792 -0.086161 -1.746340
0.072396 0.072837 0.074161 0.076367 0.079455 0.083425 0.088274 0.094002 0.100608 0.108089 0.116443 0.125667 0.135757 0.146708 0.158515 0.171171 0.184669 0.199000 0.214153 0.230115 0.246874 0.264412 0.282713 0.301755 0.321516 0.341969 0.363086 0.384836 0.407182 0.430086 0.453505 0.477394 0.501700 0.526369 0.551341 0.576551 0.601932 0.627407 0.652899 0.678322 0.703587 0.728599 0.753257 0.777456 0.801086 0.824030 0.846169 0.867376 0.887523 0.906476 0.924098 0.940248 0.954785 0.967562 0.978434 0.987255 0.993878 0.998158 0.999952 0.999120 0.995528 0.989047 0.979553 0.966933 0.951083 0.931909 0.909332 0.883286 0.853721 0.820606 0.783926 0.743691 0.699930 0.652697 0.602072 0.548161 0.491098 0.431044 0.368193 0.302767 0.235021 0.165238 0.093737 0.020864 0.053005 0.127461 0.202073 0.276378 0.349894 0.422115 0.492519 0.560568 0.625714 0.687402 0.745077 0.798187 0.846189 0.888558 0.924788 0.954401 0.976956 0.992053 0.999340 0.998522 0.989365 0.971705 0.945453 0.910600 0.867224 0.815493 0.755671 0.688115 0.613286 0.531742 0.444138 0.351229 0.253861 0.152968 0.049567 0.055253 0.160339 0.264488 0.366455 0.464973 0.558767 0.646568 0.727135 0.799275 0.861858 0.913839 0.954280 0.982368 0.997431 0.998962 0.986630 0.960295 0.920026 0.866101 0.799021 0.719511 0.628517 0.527205 0.416947 0.299317 0.176061 0.049087 0.079572 0.207779 0.333334 0.454004 0.567574 0.671880 0.764856 0.844577 0.909307 0.957540 0.988036 0.999866 0.992440 0.965535 0.919316 0.854351 0.771616 0.672492 0.558751 0.432535 0.296323 0.152892 0.005261 0.143360 0.289647 0.430227 0.561764 0.681033 0.785012 0.870955 0.936479 0.979638 0.998985 0.993633 0.963302 0.908344 0.829765 0.729218 0.608991 0.471959 0.321535 0.161592 0.003627 0.169620 0.331738 0.485322 0.625835 0.749004 0.850955 0.928341 0.978475 0.999423 0.990102 0.950336 0.880901 0.783531 0.660891 0.516536 0.354808 0.180735 0.000126 0.181855 0.358353 0.523555 0.671640 0.797237 0.895643 0.963002 0.996480 0.994398 0.956333 0.883176 0.777141 0.641725 0.481614 0.302544 0.111110 0.085461 0.279579 0.463579 0.630029 0.772034 0.883539 0.959601 0.996630 0.992583 0.947094 0.861544 0.739054 0.584399 0.403857 0.204972 0.003745 0.213162 0.413922 0.596870 0.753462 0.876199 0.958987 0.997479 0.989325 0.934342 0.834585 0.694313 0.519841 0.319291 0.102232 0.120747 0.338555 0.540141 0.715063 0.854043 0.949484 0.995913 0.990327 0.932423 0.824683 0.672318 0.483061 0.266802 0.035108 0.199384 0.423638 0.624951 0.791689 0.913966 0.984275 0.997980 0.953662 0.853287 0.702175 0.508768 0.284206 0.041703 0.204188 0.438445 0.646499 0.815151 0.933436 0.993378 0.990560 0.924507 0.798811 0.620987 0.402094 0.156078 0.101073 0.352368 0.580904 0.771031 0.909454 0.986182 0.995315 0.935542 0.810346 0.627869 0.400437 0.143793 0.123976 0.383672 0.616370 0.804818 0.934728 0.995927 0.983191 0.896766 0.742463 0.531343 0.278998 0.004426 0.271334 0.526832 0.741866 0.899100 0.985528 0.993589 0.921913 0.775549 0.565714 0.308988 0.026067 0.259854 0.524984 0.746915 0.906537 0.989749 0.988763 0.902907 0.738842 0.510125 0.236172 0.059335 0.350444 0.611224 0.818072 0.951901 0.999958 0.957120 0.826525 0.619444 0.354406 0.055610 0.249232 0.531438 0.764067 0.924520 0.996805 0.973210 0.855215 0.653535 0.387244 0.082057 0.232091 0.523954 0.764092 0.927871 0.998065
1.000000 1.000000 1.000000 1.000000 1.000000 1.000000 1.000000 1.000000 1.000000 1.000000 1.000000 1.000000 1.000000 1.000000 1.000000 1.000000 1.000000 1.000000 1.000000 1.000000 1.000000 1.000000 1.000000 1.000000 1.000000 1.000000 1.000000 1.000000 1.000000 1.000000 1.000000 1.000000 1.000000 1.000000 1.000000 1.000000 1.000000 1.000000 1.000000 1.000000 1.000000 1.000000 1.000000 1.000000 1.000000 1.000000 1.000000 1.000000 1.000000 1.000000 1.000000 1.000000 0.778449 0.778449 0.778449 0.778449 0.778449 0.778449 0.778449 0.763435 0.763435 0.763435 0.763435 0.763435 0.763435 0.763435 0.763435 0.763435 0.763435 0.763435 0.763435 0.763435 0.763435 0.763435 0.763435 0.763435 0.763435 0.763435 0.763435 0.763435 0.763435 0.763435 0.763435 0.763435 0.763435 0.763435 0.763435 0.763435 0.763435 0.763435 0.763435 0.763435 0.763435 0.763435 0.763435 0.763435 0.763435 0.763435 0.763435 0.763435 0.763435 0.763435 0.763435 0.910502 0.910772 0.913474 0.907849 0.909677 0.907421 0.901345 0.904286 0.903472 0.903333 0.904268 0.905520 0.907422 0.910763 0.917275 0.920133 0.928276 0.931631 0.932840 0.932684 0.929764 0.936685 0.934123 0.932096 0.920734 0.924186 0.923672 0.924167 0.922802 0.923129 0.924109 0.924368 0.922016 0.920315 0.917902 0.916125 0.916629 0.916168 0.916121 0.916286 0.915632 0.916660 0.917290 0.913193 0.915675 0.914352 0.911134 0.907353 0.907238 0.908325 0.901935 0.899300 0.889504 0.891283 0.890364 0.894517 0.891636 0.890911 0.892064 0.892851 0.893538 0.893559 0.893642 0.890940 0.891243 0.888214 0.884528 0.881282 0.881179 0.883743 0.890045 0.893178 0.893130 0.890459 0.884972 0.875698 0.873937 0.859539 0.835057 0.835946 0.838269 0.839865 0.840387 0.839337 0.838168 0.835309 0.831079 0.826121 0.830884 0.830520 0.823725 0.808767 0.808388 0.803826 0.811153 0.815507 0.807753 0.808054 0.807326 0.812503 0.813372 0.810306 0.809987 0.805282 0.807967 0.816086 0.816215 0.810190 0.804801 0.799062 0.779655 0.780873 0.784843 0.797993 0.800075 0.794750 0.781435 0.789639 0.786367 0.792760 0.805725 0.805850 0.804640 0.787409 0.749690 0.734920 0.728280 0.730463 0.732375 0.724564 0.721547 0.719937 0.723183 0.684071 0.675457 0.665062 0.662332 0.671012 0.671898 0.675546 0.632457 0.650579 0.647572 0.629164 0.625015 0.582633 0.569110 0.513376 0.518064 0.518163 0.489912 0.477872 0.469859 0.483842 0.496419 0.496676 0.490545 0.469462 0.452074 0.444057 0.446948 0.456655 0.456391 0.461006 0.427245 0.405349 0.400403 0.417911 0.420898 0.420125 0.440496 0.456035 0.458390 0.446711 0.425365 0.420362 0.437610 0.444608 0.455631 0.455539 0.445136 0.424028 0.400582 0.405936 0.444404 0.441939 0.437516 0.422993 0.431071 0.440860 0.426403 0.411222 0.393347 0.435442 0.437119 0.430048 0.383217 0.361097 0.363996 0.359739 0.357132 0.344876 0.382701 0.404622 0.404644 0.410568 0.401165 0.445718 0.521976 0.512769 0.505598 0.527024 0.516565 0.494039 0.479379 0.466653 0.461895 0.449109 0.436824 0.415406 0.410303 0.396830 0.396152 0.416251 0.421017 0.444154 0.425082 0.378735 0.224839 0.268681 0.268681 0.268681 0.268681 0.268681 0.268681 0.268681 0.268681 0.268681 0.268681 0.268681 0.221956 0.221956 0.221956 0.221956 0.221956 0.221956 0.221956 0.221956 0.221956 0.221956 0.221956 0.221956 0.221956 0.221956 0.221956 0.221956 0.221956 0.221956 0.221956 0.221956
0.000000 0.000000 0.000000 0.000000 0.000000 0.000000 0.000000 0.000000 0.000000 0.000000 0.000000 0.000000 0.000000 0.000000 0.000000 0.000000 0.000000 0.000000 0.000000 0.000000 0.000000 0.000000 0.000000 0.000000 0.000000 0.000000 0.000000 0.000000 0.000000 0.000000 0.000000 0.000000 0.000000 0.000000 0.000000 0.000000 0.000000 0.000000 0.000000 0.000000 0.000000 0.000000 0.000000 0.000000 0.000000 0.000000 0.000000 0.000000 0.000000 0.000000 0.000000 0.000000 0.173422 0.173422 0.173422 0.173422 0.173422 0.173422 0.173422 0.191565 0.191565 0.191565 0.191565 0.191565 0.191565 0.191565 0.191565 0.191565 0.191565 0.191565 0.191565 0.191565 0.191565 0.191565 0.191565 0.191565 0.191565 0.191565 0.191565 0.191565 0.191565 0.191565 0.191565 0.191565 0.191565 0.191565 0.191565 0.191565 0.191565 0.191565 0.191565 0.191565 0.191565 0.191565 0.191565 0.191565 0.191565 0.191565 0.191565 0.191565 0.191565 0.191565 0.191565 0.222222 0.222222 0.222222 0.222222 0.222222 0.222222 0.222222 0.222222 0.222222 0.222222 0.222222 0.222222 0.222222 0.222222 0.222222 0.222222 0.222222 0.222222 0.222222 0.222222 0.222222 0.222222 0.222222 0.222222 0.222222 0.222222 0.222222 0.222222 0.222222 0.222222 0.234082 0.234082 0.234082 0.234082 0.234082 0.234082 0.234082 0.234082 0.234082 0.234082 0.234082 0.234082 0.234082 0.234082 0.234082 0.234082 0.234082 0.234082 0.234082 0.234082 0.234082 0.234082 0.234082 0.234082 0.234082 0.244339 0.244339 0.244339 0.244339 0.244339 0.244339 0.244339 0.244339 0.244339 0.244339 0.244339 0.244339 0.244339 0.244339 0.244339 0.244339 0.244339 0.244339 0.244339 0.244339 0.244339 0.248069 0.248069 0.248069 0.248069 0.248069 0.248069 0.248069 0.248069 0.248069 0.248069 0.248069 0.248069 0.248069 0.248069 0.248069 0.248069 0.248069 0.248069 0.248069 0.256074 0.256074 0.256074 0.256074 0.256074 0.256074 0.256074 0.256074 0.256074 0.256074 0.256074 0.256074 0.256074 0.256074 0.256074 0.256074 0.256074 0.256074 0.256074 0.256074 0.256074 0.256074 0.256074 0.256074 0.256074 0.256074 0.256074 0.256074 0.256074 0.256074 0.256074 0.256074 0.256074 0.256074 0.256074 0.256074 0.256074 0.256074 0.256074 0.256074 0.256074 0.256074 0.256074 0.256074 0.256074 0.256074 0.256074 0.256074 0.256074 0.256074 0.256074 0.256074 0.256074 0.256074 0.256074 0.256074 0.256074 0.256074 0.256074 0.256074 0.256074 0.256074 0.260378 0.260378 0.260378 0.260378 0.260378 0.260378 0.260378 0.260378 0.260378 0.260378 0.260378 0.260378 0.260378 0.256074 0.256074 0.256074 0.256074 0.256074 0.256074 0.256074 0.256074 0.256074 0.256074 0.256074 0.256074 0.256074 0.260378 0.260378 0.260378 0.260378 0.260378 0.260378 0.260378 0.260378 0.260378 0.260378 0.260378 0.260378 0.251976 0.251976 0.251976 0.251976 0.251976 0.251976 0.251976 0.251976 0.251976 0.251976 0.251976 0.251976 0.256074 0.256074 0.256074 0.256074 0.256074 0.256074 0.256074 0.256074 0.256074 0.256074 0.256074 0.251976 0.251976 0.251976 0.251976 0.251976 0.251976 0.251976 0.251976 0.251976 0.251976 0.251976 0.248069 0.248069 0.248069 0.248069 0.248069 0.248069 0.248069 0.248069 0.248069 0.248069 0.248069 0.256074 0.256074 0.256074 0.256074 0.256074 0.256074 0.256074 0.256074 0.256074 0.256074 0.256074 0.256074 0.256074 0.256074 0.256074 0.256074 0.256074 0.256074 0.256074 0.256074
