# Output from CTFFind version 4.1.9, run on 2019-11-02 17:46:00
# Input file: stack11_bm3d_averaged_1_1.0_0_1000_half.mrc ; Number of micrographs: 1
# Pixel size: 3.000 Angstroms ; acceleration voltage: 300.0 keV ; spherical aberration: 0.00 mm ; amplitude contrast: 0.07
# Box size: 512 pixels ; min. res.: 30.0 Angstroms ; max. res.: 5.0 Angstroms ; min. def.: 5000.0 um; max. def. 50000.0 um; num. frames averaged: 1
# 6 lines per micrograph: #1 - spatial frequency (1/Angstroms); #2 - 1D rotational average of spectrum (assuming no astigmatism); #3 - 1D rotational average of spectrum; #4 - CTF fit; #5 - cross-correlation between spectrum and CTF fit; #6 - 2sigma of expected cross correlation of noise
0.000000 0.000651 0.001302 0.001953 0.002604 0.003255 0.003906 0.004557 0.005208 0.005859 0.006510 0.007161 0.007812 0.008464 0.009115 0.009766 0.010417 0.011068 0.011719 0.012370 0.013021 0.013672 0.014323 0.014974 0.015625 0.016276 0.016927 0.017578 0.018229 0.018880 0.019531 0.020182 0.020833 0.021484 0.022135 0.022786 0.023438 0.024089 0.024740 0.025391 0.026042 0.026693 0.027344 0.027995 0.028646 0.029297 0.029948 0.030599 0.031250 0.031901 0.032552 0.033203 0.033854 0.034505 0.035156 0.035807 0.036458 0.037109 0.037760 0.038411 0.039062 0.039714 0.040365 0.041016 0.041667 0.042318 0.042969 0.043620 0.044271 0.044922 0.045573 0.046224 0.046875 0.047526 0.048177 0.048828 0.049479 0.050130 0.050781 0.051432 0.052083 0.052734 0.053385 0.054036 0.054688 0.055339 0.055990 0.056641 0.057292 0.057943 0.058594 0.059245 0.059896 0.060547 0.061198 0.061849 0.062500 0.063151 0.063802 0.064453 0.065104 0.065755 0.066406 0.067057 0.067708 0.068359 0.069010 0.069661 0.070312 0.070964 0.071615 0.072266 0.072917 0.073568 0.074219 0.074870 0.075521 0.076172 0.076823 0.077474 0.078125 0.078776 0.079427 0.080078 0.080729 0.081380 0.082031 0.082682 0.083333 0.083984 0.084635 0.085286 0.085938 0.086589 0.087240 0.087891 0.088542 0.089193 0.089844 0.090495 0.091146 0.091797 0.092448 0.093099 0.093750 0.094401 0.095052 0.095703 0.096354 0.097005 0.097656 0.098307 0.098958 0.099609 0.100260 0.100911 0.101562 0.102214 0.102865 0.103516 0.104167 0.104818 0.105469 0.106120 0.106771 0.107422 0.108073 0.108724 0.109375 0.110026 0.110677 0.111328 0.111979 0.112630 0.113281 0.113932 0.114583 0.115234 0.115885 0.116536 0.117188 0.117839 0.118490 0.119141 0.119792 0.120443 0.121094 0.121745 0.122396 0.123047 0.123698 0.124349 0.125000 0.125651 0.126302 0.126953 0.127604 0.128255 0.128906 0.129557 0.130208 0.130859 0.131510 0.132161 0.132812 0.133464 0.134115 0.134766 0.135417 0.136068 0.136719 0.137370 0.138021 0.138672 0.139323 0.139974 0.140625 0.141276 0.141927 0.142578 0.143229 0.143880 0.144531 0.145182 0.145833 0.146484 0.147135 0.147786 0.148438 0.149089 0.149740 0.150391 0.151042 0.151693 0.152344 0.152995 0.153646 0.154297 0.154948 0.155599 0.156250 0.156901 0.157552 0.158203 0.158854 0.159505 0.160156 0.160807 0.161458 0.162109 0.162760 0.163411 0.164062 0.164714 0.165365 0.166016 0.166667 0.167318 0.167969 0.168620 0.169271 0.169922 0.170573 0.171224 0.171875 0.172526 0.173177 0.173828 0.174479 0.175130 0.175781 0.176432 0.177083 0.177734 0.178385 0.179036 0.179688 0.180339 0.180990 0.181641 0.182292 0.182943 0.183594 0.184245 0.184896 0.185547 0.186198 0.186849 0.187500 0.188151 0.188802 0.189453 0.190104 0.190755 0.191406 0.192057 0.192708 0.193359 0.194010 0.194661 0.195312 0.195964 0.196615 0.197266 0.197917 0.198568 0.199219 0.199870 0.200521 0.201172 0.201823 0.202474 0.203125 0.203776 0.204427 0.205078 0.205729 0.206380 0.207031 0.207682 0.208333 0.208984 0.209635 0.210286 0.210938 0.211589 0.212240 0.212891 0.213542 0.214193 0.214844 0.215495 0.216146 0.216797 0.217448 0.218099 0.218750 0.219401 0.220052 0.220703 0.221354 0.222005 0.222656 0.223307 0.223958 0.224609 0.225260 0.225911 0.226562 0.227214 0.227865 0.228516 0.229167 0.229818 0.230469 0.231120 0.231771 0.232422 0.233073 0.233724 0.234375 0.235026 0.235677
       0.31733        0.31733        0.31733        0.31733        0.31733        0.31733        0.31733        0.31733        0.31733        0.31733        0.31733        0.31733        0.31733        0.31733        0.31733        0.31733        0.31733        0.31733        0.31733        0.31733        0.31733        0.31733        0.31733        0.31733        0.31733        0.31733        0.31733        0.31733        0.31733        0.31733        0.31733        0.31733        0.31733        0.31733        0.31733        0.31733        0.31733        0.31733        0.31733        0.31733        0.31733        0.31733        0.31733        0.31733        0.31733        0.31733        0.31733        0.31733        0.31733        0.31733        0.31733        0.68477        0.87167        0.52315        0.08767       -0.06499       -0.42487       -0.20763       -0.29575       -0.11652       -0.07711       -0.11809       -0.06746       -0.20852       -0.23570       -0.25926       -0.32922       -0.33658       -0.49025       -0.38294       -0.46671       -0.44894       -0.42131       -0.47061       -0.54670       -0.56304       -0.58895       -0.62717       -0.57922       -0.41710       -0.37879       -0.32982       -0.31546       -0.21369       -0.20069        0.01778        0.07039        0.10445        0.22541        0.37232        0.44285        0.51709        0.55975        0.55495        0.57129        0.69913        0.81427        0.74389        0.73403        0.67296        0.58398        0.48642        0.40841        0.49394        0.37537        0.20358        0.07716        0.04755        0.01055       -0.06072       -0.03932       -0.02570       -0.07395       -0.00725       -0.01991        0.21135        0.24970        0.29112        0.43144        0.46598        0.40434        0.53573        0.63078        0.70318        0.76667        0.69198        0.65885        0.70092        0.58736        0.50574        0.41894        0.28951        0.18566        0.15719        0.10691        0.03890        0.01318       -0.00184        0.07557        0.13208        0.20345        0.28342        0.40197        0.41713        0.51412        0.60400        0.63572        0.61587        0.63135        0.55394        0.44656        0.44494        0.35114        0.22981        0.18439        0.14926        0.10722        0.12050        0.06632        0.09871        0.22351        0.26302        0.34061        0.34953        0.45398        0.51450        0.53770        0.55040        0.46947        0.42943        0.39312        0.37234        0.30770        0.25049        0.20012        0.18626        0.16076        0.19084        0.17786        0.26898        0.33277        0.36459        0.42455        0.46259        0.47905        0.44658        0.39433        0.41638        0.37473        0.28948        0.27353        0.22637        0.21390        0.19503        0.21293        0.22999        0.32982        0.37408        0.36597        0.46001        0.44097        0.43939        0.43154        0.39566        0.34436        0.32860        0.27658        0.23624        0.23749        0.27005        0.27053        0.30136        0.30136        0.34049        0.32980        0.40967        0.41774        0.37517        0.34436        0.36439        0.28000        0.28108        0.26259        0.27721        0.26041        0.28045        0.29192        0.31488        0.35255        0.36015        0.35994        0.33217        0.35145        0.28504        0.32159        0.26930        0.24999        0.28508        0.28086        0.30682        0.31370        0.33284        0.32787        0.31393        0.31642        0.28780        0.28823        0.26049        0.28135        0.26687        0.31079        0.28332        0.26380        0.30900        0.31172        0.31695        0.29019        0.30056        0.29135        0.24578        0.23951        0.22179        0.27977        0.27302        0.31213        0.31660        0.32070        0.31703        0.30576        0.27790        0.28486        0.33109        0.27162        0.26490        0.29547        0.29413        0.34035        0.33684        0.36103        0.33207        0.31385        0.28050        0.26649        0.26444        0.22824        0.26883        0.30053        0.29519        0.27818        0.29500        0.27171        0.32415        0.32785        0.25057        0.21829        0.27410        0.33904        0.27797        0.31355        0.32599        0.32673        0.30071        0.32412        0.34256        0.29741        0.29345        0.26272        0.27931        0.35341        0.35188        0.25951        0.26896        0.25412        0.28269        0.22413        0.29109        0.22072        0.25199        0.33111        0.31938        0.34653        0.29674        0.24188        0.24180        0.24301        0.24260        0.18542        0.22396        0.25917        0.29791        0.27871        0.30349        0.29636        0.27954        0.28003        0.21026        0.17623        0.19045        0.23352        0.20137        0.21584        0.23177        0.20959        0.24734        0.33554        0.29591        0.30613        0.22201        0.25681        0.23551        0.28577        0.30338        0.14554        0.21662        0.22039        0.12657        0.22744        0.11000        0.15775        0.18808        0.12772       -0.11065       -0.59495
2.588647 2.561613 2.534727 2.507986 2.481392 2.454945 2.428644 2.402490 2.376483 2.350622 2.324907 2.299340 2.273918 2.248643 2.223515 2.198534 2.173699 2.149010 2.124468 2.100073 2.075824 2.051722 2.027766 2.003957 1.980294 1.956778 1.933409 1.910186 1.887109 1.864180 1.841396 1.818760 1.796270 1.773926 1.751729 1.729679 1.707775 1.686017 1.664407 1.642942 1.621625 1.600454 1.579429 1.558551 1.537820 1.517235 1.496797 1.476505 1.456360 1.436361 1.416509 1.637925 2.044078 1.617054 1.130257 0.988054 0.424656 0.811029 0.564267 0.835864 0.773834 0.787664 0.754354 0.710089 0.563304 0.513329 0.486707 0.446572 0.206457 0.381070 0.204062 0.306577 0.239504 0.180626 0.129763 0.005108 0.042831 -0.016000 -0.055190 0.103661 0.207160 0.196781 0.154570 0.329911 0.197530 0.495113 0.575629 0.548168 0.593016 0.876978 0.808564 0.945766 0.888429 0.973579 0.940870 1.078982 1.140334 1.076400 1.124807 0.952235 0.945125 0.784389 0.652845 0.769256 0.704259 0.463136 0.306127 0.253794 0.214407 0.147859 0.089140 0.125541 0.066022 0.151352 0.052277 0.261497 0.377620 0.357068 0.479509 0.583112 0.466710 0.544635 0.698364 0.746789 0.780928 0.732707 0.731250 0.715549 0.626439 0.570890 0.428155 0.285060 0.205047 0.076784 0.129987 -0.044689 -0.028010 -0.082739 -0.038746 0.003817 0.142747 0.090544 0.301030 0.276134 0.365552 0.457246 0.521077 0.507464 0.518734 0.504905 0.331195 0.308250 0.274675 0.100444 0.046068 -0.003384 -0.036336 -0.042173 -0.092675 -0.106162 -0.016610 0.055712 0.133027 0.136284 0.227632 0.332310 0.307539 0.419205 0.390009 0.281670 0.231551 0.246922 0.205476 0.100794 0.070713 0.015811 0.002100 0.002231 -0.018390 0.057099 0.145694 0.141571 0.224514 0.253547 0.303567 0.261288 0.220319 0.188398 0.210156 0.147670 0.044384 0.044301 -0.011027 -0.010290 -0.031850 0.015676 0.014553 0.172317 0.124271 0.180384 0.238034 0.198931 0.191429 0.197534 0.136160 0.102853 0.062829 0.043351 -0.038998 0.006839 0.021380 0.052315 0.049013 0.078510 0.096609 0.119871 0.136718 0.185689 0.076302 0.096644 0.069881 -0.000877 0.005063 0.008424 -0.011492 0.019013 0.002308 0.028706 0.070019 0.081586 0.118178 0.048257 0.097054 0.053256 0.008642 0.061568 -0.035240 -0.012776 0.022513 -0.002719 0.051445 0.052184 0.050654 0.054776 0.051513 0.044837 0.020503 -0.000086 0.005644 0.013076 -0.013717 0.069086 -0.016708 0.008096 0.055328 0.046840 0.033134 0.044236 0.036556 0.015037 -0.024078 -0.045637 -0.015495 0.015852 0.019555 0.061860 0.058229 0.057765 0.079303 0.062153 0.020714 0.061733 0.084074 0.016663 0.019802 0.057373 0.051421 0.099822 0.107764 0.111243 0.111153 0.064202 0.039296 0.030073 0.006362 -0.004319 0.046462 0.074783 0.040624 0.029909 0.031717 0.020147 0.087709 0.057343 -0.047852 -0.053005 0.031372 0.094953 0.006041 0.030224 0.056900 0.087456 0.025215 0.055695 0.080983 0.031044 0.039023 -0.037929 0.016374 0.111052 0.066211 -0.055276 -0.019857 -0.052201 0.022868 -0.107714 0.035153 -0.109511 -0.032002 0.055005 0.028214 0.031490 -0.043997 -0.061855 -0.084990 -0.080903 -0.066246 -0.125167 -0.094261 -0.038818 0.020733 -0.026530 0.037034 -0.015397 -0.041215 0.051355 -0.107491 -0.095550 -0.092050 -0.007799 -0.050015 -0.040741 0.003680 0.014550 0.013706 0.181499 -0.008342 0.144616 0.011336 0.263667 0.252114 0.326306 0.279164 0.109797 0.219726 0.260333 0.052117 0.250266 0.117016 0.123113 0.250981 0.130335 -0.614314
0.072396 0.072899 0.074406 0.076917 0.080433 0.084951 0.090471 0.096991 0.104509 0.113022 0.122526 0.133018 0.144492 0.156942 0.170360 0.184737 0.200061 0.216320 0.233500 0.251582 0.270547 0.290371 0.311029 0.332492 0.354726 0.377695 0.401356 0.425664 0.450568 0.476013 0.501937 0.528274 0.554950 0.581887 0.608999 0.636195 0.663377 0.690440 0.717272 0.743753 0.769759 0.795158 0.819810 0.843571 0.866289 0.887808 0.907965 0.926593 0.943522 0.958579 0.971586 0.982366 0.990741 0.996533 0.999568 0.999674 0.996686 0.990444 0.980797 0.967606 0.950743 0.930094 0.905564 0.877075 0.844570 0.808016 0.767406 0.722759 0.674125 0.621586 0.565256 0.505287 0.441866 0.375220 0.305613 0.233351 0.158781 0.082289 0.004300 0.074719 0.154267 0.233806 0.312764 0.390543 0.466516 0.540038 0.610446 0.677069 0.739232 0.796264 0.847504 0.892314 0.930080 0.960230 0.982236 0.995627 0.999996 0.995016 0.980440 0.956115 0.921993 0.878131 0.824705 0.762010 0.690467 0.610625 0.523163 0.428885 0.328724 0.223728 0.115060 0.003986 0.108139 0.219884 0.329758 0.436232 0.537756 0.632788 0.719811 0.797367 0.864078 0.918678 0.960037 0.987188 0.999359 0.995987 0.976750 0.941579 0.890676 0.824527 0.743904 0.649871 0.543774 0.427235 0.302134 0.170583 0.034897 0.102440 0.238822 0.371563 0.497955 0.615322 0.721077 0.812790 0.888241 0.945487 0.982915 0.999296 0.993836 0.966209 0.916591 0.845681 0.754704 0.645409 0.520047 0.381341 0.232434 0.076829 0.081686 0.239127 0.391410 0.534460 0.664318 0.777261 0.869914 0.939361 0.983249 0.999879 0.988285 0.948294 0.880561 0.786588 0.668713 0.530069 0.374521 0.206572 0.031248 0.146048 0.319692 0.484021 0.633518 0.763002 0.867825 0.944042 0.988585 0.999400 0.975561 0.917345 0.826269 0.705081 0.557703 0.389128 0.205279 0.012804 0.181144 0.369164 0.543899 0.698322 0.826034 0.921538 0.980506 0.999991 0.978602 0.916617 0.816029 0.680521 0.515362 0.327239 0.124002 0.085637 0.292476 0.487213 0.660874 0.805239 0.913245 0.979364 0.999907 0.973269 0.900069 0.783195 0.627735 0.440796 0.231210 0.009153 0.214349 0.427938 0.620519 0.781835 0.903047 0.977238 0.999848 0.968991 0.885643 0.753672 0.579716 0.372887 0.144346 0.093288 0.326602 0.542152 0.727242 0.870689 0.963535 0.999647 0.976166 0.893777 0.756768 0.572872 0.352879 0.110058 0.140624 0.383398 0.602683 0.784106 0.915462 0.987587 0.995035 0.936559 0.815301 0.638700 0.418106 0.168103 0.094417 0.351363 0.584697 0.777695 0.916197 0.989676 0.992111 0.922531 0.785228 0.589574 0.349460 0.082357 0.191906 0.452585 0.679610 0.855133 0.964986 0.999885 0.956283 0.836798 0.650161 0.410657 0.137116 0.148536 0.422979 0.663421 0.849501 0.965068 0.999647 0.949467 0.817956 0.615604 0.359235 0.070678 0.225037 0.501824 0.734845 0.902775 0.989812 0.987246 0.894426 0.719009 0.476436 0.188674 0.117708 0.413943 0.671764 0.866129 0.977702 0.994877 0.915076 0.745212 0.501213 0.206637 0.109511 0.415603 0.680534 0.876902 0.983930 0.989737 0.892788 0.702267 0.437350 0.125380 0.200856 0.506551 0.758586 0.929150 0.998909 0.959306 0.813733 0.577408 0.275918 0.057433 0.385256 0.670223 0.879373 0.987979 0.982597 0.862863 0.641798 0.344561 0.005694 0.334801 0.636140 0.861688 0.983466 0.985751 0.867253 0.641557 0.335739 0.012755 0.360600 0.663935 0.883948 0.991898 0.973024 0.828712 0.576636 0.248760 0.112573
1.000000 1.000000 1.000000 1.000000 1.000000 1.000000 1.000000 1.000000 1.000000 1.000000 1.000000 1.000000 1.000000 1.000000 1.000000 1.000000 1.000000 1.000000 1.000000 1.000000 1.000000 1.000000 1.000000 1.000000 1.000000 1.000000 1.000000 1.000000 1.000000 1.000000 1.000000 1.000000 1.000000 1.000000 1.000000 1.000000 1.000000 1.000000 1.000000 1.000000 1.000000 1.000000 1.000000 1.000000 1.000000 1.000000 1.000000 1.000000 1.000000 1.000000 1.000000 1.000000 0.933188 0.933188 0.933188 0.924008 0.924008 0.924008 0.924008 0.924008 0.924008 0.924008 0.924008 0.924008 0.924008 0.924008 0.924008 0.924008 0.924008 0.924008 0.924008 0.924008 0.924008 0.924008 0.924008 0.924008 0.924008 0.924008 0.924008 0.924008 0.924008 0.924008 0.924008 0.924008 0.924008 0.924008 0.924008 0.924008 0.924008 0.924008 0.924008 0.924008 0.924008 0.924008 0.924008 0.924008 0.949849 0.951062 0.958916 0.958747 0.958241 0.956135 0.955223 0.954097 0.953646 0.953920 0.954528 0.955363 0.967112 0.968131 0.969667 0.970469 0.971176 0.971830 0.971683 0.972472 0.971721 0.971186 0.970685 0.966739 0.967362 0.967950 0.968119 0.969165 0.969050 0.971269 0.971391 0.970818 0.969983 0.969289 0.968621 0.968228 0.967956 0.968446 0.968714 0.969978 0.973119 0.972539 0.972226 0.972384 0.972487 0.972658 0.973054 0.973827 0.969941 0.968429 0.966760 0.964579 0.968766 0.965912 0.965692 0.967055 0.967440 0.967841 0.966843 0.963019 0.957628 0.957001 0.954425 0.945282 0.943951 0.944589 0.946802 0.947205 0.945782 0.938335 0.938906 0.932280 0.933856 0.937104 0.931559 0.931409 0.932556 0.931769 0.930541 0.929932 0.927012 0.924268 0.922619 0.922405 0.925396 0.925483 0.926655 0.926487 0.920931 0.912760 0.900262 0.898821 0.893800 0.896865 0.885997 0.885877 0.885844 0.881806 0.885197 0.884646 0.885570 0.882519 0.866298 0.848731 0.842378 0.846210 0.851142 0.846437 0.845202 0.838162 0.849295 0.829660 0.842257 0.853294 0.850226 0.850236 0.849733 0.847687 0.841849 0.842735 0.844674 0.846271 0.845072 0.844184 0.843338 0.825951 0.827533 0.763055 0.745660 0.738367 0.744166 0.750757 0.752650 0.751761 0.758464 0.763434 0.753548 0.736232 0.728817 0.721286 0.725923 0.726527 0.729555 0.715568 0.686916 0.681506 0.650571 0.668410 0.681325 0.641795 0.665978 0.676868 0.675091 0.673673 0.667147 0.664616 0.660051 0.662835 0.670319 0.683335 0.700678 0.723450 0.720276 0.710931 0.708754 0.689403 0.682846 0.675676 0.688134 0.668740 0.664930 0.682785 0.682759 0.668588 0.647362 0.635888 0.626956 0.620926 0.629822 0.620048 0.615346 0.604655 0.580504 0.573738 0.608940 0.625302 0.645692 0.615136 0.601226 0.588522 0.567718 0.581201 0.527131 0.526757 0.547429 0.555126 0.532897 0.523519 0.534620 0.541894 0.543836 0.533840 0.518837 0.506782 0.522197 0.554942 0.545195 0.527318 0.529835 0.528028 0.520128 0.430274 0.424302 0.396124 0.363014 0.306604 0.284455 0.277537 0.261564 0.250749 0.215637 0.211806 0.222449 0.229451 0.240875 0.242914 0.226640 0.236384 0.231100 0.217731 0.156064 0.146064 0.138876 0.128155 0.127278 0.104878 0.127858 0.193234 0.195548 0.195548 0.195548 0.195548 0.195548 0.195548 0.206110 0.206110 0.206110 0.206110 0.206110 0.206110 0.206110 0.206110 0.206110 0.215165 0.215165 0.215165 0.215165 0.215165 0.215165 0.215165 0.215165 0.215165 0.215165 0.215165 0.215165 0.215165 0.215165
0.000000 0.000000 0.000000 0.000000 0.000000 0.000000 0.000000 0.000000 0.000000 0.000000 0.000000 0.000000 0.000000 0.000000 0.000000 0.000000 0.000000 0.000000 0.000000 0.000000 0.000000 0.000000 0.000000 0.000000 0.000000 0.000000 0.000000 0.000000 0.000000 0.000000 0.000000 0.000000 0.000000 0.000000 0.000000 0.000000 0.000000 0.000000 0.000000 0.000000 0.000000 0.000000 0.000000 0.000000 0.000000 0.000000 0.000000 0.000000 0.000000 0.000000 0.000000 0.000000 0.180334 0.180334 0.180334 0.199007 0.199007 0.199007 0.199007 0.199007 0.199007 0.199007 0.199007 0.199007 0.199007 0.199007 0.199007 0.199007 0.199007 0.199007 0.199007 0.199007 0.199007 0.199007 0.199007 0.199007 0.199007 0.199007 0.199007 0.199007 0.199007 0.199007 0.199007 0.199007 0.199007 0.199007 0.199007 0.199007 0.199007 0.199007 0.199007 0.199007 0.199007 0.199007 0.199007 0.199007 0.225018 0.225018 0.225018 0.225018 0.225018 0.225018 0.225018 0.225018 0.225018 0.225018 0.225018 0.225018 0.225018 0.225018 0.225018 0.225018 0.225018 0.225018 0.225018 0.225018 0.225018 0.225018 0.225018 0.225018 0.225018 0.225018 0.225018 0.225018 0.225018 0.244339 0.244339 0.244339 0.244339 0.244339 0.244339 0.244339 0.244339 0.244339 0.244339 0.244339 0.244339 0.244339 0.244339 0.244339 0.244339 0.244339 0.244339 0.244339 0.244339 0.244339 0.244339 0.244339 0.251976 0.251976 0.251976 0.251976 0.251976 0.251976 0.251976 0.251976 0.251976 0.251976 0.251976 0.251976 0.251976 0.251976 0.251976 0.251976 0.251976 0.251976 0.251976 0.251976 0.264906 0.264906 0.264906 0.264906 0.264906 0.264906 0.264906 0.264906 0.264906 0.264906 0.264906 0.264906 0.264906 0.264906 0.264906 0.264906 0.264906 0.264906 0.264906 0.264906 0.264906 0.264906 0.264906 0.264906 0.264906 0.264906 0.264906 0.264906 0.264906 0.264906 0.264906 0.264906 0.264906 0.264906 0.264906 0.264906 0.264906 0.264906 0.264906 0.264906 0.264906 0.264906 0.264906 0.264906 0.264906 0.264906 0.264906 0.264906 0.264906 0.264906 0.264906 0.264906 0.264906 0.264906 0.264906 0.264906 0.264906 0.264906 0.264906 0.264906 0.264906 0.264906 0.256074 0.256074 0.256074 0.256074 0.256074 0.256074 0.256074 0.256074 0.256074 0.256074 0.256074 0.256074 0.256074 0.256074 0.269680 0.269680 0.269680 0.269680 0.269680 0.269680 0.269680 0.269680 0.269680 0.269680 0.269680 0.269680 0.264906 0.264906 0.264906 0.264906 0.264906 0.264906 0.264906 0.264906 0.264906 0.264906 0.264906 0.264906 0.269680 0.269680 0.269680 0.269680 0.269680 0.269680 0.269680 0.269680 0.269680 0.269680 0.269680 0.264906 0.264906 0.264906 0.264906 0.264906 0.264906 0.264906 0.264906 0.264906 0.264906 0.264906 0.256074 0.256074 0.256074 0.256074 0.256074 0.256074 0.256074 0.256074 0.256074 0.256074 0.256074 0.264906 0.264906 0.264906 0.264906 0.264906 0.264906 0.264906 0.264906 0.264906 0.264906 0.260378 0.260378 0.260378 0.260378 0.260378 0.260378 0.260378 0.260378 0.260378 0.260378 0.256074 0.256074 0.256074 0.256074 0.256074 0.256074 0.256074 0.256074 0.256074 0.256074 0.260378 0.260378 0.260378 0.260378 0.260378 0.260378 0.260378 0.260378 0.260378 0.256074 0.256074 0.256074 0.256074 0.256074 0.256074 0.256074 0.256074 0.256074 0.251976 0.251976 0.251976 0.251976 0.251976 0.251976 0.251976 0.251976 0.251976 0.251976 0.251976 0.251976 0.251976 0.251976
