# Output from CTFFind version 4.1.9, run on 2019-11-03 20:02:30
# Input file: stack6_bm3d_averaged_1_5.5_0_50_half.mrc ; Number of micrographs: 1
# Pixel size: 3.000 Angstroms ; acceleration voltage: 300.0 keV ; spherical aberration: 0.00 mm ; amplitude contrast: 0.07
# Box size: 512 pixels ; min. res.: 30.0 Angstroms ; max. res.: 5.0 Angstroms ; min. def.: 5000.0 um; max. def. 50000.0 um; num. frames averaged: 1
# 6 lines per micrograph: #1 - spatial frequency (1/Angstroms); #2 - 1D rotational average of spectrum (assuming no astigmatism); #3 - 1D rotational average of spectrum; #4 - CTF fit; #5 - cross-correlation between spectrum and CTF fit; #6 - 2sigma of expected cross correlation of noise
0.000000 0.000651 0.001302 0.001953 0.002604 0.003255 0.003906 0.004557 0.005208 0.005859 0.006510 0.007161 0.007812 0.008464 0.009115 0.009766 0.010417 0.011068 0.011719 0.012370 0.013021 0.013672 0.014323 0.014974 0.015625 0.016276 0.016927 0.017578 0.018229 0.018880 0.019531 0.020182 0.020833 0.021484 0.022135 0.022786 0.023438 0.024089 0.024740 0.025391 0.026042 0.026693 0.027344 0.027995 0.028646 0.029297 0.029948 0.030599 0.031250 0.031901 0.032552 0.033203 0.033854 0.034505 0.035156 0.035807 0.036458 0.037109 0.037760 0.038411 0.039062 0.039714 0.040365 0.041016 0.041667 0.042318 0.042969 0.043620 0.044271 0.044922 0.045573 0.046224 0.046875 0.047526 0.048177 0.048828 0.049479 0.050130 0.050781 0.051432 0.052083 0.052734 0.053385 0.054036 0.054688 0.055339 0.055990 0.056641 0.057292 0.057943 0.058594 0.059245 0.059896 0.060547 0.061198 0.061849 0.062500 0.063151 0.063802 0.064453 0.065104 0.065755 0.066406 0.067057 0.067708 0.068359 0.069010 0.069661 0.070312 0.070964 0.071615 0.072266 0.072917 0.073568 0.074219 0.074870 0.075521 0.076172 0.076823 0.077474 0.078125 0.078776 0.079427 0.080078 0.080729 0.081380 0.082031 0.082682 0.083333 0.083984 0.084635 0.085286 0.085938 0.086589 0.087240 0.087891 0.088542 0.089193 0.089844 0.090495 0.091146 0.091797 0.092448 0.093099 0.093750 0.094401 0.095052 0.095703 0.096354 0.097005 0.097656 0.098307 0.098958 0.099609 0.100260 0.100911 0.101562 0.102214 0.102865 0.103516 0.104167 0.104818 0.105469 0.106120 0.106771 0.107422 0.108073 0.108724 0.109375 0.110026 0.110677 0.111328 0.111979 0.112630 0.113281 0.113932 0.114583 0.115234 0.115885 0.116536 0.117188 0.117839 0.118490 0.119141 0.119792 0.120443 0.121094 0.121745 0.122396 0.123047 0.123698 0.124349 0.125000 0.125651 0.126302 0.126953 0.127604 0.128255 0.128906 0.129557 0.130208 0.130859 0.131510 0.132161 0.132812 0.133464 0.134115 0.134766 0.135417 0.136068 0.136719 0.137370 0.138021 0.138672 0.139323 0.139974 0.140625 0.141276 0.141927 0.142578 0.143229 0.143880 0.144531 0.145182 0.145833 0.146484 0.147135 0.147786 0.148438 0.149089 0.149740 0.150391 0.151042 0.151693 0.152344 0.152995 0.153646 0.154297 0.154948 0.155599 0.156250 0.156901 0.157552 0.158203 0.158854 0.159505 0.160156 0.160807 0.161458 0.162109 0.162760 0.163411 0.164062 0.164714 0.165365 0.166016 0.166667 0.167318 0.167969 0.168620 0.169271 0.169922 0.170573 0.171224 0.171875 0.172526 0.173177 0.173828 0.174479 0.175130 0.175781 0.176432 0.177083 0.177734 0.178385 0.179036 0.179688 0.180339 0.180990 0.181641 0.182292 0.182943 0.183594 0.184245 0.184896 0.185547 0.186198 0.186849 0.187500 0.188151 0.188802 0.189453 0.190104 0.190755 0.191406 0.192057 0.192708 0.193359 0.194010 0.194661 0.195312 0.195964 0.196615 0.197266 0.197917 0.198568 0.199219 0.199870 0.200521 0.201172 0.201823 0.202474 0.203125 0.203776 0.204427 0.205078 0.205729 0.206380 0.207031 0.207682 0.208333 0.208984 0.209635 0.210286 0.210938 0.211589 0.212240 0.212891 0.213542 0.214193 0.214844 0.215495 0.216146 0.216797 0.217448 0.218099 0.218750 0.219401 0.220052 0.220703 0.221354 0.222005 0.222656 0.223307 0.223958 0.224609 0.225260 0.225911 0.226562 0.227214 0.227865 0.228516 0.229167 0.229818 0.230469 0.231120 0.231771 0.232422 0.233073 0.233724 0.234375 0.235026 0.235677
       0.31269        0.31269        0.31269        0.31269        0.31269        0.31269        0.31269        0.31269        0.31269        0.31269        0.31269        0.31269        0.31269        0.31269        0.31269        0.31269        0.31269        0.31269        0.31269        0.31269        0.31269        0.31269        0.31269        0.31269        0.31269        0.31269        0.31269        0.31269        0.31269        0.31269        0.31269        0.31269        0.31269        0.31269        0.31269        0.31269        0.31269        0.31269        0.31269        0.31269        0.31269        0.31269        0.31269        0.31269        0.31269        0.31269        0.31269        0.31269        0.31269        0.31269        0.31269        0.59686        0.71872        0.35622        0.17973        0.12728       -0.14654        0.10626        0.02925        0.03338        0.08874        0.30478        0.32064        0.24778        0.14498       -0.04126       -0.01463        0.04088       -0.12473       -0.13249       -0.08362       -0.10012       -0.21687       -0.14185       -0.25660       -0.27145       -0.27124       -0.33553       -0.41148       -0.35044       -0.25792       -0.22684       -0.32779       -0.24296       -0.29735       -0.23658       -0.16254       -0.11043       -0.07530       -0.00847        0.02736        0.12600        0.16879        0.21372        0.33487        0.40043        0.35327        0.46411        0.54671        0.55487        0.63476        0.57085        0.60404        0.59744        0.60777        0.60868        0.55309        0.57402        0.54800        0.39081        0.33139        0.36351        0.34114        0.19452        0.16604        0.13724        0.08831        0.09180        0.00639        0.06588        0.04539        0.00436        0.10150        0.16253        0.26037        0.35020        0.34409        0.37265        0.45318        0.48699        0.41836        0.64562        0.53701        0.47922        0.56856        0.49843        0.53633        0.49725        0.37039        0.30585        0.27700        0.22893        0.21731        0.19689        0.17549        0.13072        0.21165        0.19688        0.23481        0.20257        0.26269        0.31036        0.32874        0.44215        0.42966        0.41039        0.42526        0.47004        0.44038        0.43116        0.39187        0.39749        0.33352        0.28138        0.24242        0.24833        0.24439        0.19222        0.16359        0.22010        0.22849        0.27140        0.34181        0.35866        0.41278        0.39479        0.43216        0.45803        0.45393        0.42218        0.38728        0.40966        0.36767        0.32599        0.33119        0.31250        0.25509        0.27293        0.27235        0.23150        0.29786        0.27624        0.28762        0.31937        0.37384        0.40854        0.40108        0.42300        0.37368        0.41140        0.39054        0.30717        0.28559        0.24230        0.25850        0.22370        0.20314        0.28857        0.34329        0.31547        0.28582        0.34112        0.26595        0.32650        0.37651        0.36868        0.35792        0.37756        0.32521        0.34062        0.32173        0.28509        0.27960        0.24310        0.28966        0.30185        0.31582        0.33489        0.37675        0.37343        0.36932        0.32771        0.34970        0.33817        0.32203        0.31754        0.28495        0.28281        0.25322        0.31844        0.32617        0.31876        0.29246        0.32847        0.33286        0.33036        0.34394        0.31736        0.28568        0.29059        0.28942        0.26625        0.24571        0.23531        0.24472        0.26092        0.24695        0.28519        0.27869        0.31898        0.32194        0.26573        0.29877        0.26748        0.21199        0.26653        0.24484        0.23835        0.27812        0.30201        0.29981        0.29480        0.29896        0.29756        0.31293        0.32839        0.27351        0.31241        0.30871        0.35610        0.28083        0.26554        0.26102        0.30970        0.31712        0.32641        0.33995        0.30973        0.22701        0.28335        0.25200        0.24920        0.24422        0.25119        0.28317        0.23047        0.29624        0.30905        0.34461        0.30778        0.29106        0.25131        0.26856        0.26904        0.23620        0.26087        0.27495        0.31010        0.33395        0.30387        0.28973        0.27328        0.30922        0.26743        0.23114        0.19281        0.28880        0.33242        0.32517        0.31309        0.28792        0.23136        0.21489        0.24559        0.23359        0.23426        0.26761        0.27605        0.25329        0.23990        0.22505        0.27020        0.24438        0.25076        0.26926        0.25477        0.18223        0.23244        0.25038        0.23688        0.28370        0.24698        0.23849        0.19713        0.24241        0.27089        0.20980        0.22402        0.14133        0.14856        0.31281        0.18274        0.20441        0.29645        0.18439        0.17866        0.12807        0.22486        0.15576        0.14902       -0.05711       -0.59628       -0.95309
2.271356 2.252201 2.233131 2.214145 2.195245 2.176428 2.157697 2.139050 2.120488 2.102010 2.083617 2.065309 2.047086 2.028946 2.010892 1.992923 1.975037 1.957237 1.939521 1.921890 1.904344 1.886882 1.869505 1.852212 1.835005 1.817881 1.800843 1.783889 1.767020 1.750235 1.733535 1.716920 1.700389 1.683943 1.667582 1.651305 1.635113 1.619006 1.602983 1.587045 1.571191 1.555423 1.539738 1.524139 1.508624 1.493194 1.477848 1.462587 1.447411 1.432319 1.417312 1.776092 2.104247 1.455153 1.313650 1.064219 0.515392 0.899211 0.810528 0.820436 0.693276 1.353893 1.192278 1.205202 0.969371 0.621698 0.481272 0.741412 0.559621 0.242210 0.297179 0.470272 0.221583 0.248156 0.107125 0.007876 -0.020708 -0.019184 -0.297744 -0.176883 -0.014964 -0.042716 -0.103318 -0.016973 -0.138948 -0.113666 0.062978 0.156942 0.224811 0.266367 0.344349 0.590444 0.539729 0.616225 0.815943 1.000048 0.792987 1.189261 1.154605 1.220166 1.318294 1.227253 1.182784 1.311229 1.197709 1.326685 1.159396 1.106258 1.184784 0.945989 0.661950 0.720991 0.772215 0.477428 0.404032 0.348606 0.203912 0.193498 0.040938 0.179947 0.146787 0.017271 0.114495 0.228605 0.344241 0.601567 0.592772 0.567628 0.706771 0.869717 0.586688 1.017432 1.003743 0.753878 0.900397 0.752928 0.836566 0.861967 0.593480 0.402546 0.389370 0.327953 0.213410 0.183610 0.177116 -0.012706 0.183399 0.159666 0.231177 0.119015 0.262407 0.316239 0.277599 0.483649 0.587945 0.505257 0.368015 0.677743 0.556578 0.476825 0.504684 0.441767 0.304832 0.330116 0.121097 0.182177 0.050605 0.190405 -0.061970 0.043583 0.029086 0.238232 0.095735 0.369405 0.315647 0.376542 0.405939 0.396501 0.547611 0.397787 0.372234 0.427659 0.224572 0.322405 0.160893 0.261445 0.082433 0.122010 0.094970 0.082388 0.037428 0.154687 0.058855 0.141078 0.234441 0.269658 0.343663 0.267832 0.327654 0.256438 0.290536 0.184202 0.101968 0.037889 -0.014144 0.012508 -0.081283 -0.053306 0.095658 0.195580 0.064825 0.098150 0.099784 0.022501 0.171120 0.224295 0.179417 0.223120 0.133397 0.124336 0.108166 0.094555 0.048806 -0.068307 -0.023351 0.131912 -0.006105 0.127067 0.104800 0.221616 0.216777 0.180886 0.139378 0.183956 0.092631 0.113529 0.105574 0.039130 -0.010167 0.016376 0.114346 0.125755 0.099955 0.048895 0.134132 0.107542 0.070769 0.122845 0.020661 -0.018156 0.029219 -0.013409 -0.035155 -0.083303 -0.103095 -0.030896 -0.063718 -0.077077 0.003058 0.006925 0.079190 0.061291 -0.046181 0.051322 -0.063890 -0.115499 0.023120 -0.077651 -0.086675 0.039129 0.052106 0.019686 0.044813 -0.020312 0.044754 0.122843 -0.031804 -0.019255 0.089628 0.031190 0.125484 -0.050224 -0.029622 -0.048140 0.107221 0.025147 0.071662 0.131236 0.024940 -0.092705 0.000870 -0.038393 -0.044898 -0.055950 -0.042351 0.008368 -0.108136 0.108074 0.066905 0.166420 0.044735 0.006502 -0.011885 0.011277 0.037448 -0.060207 0.037344 0.023257 0.126756 0.126479 0.113523 0.081584 0.068284 0.170202 -0.008672 0.006039 -0.105389 0.149722 0.172997 0.145309 0.150041 0.054135 -0.032056 -0.056178 -0.019424 -0.013869 -0.014226 0.042826 0.087345 0.002161 -0.004227 0.027143 0.060513 0.057122 0.064821 0.095849 0.026934 -0.026221 0.031928 0.088871 0.049439 0.156235 0.085838 -0.005432 0.065910 0.113360 0.133920 0.129892 0.113165 -0.056026 -0.132991 0.454322 0.380670 0.328272 0.569653 0.269914 0.318951 0.157895 0.481066 0.288113 0.299401 0.166370 -0.830983
0.072396 0.072838 0.074163 0.076371 0.079462 0.083435 0.088289 0.094022 0.100634 0.108122 0.116484 0.125716 0.135815 0.146776 0.158594 0.171262 0.184772 0.199116 0.214282 0.230259 0.247032 0.264586 0.282903 0.301961 0.321739 0.342209 0.363344 0.385111 0.407474 0.430396 0.453833 0.477738 0.502061 0.526747 0.551735 0.576960 0.602354 0.627843 0.653346 0.678779 0.704051 0.729069 0.753731 0.777931 0.801559 0.824499 0.846629 0.867825 0.887956 0.906890 0.924488 0.940610 0.955112 0.967851 0.978680 0.987451 0.994019 0.998237 0.999964 0.999060 0.995388 0.988821 0.979236 0.966518 0.950564 0.931282 0.908590 0.882425 0.852736 0.819493 0.782682 0.742313 0.698416 0.651047 0.600285 0.546238 0.489041 0.428857 0.365881 0.300336 0.232478 0.162594 0.091002 0.018050 0.055883 0.130388 0.205031 0.279348 0.352856 0.425047 0.495396 0.563366 0.628407 0.689964 0.747479 0.800402 0.848190 0.890315 0.926273 0.955588 0.977820 0.992569 0.999485 0.998277 0.988713 0.970632 0.943948 0.908657 0.864842 0.812675 0.752424 0.684454 0.609231 0.527317 0.439375 0.346165 0.248540 0.147440 0.043885 0.061028 0.166143 0.270251 0.372106 0.470437 0.563965 0.651424 0.731572 0.803218 0.865233 0.916578 0.956321 0.983654 0.997916 0.998607 0.985407 0.958192 0.917039 0.862242 0.794319 0.714007 0.622269 0.520285 0.409446 0.291336 0.167716 0.040506 0.088250 0.216406 0.341757 0.462066 0.575119 0.678750 0.770902 0.849658 0.913296 0.960323 0.989521 0.999980 0.991137 0.962795 0.915150 0.848800 0.764752 0.664419 0.549605 0.422480 0.285552 0.141622 0.006269 0.154897 0.300927 0.440980 0.571721 0.689935 0.792613 0.877034 0.940842 0.982127 0.999484 0.992074 0.959665 0.902665 0.822136 0.719788 0.597962 0.459586 0.308120 0.147478 0.018066 0.183983 0.345614 0.498297 0.637510 0.759000 0.858929 0.934004 0.981593 0.999836 0.987727 0.945176 0.873050 0.773168 0.648289 0.502048 0.338864 0.163824 0.017463 0.199040 0.374797 0.538674 0.684877 0.808085 0.903659 0.967832 0.997874 0.992225 0.950588 0.873990 0.764777 0.626575 0.464192 0.283467 0.091080 0.105682 0.299199 0.481803 0.646095 0.785242 0.893285 0.965408 0.998170 0.989698 0.939809 0.850073 0.723801 0.565943 0.382939 0.182460 0.026882 0.235900 0.435226 0.615737 0.768976 0.887568 0.965597 0.998919 0.985421 0.925170 0.820481 0.675864 0.497862 0.294798 0.076395 0.146661 0.363236 0.562304 0.733521 0.867767 0.957665 0.998014 0.986118 0.922006 0.808499 0.651135 0.457938 0.239048 0.006209 0.227834 0.450029 0.647754 0.809529 0.925727 0.989163 0.995583 0.943987 0.836772 0.679681 0.481538 0.253798 0.009912 0.235431 0.467203 0.670938 0.833664 0.944749 0.996643 0.985427 0.911160 0.777971 0.593885 0.370404 0.121820 0.135662 0.384967 0.609279 0.793179 0.923751 0.991510 0.991152 0.922021 0.788260 0.598637 0.366026 0.106581 0.161341 0.418481 0.646035 0.827068 0.947796 0.998685 0.975268 0.878586 0.715243 0.497021 0.240102 0.036101 0.310362 0.561273 0.768927 0.916516 0.991754 0.987952 0.904681 0.747947 0.529842 0.267673 0.017345 0.301778 0.561874 0.775578 0.924413 0.995148 0.981031 0.882517 0.707374 0.470168 0.191118 0.105567 0.393759 0.647693 0.844311 0.965377 0.999256 0.942097 0.798357 0.580554 0.308267 0.006448 0.296823 0.572914 0.795383 0.942524 0.999570 0.960250 0.827572 0.613716 0.339009 0.030078 0.282680 0.568056 0.797160 0.946401 0.999962
1.000000 1.000000 1.000000 1.000000 1.000000 1.000000 1.000000 1.000000 1.000000 1.000000 1.000000 1.000000 1.000000 1.000000 1.000000 1.000000 1.000000 1.000000 1.000000 1.000000 1.000000 1.000000 1.000000 1.000000 1.000000 1.000000 1.000000 1.000000 1.000000 1.000000 1.000000 1.000000 1.000000 1.000000 1.000000 1.000000 1.000000 1.000000 1.000000 1.000000 1.000000 1.000000 1.000000 1.000000 1.000000 1.000000 1.000000 1.000000 1.000000 1.000000 1.000000 1.000000 0.780320 0.780320 0.780320 0.780320 0.780320 0.780320 0.780320 0.765485 0.765485 0.765485 0.765485 0.765485 0.765485 0.765485 0.765485 0.765485 0.765485 0.765485 0.765485 0.765485 0.765485 0.765485 0.765485 0.765485 0.765485 0.765485 0.765485 0.765485 0.765485 0.765485 0.765485 0.765485 0.765485 0.765485 0.765485 0.765485 0.765485 0.765485 0.765485 0.765485 0.765485 0.765485 0.765485 0.765485 0.765485 0.765485 0.765485 0.765485 0.765485 0.765485 0.765485 0.912079 0.912296 0.915030 0.909953 0.911776 0.909714 0.903265 0.906227 0.905524 0.905370 0.906333 0.907609 0.909467 0.912714 0.919118 0.921896 0.929600 0.932914 0.934182 0.934210 0.931247 0.938750 0.936314 0.934556 0.922661 0.926006 0.925656 0.925838 0.924653 0.924776 0.926655 0.926588 0.924464 0.922621 0.920404 0.918592 0.919145 0.918739 0.918692 0.918865 0.919059 0.919493 0.920078 0.916219 0.918481 0.917365 0.913795 0.910497 0.910072 0.911232 0.904350 0.900954 0.891555 0.892729 0.891621 0.896735 0.893169 0.892251 0.893486 0.894252 0.894917 0.893207 0.893260 0.891177 0.892965 0.889989 0.886166 0.882531 0.882666 0.884802 0.890862 0.893575 0.893165 0.889817 0.883790 0.874981 0.872729 0.858728 0.830263 0.831031 0.834108 0.835903 0.836624 0.835803 0.834307 0.830172 0.823044 0.815347 0.819879 0.819480 0.812251 0.799616 0.799800 0.797410 0.804827 0.808474 0.800317 0.803280 0.800399 0.799897 0.800799 0.799473 0.799142 0.795534 0.798529 0.806855 0.807415 0.799304 0.794460 0.789088 0.768150 0.769201 0.775539 0.785949 0.786756 0.782169 0.769911 0.777718 0.773093 0.784671 0.797504 0.796175 0.793578 0.773651 0.735275 0.721106 0.712692 0.714766 0.717001 0.707596 0.700510 0.701487 0.705782 0.653069 0.641197 0.630349 0.627800 0.637137 0.641456 0.632484 0.602755 0.620655 0.617318 0.595819 0.591823 0.553095 0.537785 0.487944 0.490787 0.486899 0.460493 0.447341 0.435562 0.451019 0.462705 0.461421 0.458469 0.428968 0.414732 0.415497 0.414451 0.420991 0.420367 0.423450 0.378211 0.359435 0.345701 0.365372 0.366957 0.367514 0.380003 0.387649 0.388548 0.370344 0.351722 0.345430 0.361808 0.376682 0.386877 0.388196 0.360529 0.341897 0.324459 0.330833 0.368839 0.362259 0.363168 0.355706 0.362433 0.373291 0.353306 0.332212 0.312613 0.362142 0.366636 0.361596 0.327908 0.326821 0.342140 0.344396 0.338913 0.322765 0.345535 0.372144 0.364807 0.372091 0.364773 0.400067 0.451838 0.440690 0.433210 0.456878 0.446544 0.441048 0.417434 0.402468 0.398901 0.377384 0.369445 0.348290 0.334759 0.324341 0.327480 0.352791 0.360566 0.393290 0.369196 0.338320 0.242023 0.314402 0.229902 0.235022 0.235022 0.235022 0.235022 0.235022 0.235022 0.235022 0.235022 0.255372 0.255372 0.255372 0.255372 0.255372 0.255372 0.255372 0.255372 0.255372 0.255372 0.255372 0.255372 0.255372 0.255372 0.255372 0.255372 0.255372 0.255372 0.255372 0.255372 0.255372
0.000000 0.000000 0.000000 0.000000 0.000000 0.000000 0.000000 0.000000 0.000000 0.000000 0.000000 0.000000 0.000000 0.000000 0.000000 0.000000 0.000000 0.000000 2.000000 0.000000 0.000000 0.000000 0.000000 0.000000 0.000000 0.000000 0.000000 0.000000 0.000000 0.000000 0.000000 0.000000 0.000000 0.000000 0.000000 0.000000 0.000000 0.000000 0.000000 0.000000 0.000000 0.000000 0.000000 0.000000 0.000000 0.000000 0.000000 0.000000 0.000000 0.000000 0.000000 0.000000 0.173422 0.173422 0.173422 0.173422 0.173422 0.173422 0.173422 0.191565 0.191565 0.191565 0.191565 0.191565 0.191565 0.191565 0.191565 0.191565 0.191565 0.191565 0.191565 0.191565 0.191565 0.191565 0.191565 0.191565 0.191565 0.191565 0.191565 0.191565 0.191565 0.191565 0.191565 0.191565 0.191565 0.191565 0.191565 0.191565 0.191565 0.191565 0.191565 0.191565 0.191565 0.191565 0.191565 0.191565 0.191565 0.191565 0.191565 0.191565 0.191565 0.191565 0.191565 0.222222 0.222222 0.222222 0.222222 0.222222 0.222222 0.222222 0.222222 0.222222 0.222222 0.222222 0.222222 0.222222 0.222222 0.222222 0.222222 0.222222 0.222222 0.222222 0.222222 0.222222 0.222222 0.222222 0.222222 0.222222 0.222222 0.222222 0.222222 0.222222 0.222222 0.234082 0.234082 0.234082 0.234082 0.234082 0.234082 0.234082 0.234082 0.234082 0.234082 0.234082 0.234082 0.234082 0.234082 0.234082 0.234082 0.234082 0.234082 0.234082 0.234082 0.234082 0.234082 0.234082 0.234082 0.234082 0.244339 0.244339 0.244339 0.244339 0.244339 0.244339 0.244339 0.244339 0.244339 0.244339 0.244339 0.244339 0.244339 0.244339 0.244339 0.244339 0.244339 0.244339 0.244339 0.244339 0.244339 0.248069 0.248069 0.248069 0.248069 0.248069 0.248069 0.248069 0.248069 0.248069 0.248069 0.248069 0.248069 0.248069 0.248069 0.248069 0.248069 0.248069 0.248069 0.248069 0.256074 0.256074 0.256074 0.256074 0.256074 0.256074 0.256074 0.256074 0.256074 0.256074 0.256074 0.256074 0.256074 0.256074 0.256074 0.256074 0.256074 0.256074 0.256074 0.256074 0.256074 0.256074 0.256074 0.256074 0.256074 0.256074 0.256074 0.256074 0.256074 0.256074 0.256074 0.256074 0.256074 0.256074 0.256074 0.256074 0.256074 0.256074 0.256074 0.256074 0.256074 0.256074 0.256074 0.256074 0.256074 0.256074 0.256074 0.256074 0.256074 0.256074 0.256074 0.256074 0.256074 0.256074 0.256074 0.256074 0.256074 0.256074 0.256074 0.256074 0.256074 0.256074 0.260378 0.260378 0.260378 0.260378 0.260378 0.260378 0.260378 0.260378 0.260378 0.260378 0.260378 0.260378 0.260378 0.256074 0.256074 0.256074 0.256074 0.256074 0.256074 0.256074 0.256074 0.256074 0.256074 0.256074 0.256074 0.256074 0.260378 0.260378 0.260378 0.260378 0.260378 0.260378 0.260378 0.260378 0.260378 0.260378 0.260378 0.260378 0.251976 0.251976 0.251976 0.251976 0.251976 0.251976 0.251976 0.251976 0.251976 0.251976 0.251976 0.251976 0.256074 0.256074 0.256074 0.256074 0.256074 0.256074 0.256074 0.256074 0.256074 0.256074 0.256074 0.251976 0.251976 0.251976 0.251976 0.251976 0.251976 0.251976 0.251976 0.251976 0.251976 0.251976 0.260378 0.260378 0.260378 0.260378 0.260378 0.260378 0.260378 0.260378 0.260378 0.260378 0.244339 0.244339 0.244339 0.244339 0.244339 0.244339 0.244339 0.244339 0.244339 0.244339 0.244339 0.244339 0.244339 0.244339 0.244339 0.244339 0.244339 0.244339 0.244339 0.244339 0.244339
