# Output from CTFFind version 4.1.9, run on 2019-11-03 20:04:25
# Input file: stack16_bm3d_averaged_1_10_0_250_half.mrc ; Number of micrographs: 1
# Pixel size: 3.000 Angstroms ; acceleration voltage: 300.0 keV ; spherical aberration: 0.00 mm ; amplitude contrast: 0.07
# Box size: 512 pixels ; min. res.: 30.0 Angstroms ; max. res.: 5.0 Angstroms ; min. def.: 5000.0 um; max. def. 50000.0 um; num. frames averaged: 1
# 6 lines per micrograph: #1 - spatial frequency (1/Angstroms); #2 - 1D rotational average of spectrum (assuming no astigmatism); #3 - 1D rotational average of spectrum; #4 - CTF fit; #5 - cross-correlation between spectrum and CTF fit; #6 - 2sigma of expected cross correlation of noise
0.000000 0.000651 0.001302 0.001953 0.002604 0.003255 0.003906 0.004557 0.005208 0.005859 0.006510 0.007161 0.007812 0.008464 0.009115 0.009766 0.010417 0.011068 0.011719 0.012370 0.013021 0.013672 0.014323 0.014974 0.015625 0.016276 0.016927 0.017578 0.018229 0.018880 0.019531 0.020182 0.020833 0.021484 0.022135 0.022786 0.023438 0.024089 0.024740 0.025391 0.026042 0.026693 0.027344 0.027995 0.028646 0.029297 0.029948 0.030599 0.031250 0.031901 0.032552 0.033203 0.033854 0.034505 0.035156 0.035807 0.036458 0.037109 0.037760 0.038411 0.039062 0.039714 0.040365 0.041016 0.041667 0.042318 0.042969 0.043620 0.044271 0.044922 0.045573 0.046224 0.046875 0.047526 0.048177 0.048828 0.049479 0.050130 0.050781 0.051432 0.052083 0.052734 0.053385 0.054036 0.054688 0.055339 0.055990 0.056641 0.057292 0.057943 0.058594 0.059245 0.059896 0.060547 0.061198 0.061849 0.062500 0.063151 0.063802 0.064453 0.065104 0.065755 0.066406 0.067057 0.067708 0.068359 0.069010 0.069661 0.070312 0.070964 0.071615 0.072266 0.072917 0.073568 0.074219 0.074870 0.075521 0.076172 0.076823 0.077474 0.078125 0.078776 0.079427 0.080078 0.080729 0.081380 0.082031 0.082682 0.083333 0.083984 0.084635 0.085286 0.085938 0.086589 0.087240 0.087891 0.088542 0.089193 0.089844 0.090495 0.091146 0.091797 0.092448 0.093099 0.093750 0.094401 0.095052 0.095703 0.096354 0.097005 0.097656 0.098307 0.098958 0.099609 0.100260 0.100911 0.101562 0.102214 0.102865 0.103516 0.104167 0.104818 0.105469 0.106120 0.106771 0.107422 0.108073 0.108724 0.109375 0.110026 0.110677 0.111328 0.111979 0.112630 0.113281 0.113932 0.114583 0.115234 0.115885 0.116536 0.117188 0.117839 0.118490 0.119141 0.119792 0.120443 0.121094 0.121745 0.122396 0.123047 0.123698 0.124349 0.125000 0.125651 0.126302 0.126953 0.127604 0.128255 0.128906 0.129557 0.130208 0.130859 0.131510 0.132161 0.132812 0.133464 0.134115 0.134766 0.135417 0.136068 0.136719 0.137370 0.138021 0.138672 0.139323 0.139974 0.140625 0.141276 0.141927 0.142578 0.143229 0.143880 0.144531 0.145182 0.145833 0.146484 0.147135 0.147786 0.148438 0.149089 0.149740 0.150391 0.151042 0.151693 0.152344 0.152995 0.153646 0.154297 0.154948 0.155599 0.156250 0.156901 0.157552 0.158203 0.158854 0.159505 0.160156 0.160807 0.161458 0.162109 0.162760 0.163411 0.164062 0.164714 0.165365 0.166016 0.166667 0.167318 0.167969 0.168620 0.169271 0.169922 0.170573 0.171224 0.171875 0.172526 0.173177 0.173828 0.174479 0.175130 0.175781 0.176432 0.177083 0.177734 0.178385 0.179036 0.179688 0.180339 0.180990 0.181641 0.182292 0.182943 0.183594 0.184245 0.184896 0.185547 0.186198 0.186849 0.187500 0.188151 0.188802 0.189453 0.190104 0.190755 0.191406 0.192057 0.192708 0.193359 0.194010 0.194661 0.195312 0.195964 0.196615 0.197266 0.197917 0.198568 0.199219 0.199870 0.200521 0.201172 0.201823 0.202474 0.203125 0.203776 0.204427 0.205078 0.205729 0.206380 0.207031 0.207682 0.208333 0.208984 0.209635 0.210286 0.210938 0.211589 0.212240 0.212891 0.213542 0.214193 0.214844 0.215495 0.216146 0.216797 0.217448 0.218099 0.218750 0.219401 0.220052 0.220703 0.221354 0.222005 0.222656 0.223307 0.223958 0.224609 0.225260 0.225911 0.226562 0.227214 0.227865 0.228516 0.229167 0.229818 0.230469 0.231120 0.231771 0.232422 0.233073 0.233724 0.234375 0.235026 0.235677
       0.37331        0.37331        0.37331        0.37331        0.37331        0.37331        0.37331        0.37331        0.37331        0.37331        0.37331        0.37331        0.37331        0.37331        0.37331        0.37331        0.37331        0.37331        0.37331        0.37331        0.37331        0.37331        0.37331        0.37331        0.37331        0.37331        0.37331        0.37331        0.37331        0.37331        0.37331        0.37331        0.37331        0.37331        0.37331        0.37331        0.37331        0.37331        0.37331        0.37331        0.37331        0.37331        0.37331        0.37331        0.37331        0.37331        0.37331        0.37331        0.37331        0.37331        0.37331        0.44771        0.56358        0.34994       -0.21564       -0.43379       -0.52056       -0.62879       -0.69259       -0.69299       -0.78133       -0.86326       -0.64968       -0.79761       -0.78815       -0.91962       -0.96402       -0.84565       -0.80677       -0.77090       -0.67208       -0.60484       -0.51334       -0.42336       -0.36175       -0.13622       -0.03610        0.07687        0.28993        0.27719        0.33987        0.38314        0.42126        0.55465        0.55552        0.58851        0.54427        0.49098        0.51910        0.55641        0.48194        0.35078        0.24532        0.20860        0.13225        0.05335        0.03462        0.02385        0.09336        0.06142        0.11116        0.08386        0.20279        0.22212        0.42546        0.47516        0.55370        0.66021        0.68430        0.71590        0.65543        0.61901        0.57269        0.46518        0.40572        0.31057        0.24428        0.24505        0.13373        0.15165        0.16400        0.12016        0.12077        0.32123        0.44046        0.54682        0.54447        0.56666        0.61005        0.59591        0.57371        0.59761        0.58108        0.49051        0.33632        0.28970        0.29146        0.19801        0.12155        0.20221        0.25754        0.31660        0.37215        0.44753        0.49397        0.54746        0.61305        0.56286        0.51163        0.53377        0.37781        0.32107        0.29064        0.20578        0.24899        0.27710        0.31197        0.30825        0.36278        0.45206        0.48424        0.51048        0.46855        0.45969        0.50747        0.41999        0.34336        0.30861        0.29067        0.26016        0.24294        0.25986        0.36388        0.47327        0.45755        0.49483        0.56019        0.48045        0.43748        0.37829        0.35274        0.30647        0.30686        0.29190        0.31553        0.39589        0.40361        0.46762        0.48479        0.46349        0.49007        0.40647        0.39695        0.36607        0.30064        0.28021        0.28489        0.37312        0.39664        0.37886        0.40183        0.44521        0.46413        0.41386        0.35621        0.34746        0.37796        0.34549        0.31383        0.32502        0.38640        0.40133        0.42108        0.40831        0.42091        0.44269        0.42812        0.35031        0.31398        0.32476        0.35921        0.41969        0.39288        0.42193        0.37521        0.38871        0.40870        0.36614        0.36922        0.34100        0.33073        0.35981        0.37396        0.35603        0.39566        0.40567        0.35164        0.37001        0.35083        0.33789        0.33289        0.34503        0.35885        0.34724        0.38859        0.40057        0.38861        0.32863        0.32719        0.30988        0.35323        0.34301        0.33787        0.39070        0.37679        0.35865        0.34011        0.33050        0.31838        0.30028        0.34498        0.36198        0.38403        0.38786        0.37735        0.35051        0.36695        0.39150        0.36460        0.36867        0.36658        0.34208        0.35196        0.31572        0.33687        0.33304        0.33832        0.30451        0.34912        0.37586        0.34383        0.38350        0.34323        0.36214        0.37306        0.35680        0.33937        0.36247        0.39929        0.36725        0.39744        0.35683        0.33584        0.35417        0.33885        0.35610        0.35415        0.39263        0.33703        0.34202        0.32307        0.32616        0.29599        0.31382        0.38903        0.34257        0.33037        0.30625        0.28818        0.29607        0.37705        0.32364        0.30982        0.35326        0.33367        0.29925        0.26732        0.30974        0.30334        0.33244        0.33589        0.36909        0.36162        0.34988        0.34115        0.28627        0.31995        0.32539        0.32172        0.33274        0.36464        0.32554        0.24670        0.32093        0.33830        0.35864        0.31140        0.31669        0.26624        0.31741        0.28755        0.27055        0.29939        0.25854        0.32055        0.32227        0.31282        0.29345        0.36042        0.30505        0.25932        0.26411        0.33103        0.25022        0.15409        0.11740        0.19167        0.36299        0.34394        0.21545        0.19902       -0.30406       -0.57709
3.350287 3.307185 3.264364 3.221825 3.179569 3.137594 3.095902 3.054492 3.013363 2.972517 2.931953 2.891671 2.851671 2.811953 2.772518 2.733364 2.694492 2.655903 2.617595 2.579570 2.541827 2.504365 2.467186 2.430289 2.393674 2.357341 2.321290 2.285522 2.250035 2.214830 2.179908 2.145267 2.110909 2.076832 2.043038 2.009526 1.976296 1.943348 1.910682 1.878298 1.846196 1.814377 1.782839 1.751584 1.720610 1.689919 1.659509 1.629382 1.599537 1.569974 1.540693 1.579084 1.632258 1.571183 0.847838 0.616061 0.476965 0.403425 0.304898 0.236859 0.208697 -0.043321 0.226100 0.094508 -0.017313 -0.087819 -0.230353 -0.134167 -0.038158 -0.093788 -0.060615 0.047507 0.051904 0.245321 0.114777 0.366367 0.469034 0.516543 0.788618 0.680811 0.710768 0.819278 0.795498 0.860932 0.921064 0.857347 0.881985 0.728466 0.777203 0.846540 0.701317 0.603329 0.429294 0.431414 0.312051 0.200204 0.191708 0.107664 0.207283 0.119830 0.203849 0.103624 0.213072 0.222196 0.421103 0.387703 0.550149 0.585369 0.592089 0.702427 0.591806 0.546063 0.450250 0.406356 0.267898 0.250141 0.076811 0.135221 -0.040626 0.027964 -0.030089 -0.054835 -0.079426 0.007878 0.237005 0.277453 0.330993 0.264791 0.353484 0.357147 0.378839 0.358546 0.339935 0.304754 0.102115 0.050017 0.053522 -0.037257 -0.153336 -0.081045 -0.066685 0.022829 0.058419 0.126993 0.186017 0.204847 0.297606 0.388842 0.251065 0.352537 0.206797 0.147183 0.055804 0.023340 -0.001112 0.055633 0.064948 0.080774 0.115015 0.161074 0.228176 0.288741 0.253266 0.197076 0.245417 0.216989 0.102763 0.035904 0.058779 0.014754 0.003300 -0.047006 0.027776 0.159974 0.201563 0.175318 0.281421 0.184896 0.196871 0.072535 0.063375 0.030635 -0.002427 -0.014985 -0.009104 0.049121 0.099440 0.111385 0.160482 0.138170 0.226720 0.147718 0.078270 0.097965 0.031493 -0.040715 -0.010126 0.036269 0.080857 0.066254 0.059558 0.145983 0.105815 0.153810 0.042904 0.039871 0.048704 0.045956 0.027198 -0.010004 0.041651 0.061458 0.092671 0.098760 0.080197 0.116763 0.115006 0.077527 0.006440 -0.016301 0.004818 0.069297 0.090505 0.085991 0.081508 0.053358 0.089656 0.062753 0.038697 0.057501 -0.004169 0.006567 0.071054 0.039888 0.041269 0.087664 0.088013 0.044382 0.067890 0.025267 0.017431 0.021995 0.055883 0.031849 0.033136 0.078087 0.083891 0.049741 -0.002028 0.001839 -0.019588 0.051841 0.005338 0.014662 0.074820 0.041935 0.009032 0.020992 -0.016056 -0.002401 -0.029789 0.015082 0.038348 0.063920 0.037775 0.038991 0.016237 0.011845 0.063696 0.018064 0.027806 0.019198 -0.005645 0.018817 -0.038146 -0.035380 -0.037166 -0.011078 -0.070699 0.017608 0.021211 -0.010381 -0.008907 0.002224 -0.006154 0.025288 -0.001367 -0.012497 0.019655 0.036926 0.012583 0.052061 -0.006347 0.007734 0.017012 -0.007955 0.019003 0.000714 0.095498 0.020078 0.010239 0.004871 -0.005286 -0.022215 0.013791 0.069345 0.023110 0.029001 -0.028075 -0.020740 -0.018906 0.078639 0.006082 -0.025055 0.070797 0.045557 -0.009821 -0.007719 -0.002951 0.027197 0.043222 0.041039 0.117021 0.040623 0.067855 0.046405 -0.005781 0.040134 0.025758 0.000526 0.040154 0.066035 0.010343 -0.056040 0.021948 0.045073 0.056973 -0.011491 0.007942 -0.036409 -0.006348 -0.010783 -0.043663 0.013760 -0.067888 0.053115 0.013803 0.049348 -0.076353 0.080205 0.048007 0.007670 -0.023536 0.110143 0.018388 -0.054951 -0.155899 0.166472 0.337569 0.335756 0.135124 0.198993 -0.563125
0.072396 0.073047 0.074998 0.078250 0.082801 0.088650 0.095794 0.104232 0.113957 0.124967 0.137253 0.150808 0.165621 0.181680 0.198969 0.217471 0.237162 0.258016 0.280004 0.303089 0.327230 0.352382 0.378488 0.405490 0.433319 0.461898 0.491142 0.520956 0.551237 0.581870 0.612730 0.643682 0.674578 0.705261 0.735561 0.765296 0.794275 0.822294 0.849138 0.874583 0.898397 0.920337 0.940153 0.957592 0.972392 0.984293 0.993033 0.998350 0.999990 0.997703 0.991253 0.980414 0.964981 0.944766 0.919610 0.889381 0.853979 0.813345 0.767458 0.716345 0.660082 0.598800 0.532687 0.461990 0.387020 0.308156 0.225840 0.140585 0.052970 0.036360 0.126693 0.217260 0.307231 0.395730 0.481835 0.564591 0.643017 0.716122 0.782912 0.842411 0.893668 0.935782 0.967914 0.989306 0.999299 0.997352 0.983060 0.956169 0.916594 0.864433 0.799982 0.723737 0.636410 0.538927 0.432431 0.318272 0.198004 0.073365 0.053737 0.181255 0.307025 0.428809 0.544327 0.651305 0.747523 0.830860 0.899351 0.951236 0.985015 0.999495 0.993840 0.967610 0.920801 0.853865 0.767735 0.663829 0.544045 0.410743 0.266715 0.115138 0.040491 0.196415 0.348719 0.493416 0.626556 0.744338 0.843231 0.920083 0.972241 0.997652 0.994964 0.963598 0.903813 0.816744 0.704406 0.569686 0.416286 0.248647 0.071845 0.108560 0.286681 0.456494 0.612047 0.747670 0.858198 0.939188 0.987112 0.999538 0.975279 0.914494 0.818746 0.691011 0.535623 0.358164 0.165289 0.035496 0.236111 0.428222 0.603588 0.754417 0.873741 0.955758 0.996141 0.992309 0.943619 0.851478 0.719368 0.552769 0.358976 0.146820 0.073704 0.291886 0.496819 0.677947 0.825624 0.931659 0.989808 0.996186 0.949574 0.851591 0.706715 0.522152 0.307528 0.074444 0.164128 0.394538 0.603243 0.777613 0.906730 0.982113 0.998330 0.953453 0.849303 0.691480 0.489140 0.254536 0.002326 0.251296 0.489634 0.696584 0.857754 0.961511 0.999880 0.969235 0.870701 0.710242 0.498404 0.249695 0.018331 0.286269 0.534264 0.743471 0.897541 0.983948 0.995093 0.929060 0.789952 0.587766 0.337775 0.059471 0.224904 0.492099 0.719763 0.888343 0.982844 0.994241 0.920457 0.766754 0.545497 0.275289 0.020505 0.315713 0.583648 0.799537 0.942869 0.999431 0.962836 0.835359 0.627977 0.359576 0.055346 0.255508 0.542513 0.776932 0.934709 0.999015 0.962187 0.826772 0.605560 0.320526 0.000800 0.320251 0.608439 0.832437 0.967258 0.997158 0.917629 0.736209 0.471974 0.153687 0.183193 0.500408 0.761234 0.934787 0.999812 0.947437 0.782559 0.523626 0.200759 0.147599 0.479181 0.752996 0.934478 0.999964 0.939960 0.760714 0.483814 0.143797 0.216002 0.548891 0.810884 0.966594 0.994171 0.888576 0.662678 0.345942 0.019208 0.382930 0.694718 0.910459 0.998813 0.945965 0.758025 0.460621 0.095659 0.284403 0.624024 0.872690 0.992566 0.964460 0.791143 0.497452 0.126989 0.264126 0.615664 0.872584 0.993758 0.958796 0.771748 0.461005 0.075297 0.323759 0.671379 0.910191 0.999837 0.924066 0.693980 0.346753 0.060057 0.457863 0.778579 0.966317 0.987366 0.836545 0.538721 0.145080 0.275436 0.648016 0.905358 0.999950 0.913160 0.659243 0.283416 0.145892 0.549262 0.850986 0.993365 0.948057 0.722067 0.357125 0.077627 0.498538 0.823422 0.987767 0.957800 0.737818 0.370087 0.072859 0.502298 0.830997 0.991041 0.948194 0.709616 0.323190 0.131684 0.560120 0.871523 0.998876 0.913512 0.632018 0.213504 0.252372 0.664427
1.000000 1.000000 1.000000 1.000000 1.000000 1.000000 1.000000 1.000000 1.000000 1.000000 1.000000 1.000000 1.000000 1.000000 1.000000 1.000000 1.000000 1.000000 1.000000 1.000000 1.000000 1.000000 1.000000 1.000000 1.000000 1.000000 1.000000 1.000000 1.000000 1.000000 1.000000 1.000000 1.000000 1.000000 1.000000 1.000000 1.000000 1.000000 1.000000 1.000000 1.000000 1.000000 1.000000 1.000000 1.000000 1.000000 1.000000 1.000000 1.000000 1.000000 1.000000 1.000000 0.923645 0.923645 0.923645 0.923645 0.923645 0.923645 0.923645 0.923645 0.923645 0.923645 0.923645 0.923645 0.923645 0.923645 0.923645 0.923645 0.923645 0.923645 0.923645 0.923645 0.923645 0.923645 0.923645 0.923645 0.923645 0.923645 0.923645 0.923645 0.923645 0.923645 0.923645 0.923645 0.923645 0.913420 0.911504 0.912669 0.911235 0.909757 0.909170 0.908781 0.909823 0.911430 0.913499 0.935118 0.936949 0.938225 0.939551 0.941125 0.943361 0.941176 0.945131 0.951140 0.950015 0.951332 0.951582 0.952151 0.951517 0.950793 0.953056 0.952255 0.950586 0.948596 0.946925 0.946371 0.946147 0.949787 0.950271 0.950440 0.951028 0.950976 0.951694 0.949590 0.947958 0.950251 0.931732 0.929966 0.934827 0.932211 0.933115 0.933085 0.933746 0.934657 0.935072 0.935354 0.931945 0.931383 0.930232 0.924499 0.917028 0.917342 0.919431 0.921624 0.919002 0.917925 0.919166 0.919977 0.917627 0.920574 0.913291 0.910775 0.886337 0.873516 0.867870 0.868628 0.873707 0.877697 0.875478 0.871616 0.865154 0.862773 0.861081 0.862614 0.852591 0.854259 0.853572 0.847238 0.850007 0.852784 0.858223 0.857649 0.853970 0.848835 0.842076 0.827638 0.827675 0.827922 0.831664 0.812140 0.795804 0.828729 0.823066 0.819547 0.826918 0.828703 0.826536 0.824955 0.825323 0.823303 0.815347 0.806315 0.810021 0.819163 0.823623 0.815958 0.811390 0.813190 0.813018 0.808867 0.813792 0.816315 0.813050 0.803876 0.819267 0.800779 0.815766 0.816249 0.793955 0.779483 0.766603 0.773291 0.780144 0.768173 0.768963 0.781052 0.780891 0.777302 0.767811 0.740883 0.748241 0.746290 0.738542 0.729838 0.736189 0.728342 0.727556 0.727569 0.732097 0.731632 0.709445 0.723516 0.730008 0.730516 0.741335 0.742105 0.734069 0.737341 0.742430 0.729436 0.724423 0.705725 0.708241 0.641618 0.635101 0.613956 0.609686 0.605294 0.549705 0.550806 0.534541 0.518869 0.517590 0.484757 0.526333 0.426919 0.420755 0.437285 0.377002 0.371957 0.391930 0.392929 0.408753 0.380943 0.379668 0.386874 0.363133 0.334793 0.311116 0.334754 0.342924 0.335262 0.337209 0.307290 0.300225 0.249700 0.267848 0.272196 0.298353 0.296204 0.281865 0.300229 0.353564 0.287876 0.274507 0.252387 0.278733 0.282096 0.267234 0.257859 0.284850 0.229064 0.247706 0.252317 0.253867 0.310936 0.336068 0.337268 0.332977 0.341199 0.370634 0.337909 0.344520 0.358253 0.350041 0.367300 0.370204 0.383238 0.385943 0.430833 0.454302 0.460626 0.471312 0.487210 0.487325 0.464873 0.471771 0.427548 0.452906 0.430222 0.439022 0.400144 0.385868 0.383759 0.348534 0.305455 0.306336 0.301818 0.256681 0.256496 0.245774 0.212260 0.211812 0.224248 0.234484 0.204099 0.210889 0.223216 0.223216 0.223216 0.223216 0.223216 0.223216 0.223216 0.223216 0.223216 0.223216 0.223216 0.223216 0.223216 0.223216 0.243400 0.243400 0.243400 0.243400 0.243400 0.243400 0.243400 0.243400 0.243400 0.243400 0.243400 0.243400
0.000000 0.000000 0.000000 0.000000 0.000000 0.000000 0.000000 0.000000 0.000000 0.000000 0.000000 0.000000 0.000000 0.000000 0.000000 0.000000 0.000000 0.000000 0.000000 0.000000 0.000000 0.000000 0.000000 0.000000 0.000000 0.000000 0.000000 0.000000 0.000000 0.000000 0.000000 0.000000 0.000000 0.000000 0.000000 0.000000 0.000000 0.000000 0.000000 0.000000 0.000000 0.000000 0.000000 0.000000 0.000000 0.000000 0.000000 0.000000 0.000000 0.000000 0.000000 0.000000 0.209657 0.209657 0.209657 0.209657 0.209657 0.209657 0.209657 0.209657 0.209657 0.209657 0.209657 0.209657 0.209657 0.209657 0.209657 0.209657 0.209657 0.209657 0.209657 0.209657 0.209657 0.209657 0.209657 0.209657 0.209657 0.209657 0.209657 0.209657 0.209657 0.209657 0.209657 0.209657 0.209657 0.244339 0.244339 0.244339 0.244339 0.244339 0.244339 0.244339 0.244339 0.244339 0.244339 0.244339 0.244339 0.244339 0.244339 0.244339 0.244339 0.244339 0.244339 0.244339 0.244339 0.244339 0.244339 0.244339 0.244339 0.244339 0.260378 0.260378 0.260378 0.260378 0.260378 0.260378 0.260378 0.260378 0.260378 0.260378 0.260378 0.260378 0.260378 0.260378 0.260378 0.260378 0.260378 0.260378 0.260378 0.260378 0.269680 0.269680 0.269680 0.269680 0.269680 0.269680 0.269680 0.269680 0.269680 0.269680 0.269680 0.269680 0.269680 0.269680 0.269680 0.269680 0.269680 0.269680 0.269680 0.269680 0.269680 0.269680 0.269680 0.269680 0.269680 0.269680 0.269680 0.269680 0.269680 0.269680 0.269680 0.269680 0.269680 0.280056 0.280056 0.280056 0.280056 0.280056 0.280056 0.280056 0.280056 0.280056 0.280056 0.280056 0.280056 0.280056 0.280056 0.280056 0.280056 0.280056 0.280056 0.280056 0.280056 0.280056 0.280056 0.280056 0.280056 0.280056 0.280056 0.280056 0.274721 0.274721 0.274721 0.274721 0.274721 0.274721 0.274721 0.274721 0.274721 0.274721 0.274721 0.274721 0.274721 0.285714 0.285714 0.285714 0.285714 0.285714 0.285714 0.285714 0.285714 0.285714 0.285714 0.285714 0.280056 0.280056 0.280056 0.280056 0.280056 0.280056 0.280056 0.280056 0.280056 0.280056 0.280056 0.274721 0.274721 0.274721 0.274721 0.274721 0.274721 0.274721 0.274721 0.274721 0.274721 0.274721 0.280056 0.280056 0.280056 0.280056 0.280056 0.280056 0.280056 0.280056 0.280056 0.280056 0.285714 0.285714 0.285714 0.285714 0.285714 0.285714 0.285714 0.285714 0.285714 0.269680 0.269680 0.269680 0.269680 0.269680 0.269680 0.269680 0.269680 0.269680 0.269680 0.274721 0.274721 0.274721 0.274721 0.274721 0.274721 0.274721 0.274721 0.274721 0.285714 0.285714 0.285714 0.285714 0.285714 0.285714 0.285714 0.285714 0.264906 0.264906 0.264906 0.264906 0.264906 0.264906 0.264906 0.264906 0.264906 0.274721 0.274721 0.274721 0.274721 0.274721 0.274721 0.274721 0.274721 0.269680 0.269680 0.269680 0.269680 0.269680 0.269680 0.269680 0.269680 0.269680 0.269680 0.269680 0.269680 0.269680 0.269680 0.269680 0.269680 0.280056 0.280056 0.280056 0.280056 0.280056 0.280056 0.280056 0.260378 0.260378 0.260378 0.260378 0.260378 0.260378 0.260378 0.260378 0.269680 0.269680 0.269680 0.269680 0.269680 0.269680 0.269680 0.264906 0.264906 0.264906 0.264906 0.264906 0.264906 0.264906 0.264906 0.264906 0.264906 0.264906 0.264906 0.264906 0.264906 0.260378 0.260378 0.260378 0.260378 0.260378 0.260378 0.260378 0.260378 0.260378 0.260378 0.260378 0.260378
