# Output from CTFFind version 4.1.9, run on 2019-11-02 17:45:35
# Input file: stack1_bm3d_averaged_1_1.5_0_1000_half.mrc ; Number of micrographs: 1
# Pixel size: 3.000 Angstroms ; acceleration voltage: 300.0 keV ; spherical aberration: 0.00 mm ; amplitude contrast: 0.07
# Box size: 512 pixels ; min. res.: 30.0 Angstroms ; max. res.: 5.0 Angstroms ; min. def.: 5000.0 um; max. def. 50000.0 um; num. frames averaged: 1
# 6 lines per micrograph: #1 - spatial frequency (1/Angstroms); #2 - 1D rotational average of spectrum (assuming no astigmatism); #3 - 1D rotational average of spectrum; #4 - CTF fit; #5 - cross-correlation between spectrum and CTF fit; #6 - 2sigma of expected cross correlation of noise
0.000000 0.000651 0.001302 0.001953 0.002604 0.003255 0.003906 0.004557 0.005208 0.005859 0.006510 0.007161 0.007812 0.008464 0.009115 0.009766 0.010417 0.011068 0.011719 0.012370 0.013021 0.013672 0.014323 0.014974 0.015625 0.016276 0.016927 0.017578 0.018229 0.018880 0.019531 0.020182 0.020833 0.021484 0.022135 0.022786 0.023438 0.024089 0.024740 0.025391 0.026042 0.026693 0.027344 0.027995 0.028646 0.029297 0.029948 0.030599 0.031250 0.031901 0.032552 0.033203 0.033854 0.034505 0.035156 0.035807 0.036458 0.037109 0.037760 0.038411 0.039062 0.039714 0.040365 0.041016 0.041667 0.042318 0.042969 0.043620 0.044271 0.044922 0.045573 0.046224 0.046875 0.047526 0.048177 0.048828 0.049479 0.050130 0.050781 0.051432 0.052083 0.052734 0.053385 0.054036 0.054688 0.055339 0.055990 0.056641 0.057292 0.057943 0.058594 0.059245 0.059896 0.060547 0.061198 0.061849 0.062500 0.063151 0.063802 0.064453 0.065104 0.065755 0.066406 0.067057 0.067708 0.068359 0.069010 0.069661 0.070312 0.070964 0.071615 0.072266 0.072917 0.073568 0.074219 0.074870 0.075521 0.076172 0.076823 0.077474 0.078125 0.078776 0.079427 0.080078 0.080729 0.081380 0.082031 0.082682 0.083333 0.083984 0.084635 0.085286 0.085938 0.086589 0.087240 0.087891 0.088542 0.089193 0.089844 0.090495 0.091146 0.091797 0.092448 0.093099 0.093750 0.094401 0.095052 0.095703 0.096354 0.097005 0.097656 0.098307 0.098958 0.099609 0.100260 0.100911 0.101562 0.102214 0.102865 0.103516 0.104167 0.104818 0.105469 0.106120 0.106771 0.107422 0.108073 0.108724 0.109375 0.110026 0.110677 0.111328 0.111979 0.112630 0.113281 0.113932 0.114583 0.115234 0.115885 0.116536 0.117188 0.117839 0.118490 0.119141 0.119792 0.120443 0.121094 0.121745 0.122396 0.123047 0.123698 0.124349 0.125000 0.125651 0.126302 0.126953 0.127604 0.128255 0.128906 0.129557 0.130208 0.130859 0.131510 0.132161 0.132812 0.133464 0.134115 0.134766 0.135417 0.136068 0.136719 0.137370 0.138021 0.138672 0.139323 0.139974 0.140625 0.141276 0.141927 0.142578 0.143229 0.143880 0.144531 0.145182 0.145833 0.146484 0.147135 0.147786 0.148438 0.149089 0.149740 0.150391 0.151042 0.151693 0.152344 0.152995 0.153646 0.154297 0.154948 0.155599 0.156250 0.156901 0.157552 0.158203 0.158854 0.159505 0.160156 0.160807 0.161458 0.162109 0.162760 0.163411 0.164062 0.164714 0.165365 0.166016 0.166667 0.167318 0.167969 0.168620 0.169271 0.169922 0.170573 0.171224 0.171875 0.172526 0.173177 0.173828 0.174479 0.175130 0.175781 0.176432 0.177083 0.177734 0.178385 0.179036 0.179688 0.180339 0.180990 0.181641 0.182292 0.182943 0.183594 0.184245 0.184896 0.185547 0.186198 0.186849 0.187500 0.188151 0.188802 0.189453 0.190104 0.190755 0.191406 0.192057 0.192708 0.193359 0.194010 0.194661 0.195312 0.195964 0.196615 0.197266 0.197917 0.198568 0.199219 0.199870 0.200521 0.201172 0.201823 0.202474 0.203125 0.203776 0.204427 0.205078 0.205729 0.206380 0.207031 0.207682 0.208333 0.208984 0.209635 0.210286 0.210938 0.211589 0.212240 0.212891 0.213542 0.214193 0.214844 0.215495 0.216146 0.216797 0.217448 0.218099 0.218750 0.219401 0.220052 0.220703 0.221354 0.222005 0.222656 0.223307 0.223958 0.224609 0.225260 0.225911 0.226562 0.227214 0.227865 0.228516 0.229167 0.229818 0.230469 0.231120 0.231771 0.232422 0.233073 0.233724 0.234375 0.235026 0.235677
       0.32882        0.32882        0.32882        0.32882        0.32882        0.32882        0.32882        0.32882        0.32882        0.32882        0.32882        0.32882        0.32882        0.32882        0.32882        0.32882        0.32882        0.32882        0.32882        0.32882        0.32882        0.32882        0.32882        0.32882        0.32882        0.32882        0.32882        0.32882        0.32882        0.32882        0.32882        0.32882        0.32882        0.32882        0.32882        0.32882        0.32882        0.32882        0.32882        0.32882        0.32882        0.32882        0.32882        0.32882        0.32882        0.32882        0.32882        0.32882        0.32882        0.32882        0.32882        0.49799        0.71478        0.42301        0.18779       -0.08185       -0.26219       -0.07077       -0.13398       -0.06064       -0.00560       -0.15228       -0.10089       -0.05263       -0.00496       -0.15584       -0.22547       -0.34637       -0.46647       -0.56666       -0.52246       -0.45527       -0.37584       -0.55580       -0.45545       -0.62549       -0.50905       -0.47672       -0.39611       -0.38599       -0.33987       -0.25086       -0.16779       -0.14378        0.02819       -0.01775        0.11357        0.16459        0.30361        0.41007        0.46044        0.49599        0.53933        0.54722        0.68706        0.64143        0.67501        0.58620        0.55315        0.64880        0.52327        0.42639        0.38516        0.31387        0.22727        0.25831        0.24705        0.09871        0.07786       -0.00317       -0.01136        0.03004       -0.01281        0.06713        0.09103        0.22762        0.28136        0.29485        0.38316        0.56095        0.53391        0.57318        0.66642        0.69334        0.62522        0.63301        0.63155        0.54473        0.56882        0.39363        0.34450        0.26103        0.18105        0.07111        0.14002        0.11134        0.09360        0.10652        0.20295        0.20052        0.31243        0.35302        0.40891        0.48682        0.57125        0.54139        0.55287        0.60203        0.53175        0.45961        0.47983        0.32079        0.24387        0.25353        0.23970        0.13413        0.13873        0.14817        0.21917        0.24367        0.32963        0.36911        0.39263        0.45944        0.44266        0.47460        0.44336        0.46958        0.44275        0.39725        0.37397        0.35600        0.31429        0.28486        0.20373        0.19996        0.22107        0.26489        0.25737        0.33991        0.37050        0.35017        0.40663        0.44982        0.44021        0.42328        0.43919        0.36320        0.32946        0.27717        0.25496        0.28508        0.25824        0.28968        0.29785        0.34167        0.33369        0.39409        0.39227        0.42132        0.40577        0.43325        0.40078        0.36329        0.27928        0.28378        0.29574        0.27235        0.25361        0.32452        0.36575        0.33404        0.35487        0.36265        0.34755        0.40410        0.39854        0.36003        0.33626        0.30372        0.30862        0.31624        0.30972        0.29678        0.28038        0.33407        0.35416        0.37149        0.33377        0.32900        0.33146        0.34491        0.30616        0.27852        0.30477        0.31475        0.32920        0.31641        0.32805        0.35036        0.32631        0.31461        0.32663        0.29657        0.25634        0.24545        0.26139        0.30219        0.31750        0.35376        0.29658        0.30407        0.32621        0.28885        0.31525        0.28768        0.27514        0.28482        0.29118        0.30550        0.34221        0.31912        0.32521        0.32669        0.31841        0.33245        0.31492        0.31951        0.31432        0.27077        0.28391        0.30141        0.28367        0.31718        0.32422        0.33170        0.31868        0.34611        0.32420        0.27947        0.24119        0.26793        0.32780        0.35494        0.34646        0.31714        0.29096        0.29721        0.31020        0.24896        0.28986        0.29895        0.31815        0.29051        0.29253        0.26729        0.32976        0.33749        0.33710        0.31546        0.29158        0.30319        0.38939        0.33229        0.30886        0.30144        0.30141        0.28451        0.29533        0.27845        0.30556        0.22817        0.26469        0.29762        0.31342        0.29328        0.26640        0.28564        0.23249        0.22070        0.27344        0.30596        0.30119        0.29266        0.28112        0.32814        0.25399        0.22502        0.29146        0.25224        0.26271        0.27291        0.36936        0.27304        0.28291        0.25855        0.23629        0.26580        0.26023        0.23103        0.16833        0.22355        0.22046        0.24701        0.30769        0.26764        0.34031        0.30313        0.25957        0.23994        0.20561        0.24617        0.28442        0.22157        0.14703        0.18851        0.24328        0.22274        0.30447        0.25784        0.05393       -0.41738       -0.94048
2.701605 2.673002 2.644554 2.616260 2.588120 2.560135 2.532304 2.504628 2.477105 2.449738 2.422524 2.395465 2.368560 2.341810 2.315214 2.288772 2.262485 2.236352 2.210373 2.184549 2.158879 2.133363 2.108002 2.082795 2.057742 2.032844 2.008100 1.983510 1.959075 1.934794 1.910668 1.886696 1.862878 1.839214 1.815705 1.792351 1.769150 1.746104 1.723212 1.700475 1.677892 1.655463 1.633189 1.611069 1.589103 1.567292 1.545635 1.524133 1.502784 1.481590 1.460551 1.529690 1.835320 1.523461 1.192947 0.943187 0.547830 0.915564 0.639190 0.870142 0.926004 0.591991 0.703114 0.782416 0.824334 0.626306 0.535535 0.352916 0.101449 0.072578 0.043016 0.073191 0.300620 -0.041137 0.074876 -0.135766 -0.020463 -0.015765 0.075322 0.062697 0.105523 0.177836 0.279925 0.244968 0.480724 0.397243 0.546009 0.529746 0.771315 0.792206 0.880224 0.931808 0.938555 0.953066 1.119491 0.943180 1.145375 0.948241 0.855476 1.017178 0.849156 0.761511 0.627169 0.593389 0.459609 0.417974 0.506685 0.263243 0.196798 0.160274 0.010445 0.203633 -0.008740 0.116919 0.173492 0.259448 0.338765 0.344523 0.432785 0.546958 0.669810 0.538244 0.741114 0.864115 0.638906 0.702098 0.675226 0.590300 0.538232 0.467874 0.305093 0.214178 0.120311 -0.036955 -0.016673 0.052970 -0.088497 -0.056860 0.057448 0.047072 0.108734 0.222193 0.240743 0.314809 0.440583 0.449507 0.441809 0.471525 0.453036 0.329424 0.341682 0.249639 0.046931 0.066120 0.021991 -0.047167 -0.099733 -0.094874 -0.012899 -0.044530 0.081103 0.135420 0.132155 0.264478 0.229086 0.249934 0.283265 0.236662 0.244755 0.211883 0.160931 0.116979 0.111273 0.027047 0.015489 -0.114089 -0.044592 0.006569 0.000021 0.014474 0.101791 0.078795 0.123641 0.211293 0.266121 0.175719 0.202765 0.117960 0.147384 0.023641 -0.031210 0.024359 -0.015240 0.006551 0.003366 0.043598 0.082205 0.066000 0.159713 0.109651 0.185627 0.085252 0.174075 0.104337 0.010482 -0.042605 -0.010299 -0.020762 -0.052752 -0.049929 0.073623 0.075898 0.001059 0.108101 0.085924 0.079351 0.162499 0.090093 0.089718 0.064037 -0.004220 0.048643 0.019526 0.028601 0.020939 0.009701 0.061733 0.086888 0.079801 0.051094 0.062334 0.033467 0.080401 0.004206 -0.003144 0.038825 0.027429 0.070041 0.047238 0.066090 0.072232 0.051524 0.024395 0.040421 0.000004 -0.044353 -0.030768 -0.018459 0.026168 0.043412 0.109569 0.001515 0.052841 0.057177 -0.002864 0.069185 0.017166 0.003299 0.034105 0.047593 0.040273 0.092630 0.047785 0.071711 0.075423 0.087194 0.068722 0.075941 0.093388 0.045763 -0.009705 0.049963 0.039299 0.045576 0.073913 0.079017 0.037117 0.071183 0.093827 0.023859 0.017774 -0.066860 -0.008956 0.117129 0.086931 0.073629 0.050067 -0.003871 0.057280 0.034497 -0.052835 0.048861 0.041269 0.063446 0.044373 -0.013093 0.045618 0.010416 0.062659 0.037142 0.039436 -0.034687 0.061740 0.116735 0.026849 -0.006685 0.020024 0.005350 -0.036147 -0.015180 -0.032123 -0.010376 -0.102282 -0.032033 -0.020709 0.016065 -0.031186 -0.072681 0.024981 -0.070734 -0.047297 -0.065145 0.056596 0.010325 0.027448 -0.009981 0.079408 -0.045518 -0.061422 0.025912 -0.046435 0.014763 -0.013563 0.165031 -0.056023 0.015829 0.014919 -0.039778 0.004008 -0.001840 -0.026243 -0.146473 -0.012749 -0.043684 -0.006972 0.043945 0.006017 0.140387 0.062511 0.026554 -0.005877 -0.007253 -0.017470 0.324347 0.267903 0.178567 0.236696 0.256351 0.305153 0.330425 0.286210 0.065655 -1.107032
0.072396 0.072911 0.074453 0.077025 0.080624 0.085249 0.090900 0.097575 0.105271 0.113985 0.123714 0.134454 0.146198 0.158940 0.172672 0.187384 0.203063 0.219698 0.237270 0.255763 0.275154 0.295420 0.316532 0.338459 0.361166 0.384613 0.408756 0.433546 0.458929 0.484844 0.511228 0.538008 0.565107 0.592441 0.619919 0.647443 0.674909 0.702204 0.729211 0.755803 0.781846 0.807201 0.831721 0.855252 0.877635 0.898704 0.918289 0.936214 0.952302 0.966370 0.978235 0.987711 0.994616 0.998767 0.999985 0.998095 0.992930 0.984331 0.972148 0.956246 0.936502 0.912811 0.885087 0.853265 0.817305 0.777191 0.732937 0.684588 0.632220 0.575945 0.515914 0.452313 0.385369 0.315352 0.242572 0.167381 0.090175 0.011392 0.068492 0.148958 0.229453 0.309386 0.388138 0.465063 0.539490 0.610736 0.678103 0.740893 0.798411 0.849973 0.894919 0.932616 0.962473 0.983949 0.996560 0.999895 0.993622 0.977498 0.951381 0.915236 0.869141 0.813300 0.748044 0.673834 0.591268 0.501078 0.404128 0.301414 0.194055 0.083285 0.029558 0.143045 0.255674 0.365885 0.472084 0.572666 0.666040 0.750654 0.825025 0.887768 0.937624 0.973490 0.994445 0.999782 0.989026 0.961962 0.918649 0.859438 0.784977 0.696219 0.594420 0.481127 0.358167 0.227623 0.091808 0.046776 0.185475 0.321534 0.452149 0.574529 0.685956 0.783846 0.865820 0.929763 0.973891 0.996804 0.997544 0.975632 0.931109 0.864559 0.777116 0.670466 0.546828 0.408923 0.259927 0.103402 0.056774 0.216499 0.371552 0.517704 0.650834 0.767050 0.862814 0.935057 0.981292 0.999711 0.989267 0.949743 0.881790 0.786947 0.667625 0.527072 0.369301 0.198994 0.021372 0.157950 0.333143 0.498342 0.647857 0.776368 0.879128 0.952153 0.992398 0.997898 0.967883 0.902855 0.804617 0.676253 0.522062 0.347438 0.158704 0.037107 0.232491 0.419771 0.591387 0.740218 0.859886 0.945043 0.991645 0.997160 0.960734 0.883289 0.767539 0.617944 0.440561 0.242839 0.033322 0.178703 0.383602 0.571843 0.734439 0.863395 0.952125 0.995817 0.991728 0.939386 0.840690 0.699892 0.523458 0.319813 0.098968 0.127954 0.349251 0.553259 0.728960 0.866607 0.958289 0.998420 0.984122 0.915469 0.795574 0.630505 0.429033 0.202205 0.037227 0.275500 0.498629 0.693226 0.847324 0.951146 0.997767 0.983623 0.908831 0.777289 0.596542 0.377408 0.133376 0.120188 0.366982 0.590822 0.776710 0.911865 0.986651 0.995313 0.936482 0.813390 0.633773 0.409452 0.155620 0.110153 0.369099 0.602581 0.793450 0.927329 0.993757 0.987064 0.906923 0.758522 0.552307 0.303326 0.030200 0.246243 0.504535 0.724228 0.887557 0.980922 0.996085 0.930977 0.790027 0.583957 0.329055 0.045965 0.241950 0.510492 0.736699 0.900806 0.988059 0.990102 0.905873 0.741875 0.511780 0.235389 0.063006 0.356715 0.619008 0.825588 0.956872 0.999939 0.949886 0.810488 0.594033 0.320361 0.015128 0.292544 0.572812 0.798023 0.945497 0.999879 0.954853 0.813974 0.590540 0.306450 0.009836 0.326092 0.609577 0.830451 0.964973 0.998140 0.925483 0.753777 0.500558 0.192454 0.137513 0.453413 0.720322 0.908205 0.995387 0.971175 0.837291 0.607950 0.308498 0.027276 0.360875 0.653475 0.870468 0.985649 0.984476 0.866068 0.643581 0.342917 0.000158 0.344184 0.646975 0.870827 0.987290 0.980907 0.851429 0.614148 0.298267 0.056556 0.405091 0.702285 0.909116 0.997819 0.955759 0.787401 0.514048 0.171334 0.195297 0.536542 0.805871 0.965921 0.993840
1.000000 1.000000 1.000000 1.000000 1.000000 1.000000 1.000000 1.000000 1.000000 1.000000 1.000000 1.000000 1.000000 1.000000 1.000000 1.000000 1.000000 1.000000 1.000000 1.000000 1.000000 1.000000 1.000000 1.000000 1.000000 1.000000 1.000000 1.000000 1.000000 1.000000 1.000000 1.000000 1.000000 1.000000 1.000000 1.000000 1.000000 1.000000 1.000000 1.000000 1.000000 1.000000 1.000000 1.000000 1.000000 1.000000 1.000000 1.000000 1.000000 1.000000 1.000000 1.000000 0.918686 0.918686 0.904856 0.904856 0.904856 0.904856 0.904856 0.904856 0.904856 0.904856 0.904856 0.904856 0.904856 0.904856 0.904856 0.904856 0.904856 0.904856 0.904856 0.904856 0.904856 0.904856 0.904856 0.904856 0.904856 0.904856 0.904856 0.904856 0.904856 0.904856 0.904856 0.904856 0.904856 0.904856 0.904856 0.904856 0.904856 0.904856 0.904856 0.904856 0.904856 0.904856 0.904856 0.902598 0.907609 0.909572 0.908162 0.911622 0.911663 0.909609 0.909065 0.908747 0.909112 0.910520 0.920967 0.931913 0.943065 0.943580 0.948790 0.953086 0.955622 0.956351 0.957983 0.968262 0.965571 0.965116 0.965803 0.967207 0.969271 0.968144 0.967515 0.970599 0.971226 0.969758 0.967308 0.966663 0.966038 0.966138 0.965794 0.965669 0.966752 0.967256 0.966869 0.966467 0.966616 0.966680 0.967681 0.968836 0.971387 0.972473 0.972389 0.971346 0.966313 0.969780 0.970811 0.970227 0.970240 0.969898 0.970168 0.954265 0.951620 0.951517 0.947578 0.946681 0.944363 0.942440 0.941081 0.941902 0.941286 0.941392 0.937563 0.924777 0.911248 0.898247 0.919376 0.907259 0.894066 0.871115 0.870636 0.864486 0.864877 0.857557 0.849969 0.845714 0.843166 0.845189 0.845769 0.850239 0.846570 0.831536 0.834827 0.830996 0.797888 0.785714 0.771904 0.768980 0.765883 0.766993 0.764822 0.761147 0.769662 0.760840 0.757840 0.748035 0.726893 0.691803 0.679064 0.690300 0.700412 0.701210 0.697188 0.681665 0.642109 0.655210 0.682756 0.676020 0.677457 0.671653 0.663658 0.670947 0.670016 0.665362 0.658133 0.657802 0.657298 0.668624 0.673746 0.666687 0.659823 0.647453 0.637164 0.623819 0.635162 0.642232 0.610351 0.604509 0.597262 0.592129 0.582168 0.560946 0.560031 0.538602 0.526246 0.525193 0.526855 0.530225 0.540077 0.539477 0.515405 0.536149 0.532825 0.564478 0.544408 0.543161 0.545684 0.553727 0.534477 0.526842 0.521682 0.522454 0.536516 0.565165 0.604965 0.597247 0.585220 0.579033 0.592471 0.571401 0.580175 0.604750 0.583775 0.515643 0.468169 0.465053 0.434300 0.426996 0.408831 0.388102 0.365480 0.364891 0.360060 0.345339 0.334227 0.285515 0.251045 0.229942 0.215374 0.226333 0.242660 0.241116 0.240031 0.270918 0.316720 0.320323 0.309744 0.294992 0.298049 0.295344 0.242306 0.242629 0.203851 0.192603 0.220922 0.168864 0.174766 0.124554 0.117510 0.134185 0.156053 0.168927 0.124679 0.106163 0.128176 0.147980 0.141093 0.133080 0.086815 0.062241 0.051216 0.062789 0.040610 0.011836 0.011904 0.021126 0.003140 -0.022145 -0.015269 -0.013078 -0.003663 -0.017865 -0.018440 0.036144 0.065152 0.056236 0.061354 0.081305 0.071554 0.047346 0.040229 0.023522 0.012800 -0.033638 -0.058204 -0.058204 -0.048970 -0.048970 -0.048970 -0.048970 -0.048970 -0.048970 -0.048970 -0.048970 -0.048970 -0.049251 -0.049251 -0.049251 -0.049251 -0.049251 -0.049251 -0.049251 -0.049251 -0.049251 -0.033363 -0.033363 -0.033363 -0.033363 -0.033363 -0.033363 -0.033363 -0.033363 -0.033363
0.000000 0.000000 0.000000 0.000000 0.000000 0.000000 0.000000 0.000000 0.000000 0.000000 0.000000 0.000000 0.000000 0.000000 0.000000 0.000000 0.000000 0.000000 0.000000 0.000000 0.000000 0.000000 0.000000 0.000000 0.000000 0.000000 0.000000 0.000000 0.000000 0.000000 0.000000 0.000000 0.000000 0.000000 0.000000 0.000000 0.000000 0.000000 0.000000 0.000000 0.000000 0.000000 0.000000 0.000000 0.000000 0.000000 0.000000 0.000000 0.000000 0.000000 0.000000 0.000000 0.181818 0.181818 0.199007 0.199007 0.199007 0.199007 0.199007 0.199007 0.199007 0.199007 0.199007 0.199007 0.199007 0.199007 0.199007 0.199007 0.199007 0.199007 0.199007 0.199007 0.199007 0.199007 0.199007 0.199007 0.199007 0.199007 0.199007 0.199007 0.199007 0.199007 0.199007 0.199007 0.199007 0.199007 0.199007 0.199007 0.199007 0.199007 0.199007 0.199007 0.199007 0.199007 0.199007 0.230940 0.230940 0.230940 0.230940 0.230940 0.230940 0.230940 0.230940 0.230940 0.230940 0.230940 0.230940 0.230940 0.230940 0.230940 0.230940 0.230940 0.230940 0.230940 0.230940 0.230940 0.230940 0.230940 0.230940 0.230940 0.230940 0.230940 0.230940 0.244339 0.244339 0.244339 0.244339 0.244339 0.244339 0.244339 0.244339 0.244339 0.244339 0.244339 0.244339 0.244339 0.244339 0.244339 0.244339 0.244339 0.244339 0.244339 0.244339 0.244339 0.244339 0.244339 0.251976 0.251976 0.251976 0.251976 0.251976 0.251976 0.251976 0.251976 0.251976 0.251976 0.251976 0.251976 0.251976 0.251976 0.251976 0.251976 0.251976 0.251976 0.251976 0.251976 0.264906 0.264906 0.264906 0.264906 0.264906 0.264906 0.264906 0.264906 0.264906 0.264906 0.264906 0.264906 0.264906 0.264906 0.264906 0.264906 0.264906 0.264906 0.264906 0.264906 0.264906 0.264906 0.264906 0.264906 0.264906 0.264906 0.264906 0.264906 0.264906 0.264906 0.264906 0.264906 0.264906 0.264906 0.264906 0.264906 0.264906 0.264906 0.264906 0.264906 0.264906 0.264906 0.264906 0.264906 0.264906 0.264906 0.264906 0.264906 0.264906 0.264906 0.264906 0.264906 0.264906 0.264906 0.264906 0.264906 0.264906 0.264906 0.264906 0.264906 0.264906 0.264906 0.264906 0.264906 0.264906 0.264906 0.264906 0.264906 0.264906 0.264906 0.264906 0.264906 0.264906 0.264906 0.264906 0.269680 0.269680 0.269680 0.269680 0.269680 0.269680 0.269680 0.269680 0.269680 0.269680 0.269680 0.269680 0.264906 0.264906 0.264906 0.264906 0.264906 0.264906 0.264906 0.264906 0.264906 0.264906 0.264906 0.264906 0.269680 0.269680 0.269680 0.269680 0.269680 0.269680 0.269680 0.269680 0.269680 0.269680 0.269680 0.264906 0.264906 0.264906 0.264906 0.264906 0.264906 0.264906 0.264906 0.264906 0.264906 0.264906 0.269680 0.269680 0.269680 0.269680 0.269680 0.269680 0.269680 0.269680 0.269680 0.269680 0.251976 0.251976 0.251976 0.251976 0.251976 0.251976 0.251976 0.251976 0.251976 0.251976 0.251976 0.269680 0.269680 0.269680 0.269680 0.269680 0.269680 0.269680 0.269680 0.269680 0.256074 0.256074 0.256074 0.256074 0.256074 0.256074 0.256074 0.256074 0.256074 0.256074 0.260378 0.260378 0.260378 0.260378 0.260378 0.260378 0.260378 0.260378 0.260378 0.256074 0.256074 0.256074 0.256074 0.256074 0.256074 0.256074 0.256074 0.256074 0.251976 0.251976 0.251976 0.251976 0.251976 0.251976 0.251976 0.251976 0.251976 0.264906 0.264906 0.264906 0.264906 0.264906 0.264906 0.264906 0.264906 0.264906
