# Output from CTFFind version 4.1.9, run on 2019-11-03 19:48:13
# Input file: stack16_bm3d_averaged_1_5.25_0_1500_half.mrc ; Number of micrographs: 1
# Pixel size: 3.000 Angstroms ; acceleration voltage: 300.0 keV ; spherical aberration: 0.00 mm ; amplitude contrast: 0.07
# Box size: 512 pixels ; min. res.: 30.0 Angstroms ; max. res.: 5.0 Angstroms ; min. def.: 5000.0 um; max. def. 50000.0 um; num. frames averaged: 1
# 6 lines per micrograph: #1 - spatial frequency (1/Angstroms); #2 - 1D rotational average of spectrum (assuming no astigmatism); #3 - 1D rotational average of spectrum; #4 - CTF fit; #5 - cross-correlation between spectrum and CTF fit; #6 - 2sigma of expected cross correlation of noise
0.000000 0.000651 0.001302 0.001953 0.002604 0.003255 0.003906 0.004557 0.005208 0.005859 0.006510 0.007161 0.007812 0.008464 0.009115 0.009766 0.010417 0.011068 0.011719 0.012370 0.013021 0.013672 0.014323 0.014974 0.015625 0.016276 0.016927 0.017578 0.018229 0.018880 0.019531 0.020182 0.020833 0.021484 0.022135 0.022786 0.023438 0.024089 0.024740 0.025391 0.026042 0.026693 0.027344 0.027995 0.028646 0.029297 0.029948 0.030599 0.031250 0.031901 0.032552 0.033203 0.033854 0.034505 0.035156 0.035807 0.036458 0.037109 0.037760 0.038411 0.039062 0.039714 0.040365 0.041016 0.041667 0.042318 0.042969 0.043620 0.044271 0.044922 0.045573 0.046224 0.046875 0.047526 0.048177 0.048828 0.049479 0.050130 0.050781 0.051432 0.052083 0.052734 0.053385 0.054036 0.054688 0.055339 0.055990 0.056641 0.057292 0.057943 0.058594 0.059245 0.059896 0.060547 0.061198 0.061849 0.062500 0.063151 0.063802 0.064453 0.065104 0.065755 0.066406 0.067057 0.067708 0.068359 0.069010 0.069661 0.070312 0.070964 0.071615 0.072266 0.072917 0.073568 0.074219 0.074870 0.075521 0.076172 0.076823 0.077474 0.078125 0.078776 0.079427 0.080078 0.080729 0.081380 0.082031 0.082682 0.083333 0.083984 0.084635 0.085286 0.085938 0.086589 0.087240 0.087891 0.088542 0.089193 0.089844 0.090495 0.091146 0.091797 0.092448 0.093099 0.093750 0.094401 0.095052 0.095703 0.096354 0.097005 0.097656 0.098307 0.098958 0.099609 0.100260 0.100911 0.101562 0.102214 0.102865 0.103516 0.104167 0.104818 0.105469 0.106120 0.106771 0.107422 0.108073 0.108724 0.109375 0.110026 0.110677 0.111328 0.111979 0.112630 0.113281 0.113932 0.114583 0.115234 0.115885 0.116536 0.117188 0.117839 0.118490 0.119141 0.119792 0.120443 0.121094 0.121745 0.122396 0.123047 0.123698 0.124349 0.125000 0.125651 0.126302 0.126953 0.127604 0.128255 0.128906 0.129557 0.130208 0.130859 0.131510 0.132161 0.132812 0.133464 0.134115 0.134766 0.135417 0.136068 0.136719 0.137370 0.138021 0.138672 0.139323 0.139974 0.140625 0.141276 0.141927 0.142578 0.143229 0.143880 0.144531 0.145182 0.145833 0.146484 0.147135 0.147786 0.148438 0.149089 0.149740 0.150391 0.151042 0.151693 0.152344 0.152995 0.153646 0.154297 0.154948 0.155599 0.156250 0.156901 0.157552 0.158203 0.158854 0.159505 0.160156 0.160807 0.161458 0.162109 0.162760 0.163411 0.164062 0.164714 0.165365 0.166016 0.166667 0.167318 0.167969 0.168620 0.169271 0.169922 0.170573 0.171224 0.171875 0.172526 0.173177 0.173828 0.174479 0.175130 0.175781 0.176432 0.177083 0.177734 0.178385 0.179036 0.179688 0.180339 0.180990 0.181641 0.182292 0.182943 0.183594 0.184245 0.184896 0.185547 0.186198 0.186849 0.187500 0.188151 0.188802 0.189453 0.190104 0.190755 0.191406 0.192057 0.192708 0.193359 0.194010 0.194661 0.195312 0.195964 0.196615 0.197266 0.197917 0.198568 0.199219 0.199870 0.200521 0.201172 0.201823 0.202474 0.203125 0.203776 0.204427 0.205078 0.205729 0.206380 0.207031 0.207682 0.208333 0.208984 0.209635 0.210286 0.210938 0.211589 0.212240 0.212891 0.213542 0.214193 0.214844 0.215495 0.216146 0.216797 0.217448 0.218099 0.218750 0.219401 0.220052 0.220703 0.221354 0.222005 0.222656 0.223307 0.223958 0.224609 0.225260 0.225911 0.226562 0.227214 0.227865 0.228516 0.229167 0.229818 0.230469 0.231120 0.231771 0.232422 0.233073 0.233724 0.234375 0.235026 0.235677
       0.33668        0.33668        0.33668        0.33668        0.33668        0.33668        0.33668        0.33668        0.33668        0.33668        0.33668        0.33668        0.33668        0.33668        0.33668        0.33668        0.33668        0.33668        0.33668        0.33668        0.33668        0.33668        0.33668        0.33668        0.33668        0.33668        0.33668        0.33668        0.33668        0.33668        0.33668        0.33668        0.33668        0.33668        0.33668        0.33668        0.33668        0.33668        0.33668        0.33667        0.33668        0.33668        0.33668        0.33668        0.33668        0.33668        0.33668        0.33668        0.33668        0.33668        0.33668        0.41958        0.55652        0.34271       -0.20833       -0.45831       -0.55548       -0.65333       -0.72493       -0.73794       -0.83754       -0.90409       -0.69960       -0.85802       -0.83605       -0.98463       -1.02053       -0.90249       -0.86139       -0.81224       -0.73344       -0.66258       -0.57493       -0.47976       -0.41211       -0.18404       -0.08007        0.01626        0.24213        0.24663        0.30358        0.36655        0.39336        0.50433        0.53313        0.56933        0.52961        0.46876        0.50512        0.51122        0.43249        0.32269        0.20003        0.16980        0.10245       -0.01152       -0.02693       -0.03485        0.03985        0.00349        0.05924        0.03448        0.14932        0.18674        0.39979        0.45447        0.54751        0.65455        0.68847        0.71201        0.63222        0.61011        0.52922        0.43300        0.37986        0.26290        0.20625        0.19787        0.08742        0.09064        0.07863        0.07087        0.08578        0.29797        0.40661        0.51068        0.53149        0.57156        0.60787        0.58587        0.57544        0.58030        0.56065        0.46040        0.29268        0.25281        0.23555        0.13122        0.07770        0.14872        0.18012        0.27086        0.34624        0.41521        0.46689        0.52637        0.59781        0.54390        0.50536        0.48974        0.34971        0.25346        0.24304        0.16487        0.16816        0.21156        0.25720        0.27045        0.31041        0.41609        0.44683        0.49745        0.45032        0.44145        0.47491        0.37965        0.32101        0.27633        0.24434        0.21895        0.22112        0.23086        0.32707        0.43094        0.42123        0.48563        0.54821        0.43819        0.40738        0.35094        0.29915        0.25282        0.26622        0.26338        0.28033        0.32626        0.33836        0.42101        0.46655        0.43154        0.44833        0.35992        0.37061        0.35020        0.25488        0.23578        0.23436        0.30823        0.36730        0.36265        0.38507        0.42880        0.43110        0.36341        0.33297        0.31201        0.34076        0.29890        0.26823        0.27074        0.33930        0.36037        0.37444        0.38591        0.37710        0.40581        0.38815        0.30393        0.27900        0.30900        0.33706        0.36003        0.35342        0.39979        0.33449        0.36650        0.38574        0.32530        0.34590        0.30738        0.28970        0.33222        0.32943        0.31807        0.33682        0.35808        0.31848        0.33798        0.30695        0.30594        0.28079        0.30757        0.30098        0.32343        0.36017        0.35828        0.34009        0.29719        0.28389        0.27824        0.31959        0.29658        0.30609        0.35902        0.35572        0.33288        0.30397        0.29875        0.30545        0.26687        0.29468        0.30679        0.32036        0.35857        0.33394        0.28987        0.32412        0.32049        0.31203        0.35048        0.33692        0.30282        0.32745        0.28562        0.31707        0.28327        0.30237        0.28681        0.31349        0.35755        0.32693        0.34653        0.29912        0.31164        0.33324        0.32619        0.29994        0.29765        0.33299        0.32116        0.31679        0.30974        0.30841        0.29669        0.30188        0.31474        0.31700        0.33545        0.33488        0.33129        0.28530        0.27241        0.26325        0.26222        0.35413        0.30490        0.35094        0.29005        0.25678        0.27928        0.35362        0.29928        0.27723        0.28333        0.30772        0.28635        0.26734        0.30687        0.26771        0.26818        0.29706        0.31327        0.32888        0.31946        0.29367        0.26362        0.25753        0.25307        0.26077        0.28460        0.34859        0.27945        0.19759        0.29410        0.26869        0.30629        0.23156        0.30104        0.30489        0.32194        0.28190        0.26644        0.26613        0.23145        0.28674        0.33857        0.35328        0.23601        0.27041        0.21294        0.21593        0.20170        0.33256        0.24287        0.21020        0.13509        0.22954        0.28543        0.20912        0.17175        0.05985       -0.57419       -0.74606
3.119062 3.079813 3.040817 3.002075 2.963587 2.925353 2.887372 2.849644 2.812171 2.774951 2.737985 2.701273 2.664814 2.628609 2.592658 2.556960 2.521516 2.486326 2.451389 2.416706 2.382277 2.348102 2.314180 2.280512 2.247097 2.213936 2.181029 2.148376 2.115976 2.083830 2.051938 2.020299 1.988915 1.957783 1.926906 1.896282 1.865912 1.835795 1.805932 1.776323 1.746968 1.717866 1.689018 1.660424 1.632083 1.603996 1.576163 1.548583 1.521257 1.494185 1.467367 1.501891 1.592481 1.532052 0.848087 0.588541 0.448134 0.380592 0.286568 0.207196 0.169002 -0.055696 0.195070 0.059517 -0.038189 -0.121152 -0.243470 -0.151963 -0.066511 -0.094638 -0.082928 0.029614 0.024760 0.218911 0.103250 0.350100 0.458820 0.480423 0.758840 0.685758 0.687073 0.829926 0.798253 0.833008 0.920191 0.862728 0.894365 0.729018 0.802189 0.845634 0.678824 0.605530 0.440508 0.424813 0.348882 0.184655 0.181822 0.116807 0.211390 0.118686 0.212389 0.107210 0.223844 0.234744 0.453224 0.411835 0.587452 0.625924 0.664015 0.729543 0.621107 0.600456 0.469341 0.418316 0.303016 0.271380 0.103807 0.163849 -0.021147 0.039167 -0.034238 -0.038673 -0.040646 0.037189 0.284838 0.301442 0.378474 0.322992 0.403507 0.415190 0.442548 0.423451 0.367109 0.349537 0.137086 0.088558 0.067304 -0.007092 -0.150594 -0.038008 -0.068075 0.043614 0.091477 0.166606 0.234984 0.242464 0.330317 0.427714 0.310123 0.372412 0.254691 0.141926 0.068736 0.050322 0.005576 0.043755 0.073887 0.107161 0.119016 0.186798 0.244313 0.310066 0.293449 0.230341 0.262805 0.232167 0.113763 0.080138 0.047490 0.035788 0.008230 -0.002012 0.040458 0.174695 0.191687 0.198585 0.311263 0.195130 0.206803 0.086909 0.076536 -0.002875 -0.005122 0.005286 0.000828 0.042770 0.054824 0.095119 0.159264 0.146295 0.224712 0.128907 0.078795 0.104353 0.049269 -0.061992 -0.025646 0.016894 0.056558 0.074968 0.079998 0.156798 0.128809 0.151685 0.038502 0.057179 0.047765 0.050267 0.023130 -0.021614 0.037989 0.044832 0.086365 0.109947 0.093950 0.107499 0.127373 0.072823 0.011043 -0.000548 0.033642 0.081875 0.062998 0.102077 0.096519 0.053113 0.112744 0.069386 0.041801 0.081147 -0.020962 0.022590 0.060915 0.038814 0.041739 0.050796 0.069978 0.052344 0.058666 0.011190 0.019453 -0.005109 0.042584 0.001590 0.048793 0.068847 0.069964 0.037818 -0.013149 -0.010415 -0.016126 0.031596 -0.002700 0.014217 0.068468 0.058370 -0.010192 0.009773 -0.011359 0.010467 -0.044687 -0.009622 -0.002941 0.029164 0.045224 0.017532 -0.020656 0.007018 0.002047 0.001672 0.043953 0.012754 -0.013653 0.044065 -0.040765 -0.015297 -0.048304 -0.013646 -0.036877 0.015965 0.046703 0.002383 0.005413 -0.005577 0.006580 0.020536 0.025800 -0.011281 -0.002869 0.020643 0.042414 0.011183 0.011078 0.042903 -0.009701 0.000653 0.024810 0.004177 0.074106 0.056537 0.029534 0.002142 -0.008036 -0.033613 0.000437 0.077277 -0.003095 0.076463 -0.019114 -0.023918 -0.018109 0.092796 -0.006860 -0.010658 0.014697 0.041114 0.007543 0.006513 0.030282 0.004401 0.008608 0.020922 0.067840 0.081011 0.052346 0.031946 0.005096 -0.007626 -0.001751 -0.019196 0.003504 0.107965 -0.026113 -0.092619 0.057799 -0.015633 0.045435 -0.059160 0.016817 0.017117 0.018744 -0.002926 -0.021464 -0.011861 -0.074387 0.021658 0.051372 0.070829 -0.123248 0.000937 -0.043828 -0.016875 -0.116401 0.114292 0.016186 0.023252 -0.067448 0.181549 0.253233 0.152439 0.128881 0.064600 -0.707069
0.072396 0.073047 0.074998 0.078250 0.082801 0.088650 0.095795 0.104232 0.113958 0.124967 0.137254 0.150809 0.165622 0.181681 0.198971 0.217472 0.237163 0.258018 0.280006 0.303091 0.327233 0.352384 0.378492 0.405494 0.433323 0.461902 0.491146 0.520961 0.551242 0.581875 0.612735 0.643687 0.674584 0.705267 0.735566 0.765302 0.794280 0.822299 0.849143 0.874589 0.898402 0.920341 0.940158 0.957595 0.972395 0.984296 0.993034 0.998351 0.999990 0.997702 0.991251 0.980411 0.964976 0.944760 0.919602 0.889371 0.853968 0.813331 0.767443 0.716328 0.660063 0.598779 0.532664 0.461965 0.386994 0.308128 0.225810 0.140554 0.052937 0.036393 0.126727 0.217294 0.307265 0.395764 0.481868 0.564623 0.643048 0.716151 0.782939 0.842434 0.893688 0.935798 0.967926 0.989313 0.999301 0.997348 0.983050 0.956153 0.916572 0.864406 0.799948 0.723697 0.636364 0.538877 0.432375 0.318212 0.197941 0.073300 0.053804 0.181322 0.307092 0.428873 0.544388 0.651362 0.747573 0.830903 0.899385 0.951261 0.985029 0.999497 0.993830 0.967589 0.920767 0.853818 0.767677 0.663759 0.543966 0.410656 0.266622 0.115039 0.040591 0.196515 0.348817 0.493508 0.626640 0.744411 0.843290 0.920127 0.972267 0.997660 0.994952 0.963566 0.903762 0.816673 0.704318 0.569581 0.416168 0.248521 0.071713 0.108694 0.286812 0.456618 0.612158 0.747764 0.858273 0.939238 0.987135 0.999534 0.975245 0.914431 0.818655 0.690896 0.535487 0.358012 0.165125 0.035663 0.236276 0.428379 0.603726 0.754534 0.873829 0.955810 0.996157 0.992286 0.943556 0.851378 0.719235 0.552606 0.358791 0.146621 0.073905 0.292081 0.496998 0.678101 0.825744 0.931737 0.989839 0.996167 0.949505 0.851473 0.706556 0.521957 0.307308 0.074210 0.164362 0.394759 0.603435 0.777767 0.906835 0.982160 0.998316 0.953376 0.849167 0.691291 0.488911 0.254277 0.002057 0.251559 0.489873 0.696782 0.857897 0.961588 0.999885 0.969164 0.870557 0.710036 0.498146 0.249405 0.018632 0.286562 0.534524 0.743679 0.897679 0.984004 0.995061 0.928940 0.789752 0.587499 0.337462 0.059138 0.225233 0.492396 0.720001 0.888503 0.982908 0.994204 0.920318 0.766521 0.545190 0.274937 0.020875 0.316067 0.583954 0.799764 0.942996 0.999444 0.962731 0.835142 0.627668 0.359205 0.054942 0.255899 0.542856 0.777191 0.934857 0.999033 0.962072 0.826532 0.605217 0.320118 0.000361 0.320666 0.608790 0.832684 0.967373 0.997124 0.917447 0.735896 0.471564 0.153227 0.183658 0.500820 0.761543 0.934959 0.999821 0.947280 0.782252 0.523200 0.200266 0.148101 0.479627 0.753333 0.934662 0.999968 0.939780 0.760370 0.483346 0.143265 0.216531 0.549347 0.811205 0.966735 0.994111 0.888319 0.662255 0.345408 0.019781 0.383462 0.695134 0.910700 0.998841 0.945773 0.757636 0.460089 0.095060 0.284988 0.624504 0.872990 0.992642 0.964295 0.790758 0.496902 0.126357 0.264744 0.616172 0.872901 0.993831 0.958610 0.771326 0.460412 0.074627 0.324397 0.671882 0.910473 0.999849 0.923800 0.693474 0.346094 0.060758 0.458500 0.779029 0.966501 0.987251 0.836147 0.538104 0.144348 0.276147 0.648585 0.905676 0.999957 0.912849 0.658669 0.282677 0.146654 0.549912 0.851394 0.993456 0.947804 0.721513 0.356377 0.078434 0.499239 0.823885 0.987896 0.957563 0.737257 0.369315 0.073696 0.503030 0.831468 0.991155 0.947922 0.709008 0.322367 0.132546 0.560847 0.871956 0.998918 0.913149 0.631320 0.212624 0.253251 0.665111
1.000000 1.000000 1.000000 1.000000 1.000000 1.000000 1.000000 1.000000 1.000000 1.000000 1.000000 1.000000 1.000000 1.000000 1.000000 1.000000 1.000000 1.000000 1.000000 1.000000 1.000000 1.000000 1.000000 1.000000 1.000000 1.000000 1.000000 1.000000 1.000000 1.000000 1.000000 1.000000 1.000000 1.000000 1.000000 1.000000 1.000000 1.000000 1.000000 1.000000 1.000000 1.000000 1.000000 1.000000 1.000000 1.000000 1.000000 1.000000 1.000000 1.000000 1.000000 1.000000 0.926341 0.926341 0.926341 0.926341 0.926341 0.926341 0.926341 0.926341 0.926341 0.926341 0.926341 0.926341 0.926341 0.926341 0.926341 0.926341 0.926341 0.926341 0.926341 0.926341 0.926341 0.926341 0.926341 0.926341 0.926341 0.926341 0.926341 0.926341 0.926341 0.926341 0.926341 0.926341 0.926341 0.913384 0.911466 0.912633 0.913816 0.913722 0.913168 0.912804 0.913839 0.915392 0.917404 0.939012 0.942045 0.943210 0.944500 0.945921 0.948352 0.946340 0.954079 0.960709 0.959739 0.960754 0.954600 0.955893 0.955274 0.954553 0.956122 0.956179 0.954572 0.952675 0.951200 0.950702 0.950413 0.953932 0.954475 0.954652 0.955200 0.955135 0.955854 0.956468 0.956753 0.958942 0.958021 0.957113 0.962790 0.961310 0.963203 0.963166 0.963880 0.964590 0.964806 0.964995 0.961879 0.961620 0.961036 0.950817 0.944047 0.942159 0.944323 0.947242 0.944460 0.940547 0.942155 0.944880 0.944404 0.943905 0.934648 0.931147 0.909133 0.897919 0.885686 0.885935 0.888563 0.890559 0.888292 0.880150 0.870459 0.866574 0.866791 0.863084 0.856537 0.873085 0.867606 0.866709 0.870815 0.873772 0.879037 0.874877 0.870659 0.866479 0.862402 0.856922 0.858921 0.863527 0.867110 0.854920 0.847398 0.850633 0.839967 0.831732 0.839137 0.841204 0.838191 0.837049 0.837893 0.836372 0.829440 0.824732 0.827544 0.836639 0.835687 0.824219 0.820375 0.815285 0.815127 0.809132 0.811941 0.811670 0.807999 0.801103 0.815884 0.783014 0.807196 0.805529 0.791750 0.776642 0.764158 0.772535 0.784075 0.787054 0.780240 0.773739 0.772865 0.768103 0.742477 0.746641 0.754028 0.752423 0.740707 0.717897 0.725120 0.732225 0.726168 0.721199 0.723966 0.725252 0.695916 0.709029 0.712560 0.697057 0.712035 0.713819 0.704640 0.704495 0.706817 0.708952 0.702724 0.663359 0.665594 0.665093 0.656031 0.604562 0.604145 0.603997 0.558585 0.562383 0.526925 0.509752 0.509386 0.506704 0.552082 0.521822 0.506370 0.536346 0.475321 0.386942 0.401250 0.396632 0.407749 0.418150 0.394033 0.393023 0.382492 0.355225 0.364090 0.381086 0.394968 0.369093 0.369468 0.364140 0.334538 0.307462 0.318918 0.322731 0.344908 0.347420 0.323951 0.355575 0.389883 0.334213 0.308811 0.294378 0.281470 0.295693 0.300807 0.289678 0.256396 0.255349 0.218700 0.243671 0.231428 0.225559 0.240555 0.273716 0.267447 0.276181 0.292048 0.247641 0.262290 0.264270 0.253691 0.256692 0.266747 0.264853 0.252142 0.268307 0.236051 0.248346 0.226861 0.209433 0.273700 0.256612 0.226613 0.224828 0.230925 0.243944 0.213981 0.169144 0.145783 0.155293 0.090951 0.069553 0.069293 0.063735 0.019345 -0.008407 -0.024855 -0.062946 -0.062509 -0.060879 -0.024625 -0.056558 -0.028216 -0.016687 -0.016687 -0.016687 -0.016687 -0.016687 -0.016687 -0.016687 -0.016687 -0.016687 -0.016687 -0.016687 -0.016687 -0.016687 -0.016687 0.006058 0.006058 0.006058 0.006058 0.006058 0.006058 0.006058 0.006058 0.006058 0.006058 0.006058 0.006058
0.000000 0.000000 0.000000 0.000000 0.000000 0.000000 0.000000 0.000000 0.000000 0.000000 0.000000 0.000000 0.000000 0.000000 0.000000 0.000000 0.000000 0.000000 0.000000 0.000000 0.000000 0.000000 0.000000 0.000000 0.000000 7.000000 4.000000 0.000000 0.000000 0.000000 0.000000 0.000000 0.000000 0.000000 0.000000 0.000000 0.000000 0.000000 0.000000 0.000000 0.000000 0.000000 0.000000 0.000000 0.000000 0.000000 0.000000 0.000000 0.000000 0.000000 0.000000 0.000000 0.209657 0.209657 0.209657 0.209657 0.209657 0.209657 0.209657 0.209657 0.209657 0.209657 0.209657 0.209657 0.209657 0.209657 0.209657 0.209657 0.209657 0.209657 0.209657 0.209657 0.209657 0.209657 0.209657 0.209657 0.209657 0.209657 0.209657 0.209657 0.209657 0.209657 0.209657 0.209657 0.209657 0.244339 0.244339 0.244339 0.244339 0.244339 0.244339 0.244339 0.244339 0.244339 0.244339 0.244339 0.244339 0.244339 0.244339 0.244339 0.244339 0.244339 0.244339 0.244339 0.244339 0.244339 0.244339 0.244339 0.244339 0.244339 0.260378 0.260378 0.260378 0.260378 0.260378 0.260378 0.260378 0.260378 0.260378 0.260378 0.260378 0.260378 0.260378 0.260378 0.260378 0.260378 0.260378 0.260378 0.260378 0.260378 0.269680 0.269680 0.269680 0.269680 0.269680 0.269680 0.269680 0.269680 0.269680 0.269680 0.269680 0.269680 0.269680 0.269680 0.269680 0.269680 0.269680 0.269680 0.269680 0.269680 0.269680 0.269680 0.269680 0.269680 0.269680 0.269680 0.269680 0.269680 0.269680 0.269680 0.269680 0.269680 0.269680 0.280056 0.280056 0.280056 0.280056 0.280056 0.280056 0.280056 0.280056 0.280056 0.280056 0.280056 0.280056 0.280056 0.280056 0.280056 0.280056 0.280056 0.280056 0.280056 0.280056 0.280056 0.280056 0.280056 0.280056 0.280056 0.280056 0.280056 0.274721 0.274721 0.274721 0.274721 0.274721 0.274721 0.274721 0.274721 0.274721 0.274721 0.274721 0.274721 0.274721 0.285714 0.285714 0.285714 0.285714 0.285714 0.285714 0.285714 0.285714 0.285714 0.285714 0.285714 0.280056 0.280056 0.280056 0.280056 0.280056 0.280056 0.280056 0.280056 0.280056 0.280056 0.280056 0.274721 0.274721 0.274721 0.274721 0.274721 0.274721 0.274721 0.274721 0.274721 0.274721 0.274721 0.280056 0.280056 0.280056 0.280056 0.280056 0.280056 0.280056 0.280056 0.280056 0.280056 0.285714 0.285714 0.285714 0.285714 0.285714 0.285714 0.285714 0.285714 0.285714 0.269680 0.269680 0.269680 0.269680 0.269680 0.269680 0.269680 0.269680 0.269680 0.269680 0.274721 0.274721 0.274721 0.274721 0.274721 0.274721 0.274721 0.274721 0.274721 0.285714 0.285714 0.285714 0.285714 0.285714 0.285714 0.285714 0.285714 0.264906 0.264906 0.264906 0.264906 0.264906 0.264906 0.264906 0.264906 0.264906 0.274721 0.274721 0.274721 0.274721 0.274721 0.274721 0.274721 0.274721 0.269680 0.269680 0.269680 0.269680 0.269680 0.269680 0.269680 0.269680 0.269680 0.269680 0.269680 0.269680 0.269680 0.269680 0.269680 0.269680 0.280056 0.280056 0.280056 0.280056 0.280056 0.280056 0.280056 0.260378 0.260378 0.260378 0.260378 0.260378 0.260378 0.260378 0.260378 0.269680 0.269680 0.269680 0.269680 0.269680 0.269680 0.269680 0.264906 0.264906 0.264906 0.264906 0.264906 0.264906 0.264906 0.264906 0.264906 0.264906 0.264906 0.264906 0.264906 0.264906 0.260378 0.260378 0.260378 0.260378 0.260378 0.260378 0.260378 0.260378 0.260378 0.260378 0.260378 0.260378
