# Output from CTFFind version 4.1.9, run on 2019-11-02 17:46:38
# Input file: stack6_bm3d_averaged_1_1.25_0_1250_half.mrc ; Number of micrographs: 1
# Pixel size: 3.000 Angstroms ; acceleration voltage: 300.0 keV ; spherical aberration: 0.00 mm ; amplitude contrast: 0.07
# Box size: 512 pixels ; min. res.: 30.0 Angstroms ; max. res.: 5.0 Angstroms ; min. def.: 5000.0 um; max. def. 50000.0 um; num. frames averaged: 1
# 6 lines per micrograph: #1 - spatial frequency (1/Angstroms); #2 - 1D rotational average of spectrum (assuming no astigmatism); #3 - 1D rotational average of spectrum; #4 - CTF fit; #5 - cross-correlation between spectrum and CTF fit; #6 - 2sigma of expected cross correlation of noise
0.000000 0.000651 0.001302 0.001953 0.002604 0.003255 0.003906 0.004557 0.005208 0.005859 0.006510 0.007161 0.007812 0.008464 0.009115 0.009766 0.010417 0.011068 0.011719 0.012370 0.013021 0.013672 0.014323 0.014974 0.015625 0.016276 0.016927 0.017578 0.018229 0.018880 0.019531 0.020182 0.020833 0.021484 0.022135 0.022786 0.023438 0.024089 0.024740 0.025391 0.026042 0.026693 0.027344 0.027995 0.028646 0.029297 0.029948 0.030599 0.031250 0.031901 0.032552 0.033203 0.033854 0.034505 0.035156 0.035807 0.036458 0.037109 0.037760 0.038411 0.039062 0.039714 0.040365 0.041016 0.041667 0.042318 0.042969 0.043620 0.044271 0.044922 0.045573 0.046224 0.046875 0.047526 0.048177 0.048828 0.049479 0.050130 0.050781 0.051432 0.052083 0.052734 0.053385 0.054036 0.054688 0.055339 0.055990 0.056641 0.057292 0.057943 0.058594 0.059245 0.059896 0.060547 0.061198 0.061849 0.062500 0.063151 0.063802 0.064453 0.065104 0.065755 0.066406 0.067057 0.067708 0.068359 0.069010 0.069661 0.070312 0.070964 0.071615 0.072266 0.072917 0.073568 0.074219 0.074870 0.075521 0.076172 0.076823 0.077474 0.078125 0.078776 0.079427 0.080078 0.080729 0.081380 0.082031 0.082682 0.083333 0.083984 0.084635 0.085286 0.085938 0.086589 0.087240 0.087891 0.088542 0.089193 0.089844 0.090495 0.091146 0.091797 0.092448 0.093099 0.093750 0.094401 0.095052 0.095703 0.096354 0.097005 0.097656 0.098307 0.098958 0.099609 0.100260 0.100911 0.101562 0.102214 0.102865 0.103516 0.104167 0.104818 0.105469 0.106120 0.106771 0.107422 0.108073 0.108724 0.109375 0.110026 0.110677 0.111328 0.111979 0.112630 0.113281 0.113932 0.114583 0.115234 0.115885 0.116536 0.117188 0.117839 0.118490 0.119141 0.119792 0.120443 0.121094 0.121745 0.122396 0.123047 0.123698 0.124349 0.125000 0.125651 0.126302 0.126953 0.127604 0.128255 0.128906 0.129557 0.130208 0.130859 0.131510 0.132161 0.132812 0.133464 0.134115 0.134766 0.135417 0.136068 0.136719 0.137370 0.138021 0.138672 0.139323 0.139974 0.140625 0.141276 0.141927 0.142578 0.143229 0.143880 0.144531 0.145182 0.145833 0.146484 0.147135 0.147786 0.148438 0.149089 0.149740 0.150391 0.151042 0.151693 0.152344 0.152995 0.153646 0.154297 0.154948 0.155599 0.156250 0.156901 0.157552 0.158203 0.158854 0.159505 0.160156 0.160807 0.161458 0.162109 0.162760 0.163411 0.164062 0.164714 0.165365 0.166016 0.166667 0.167318 0.167969 0.168620 0.169271 0.169922 0.170573 0.171224 0.171875 0.172526 0.173177 0.173828 0.174479 0.175130 0.175781 0.176432 0.177083 0.177734 0.178385 0.179036 0.179688 0.180339 0.180990 0.181641 0.182292 0.182943 0.183594 0.184245 0.184896 0.185547 0.186198 0.186849 0.187500 0.188151 0.188802 0.189453 0.190104 0.190755 0.191406 0.192057 0.192708 0.193359 0.194010 0.194661 0.195312 0.195964 0.196615 0.197266 0.197917 0.198568 0.199219 0.199870 0.200521 0.201172 0.201823 0.202474 0.203125 0.203776 0.204427 0.205078 0.205729 0.206380 0.207031 0.207682 0.208333 0.208984 0.209635 0.210286 0.210938 0.211589 0.212240 0.212891 0.213542 0.214193 0.214844 0.215495 0.216146 0.216797 0.217448 0.218099 0.218750 0.219401 0.220052 0.220703 0.221354 0.222005 0.222656 0.223307 0.223958 0.224609 0.225260 0.225911 0.226562 0.227214 0.227865 0.228516 0.229167 0.229818 0.230469 0.231120 0.231771 0.232422 0.233073 0.233724 0.234375 0.235026 0.235677
       0.30990        0.30990        0.30990        0.30990        0.30990        0.30990        0.30990        0.30990        0.30990        0.30990        0.30990        0.30990        0.30990        0.30990        0.30990        0.30990        0.30990        0.30990        0.30990        0.30990        0.30990        0.30990        0.30990        0.30990        0.30990        0.30990        0.30990        0.30990        0.30990        0.30990        0.30990        0.30990        0.30990        0.30990        0.30990        0.30990        0.30990        0.30990        0.30990        0.30990        0.30990        0.30990        0.30990        0.30990        0.30990        0.30990        0.30990        0.30990        0.30990        0.30990        0.30990        0.63363        0.81379        0.41448        0.30930        0.18687       -0.10756        0.11154       -0.00169        0.03292        0.11526        0.33586        0.42216        0.40205        0.22383       -0.01321        0.04608        0.07057       -0.17187       -0.18020       -0.08644       -0.11012       -0.29503       -0.18967       -0.30384       -0.25959       -0.28622       -0.40536       -0.47530       -0.47689       -0.42113       -0.34121       -0.43802       -0.36721       -0.41156       -0.35139       -0.27601       -0.20077       -0.19531       -0.13580       -0.09180        0.03885        0.08146        0.25102        0.28266        0.37110        0.40251        0.51637        0.58867        0.60782        0.73835        0.69745        0.73953        0.65090        0.66339        0.69409        0.63171        0.61576        0.60803        0.43510        0.39413        0.35404        0.32604        0.22378        0.13016        0.05968        0.05419        0.00050       -0.08045       -0.02944       -0.03279       -0.07151        0.06396        0.16319        0.25445        0.31797        0.33535        0.42734        0.54448        0.59015        0.53884        0.67214        0.56305        0.53849        0.59850        0.63389        0.52942        0.45999        0.40162        0.37647        0.24734        0.20894        0.13276        0.11623        0.05411        0.05569        0.10336        0.16231        0.14775        0.17899        0.22001        0.23910        0.32929        0.45147        0.48861        0.49482        0.52071        0.57899        0.57105        0.52062        0.41954        0.38215        0.36376        0.26708        0.24267        0.21327        0.20607        0.19920        0.17915        0.15765        0.12451        0.18847        0.24502        0.34348        0.38029        0.40693        0.46314        0.53341        0.47193        0.48347        0.42600        0.40289        0.38027        0.36140        0.28673        0.25562        0.19951        0.23510        0.21642        0.19341        0.21565        0.22298        0.24129        0.30231        0.39968        0.39781        0.37526        0.39044        0.45243        0.47957        0.43014        0.35327        0.32175        0.27592        0.26160        0.24887        0.21424        0.28211        0.29283        0.29439        0.31239        0.30570        0.34148        0.37512        0.36968        0.36809        0.35446        0.31781        0.33055        0.31863        0.29410        0.28655        0.27090        0.21453        0.26870        0.27154        0.30047        0.31892        0.34097        0.37385        0.33532        0.31548        0.35918        0.36596        0.26225        0.29350        0.30657        0.24220        0.20799        0.26198        0.27489        0.27663        0.29837        0.30368        0.33244        0.33203        0.35596        0.32354        0.32036        0.30782        0.29348        0.26877        0.24439        0.25363        0.25704        0.27812        0.29901        0.29476        0.29510        0.31751        0.32999        0.26485        0.30489        0.26689        0.25758        0.26949        0.26005        0.25808        0.26133        0.30985        0.28145        0.31256        0.28771        0.27430        0.31057        0.30728        0.33019        0.31383        0.29300        0.24909        0.25375        0.26620        0.26009        0.30963        0.31520        0.33382        0.32125        0.31097        0.25454        0.28375        0.21277        0.19923        0.25505        0.26329        0.25679        0.28452        0.31472        0.29583        0.35449        0.30264        0.25483        0.22662        0.23902        0.29340        0.30855        0.30251        0.27033        0.28074        0.25865        0.31345        0.27601        0.25206        0.27007        0.25183        0.28763        0.25135        0.28286        0.32787        0.28890        0.20981        0.23614        0.27900        0.31707        0.25549        0.26026        0.23807        0.28643        0.29169        0.38279        0.28849        0.26784        0.25981        0.25182        0.21658        0.18343        0.24544        0.20877        0.20001        0.18093        0.19293        0.24121        0.21873        0.23846        0.19899        0.24884        0.22623        0.21060        0.18170        0.15385        0.19179        0.24195        0.14533        0.06742        0.21067        0.18655        0.13644        0.23834        0.15452        0.22376        0.18875       -0.07733       -0.51629       -0.98741
2.863148 2.834946 2.806888 2.778976 2.751209 2.723587 2.696111 2.668779 2.641593 2.614552 2.587657 2.560906 2.534301 2.507841 2.481526 2.455357 2.429332 2.403453 2.377719 2.352130 2.326687 2.301389 2.276235 2.251228 2.226365 2.201647 2.177075 2.152648 2.128366 2.104230 2.080238 2.056392 2.032691 2.009135 1.985725 1.962460 1.939340 1.916365 1.893535 1.870851 1.848311 1.825917 1.803668 1.781565 1.759607 1.737793 1.716125 1.694603 1.673225 1.651993 1.630906 1.929088 2.278240 1.705045 1.746055 1.386516 0.944793 1.204512 1.031149 1.080739 1.032776 1.500162 1.522147 1.547235 1.283833 0.948514 0.827273 1.016436 0.717233 0.491743 0.594467 0.681046 0.422770 0.491571 0.328866 0.367218 0.251239 0.160673 -0.034971 0.006168 0.030574 0.080374 0.041998 0.081521 -0.041911 0.029327 0.110901 0.227836 0.285700 0.213219 0.325590 0.558393 0.449480 0.731927 0.802075 0.883780 0.911335 1.124557 1.145821 1.180602 1.330747 1.236227 1.381023 1.196030 1.114742 1.318798 1.131077 1.058570 1.132291 0.892391 0.737944 0.677421 0.674393 0.468859 0.395509 0.263367 0.222738 0.095912 -0.008118 0.093385 0.025609 -0.064719 0.113549 0.259037 0.308185 0.464736 0.486822 0.554311 0.722477 0.822911 0.659023 0.962457 0.809089 0.653027 0.770960 0.792986 0.712515 0.641402 0.443697 0.501836 0.285312 0.185678 0.140939 0.008322 -0.017053 -0.110292 -0.018330 0.017743 0.090428 -0.047812 0.253543 0.098104 0.208418 0.374246 0.431818 0.529244 0.434533 0.562994 0.665397 0.506207 0.385649 0.333302 0.320000 0.145735 0.132100 0.011641 0.095752 0.020316 0.002653 -0.030117 -0.121092 -0.012831 0.017167 0.105485 0.291817 0.205268 0.354859 0.374098 0.424190 0.414481 0.403696 0.337086 0.227536 0.305131 0.164120 0.162019 0.003098 0.054745 0.067236 -0.020313 -0.004873 0.015664 0.061971 0.076797 0.223279 0.304023 0.246507 0.213129 0.373807 0.398774 0.355279 0.246877 0.173149 0.144489 0.083309 0.073612 0.029303 0.021729 0.133843 0.054198 0.185689 0.087947 0.133671 0.228050 0.216770 0.233180 0.195392 0.199528 0.117484 0.165334 0.122826 0.097806 0.118615 -0.005490 0.030312 0.084936 0.047959 0.153025 0.115273 0.212811 0.199929 0.133688 0.135713 0.222033 0.121956 0.067060 0.092685 0.065404 -0.004602 -0.023642 0.056681 0.076429 0.038023 0.117131 0.111600 0.124911 0.138992 0.171427 0.126979 0.087550 0.106298 0.087358 0.023027 0.012828 0.038283 0.006668 0.076930 0.107592 0.071264 0.065327 0.129307 0.109814 0.017119 0.119215 0.022425 0.022801 0.047989 0.016706 0.010604 0.061705 0.085203 0.016761 0.103607 0.068060 0.022728 0.116550 0.070582 0.090194 0.088072 0.023553 -0.014361 -0.013492 0.037102 -0.000569 0.066032 0.094914 0.089164 0.058833 0.138491 -0.022526 0.044359 -0.099390 -0.028457 -0.020604 0.006440 0.017859 0.022861 0.093302 0.056296 0.115582 -0.005904 -0.037758 -0.082427 -0.079120 0.069635 0.032047 0.041219 -0.020784 -0.008591 -0.035822 0.042772 0.003979 -0.070782 -0.014212 -0.087161 0.019948 -0.045963 0.012415 0.061396 -0.021174 -0.089950 -0.047297 0.065642 0.039360 -0.025003 0.001064 -0.065063 0.094831 0.075274 0.178565 0.035731 0.011987 0.018519 0.058572 -0.053773 -0.034940 0.053811 -0.012392 -0.040033 -0.043375 -0.037745 0.091315 -0.058194 0.098486 -0.010059 0.111517 -0.003876 0.065995 -0.071051 -0.042901 -0.046111 0.119881 -0.030420 -0.238625 0.295562 0.262174 0.193859 0.402285 0.213485 0.286825 0.291941 -0.106298 -1.384060
0.072396 0.072834 0.074149 0.076339 0.079405 0.083346 0.088161 0.093848 0.100407 0.107835 0.116129 0.125287 0.135306 0.146179 0.157903 0.170470 0.183874 0.198104 0.213152 0.229004 0.245648 0.263068 0.281245 0.300160 0.319791 0.340112 0.361094 0.382708 0.404917 0.427684 0.450968 0.474722 0.498897 0.523438 0.548288 0.573383 0.598655 0.624031 0.649435 0.674781 0.699984 0.724949 0.749578 0.773767 0.797408 0.820387 0.842585 0.863880 0.884143 0.903245 0.921049 0.937417 0.952208 0.965281 0.976489 0.985688 0.992734 0.997482 0.999791 0.999521 0.996539 0.990715 0.981925 0.970057 0.955003 0.936670 0.914975 0.889850 0.861242 0.829114 0.793449 0.754250 0.711540 0.665367 0.615804 0.562946 0.506921 0.447880 0.386006 0.321511 0.254637 0.185658 0.114878 0.042631 0.030718 0.104776 0.179121 0.253305 0.326858 0.399285 0.470075 0.538700 0.604620 0.667289 0.726158 0.780677 0.830307 0.874521 0.912811 0.944695 0.969721 0.987480 0.997605 0.999783 0.993759 0.979346 0.956425 0.924959 0.884990 0.836651 0.780165 0.715849 0.644118 0.565486 0.480563 0.390055 0.294764 0.195578 0.093469 0.010513 0.115255 0.219584 0.322286 0.422115 0.517811 0.608113 0.691780 0.767607 0.834446 0.891222 0.936957 0.970785 0.991975 0.999946 0.994287 0.974767 0.941353 0.894219 0.833752 0.760562 0.675474 0.579534 0.474001 0.360330 0.240166 0.115316 0.012270 0.140525 0.267302 0.390404 0.507627 0.616794 0.715806 0.802678 0.875584 0.932904 0.973261 0.995560 0.999027 0.983232 0.948119 0.894023 0.821675 0.732212 0.627163 0.508437 0.378294 0.239314 0.094345 0.053540 0.201115 0.345062 0.482049 0.608809 0.722218 0.819379 0.897703 0.954985 0.989473 0.999933 0.985698 0.946714 0.883555 0.797444 0.690237 0.564401 0.422968 0.269478 0.107895 0.057487 0.222153 0.381487 0.530902 0.665977 0.782594 0.877064 0.946268 0.987755 0.999857 0.981759 0.933558 0.856291 0.751940 0.623393 0.474389 0.309423 0.133625 0.047397 0.227717 0.401294 0.562169 0.704671 0.823637 0.914595 0.973962 0.999191 0.988903 0.942974 0.862581 0.750200 0.609558 0.445525 0.263976 0.071581 0.124411 0.316455 0.496988 0.658735 0.795013 0.900012 0.969073 0.998904 0.987766 0.935591 0.844035 0.716465 0.557857 0.374634 0.174428 0.034225 0.242234 0.440343 0.619555 0.771532 0.889018 0.966191 0.998985 0.985327 0.925295 0.821176 0.677418 0.500475 0.298545 0.081221 0.140955 0.356988 0.555974 0.727662 0.862990 0.954592 0.997226 0.988106 0.927117 0.816891 0.662745 0.472456 0.255918 0.024635 0.208850 0.431645 0.631209 0.796075 0.916537 0.985239 0.997670 0.952496 0.851723 0.700658 0.507684 0.283837 0.042198 0.202832 0.436394 0.644069 0.812776 0.931631 0.992680 0.991476 0.927445 0.804026 0.628535 0.411795 0.167503 0.088591 0.339691 0.569047 0.761087 0.902486 0.983139 0.996930 0.942242 0.822179 0.644459 0.420981 0.167073 0.099522 0.359858 0.595123 0.788030 0.924096 0.992786 0.988375 0.910492 0.764263 0.560046 0.312771 0.040883 0.234979 0.493549 0.714572 0.880416 0.977517 0.997549 0.938203 0.803504 0.603625 0.354184 0.075094 0.210995 0.480503 0.710875 0.882490 0.980384 0.995608 0.926127 0.777138 0.560774 0.295194 0.003115 0.290075 0.558525 0.778192 0.929052 0.996958 0.975062 0.864577 0.674833 0.422578 0.130586 0.174354 0.463847 0.710565 0.890818 0.986918 0.988969 0.895987 0.716164 0.466256 0.170105 0.143557 0.443886 0.700915 0.888612
1.000000 1.000000 1.000000 1.000000 1.000000 1.000000 1.000000 1.000000 1.000000 1.000000 1.000000 1.000000 1.000000 1.000000 1.000000 1.000000 1.000000 1.000000 1.000000 1.000000 1.000000 1.000000 1.000000 1.000000 1.000000 1.000000 1.000000 1.000000 1.000000 1.000000 1.000000 1.000000 1.000000 1.000000 1.000000 1.000000 1.000000 1.000000 1.000000 1.000000 1.000000 1.000000 1.000000 1.000000 1.000000 1.000000 1.000000 1.000000 1.000000 1.000000 1.000000 1.000000 0.833059 0.833059 0.833059 0.833059 0.833059 0.833059 0.833059 0.816426 0.816426 0.816426 0.816426 0.816426 0.816426 0.816426 0.816426 0.816426 0.816426 0.816426 0.816426 0.816426 0.816426 0.816426 0.816426 0.816426 0.816426 0.816426 0.816426 0.816426 0.816426 0.816426 0.816426 0.816426 0.816426 0.816426 0.816426 0.816426 0.816426 0.816426 0.816426 0.816426 0.816426 0.816426 0.816426 0.816426 0.816426 0.816426 0.816426 0.816426 0.816426 0.816426 0.816426 0.954835 0.955433 0.952479 0.951372 0.949691 0.946372 0.942074 0.941643 0.943001 0.943201 0.943808 0.945140 0.946112 0.947712 0.948698 0.949502 0.950306 0.958436 0.962158 0.961887 0.961590 0.952376 0.959195 0.957217 0.954946 0.955728 0.956022 0.956726 0.956607 0.956444 0.955940 0.954591 0.955315 0.955150 0.954406 0.953355 0.951211 0.951166 0.950719 0.950856 0.951832 0.952741 0.953394 0.953921 0.953903 0.954083 0.952587 0.951909 0.947066 0.947091 0.940375 0.940972 0.942037 0.941625 0.940484 0.938965 0.939030 0.938912 0.938849 0.938692 0.938913 0.921023 0.920584 0.920611 0.921144 0.914617 0.903839 0.896403 0.890273 0.891238 0.895460 0.900376 0.900843 0.897584 0.896713 0.879960 0.876792 0.862113 0.858748 0.848428 0.858837 0.859836 0.861286 0.855439 0.854686 0.853208 0.850897 0.839324 0.843850 0.844325 0.840582 0.836917 0.834723 0.832391 0.834565 0.843263 0.840240 0.837899 0.839885 0.829008 0.818835 0.817524 0.819417 0.827921 0.840112 0.838830 0.837641 0.830856 0.827078 0.820567 0.814749 0.814413 0.816325 0.816255 0.820055 0.820112 0.828214 0.818007 0.812568 0.817701 0.828738 0.833715 0.835629 0.837497 0.835186 0.836006 0.817031 0.817767 0.819256 0.769930 0.769992 0.757884 0.756545 0.750850 0.750349 0.747284 0.745165 0.738532 0.716529 0.729197 0.733740 0.708551 0.716034 0.710228 0.700283 0.679704 0.684034 0.697512 0.707081 0.707471 0.711343 0.701262 0.701505 0.710822 0.710232 0.716548 0.709501 0.705583 0.699203 0.701035 0.692445 0.682973 0.680437 0.679936 0.680707 0.676871 0.659265 0.669532 0.659584 0.647987 0.636360 0.598936 0.573334 0.559577 0.550374 0.531798 0.506268 0.518799 0.525608 0.511451 0.502749 0.482682 0.445191 0.430740 0.429528 0.409665 0.397300 0.376932 0.331909 0.342523 0.337648 0.342285 0.324550 0.319299 0.303672 0.245680 0.239221 0.200256 0.217951 0.239835 0.235325 0.216447 0.207039 0.228425 0.229045 0.237693 0.235979 0.252790 0.208931 0.149280 0.172775 0.166707 0.176767 0.160442 0.130986 0.158310 0.157482 0.170101 0.174497 0.126914 0.097626 0.076237 0.064707 0.071151 0.093297 0.107577 0.097422 0.082594 -0.010207 0.022354 0.046510 0.046510 0.046510 0.046510 0.046510 0.046510 0.046510 0.046510 0.046510 0.046510 0.046510 -0.009975 -0.009975 -0.009975 -0.009975 -0.009975 -0.009975 -0.009975 -0.009975 -0.009975 -0.009975 -0.009975 -0.009975 -0.009975 -0.009975 -0.009975 -0.009975 -0.009975 -0.009975 -0.009975
0.000000 0.000000 0.000000 0.000000 0.000000 0.000000 0.000000 0.000000 0.000000 0.000000 0.000000 0.000000 0.000000 0.000000 0.000000 0.000000 0.000000 0.000000 0.000000 0.000000 0.000000 0.000000 0.000000 0.000000 0.000000 0.000000 0.000000 0.000000 0.000000 0.000000 0.000000 0.000000 0.000000 0.000000 0.000000 0.000000 0.000000 0.000000 0.000000 0.000000 0.000000 0.000000 0.000000 0.000000 0.000000 0.000000 0.000000 0.000000 0.000000 0.000000 0.000000 0.000000 0.173422 0.173422 0.173422 0.173422 0.173422 0.173422 0.173422 0.191565 0.191565 0.191565 0.191565 0.191565 0.191565 0.191565 0.191565 0.191565 0.191565 0.191565 0.191565 0.191565 0.191565 0.191565 0.191565 0.191565 0.191565 0.191565 0.191565 0.191565 0.191565 0.191565 0.191565 0.191565 0.191565 0.191565 0.191565 0.191565 0.191565 0.191565 0.191565 0.191565 0.191565 0.191565 0.191565 0.191565 0.191565 0.191565 0.191565 0.191565 0.191565 0.191565 0.191565 0.219529 0.219529 0.219529 0.219529 0.219529 0.219529 0.219529 0.219529 0.219529 0.219529 0.219529 0.219529 0.219529 0.219529 0.219529 0.219529 0.219529 0.219529 0.219529 0.219529 0.219529 0.219529 0.219529 0.219529 0.219529 0.219529 0.219529 0.219529 0.219529 0.219529 0.219529 0.237356 0.237356 0.237356 0.237356 0.237356 0.237356 0.237356 0.237356 0.237356 0.237356 0.237356 0.237356 0.237356 0.237356 0.237356 0.237356 0.237356 0.237356 0.237356 0.237356 0.237356 0.237356 0.237356 0.237356 0.244339 0.244339 0.244339 0.244339 0.244339 0.244339 0.244339 0.244339 0.244339 0.244339 0.244339 0.244339 0.244339 0.244339 0.244339 0.244339 0.244339 0.244339 0.244339 0.244339 0.244339 0.248069 0.248069 0.248069 0.248069 0.248069 0.248069 0.248069 0.248069 0.248069 0.248069 0.248069 0.248069 0.248069 0.248069 0.248069 0.248069 0.248069 0.248069 0.248069 0.248069 0.248069 0.248069 0.248069 0.248069 0.248069 0.248069 0.248069 0.248069 0.248069 0.248069 0.248069 0.248069 0.248069 0.248069 0.248069 0.248069 0.248069 0.256074 0.256074 0.256074 0.256074 0.256074 0.256074 0.256074 0.256074 0.256074 0.256074 0.256074 0.256074 0.256074 0.256074 0.256074 0.256074 0.256074 0.256074 0.256074 0.256074 0.256074 0.256074 0.256074 0.256074 0.256074 0.256074 0.256074 0.256074 0.256074 0.256074 0.256074 0.256074 0.256074 0.256074 0.256074 0.256074 0.256074 0.256074 0.256074 0.256074 0.256074 0.256074 0.256074 0.256074 0.256074 0.260378 0.260378 0.260378 0.260378 0.260378 0.260378 0.260378 0.260378 0.260378 0.260378 0.260378 0.260378 0.260378 0.256074 0.256074 0.256074 0.256074 0.256074 0.256074 0.256074 0.256074 0.256074 0.256074 0.256074 0.256074 0.256074 0.260378 0.260378 0.260378 0.260378 0.260378 0.260378 0.260378 0.260378 0.260378 0.260378 0.260378 0.260378 0.251976 0.251976 0.251976 0.251976 0.251976 0.251976 0.251976 0.251976 0.251976 0.251976 0.251976 0.251976 0.256074 0.256074 0.256074 0.256074 0.256074 0.256074 0.256074 0.256074 0.256074 0.256074 0.256074 0.251976 0.251976 0.251976 0.251976 0.251976 0.251976 0.251976 0.251976 0.251976 0.251976 0.251976 0.248069 0.248069 0.248069 0.248069 0.248069 0.248069 0.248069 0.248069 0.248069 0.248069 0.248069 0.256074 0.256074 0.256074 0.256074 0.256074 0.256074 0.256074 0.256074 0.256074 0.256074 0.256074 0.256074 0.256074 0.256074 0.256074 0.256074 0.256074 0.256074 0.256074
