# Output from CTFFind version 4.1.9, run on 2019-11-03 20:08:30
# Input file: stack1_bm3d_averaged_1_7.0_0_2000_half.mrc ; Number of micrographs: 1
# Pixel size: 3.000 Angstroms ; acceleration voltage: 300.0 keV ; spherical aberration: 0.00 mm ; amplitude contrast: 0.07
# Box size: 512 pixels ; min. res.: 30.0 Angstroms ; max. res.: 5.0 Angstroms ; min. def.: 5000.0 um; max. def. 50000.0 um; num. frames averaged: 1
# 6 lines per micrograph: #1 - spatial frequency (1/Angstroms); #2 - 1D rotational average of spectrum (assuming no astigmatism); #3 - 1D rotational average of spectrum; #4 - CTF fit; #5 - cross-correlation between spectrum and CTF fit; #6 - 2sigma of expected cross correlation of noise
0.000000 0.000651 0.001302 0.001953 0.002604 0.003255 0.003906 0.004557 0.005208 0.005859 0.006510 0.007161 0.007812 0.008464 0.009115 0.009766 0.010417 0.011068 0.011719 0.012370 0.013021 0.013672 0.014323 0.014974 0.015625 0.016276 0.016927 0.017578 0.018229 0.018880 0.019531 0.020182 0.020833 0.021484 0.022135 0.022786 0.023438 0.024089 0.024740 0.025391 0.026042 0.026693 0.027344 0.027995 0.028646 0.029297 0.029948 0.030599 0.031250 0.031901 0.032552 0.033203 0.033854 0.034505 0.035156 0.035807 0.036458 0.037109 0.037760 0.038411 0.039062 0.039714 0.040365 0.041016 0.041667 0.042318 0.042969 0.043620 0.044271 0.044922 0.045573 0.046224 0.046875 0.047526 0.048177 0.048828 0.049479 0.050130 0.050781 0.051432 0.052083 0.052734 0.053385 0.054036 0.054688 0.055339 0.055990 0.056641 0.057292 0.057943 0.058594 0.059245 0.059896 0.060547 0.061198 0.061849 0.062500 0.063151 0.063802 0.064453 0.065104 0.065755 0.066406 0.067057 0.067708 0.068359 0.069010 0.069661 0.070312 0.070964 0.071615 0.072266 0.072917 0.073568 0.074219 0.074870 0.075521 0.076172 0.076823 0.077474 0.078125 0.078776 0.079427 0.080078 0.080729 0.081380 0.082031 0.082682 0.083333 0.083984 0.084635 0.085286 0.085938 0.086589 0.087240 0.087891 0.088542 0.089193 0.089844 0.090495 0.091146 0.091797 0.092448 0.093099 0.093750 0.094401 0.095052 0.095703 0.096354 0.097005 0.097656 0.098307 0.098958 0.099609 0.100260 0.100911 0.101562 0.102214 0.102865 0.103516 0.104167 0.104818 0.105469 0.106120 0.106771 0.107422 0.108073 0.108724 0.109375 0.110026 0.110677 0.111328 0.111979 0.112630 0.113281 0.113932 0.114583 0.115234 0.115885 0.116536 0.117188 0.117839 0.118490 0.119141 0.119792 0.120443 0.121094 0.121745 0.122396 0.123047 0.123698 0.124349 0.125000 0.125651 0.126302 0.126953 0.127604 0.128255 0.128906 0.129557 0.130208 0.130859 0.131510 0.132161 0.132812 0.133464 0.134115 0.134766 0.135417 0.136068 0.136719 0.137370 0.138021 0.138672 0.139323 0.139974 0.140625 0.141276 0.141927 0.142578 0.143229 0.143880 0.144531 0.145182 0.145833 0.146484 0.147135 0.147786 0.148438 0.149089 0.149740 0.150391 0.151042 0.151693 0.152344 0.152995 0.153646 0.154297 0.154948 0.155599 0.156250 0.156901 0.157552 0.158203 0.158854 0.159505 0.160156 0.160807 0.161458 0.162109 0.162760 0.163411 0.164062 0.164714 0.165365 0.166016 0.166667 0.167318 0.167969 0.168620 0.169271 0.169922 0.170573 0.171224 0.171875 0.172526 0.173177 0.173828 0.174479 0.175130 0.175781 0.176432 0.177083 0.177734 0.178385 0.179036 0.179688 0.180339 0.180990 0.181641 0.182292 0.182943 0.183594 0.184245 0.184896 0.185547 0.186198 0.186849 0.187500 0.188151 0.188802 0.189453 0.190104 0.190755 0.191406 0.192057 0.192708 0.193359 0.194010 0.194661 0.195312 0.195964 0.196615 0.197266 0.197917 0.198568 0.199219 0.199870 0.200521 0.201172 0.201823 0.202474 0.203125 0.203776 0.204427 0.205078 0.205729 0.206380 0.207031 0.207682 0.208333 0.208984 0.209635 0.210286 0.210938 0.211589 0.212240 0.212891 0.213542 0.214193 0.214844 0.215495 0.216146 0.216797 0.217448 0.218099 0.218750 0.219401 0.220052 0.220703 0.221354 0.222005 0.222656 0.223307 0.223958 0.224609 0.225260 0.225911 0.226562 0.227214 0.227865 0.228516 0.229167 0.229818 0.230469 0.231120 0.231771 0.232422 0.233073 0.233724 0.234375 0.235026 0.235677
       0.34510        0.34510        0.34510        0.34510        0.34510        0.34510        0.34510        0.34510        0.34510        0.34510        0.34510        0.34510        0.34510        0.34510        0.34510        0.34510        0.34510        0.34510        0.34510        0.34510        0.34510        0.34510        0.34510        0.34510        0.34510        0.34510        0.34510        0.34510        0.34510        0.34510        0.34510        0.34510        0.34510        0.34510        0.34510        0.34510        0.34510        0.34510        0.34510        0.34510        0.34510        0.34510        0.34510        0.34510        0.34510        0.34510        0.34510        0.34510        0.34510        0.34510        0.34510        0.34571        0.49113        0.22793        0.08003        0.00098       -0.27094       -0.11459       -0.15939       -0.22194        0.00900       -0.14496       -0.07311       -0.06271       -0.04614       -0.12513       -0.16144       -0.25532       -0.30981       -0.42328       -0.35722       -0.25773       -0.22690       -0.32440       -0.24154       -0.30372       -0.27257       -0.29603       -0.13494       -0.14655       -0.20857       -0.03934        0.02602       -0.02701        0.07324        0.03364        0.23011        0.24481        0.33607        0.35085        0.38564        0.42368        0.49910        0.55845        0.57011        0.51077        0.48773        0.51191        0.46489        0.52273        0.44626        0.41242        0.41566        0.35293        0.29728        0.30745        0.33471        0.22761        0.19694        0.12770        0.15253        0.16335        0.18260        0.16170        0.23218        0.28615        0.31334        0.29320        0.38747        0.46839        0.39697        0.48666        0.59795        0.55439        0.52236        0.56167        0.59757        0.41801        0.48238        0.39540        0.32486        0.30284        0.28321        0.25394        0.19227        0.18422        0.14941        0.20412        0.25799        0.28879        0.34363        0.30597        0.41008        0.42617        0.45909        0.48638        0.48312        0.51408        0.45700        0.43606        0.40871        0.33982        0.32002        0.31195        0.31858        0.25253        0.24480        0.25609        0.24371        0.27165        0.32635        0.42904        0.46049        0.42036        0.42174        0.47219        0.45977        0.46770        0.46207        0.38148        0.36479        0.40131        0.36327        0.30620        0.29934        0.31994        0.28328        0.29959        0.30019        0.31703        0.36169        0.37855        0.43063        0.44161        0.36285        0.45252        0.42137        0.35555        0.30578        0.34955        0.32964        0.30569        0.32118        0.28131        0.28428        0.32329        0.33805        0.44110        0.40999        0.37340        0.38983        0.43031        0.36453        0.35391        0.34012        0.34663        0.28165        0.27921        0.30118        0.37643        0.38169        0.34001        0.34830        0.39663        0.39164        0.45304        0.39649        0.36331        0.33256        0.32915        0.32256        0.31721        0.34234        0.38831        0.36830        0.37249        0.32898        0.43915        0.35935        0.34940        0.33431        0.37822        0.37198        0.30736        0.31400        0.27875        0.31197        0.32830        0.31441        0.33848        0.33434        0.35622        0.34540        0.33685        0.30803        0.29866        0.28441        0.33151        0.33876        0.33979        0.30066        0.34495        0.33936        0.33652        0.33799        0.30486        0.28509        0.31329        0.32702        0.32213        0.31604        0.29871        0.31551        0.34114        0.33197        0.33194        0.38428        0.33810        0.27388        0.31650        0.32519        0.32246        0.34105        0.29290        0.32623        0.28435        0.31686        0.31713        0.36795        0.31917        0.31200        0.29731        0.28527        0.37143        0.36040        0.32399        0.32395        0.30264        0.30379        0.33593        0.33222        0.28251        0.32188        0.27300        0.26428        0.27843        0.30561        0.31777        0.32698        0.23500        0.28263        0.34025        0.33674        0.34114        0.33065        0.31055        0.31248        0.32661        0.31488        0.25643        0.27813        0.28627        0.33371        0.32617        0.34417        0.34950        0.33938        0.33757        0.33050        0.32372        0.30909        0.31683        0.31572        0.26246        0.28215        0.32549        0.33675        0.24201        0.19793        0.21127        0.30105        0.30966        0.29705        0.27671        0.27387        0.27993        0.23868        0.26883        0.27043        0.26657        0.25794        0.25594        0.25173        0.20445        0.24945        0.32243        0.37106        0.26698        0.23855        0.20207        0.18763        0.28058        0.28930        0.38775        0.26354        0.23870        0.29770        0.36392        0.18805        0.00157       -0.10328       -0.54253       -0.75569
3.385510 3.347795 3.310294 3.273006 3.235931 3.199070 3.162422 3.125988 3.089767 3.053759 3.017965 2.982384 2.947017 2.911862 2.876922 2.842194 2.807680 2.773380 2.739292 2.705419 2.671758 2.638311 2.605077 2.572057 2.539250 2.506657 2.474276 2.442110 2.410156 2.378416 2.346890 2.315576 2.284476 2.253590 2.222917 2.192457 2.162211 2.132178 2.102358 2.072752 2.043359 2.014179 1.985213 1.956461 1.927921 1.899595 1.871483 1.843584 1.815898 1.788425 1.761166 1.662160 1.978514 1.709660 1.087746 1.155754 0.368242 0.906959 0.531769 0.645608 0.928213 0.673883 0.659400 0.761813 0.695682 0.645729 0.468385 0.345094 0.184111 -0.007645 -0.004020 0.106980 0.406241 -0.033620 0.163743 0.042643 0.146192 -0.060462 0.260861 0.183899 0.097407 0.300264 0.498834 0.290503 0.461009 0.367064 0.775101 0.643019 0.861777 0.871613 0.818968 1.041573 0.940767 1.246152 1.077660 1.118121 0.993173 1.014629 0.957409 0.899592 0.939415 0.764574 0.731360 0.657894 0.620129 0.463915 0.561534 0.449719 0.281006 0.201427 0.138604 0.182421 0.221057 0.158292 0.182838 0.362390 0.347983 0.362629 0.465699 0.533192 0.535491 0.417747 0.805197 0.795198 0.641022 0.674849 0.760550 0.533880 0.422486 0.495766 0.198212 0.247784 0.102098 0.163976 -0.017158 -0.035798 -0.109541 -0.104906 0.106376 0.001583 0.131068 0.188518 0.164763 0.312302 0.314134 0.386654 0.342985 0.453026 0.345224 0.268521 0.246199 0.147008 0.092187 0.055474 0.024846 0.004019 -0.065342 -0.092101 -0.093802 -0.065380 -0.059441 0.140000 0.313941 0.199331 0.210401 0.262160 0.349706 0.244966 0.345409 0.284750 0.151846 0.133298 0.279097 0.004209 0.043848 0.029641 0.059390 -0.011869 0.087186 -0.009631 0.139582 -0.010349 0.233845 0.272128 0.197230 0.251973 0.208038 0.155800 0.042502 0.077181 0.083302 0.023370 -0.004299 0.042141 -0.073386 -0.016505 0.026349 0.117127 0.284384 0.148619 0.121686 0.207359 0.144180 0.133221 0.048570 0.061149 0.060679 -0.089613 -0.012004 0.034349 0.142444 0.115039 0.035447 0.082508 0.176137 0.161500 0.283011 0.110838 0.093358 0.043428 0.014635 0.059092 0.029694 0.091946 0.164786 0.114819 0.083284 0.137345 0.184670 0.024763 0.072447 0.055099 0.132843 0.070877 -0.008844 0.008660 -0.054077 0.010156 0.047741 0.026441 0.023074 -0.006130 0.050273 0.020631 0.011123 -0.044566 -0.052497 -0.037368 -0.024873 0.058772 -0.019549 -0.008559 0.035799 0.048830 0.020507 0.056937 -0.034015 -0.031384 0.007290 0.025077 0.023965 0.022376 -0.025359 -0.003816 0.077318 0.034943 0.016997 0.167036 -0.039206 -0.062783 0.025465 0.014072 0.013916 0.034729 -0.042200 0.033724 -0.076793 0.012590 0.032392 0.101504 -0.022992 -0.023033 -0.044392 -0.032139 0.093273 0.068151 -0.029495 0.025931 -0.048547 -0.031311 0.023848 -0.004179 -0.070661 0.030687 -0.116524 -0.091763 -0.047040 -0.072745 0.053501 -0.073390 -0.221360 -0.021944 0.055959 -0.020298 -0.019986 0.030768 -0.054347 -0.028793 -0.042835 -0.056593 -0.134565 -0.118336 -0.136507 0.019885 -0.008702 -0.020677 0.019796 0.023749 -0.107243 0.028273 -0.012977 -0.088851 -0.017783 -0.006699 -0.129858 -0.056918 -0.003645 0.065822 -0.093365 -0.266142 -0.110007 0.110072 0.011858 -0.037473 0.033643 0.022758 0.016140 -0.048372 -0.057081 0.030772 0.001508 0.021048 -0.003868 0.047561 -0.139179 0.054082 0.237507 0.187381 0.049774 0.068457 -0.115411 0.021421 0.074842 0.099491 0.404286 0.340354 0.413422 0.529301 0.753599 0.349169 -0.102692 -0.168594 -1.294643
0.072396 0.072907 0.074440 0.076995 0.080571 0.085168 0.090783 0.097415 0.105062 0.113722 0.123390 0.134062 0.145732 0.158394 0.172040 0.186660 0.202243 0.218775 0.236240 0.254621 0.273896 0.294041 0.315029 0.336830 0.359408 0.382724 0.406736 0.431395 0.456648 0.482436 0.508695 0.535355 0.562339 0.589566 0.616946 0.644383 0.671773 0.699008 0.725969 0.752534 0.778571 0.803942 0.828502 0.852101 0.874581 0.895778 0.915525 0.933650 0.949974 0.964320 0.976504 0.986345 0.993660 0.998269 0.999992 0.998657 0.994096 0.986150 0.974669 0.959517 0.940568 0.917716 0.890872 0.859966 0.824955 0.785817 0.742560 0.695221 0.643871 0.588612 0.529583 0.466963 0.400967 0.331852 0.259917 0.185499 0.108983 0.030789 0.048617 0.128733 0.209019 0.288899 0.367767 0.444989 0.519906 0.591845 0.660118 0.724032 0.782897 0.836034 0.882778 0.922496 0.954589 0.978504 0.993747 0.999887 0.996570 0.983529 0.960591 0.927686 0.884857 0.832267 0.770201 0.699075 0.619437 0.531967 0.437480 0.336918 0.231349 0.121957 0.010034 0.103035 0.215785 0.326688 0.434177 0.536662 0.632559 0.720314 0.798429 0.865493 0.920207 0.961418 0.988141 0.999591 0.995205 0.974667 0.937926 0.885212 0.817049 0.734258 0.637961 0.529574 0.410792 0.283577 0.150127 0.012847 0.125695 0.262805 0.395721 0.521666 0.637907 0.741817 0.830944 0.903064 0.956256 0.988954 1.000000 0.988696 0.954840 0.898756 0.821307 0.723908 0.608507 0.477563 0.334010 0.181200 0.022831 0.137131 0.294552 0.445233 0.585023 0.709935 0.816272 0.900742 0.960571 0.993605 0.998406 0.974319 0.921531 0.841097 0.734946 0.605855 0.457399 0.293869 0.120159 0.058363 0.236019 0.406996 0.565537 0.706138 0.823754 0.913984 0.973260 0.999000 0.989745 0.945251 0.866547 0.755946 0.617001 0.454429 0.273963 0.082175 0.113755 0.306295 0.487843 0.651046 0.789093 0.896021 0.966991 0.998531 0.988732 0.937384 0.846045 0.718037 0.558362 0.373533 0.171348 0.039437 0.249452 0.449145 0.629202 0.781003 0.897045 0.971346 0.999776 0.980325 0.913268 0.801226 0.649118 0.463979 0.254678 0.031517 0.194252 0.410987 0.607257 0.772453 0.897387 0.974829 0.999965 0.970737 0.888040 0.755767 0.580676 0.372097 0.141474 0.098232 0.333257 0.549818 0.734929 0.877201 0.967580 0.999961 0.971652 0.883639 0.740634 0.550885 0.325754 0.079086 0.173611 0.416130 0.632595 0.808524 0.931823 0.993667 0.989184 0.917897 0.783876 0.595585 0.365418 0.108927 0.156179 0.411238 0.637943 0.819685 0.942798 0.997635 0.979400 0.888621 0.731260 0.518400 0.265540 0.008472 0.282823 0.536278 0.748855 0.903416 0.987106 0.992491 0.918298 0.769671 0.557909 0.299699 0.015863 0.270268 0.534768 0.755109 0.912122 0.991726 0.986265 0.895333 0.725986 0.492303 0.214295 0.083717 0.375210 0.633804 0.835653 0.961718 0.999627 0.944982 0.801969 0.583147 0.308473 0.003555 0.302683 0.580702 0.803232 0.947982 0.999961 0.953129 0.811204 0.587507 0.303834 0.011567 0.326766 0.609326 0.829700 0.964344 0.998344 0.927175 0.757413 0.506274 0.199991 0.128825 0.444613 0.712688 0.903098 0.994040 0.974475 0.845601 0.620972 0.325224 0.008507 0.342230 0.637380 0.859315 0.981430 0.988490 0.878648 0.663952 0.369187 0.029150 0.315375 0.622462 0.854163 0.981284 0.987175 0.870066 0.643592 0.335372 0.016203 0.366676 0.671099 0.889828 0.993788 0.968464 0.816101 0.555740 0.221011 0.144078 0.490824 0.772337 0.949932
1.000000 1.000000 1.000000 1.000000 1.000000 1.000000 1.000000 1.000000 1.000000 1.000000 1.000000 1.000000 1.000000 1.000000 1.000000 1.000000 1.000000 1.000000 1.000000 1.000000 1.000000 1.000000 1.000000 1.000000 1.000000 1.000000 1.000000 1.000000 1.000000 1.000000 1.000000 1.000000 1.000000 1.000000 1.000000 1.000000 1.000000 1.000000 1.000000 1.000000 1.000000 1.000000 1.000000 1.000000 1.000000 1.000000 1.000000 1.000000 1.000000 1.000000 1.000000 1.000000 0.829000 0.829000 0.829000 0.808078 0.808078 0.808078 0.808078 0.808078 0.808078 0.808078 0.808078 0.808078 0.808078 0.808078 0.808078 0.808078 0.808078 0.808078 0.808078 0.808078 0.808078 0.808078 0.808078 0.808078 0.808078 0.808078 0.808078 0.808078 0.808078 0.808078 0.808078 0.808078 0.808078 0.808078 0.808078 0.808078 0.808078 0.808078 0.808078 0.808078 0.808078 0.808078 0.808078 0.808078 0.855812 0.862352 0.867487 0.870502 0.870752 0.867652 0.866528 0.866070 0.865440 0.866663 0.872983 0.898341 0.915630 0.917714 0.929025 0.930876 0.935738 0.938358 0.958057 0.959560 0.960989 0.960123 0.961041 0.962955 0.967023 0.967174 0.968148 0.968459 0.968629 0.969211 0.968921 0.968137 0.967115 0.966408 0.963882 0.963787 0.964294 0.964896 0.965504 0.960163 0.960435 0.960686 0.962612 0.961074 0.946553 0.940843 0.937058 0.935129 0.915308 0.916530 0.914998 0.910726 0.902555 0.902612 0.892314 0.893492 0.893093 0.887840 0.886382 0.883425 0.880039 0.870553 0.869214 0.867418 0.869472 0.873430 0.876340 0.862130 0.846424 0.829359 0.812628 0.797270 0.798171 0.802308 0.798436 0.802315 0.805438 0.804148 0.802598 0.797415 0.783480 0.792311 0.790889 0.786909 0.780481 0.779816 0.766392 0.760656 0.754170 0.730412 0.711119 0.695881 0.699591 0.689469 0.685660 0.687933 0.695976 0.699617 0.703028 0.696471 0.693649 0.680265 0.654145 0.660382 0.671498 0.674518 0.663529 0.660337 0.638034 0.663471 0.668156 0.685767 0.694684 0.694939 0.694707 0.675441 0.648047 0.627291 0.628848 0.612664 0.623912 0.632153 0.630228 0.617625 0.627852 0.639412 0.650275 0.610109 0.609011 0.592516 0.590239 0.592057 0.585946 0.554397 0.527752 0.515636 0.493313 0.476253 0.490540 0.484314 0.479930 0.503761 0.467311 0.464499 0.462988 0.464738 0.464459 0.457446 0.435142 0.438149 0.439152 0.421210 0.401582 0.343308 0.321855 0.324691 0.327570 0.330890 0.350570 0.367411 0.329568 0.306589 0.307532 0.329005 0.325823 0.337982 0.344820 0.317582 0.314138 0.219929 0.218117 0.241121 0.249175 0.257751 0.234698 0.256134 0.256502 0.234638 0.210295 0.142403 0.091127 0.070474 0.095618 0.105087 0.114519 0.101735 0.071441 0.074744 0.084750 0.040062 0.023272 0.017398 0.021003 0.036246 0.059370 0.051076 0.049824 0.061460 0.078921 0.046585 0.040077 0.047107 0.068574 0.051179 0.034747 0.008768 -0.000814 -0.021451 -0.028842 -0.006942 0.004421 0.010147 0.044351 0.019334 -0.024258 -0.050777 -0.041751 -0.055643 -0.064863 -0.091934 -0.080506 -0.102056 -0.078318 -0.062510 0.003182 0.007689 0.009643 -0.013695 0.014884 -0.033477 -0.044606 -0.036661 -0.057931 -0.044982 0.005119 0.019044 0.024637 -0.022904 -0.039746 -0.039746 -0.039746 -0.061104 -0.061104 -0.061104 -0.061104 -0.061104 -0.061104 -0.061104 -0.061104 -0.061104 -0.072659 -0.072659 -0.072659 -0.072659 -0.072659 -0.072659 -0.072659 -0.072659 -0.072659 -0.072659 -0.072659 -0.072659 -0.072659 -0.072659 -0.072659 -0.072659 -0.072659
0.000000 0.000000 0.000000 0.000000 0.000000 0.000000 0.000000 0.000000 0.000000 0.000000 0.000000 0.000000 0.000000 0.000000 0.000000 0.000000 0.000000 0.000000 0.000000 0.000000 0.000000 0.000000 0.000000 0.000000 0.000000 0.000000 0.000000 0.000000 0.000000 0.000000 0.000000 0.000000 0.000000 0.000000 0.000000 0.000000 0.000000 0.000000 0.000000 0.000000 0.000000 0.000000 0.000000 0.000000 0.000000 0.000000 0.000000 0.000000 0.000000 0.000000 0.000000 0.000000 0.180334 0.180334 0.180334 0.199007 0.199007 0.199007 0.199007 0.199007 0.199007 0.199007 0.199007 0.199007 0.199007 0.199007 0.199007 0.199007 0.199007 0.199007 0.199007 0.199007 0.199007 0.199007 0.199007 0.199007 0.199007 0.199007 0.199007 0.199007 0.199007 0.199007 0.199007 0.199007 0.199007 0.199007 0.199007 0.199007 0.199007 0.199007 0.199007 0.199007 0.199007 0.199007 0.199007 0.199007 0.230940 0.230940 0.230940 0.230940 0.230940 0.230940 0.230940 0.230940 0.230940 0.230940 0.230940 0.230940 0.230940 0.230940 0.230940 0.230940 0.230940 0.230940 0.230940 0.230940 0.230940 0.230940 0.230940 0.230940 0.230940 0.230940 0.230940 0.230940 0.248069 0.248069 0.248069 0.248069 0.248069 0.248069 0.248069 0.248069 0.248069 0.248069 0.248069 0.248069 0.248069 0.248069 0.248069 0.248069 0.248069 0.248069 0.248069 0.248069 0.248069 0.248069 0.251976 0.251976 0.251976 0.251976 0.251976 0.251976 0.251976 0.251976 0.251976 0.251976 0.251976 0.251976 0.251976 0.251976 0.251976 0.251976 0.251976 0.251976 0.251976 0.251976 0.256074 0.256074 0.256074 0.256074 0.256074 0.256074 0.256074 0.256074 0.256074 0.256074 0.256074 0.256074 0.256074 0.256074 0.256074 0.256074 0.256074 0.256074 0.264906 0.264906 0.264906 0.264906 0.264906 0.264906 0.264906 0.264906 0.264906 0.264906 0.264906 0.264906 0.264906 0.264906 0.264906 0.264906 0.264906 0.264906 0.264906 0.264906 0.264906 0.264906 0.264906 0.264906 0.264906 0.264906 0.264906 0.264906 0.264906 0.264906 0.264906 0.274721 0.274721 0.274721 0.274721 0.274721 0.274721 0.274721 0.274721 0.274721 0.274721 0.274721 0.274721 0.274721 0.256074 0.256074 0.256074 0.256074 0.256074 0.256074 0.256074 0.256074 0.256074 0.256074 0.256074 0.256074 0.256074 0.256074 0.269680 0.269680 0.269680 0.269680 0.269680 0.269680 0.269680 0.269680 0.269680 0.269680 0.269680 0.269680 0.264906 0.264906 0.264906 0.264906 0.264906 0.264906 0.264906 0.264906 0.264906 0.264906 0.264906 0.264906 0.269680 0.269680 0.269680 0.269680 0.269680 0.269680 0.269680 0.269680 0.269680 0.269680 0.269680 0.264906 0.264906 0.264906 0.264906 0.264906 0.264906 0.264906 0.264906 0.264906 0.264906 0.264906 0.269680 0.269680 0.269680 0.269680 0.269680 0.269680 0.269680 0.269680 0.269680 0.269680 0.251976 0.251976 0.251976 0.251976 0.251976 0.251976 0.251976 0.251976 0.251976 0.251976 0.251976 0.269680 0.269680 0.269680 0.269680 0.269680 0.269680 0.269680 0.269680 0.269680 0.256074 0.256074 0.256074 0.256074 0.256074 0.256074 0.256074 0.256074 0.256074 0.256074 0.260378 0.260378 0.260378 0.260378 0.260378 0.260378 0.260378 0.260378 0.260378 0.256074 0.256074 0.256074 0.256074 0.256074 0.256074 0.256074 0.256074 0.256074 0.251976 0.251976 0.251976 0.251976 0.251976 0.251976 0.251976 0.251976 0.251976 0.251976 0.251976 0.251976 0.251976 0.251976 0.251976 0.251976 0.251976
