# Output from CTFFind version 4.1.9, run on 2019-11-03 20:03:30
# Input file: stack1_bm3d_averaged_1_6.0_0_250_half.mrc ; Number of micrographs: 1
# Pixel size: 3.000 Angstroms ; acceleration voltage: 300.0 keV ; spherical aberration: 0.00 mm ; amplitude contrast: 0.07
# Box size: 512 pixels ; min. res.: 30.0 Angstroms ; max. res.: 5.0 Angstroms ; min. def.: 5000.0 um; max. def. 50000.0 um; num. frames averaged: 1
# 6 lines per micrograph: #1 - spatial frequency (1/Angstroms); #2 - 1D rotational average of spectrum (assuming no astigmatism); #3 - 1D rotational average of spectrum; #4 - CTF fit; #5 - cross-correlation between spectrum and CTF fit; #6 - 2sigma of expected cross correlation of noise
0.000000 0.000651 0.001302 0.001953 0.002604 0.003255 0.003906 0.004557 0.005208 0.005859 0.006510 0.007161 0.007812 0.008464 0.009115 0.009766 0.010417 0.011068 0.011719 0.012370 0.013021 0.013672 0.014323 0.014974 0.015625 0.016276 0.016927 0.017578 0.018229 0.018880 0.019531 0.020182 0.020833 0.021484 0.022135 0.022786 0.023438 0.024089 0.024740 0.025391 0.026042 0.026693 0.027344 0.027995 0.028646 0.029297 0.029948 0.030599 0.031250 0.031901 0.032552 0.033203 0.033854 0.034505 0.035156 0.035807 0.036458 0.037109 0.037760 0.038411 0.039062 0.039714 0.040365 0.041016 0.041667 0.042318 0.042969 0.043620 0.044271 0.044922 0.045573 0.046224 0.046875 0.047526 0.048177 0.048828 0.049479 0.050130 0.050781 0.051432 0.052083 0.052734 0.053385 0.054036 0.054688 0.055339 0.055990 0.056641 0.057292 0.057943 0.058594 0.059245 0.059896 0.060547 0.061198 0.061849 0.062500 0.063151 0.063802 0.064453 0.065104 0.065755 0.066406 0.067057 0.067708 0.068359 0.069010 0.069661 0.070312 0.070964 0.071615 0.072266 0.072917 0.073568 0.074219 0.074870 0.075521 0.076172 0.076823 0.077474 0.078125 0.078776 0.079427 0.080078 0.080729 0.081380 0.082031 0.082682 0.083333 0.083984 0.084635 0.085286 0.085938 0.086589 0.087240 0.087891 0.088542 0.089193 0.089844 0.090495 0.091146 0.091797 0.092448 0.093099 0.093750 0.094401 0.095052 0.095703 0.096354 0.097005 0.097656 0.098307 0.098958 0.099609 0.100260 0.100911 0.101562 0.102214 0.102865 0.103516 0.104167 0.104818 0.105469 0.106120 0.106771 0.107422 0.108073 0.108724 0.109375 0.110026 0.110677 0.111328 0.111979 0.112630 0.113281 0.113932 0.114583 0.115234 0.115885 0.116536 0.117188 0.117839 0.118490 0.119141 0.119792 0.120443 0.121094 0.121745 0.122396 0.123047 0.123698 0.124349 0.125000 0.125651 0.126302 0.126953 0.127604 0.128255 0.128906 0.129557 0.130208 0.130859 0.131510 0.132161 0.132812 0.133464 0.134115 0.134766 0.135417 0.136068 0.136719 0.137370 0.138021 0.138672 0.139323 0.139974 0.140625 0.141276 0.141927 0.142578 0.143229 0.143880 0.144531 0.145182 0.145833 0.146484 0.147135 0.147786 0.148438 0.149089 0.149740 0.150391 0.151042 0.151693 0.152344 0.152995 0.153646 0.154297 0.154948 0.155599 0.156250 0.156901 0.157552 0.158203 0.158854 0.159505 0.160156 0.160807 0.161458 0.162109 0.162760 0.163411 0.164062 0.164714 0.165365 0.166016 0.166667 0.167318 0.167969 0.168620 0.169271 0.169922 0.170573 0.171224 0.171875 0.172526 0.173177 0.173828 0.174479 0.175130 0.175781 0.176432 0.177083 0.177734 0.178385 0.179036 0.179688 0.180339 0.180990 0.181641 0.182292 0.182943 0.183594 0.184245 0.184896 0.185547 0.186198 0.186849 0.187500 0.188151 0.188802 0.189453 0.190104 0.190755 0.191406 0.192057 0.192708 0.193359 0.194010 0.194661 0.195312 0.195964 0.196615 0.197266 0.197917 0.198568 0.199219 0.199870 0.200521 0.201172 0.201823 0.202474 0.203125 0.203776 0.204427 0.205078 0.205729 0.206380 0.207031 0.207682 0.208333 0.208984 0.209635 0.210286 0.210938 0.211589 0.212240 0.212891 0.213542 0.214193 0.214844 0.215495 0.216146 0.216797 0.217448 0.218099 0.218750 0.219401 0.220052 0.220703 0.221354 0.222005 0.222656 0.223307 0.223958 0.224609 0.225260 0.225911 0.226562 0.227214 0.227865 0.228516 0.229167 0.229818 0.230469 0.231120 0.231771 0.232422 0.233073 0.233724 0.234375 0.235026 0.235677
       0.34967        0.34967        0.34967        0.34967        0.34967        0.34967        0.34967        0.34967        0.34967        0.34967        0.34967        0.34967        0.34967        0.34967        0.34967        0.34967        0.34967        0.34967        0.34967        0.34967        0.34967        0.34967        0.34967        0.34967        0.34967        0.34967        0.34967        0.34967        0.34967        0.34967        0.34967        0.34967        0.34967        0.34967        0.34967        0.34967        0.34967        0.34967        0.34967        0.34967        0.34967        0.34967        0.34967        0.34967        0.34967        0.34967        0.34967        0.34967        0.34967        0.34967        0.34967        0.37156        0.53493        0.24654        0.09577       -0.00468       -0.27011       -0.10717       -0.17088       -0.22143        0.01384       -0.13948       -0.09024       -0.05878       -0.04231       -0.12817       -0.15622       -0.27341       -0.34628       -0.46064       -0.39636       -0.29401       -0.24381       -0.34593       -0.26280       -0.33999       -0.30030       -0.33165       -0.15861       -0.16354       -0.22547       -0.05526        0.00206       -0.03647        0.08127        0.03064        0.21774        0.23962        0.34138        0.35835        0.41315        0.45225        0.52138        0.58083        0.61150        0.53278        0.50050        0.51037        0.46727        0.54706        0.46710        0.41689        0.41132        0.34307        0.29633        0.31109        0.33647        0.23269        0.19703        0.11694        0.14363        0.15208        0.18470        0.15135        0.21873        0.26633        0.31338        0.30093        0.36464        0.46789        0.40347        0.48861        0.61850        0.59098        0.53361        0.55445        0.59442        0.42198        0.48895        0.38324        0.31802        0.29595        0.27217        0.25572        0.18391        0.18028        0.14429        0.21427        0.26191        0.28818        0.34965        0.31322        0.41740        0.45347        0.46550        0.46769        0.49272        0.53397        0.48111        0.44895        0.41712        0.34194        0.33618        0.29806        0.31665        0.24810        0.23545        0.27143        0.24850        0.27195        0.33005        0.43285        0.43592        0.43084        0.41561        0.48857        0.48454        0.47166        0.45692        0.38161        0.37797        0.40951        0.37964        0.31112        0.29120        0.32617        0.29403        0.30447        0.29555        0.32372        0.36099        0.38742        0.45047        0.47316        0.37750        0.44900        0.43073        0.37149        0.30584        0.36322        0.32456        0.31283        0.33496        0.27211        0.26379        0.32066        0.33906        0.44380        0.41785        0.37999        0.38628        0.41833        0.36159        0.36265        0.33505        0.33534        0.30747        0.30086        0.29718        0.36066        0.37167        0.34571        0.35185        0.40447        0.40198        0.46039        0.40987        0.35604        0.34766        0.35375        0.33486        0.32131        0.34437        0.39255        0.35546        0.36296        0.33752        0.43775        0.37432        0.35137        0.34247        0.37777        0.37808        0.32910        0.32793        0.29753        0.31825        0.33573        0.31235        0.32929        0.34638        0.36134        0.34678        0.34077        0.30379        0.30116        0.28881        0.33677        0.32462        0.35679        0.32061        0.34791        0.36171        0.33786        0.33264        0.31460        0.28634        0.33344        0.32294        0.33044        0.32143        0.31906        0.32659        0.32125        0.34002        0.35158        0.36146        0.34084        0.29429        0.33303        0.31197        0.33730        0.33420        0.27110        0.32190        0.30057        0.33217        0.32142        0.38929        0.33484        0.30902        0.26792        0.30994        0.38333        0.35414        0.32348        0.33672        0.31451        0.32563        0.32884        0.32986        0.29729        0.31655        0.26638        0.27798        0.31138        0.30080        0.30054        0.31469        0.23783        0.30833        0.34291        0.36225        0.35312        0.31951        0.31892        0.29225        0.31009        0.31257        0.27735        0.31364        0.28199        0.30919        0.33354        0.37246        0.35665        0.29118        0.28451        0.33684        0.31651        0.31708        0.35106        0.36053        0.28250        0.28953        0.32519        0.31899        0.25736        0.21271        0.23019        0.27047        0.30420        0.31036        0.27174        0.33230        0.29439        0.25388        0.28022        0.28165        0.21549        0.27484        0.31248        0.26547        0.20463        0.23131        0.32036        0.41368        0.30126        0.24139        0.16423        0.22019        0.28776        0.28819        0.41091        0.23610        0.17912        0.26607        0.32908        0.28423        0.16953       -0.04366       -0.56172       -0.86930
2.745557 2.717298 2.689189 2.661230 2.633421 2.605763 2.578256 2.550899 2.523692 2.496636 2.469730 2.442974 2.416369 2.389915 2.363611 2.337457 2.311453 2.285600 2.259898 2.234346 2.208944 2.183693 2.158592 2.133641 2.108841 2.084192 2.059692 2.035344 2.011145 1.987097 1.963200 1.939452 1.915856 1.892409 1.869114 1.845968 1.822973 1.800128 1.777434 1.754890 1.732497 1.710254 1.688162 1.666219 1.644428 1.622786 1.601295 1.579955 1.558765 1.537725 1.516836 1.438762 1.908775 1.435012 0.951625 0.778293 -0.066028 0.601671 0.120577 0.284468 0.644715 0.361863 0.288847 0.486256 0.409440 0.339909 0.178310 -0.016129 -0.239339 -0.454840 -0.439408 -0.330129 0.117797 -0.424505 -0.180176 -0.326196 -0.223066 -0.431761 -0.030521 -0.093846 -0.201932 0.053432 0.279588 0.058521 0.314107 0.208443 0.648730 0.518729 0.824026 0.799575 0.831075 1.098075 0.973200 1.296586 1.260269 1.141562 1.004184 1.062153 0.983745 0.973391 1.004189 0.801677 0.719474 0.650618 0.592806 0.465079 0.565530 0.420235 0.274191 0.121925 0.071271 0.118110 0.194541 0.110742 0.133766 0.320322 0.360340 0.386930 0.490788 0.553015 0.621624 0.453367 0.917266 0.997992 0.778117 0.748015 0.893528 0.600028 0.539568 0.555029 0.233482 0.273937 0.104290 0.219675 -0.035244 -0.023879 -0.113938 -0.108337 0.170843 0.052481 0.184816 0.244308 0.264028 0.432902 0.458304 0.439415 0.461205 0.580480 0.502521 0.363741 0.360254 0.213221 0.190959 0.101110 0.055450 0.039890 -0.089466 -0.028738 0.001941 -0.069215 -0.015654 0.202766 0.397282 0.254914 0.317556 0.206397 0.515623 0.403008 0.371414 0.323308 0.192013 0.143100 0.363468 0.007503 0.047547 0.016678 0.076208 -0.004873 0.090735 -0.026531 0.162448 -0.018692 0.263797 0.393601 0.230006 0.265402 0.260963 0.196007 0.056244 0.091963 0.112261 -0.008102 0.016341 0.064029 -0.135092 -0.063385 0.010171 0.141806 0.343194 0.126131 0.160946 0.208866 0.181667 0.097168 0.094866 0.014782 0.056469 -0.044762 -0.029582 0.030999 0.107168 0.116311 0.036415 0.096111 0.183677 0.181388 0.358090 0.098297 0.071062 0.081489 0.029722 0.054646 0.004682 0.103014 0.169070 0.044660 0.082691 0.054670 0.262219 0.051091 0.043586 0.047957 0.110092 0.094231 -0.016815 0.022102 -0.065325 -0.016151 0.027818 -0.010675 -0.013058 0.076172 0.005501 0.026084 -0.017577 -0.110800 -0.040778 -0.089011 -0.014117 -0.007964 0.017872 -0.010194 0.021226 0.051567 0.021186 -0.022101 -0.080820 -0.098393 -0.000454 -0.052539 0.002549 -0.020420 -0.039228 -0.023492 -0.049493 0.045107 -0.001462 0.090199 -0.043915 -0.061179 -0.011973 -0.028356 0.011419 0.007663 -0.127207 0.000953 -0.082504 -0.017087 0.017590 0.153138 -0.003197 -0.085719 -0.122820 -0.004843 0.138163 0.009832 -0.028133 0.030122 -0.037089 0.009195 -0.019256 -0.000549 -0.049001 -0.018002 -0.132468 -0.105011 -0.019162 -0.048412 -0.083892 -0.089297 -0.267585 -0.003157 0.037950 0.028046 -0.008473 0.009640 -0.090439 -0.078559 -0.060794 -0.090109 -0.098706 -0.052222 -0.147277 -0.063393 0.021941 0.066165 0.013777 -0.087857 -0.093448 -0.030155 -0.014710 -0.112350 0.046497 0.033055 -0.121676 -0.071098 -0.027564 0.004623 -0.111062 -0.245447 -0.200967 0.009122 0.006293 -0.082553 -0.118016 0.114029 0.035039 -0.121926 -0.031717 -0.055966 -0.178445 0.022245 0.065288 -0.027553 -0.141856 -0.032368 -0.016566 0.361084 0.077142 0.052199 -0.278508 -0.044783 0.193493 0.071985 0.472601 -0.046365 0.367650 0.597287 0.750882 0.401947 0.308930 -0.077595 -1.752758
0.072396 0.072905 0.074430 0.076972 0.080531 0.085104 0.090691 0.097290 0.104900 0.113516 0.123136 0.133755 0.145368 0.157968 0.171547 0.186095 0.201602 0.218054 0.235435 0.253728 0.272912 0.292963 0.313854 0.335556 0.358033 0.381247 0.405157 0.429713 0.454864 0.480551 0.506712 0.533278 0.560173 0.587315 0.614617 0.641984 0.669315 0.696500 0.723426 0.749968 0.775998 0.801379 0.825969 0.849617 0.872170 0.893465 0.913336 0.931612 0.948118 0.962676 0.975107 0.985228 0.992859 0.997820 0.999934 0.999028 0.994934 0.987494 0.976557 0.961985 0.943654 0.921453 0.895293 0.865101 0.830828 0.792451 0.749973 0.703425 0.652871 0.598408 0.540168 0.478320 0.413073 0.344673 0.273409 0.199611 0.123649 0.045936 0.033076 0.112894 0.192991 0.272801 0.351728 0.429148 0.504413 0.576856 0.645797 0.710550 0.770427 0.824752 0.872861 0.914117 0.947919 0.973706 0.990972 0.999274 0.998243 0.987592 0.967125 0.936749 0.896477 0.846440 0.786891 0.718210 0.640905 0.555620 0.463127 0.364329 0.260253 0.152044 0.040957 0.071657 0.184365 0.295666 0.404012 0.507831 0.605546 0.695602 0.776495 0.846794 0.905176 0.950450 0.981584 0.997737 0.998280 0.982822 0.951227 0.903636 0.840476 0.762467 0.670628 0.566269 0.450985 0.326639 0.195339 0.059406 0.078660 0.216222 0.350556 0.478905 0.598532 0.706789 0.801171 0.879386 0.939412 0.979562 0.998535 0.995467 0.969973 0.922181 0.852747 0.762872 0.654291 0.529259 0.390512 0.241226 0.084949 0.074477 0.233003 0.386470 0.530728 0.661739 0.775706 0.869184 0.939198 0.983347 0.999902 0.987885 0.947128 0.878316 0.782999 0.663583 0.523287 0.366076 0.196566 0.019899 0.158404 0.332608 0.496951 0.645834 0.774021 0.876836 0.950342 0.991516 0.998388 0.970153 0.907246 0.811374 0.685498 0.533774 0.361435 0.174635 0.019755 0.214389 0.401722 0.574299 0.725057 0.847632 0.936641 0.987942 0.998848 0.968299 0.896958 0.787248 0.643304 0.470852 0.277019 0.070044 0.141034 0.346777 0.537762 0.705017 0.840461 0.937313 0.990461 0.996760 0.955253 0.867289 0.736529 0.568844 0.372084 0.155754 0.069439 0.292078 0.500627 0.684025 0.832293 0.937096 0.992250 0.994126 0.941922 0.837803 0.686863 0.496933 0.278220 0.042786 0.196084 0.424623 0.629373 0.797999 0.920050 0.987649 0.996046 0.943998 0.833948 0.671983 0.467557 0.232985 0.017252 0.267380 0.501310 0.703683 0.860907 0.962085 0.999843 0.970908 0.876447 0.722115 0.517785 0.276971 0.016003 0.247066 0.493692 0.706133 0.868784 0.969326 0.999748 0.957032 0.843514 0.666852 0.439591 0.178328 0.097433 0.366720 0.608677 0.804199 0.937468 0.997297 0.978145 0.880698 0.711970 0.484898 0.217425 0.068863 0.350430 0.603721 0.807151 0.942983 0.998937 0.969384 0.855998 0.667785 0.420465 0.135251 0.162912 0.447504 0.692767 0.876089 0.980122 0.994525 0.917074 0.754065 0.519923 0.236025 0.071176 0.372558 0.639086 0.844631 0.968581 0.997999 0.929072 0.767704 0.529139 0.236632 0.080720 0.390830 0.661847 0.865447 0.979874 0.992342 0.900595 0.713369 0.449699 0.137111 0.191175 0.499727 0.754720 0.927694 0.998818 0.959274 0.812483 0.573977 0.269903 0.065741 0.394838 0.679450 0.886235 0.990426 0.978919 0.852056 0.623865 0.320671 0.021820 0.362643 0.660439 0.878504 0.989399 0.978524 0.846192 0.607888 0.292633 0.060421 0.406772 0.702138 0.908170 0.997524 0.957626 0.792617 0.523122 0.183865 0.180700 0.522121 0.794381
1.000000 1.000000 1.000000 1.000000 1.000000 1.000000 1.000000 1.000000 1.000000 1.000000 1.000000 1.000000 1.000000 1.000000 1.000000 1.000000 1.000000 1.000000 1.000000 1.000000 1.000000 1.000000 1.000000 1.000000 1.000000 1.000000 1.000000 1.000000 1.000000 1.000000 1.000000 1.000000 1.000000 1.000000 1.000000 1.000000 1.000000 1.000000 1.000000 1.000000 1.000000 1.000000 1.000000 1.000000 1.000000 1.000000 1.000000 1.000000 1.000000 1.000000 1.000000 1.000000 0.805184 0.805184 0.805184 0.788188 0.788188 0.788188 0.788188 0.788188 0.788188 0.788188 0.788188 0.788188 0.788188 0.788188 0.788188 0.788188 0.788188 0.788188 0.788188 0.788188 0.788188 0.788188 0.788188 0.788188 0.788188 0.788188 0.788188 0.788188 0.788188 0.788188 0.788188 0.788188 0.788188 0.788188 0.788188 0.788188 0.788188 0.788188 0.788188 0.788188 0.788188 0.788188 0.788188 0.788188 0.814051 0.822932 0.826613 0.830326 0.831773 0.828321 0.827028 0.826054 0.825796 0.827057 0.834161 0.859576 0.877082 0.882542 0.896671 0.900755 0.904341 0.906382 0.913117 0.914726 0.955126 0.954149 0.953939 0.955077 0.958613 0.953949 0.952287 0.951228 0.960942 0.955837 0.952762 0.949644 0.948615 0.944687 0.945831 0.945521 0.941658 0.942031 0.942821 0.942775 0.942167 0.940961 0.939295 0.927588 0.920554 0.919372 0.919109 0.895688 0.887285 0.874189 0.862186 0.873552 0.857896 0.857327 0.838078 0.839724 0.841023 0.833726 0.828266 0.823822 0.818050 0.807393 0.803879 0.801713 0.807163 0.807254 0.813729 0.806554 0.796154 0.785798 0.774293 0.769974 0.755505 0.750771 0.755231 0.751144 0.749812 0.750701 0.748550 0.740099 0.733255 0.727445 0.724323 0.737317 0.746794 0.749309 0.747728 0.747459 0.729372 0.710250 0.685759 0.678554 0.679255 0.655463 0.640823 0.642973 0.646940 0.652814 0.666779 0.660380 0.649226 0.626460 0.603654 0.570052 0.584593 0.589730 0.568575 0.561138 0.550179 0.589609 0.612649 0.633304 0.651863 0.660189 0.665216 0.644040 0.609817 0.614065 0.612357 0.614447 0.613703 0.600155 0.599036 0.614420 0.568015 0.548149 0.536342 0.529380 0.536414 0.552375 0.564857 0.559710 0.532479 0.504899 0.472020 0.458184 0.384199 0.362473 0.357606 0.361436 0.327272 0.319839 0.319538 0.343998 0.340026 0.343935 0.332853 0.300955 0.290723 0.287493 0.267144 0.259936 0.261504 0.261328 0.263558 0.240596 0.206703 0.228446 0.226884 0.207737 0.255823 0.267989 0.244166 0.243608 0.236625 0.219921 0.208986 0.194924 0.188948 0.185336 0.211959 0.201803 0.204912 0.214297 0.238491 0.179323 0.177508 0.151165 0.117032 0.093597 0.074100 0.044427 0.050299 0.056760 0.045220 0.015252 -0.028610 -0.063705 -0.056805 -0.027128 -0.043057 -0.056749 -0.067428 -0.027986 -0.043405 -0.070011 -0.058354 -0.070944 -0.079025 -0.127185 -0.152013 -0.100296 -0.094018 -0.088451 -0.102218 -0.121561 -0.126780 -0.138150 -0.151938 -0.121417 -0.102839 -0.095448 -0.109853 -0.106068 -0.101704 -0.110753 -0.172985 -0.230678 -0.213157 -0.210164 -0.209339 -0.215031 -0.194119 -0.192940 -0.185247 -0.171503 -0.180704 -0.179931 -0.132823 -0.200568 -0.228604 -0.236354 -0.237973 -0.247778 -0.198059 -0.176058 -0.158356 -0.148272 -0.172638 -0.172638 -0.172638 -0.172638 -0.167483 -0.167483 -0.167483 -0.167483 -0.167483 -0.167483 -0.167483 -0.167483 -0.167483 -0.175709 -0.175709 -0.175709 -0.175709 -0.175709 -0.175709 -0.175709 -0.175709 -0.175709 -0.175709 -0.175709 -0.175709 -0.175709 -0.175709 -0.175709 -0.175709
0.000000 0.000000 0.000000 0.000000 0.000000 0.000000 0.000000 0.000000 0.000000 0.000000 0.000000 0.000000 0.000000 0.000000 0.000000 0.000000 0.000000 0.000000 0.000000 0.000000 0.000000 0.000000 0.000000 0.000000 0.000000 0.000000 0.000000 0.000000 0.000000 0.000000 0.000000 0.000000 0.000000 0.000000 0.000000 0.000000 0.000000 0.000000 0.000000 0.000000 0.000000 0.000000 0.000000 0.000000 0.000000 0.000000 0.000000 0.000000 0.000000 0.000000 0.000000 0.000000 0.180334 0.180334 0.180334 0.199007 0.199007 0.199007 0.199007 0.199007 0.199007 0.199007 0.199007 0.199007 0.199007 0.199007 0.199007 0.199007 0.199007 0.199007 0.199007 0.199007 0.199007 0.199007 0.199007 0.199007 0.199007 0.199007 0.199007 0.199007 0.199007 0.199007 0.199007 0.199007 0.199007 0.199007 0.199007 0.199007 0.199007 0.199007 0.199007 0.199007 0.199007 0.199007 0.199007 0.199007 0.230940 0.230940 0.230940 0.230940 0.230940 0.230940 0.230940 0.230940 0.230940 0.230940 0.230940 0.230940 0.230940 0.230940 0.230940 0.230940 0.230940 0.230940 0.230940 0.230940 0.230940 0.230940 0.230940 0.230940 0.230940 0.230940 0.230940 0.230940 0.244339 0.244339 0.244339 0.244339 0.244339 0.244339 0.244339 0.244339 0.244339 0.244339 0.244339 0.244339 0.244339 0.244339 0.244339 0.244339 0.244339 0.244339 0.244339 0.244339 0.244339 0.244339 0.244339 0.251976 0.251976 0.251976 0.251976 0.251976 0.251976 0.251976 0.251976 0.251976 0.251976 0.251976 0.251976 0.251976 0.251976 0.251976 0.251976 0.251976 0.251976 0.251976 0.251976 0.264906 0.264906 0.264906 0.264906 0.264906 0.264906 0.264906 0.264906 0.264906 0.264906 0.264906 0.264906 0.264906 0.264906 0.264906 0.264906 0.264906 0.264906 0.264906 0.264906 0.264906 0.264906 0.264906 0.264906 0.264906 0.264906 0.264906 0.264906 0.264906 0.264906 0.264906 0.264906 0.264906 0.264906 0.264906 0.264906 0.264906 0.264906 0.264906 0.264906 0.264906 0.264906 0.264906 0.264906 0.264906 0.264906 0.264906 0.264906 0.264906 0.264906 0.264906 0.264906 0.264906 0.264906 0.264906 0.264906 0.264906 0.264906 0.264906 0.264906 0.264906 0.264906 0.264906 0.264906 0.264906 0.264906 0.264906 0.264906 0.264906 0.264906 0.264906 0.264906 0.264906 0.264906 0.264906 0.260378 0.260378 0.260378 0.260378 0.260378 0.260378 0.260378 0.260378 0.260378 0.260378 0.260378 0.260378 0.260378 0.274721 0.274721 0.274721 0.274721 0.274721 0.274721 0.274721 0.274721 0.274721 0.274721 0.274721 0.260378 0.260378 0.260378 0.260378 0.260378 0.260378 0.260378 0.260378 0.260378 0.260378 0.260378 0.260378 0.264906 0.264906 0.264906 0.264906 0.264906 0.264906 0.264906 0.264906 0.264906 0.264906 0.264906 0.269680 0.269680 0.269680 0.269680 0.269680 0.269680 0.269680 0.269680 0.269680 0.269680 0.264906 0.264906 0.264906 0.264906 0.264906 0.264906 0.264906 0.264906 0.264906 0.264906 0.260378 0.260378 0.260378 0.260378 0.260378 0.260378 0.260378 0.260378 0.260378 0.260378 0.256074 0.256074 0.256074 0.256074 0.256074 0.256074 0.256074 0.256074 0.256074 0.256074 0.260378 0.260378 0.260378 0.260378 0.260378 0.260378 0.260378 0.260378 0.260378 0.256074 0.256074 0.256074 0.256074 0.256074 0.256074 0.256074 0.256074 0.256074 0.251976 0.251976 0.251976 0.251976 0.251976 0.251976 0.251976 0.251976 0.251976 0.251976 0.251976 0.251976 0.251976 0.251976 0.251976 0.251976
