# Output from CTFFind version 4.1.9, run on 2019-11-03 19:30:53
# Input file: stack6_bm3d_averaged_1_3.75_0_3000_half.mrc ; Number of micrographs: 1
# Pixel size: 3.000 Angstroms ; acceleration voltage: 300.0 keV ; spherical aberration: 0.00 mm ; amplitude contrast: 0.07
# Box size: 512 pixels ; min. res.: 30.0 Angstroms ; max. res.: 5.0 Angstroms ; min. def.: 5000.0 um; max. def. 50000.0 um; num. frames averaged: 1
# 6 lines per micrograph: #1 - spatial frequency (1/Angstroms); #2 - 1D rotational average of spectrum (assuming no astigmatism); #3 - 1D rotational average of spectrum; #4 - CTF fit; #5 - cross-correlation between spectrum and CTF fit; #6 - 2sigma of expected cross correlation of noise
0.000000 0.000651 0.001302 0.001953 0.002604 0.003255 0.003906 0.004557 0.005208 0.005859 0.006510 0.007161 0.007812 0.008464 0.009115 0.009766 0.010417 0.011068 0.011719 0.012370 0.013021 0.013672 0.014323 0.014974 0.015625 0.016276 0.016927 0.017578 0.018229 0.018880 0.019531 0.020182 0.020833 0.021484 0.022135 0.022786 0.023438 0.024089 0.024740 0.025391 0.026042 0.026693 0.027344 0.027995 0.028646 0.029297 0.029948 0.030599 0.031250 0.031901 0.032552 0.033203 0.033854 0.034505 0.035156 0.035807 0.036458 0.037109 0.037760 0.038411 0.039062 0.039714 0.040365 0.041016 0.041667 0.042318 0.042969 0.043620 0.044271 0.044922 0.045573 0.046224 0.046875 0.047526 0.048177 0.048828 0.049479 0.050130 0.050781 0.051432 0.052083 0.052734 0.053385 0.054036 0.054688 0.055339 0.055990 0.056641 0.057292 0.057943 0.058594 0.059245 0.059896 0.060547 0.061198 0.061849 0.062500 0.063151 0.063802 0.064453 0.065104 0.065755 0.066406 0.067057 0.067708 0.068359 0.069010 0.069661 0.070312 0.070964 0.071615 0.072266 0.072917 0.073568 0.074219 0.074870 0.075521 0.076172 0.076823 0.077474 0.078125 0.078776 0.079427 0.080078 0.080729 0.081380 0.082031 0.082682 0.083333 0.083984 0.084635 0.085286 0.085938 0.086589 0.087240 0.087891 0.088542 0.089193 0.089844 0.090495 0.091146 0.091797 0.092448 0.093099 0.093750 0.094401 0.095052 0.095703 0.096354 0.097005 0.097656 0.098307 0.098958 0.099609 0.100260 0.100911 0.101562 0.102214 0.102865 0.103516 0.104167 0.104818 0.105469 0.106120 0.106771 0.107422 0.108073 0.108724 0.109375 0.110026 0.110677 0.111328 0.111979 0.112630 0.113281 0.113932 0.114583 0.115234 0.115885 0.116536 0.117188 0.117839 0.118490 0.119141 0.119792 0.120443 0.121094 0.121745 0.122396 0.123047 0.123698 0.124349 0.125000 0.125651 0.126302 0.126953 0.127604 0.128255 0.128906 0.129557 0.130208 0.130859 0.131510 0.132161 0.132812 0.133464 0.134115 0.134766 0.135417 0.136068 0.136719 0.137370 0.138021 0.138672 0.139323 0.139974 0.140625 0.141276 0.141927 0.142578 0.143229 0.143880 0.144531 0.145182 0.145833 0.146484 0.147135 0.147786 0.148438 0.149089 0.149740 0.150391 0.151042 0.151693 0.152344 0.152995 0.153646 0.154297 0.154948 0.155599 0.156250 0.156901 0.157552 0.158203 0.158854 0.159505 0.160156 0.160807 0.161458 0.162109 0.162760 0.163411 0.164062 0.164714 0.165365 0.166016 0.166667 0.167318 0.167969 0.168620 0.169271 0.169922 0.170573 0.171224 0.171875 0.172526 0.173177 0.173828 0.174479 0.175130 0.175781 0.176432 0.177083 0.177734 0.178385 0.179036 0.179688 0.180339 0.180990 0.181641 0.182292 0.182943 0.183594 0.184245 0.184896 0.185547 0.186198 0.186849 0.187500 0.188151 0.188802 0.189453 0.190104 0.190755 0.191406 0.192057 0.192708 0.193359 0.194010 0.194661 0.195312 0.195964 0.196615 0.197266 0.197917 0.198568 0.199219 0.199870 0.200521 0.201172 0.201823 0.202474 0.203125 0.203776 0.204427 0.205078 0.205729 0.206380 0.207031 0.207682 0.208333 0.208984 0.209635 0.210286 0.210938 0.211589 0.212240 0.212891 0.213542 0.214193 0.214844 0.215495 0.216146 0.216797 0.217448 0.218099 0.218750 0.219401 0.220052 0.220703 0.221354 0.222005 0.222656 0.223307 0.223958 0.224609 0.225260 0.225911 0.226562 0.227214 0.227865 0.228516 0.229167 0.229818 0.230469 0.231120 0.231771 0.232422 0.233073 0.233724 0.234375 0.235026 0.235677
       0.30056        0.30056        0.30056        0.30056        0.30056        0.30056        0.30056        0.30056        0.30056        0.30056        0.30056        0.30056        0.30056        0.30056        0.30056        0.30056        0.30056        0.30056        0.30056        0.30056        0.30056        0.30056        0.30056        0.30056        0.30056        0.30056        0.30056        0.30056        0.30056        0.30056        0.30056        0.30056        0.30056        0.30056        0.30056        0.30056        0.30056        0.30056        0.30056        0.30056        0.30056        0.30056        0.30056        0.30056        0.30056        0.30056        0.30056        0.30056        0.30056        0.30056        0.30056        0.61327        0.76274        0.36686        0.23193        0.14017       -0.14350        0.11801        0.02394        0.03783        0.09901        0.33136        0.37587        0.31582        0.18761       -0.02541        0.01297        0.05327       -0.16614       -0.17546       -0.09253       -0.12100       -0.27952       -0.17185       -0.31036       -0.29311       -0.30276       -0.38090       -0.45517       -0.43275       -0.35221       -0.31239       -0.40345       -0.30593       -0.37278       -0.30814       -0.24264       -0.18731       -0.15164       -0.06359       -0.03670        0.08215        0.11681        0.22005        0.32510        0.38898        0.37470        0.47813        0.56574        0.58586        0.66958        0.63637        0.69236        0.60791        0.64086        0.64483        0.57929        0.58171        0.59003        0.39936        0.34203        0.35620        0.34063        0.18378        0.12627        0.07511        0.07129        0.05296       -0.04487        0.01938       -0.02060       -0.06613        0.06448        0.16154        0.26153        0.33173        0.32604        0.38111        0.49842        0.52740        0.47329        0.64712        0.52259        0.50473        0.55645        0.53138        0.51210        0.45904        0.38380        0.34702        0.24584        0.19656        0.15033        0.15392        0.12238        0.07179        0.11180        0.14904        0.18042        0.17077        0.22821        0.26485        0.33635        0.44688        0.43068        0.43139        0.49206        0.54251        0.52884        0.48495        0.37632        0.40527        0.35779        0.27817        0.22842        0.22791        0.18417        0.17106        0.16099        0.18109        0.15788        0.21101        0.25909        0.33329        0.37751        0.39525        0.45376        0.48193        0.44461        0.43300        0.40127        0.40387        0.39967        0.34690        0.28469        0.27257        0.21913        0.24274        0.23328        0.19481        0.22538        0.23223        0.24740        0.31830        0.35461        0.37448        0.38534        0.39357        0.42356        0.41252        0.40709        0.30415        0.29793        0.26309        0.27879        0.23758        0.19618        0.25251        0.31181        0.29709        0.28263        0.33193        0.29600        0.37567        0.33991        0.35298        0.36072        0.35315        0.31701        0.30336        0.28348        0.27662        0.25271        0.24361        0.25100        0.28003        0.28615        0.30993        0.34280        0.36387        0.32953        0.32367        0.34167        0.31052        0.27516        0.28395        0.26362        0.26191        0.26445        0.29291        0.27442        0.26745        0.29971        0.30186        0.32084        0.32477        0.33154        0.27142        0.26787        0.28414        0.27957        0.26421        0.25659        0.22665        0.24448        0.25601        0.25822        0.27556        0.27815        0.31410        0.33013        0.30723        0.30094        0.23086        0.23668        0.26674        0.22988        0.21113        0.26211        0.30895        0.24614        0.29438        0.29832        0.29208        0.31127        0.26495        0.28296        0.28560        0.27544        0.26512        0.22774        0.24778        0.24381        0.28741        0.29708        0.30258        0.29635        0.32148        0.25068        0.30038        0.28971        0.22291        0.29257        0.27213        0.28478        0.29181        0.30321        0.30145        0.34373        0.28918        0.24776        0.24591        0.21729        0.24723        0.27653        0.29765        0.27455        0.27631        0.26523        0.26738        0.26026        0.27006        0.22755        0.27346        0.25470        0.23915        0.23834        0.29491        0.30249        0.27099        0.27238        0.22875        0.29253        0.22834        0.19590        0.22820        0.27262        0.27077        0.31074        0.25049        0.21604        0.26079        0.22795        0.23363        0.18745        0.20696        0.20770        0.26350        0.25760        0.19196        0.25713        0.23386        0.29143        0.23755        0.21716        0.23107        0.20782        0.13392        0.18127        0.14041        0.16641        0.18167        0.09920        0.29084        0.12865        0.06462        0.11497        0.11730        0.22071        0.23221       -0.01305       -0.67481       -0.96654
3.015915 2.986021 2.956281 2.926693 2.897259 2.867979 2.838852 2.809879 2.781058 2.752392 2.723878 2.695519 2.667312 2.639259 2.611360 2.583614 2.556021 2.528582 2.501296 2.474164 2.447185 2.420359 2.393687 2.367168 2.340803 2.314591 2.288533 2.262628 2.236877 2.211279 2.185834 2.160543 2.135405 2.110421 2.085590 2.060912 2.036388 2.012018 1.987800 1.963737 1.939826 1.916070 1.892466 1.869016 1.845720 1.822576 1.799587 1.776750 1.754067 1.731538 1.709162 2.051205 2.388060 1.745553 1.709559 1.389953 0.865764 1.247293 1.102741 1.144647 1.003346 1.602978 1.532687 1.531872 1.273750 0.945012 0.782433 1.023931 0.752958 0.433145 0.573162 0.670587 0.394722 0.463042 0.281244 0.243899 0.168051 0.160560 -0.097582 -0.042428 0.057564 0.038786 0.011543 0.110182 -0.055992 -0.004214 0.127965 0.204868 0.248491 0.326406 0.355402 0.635821 0.533483 0.680513 0.915140 0.958921 0.925902 1.177591 1.188283 1.264501 1.353130 1.220789 1.440556 1.192362 1.193597 1.358531 1.145083 1.085860 1.199815 0.933205 0.676117 0.700607 0.745816 0.450206 0.379321 0.257246 0.189962 0.149407 0.008867 0.128231 0.029506 -0.088261 0.075814 0.212133 0.338889 0.497636 0.516435 0.517215 0.719090 0.805813 0.597288 0.978563 0.867530 0.633875 0.779906 0.694942 0.728849 0.697335 0.443346 0.469824 0.268673 0.197794 0.124978 -0.004958 0.052531 -0.087365 -0.033903 -0.031960 0.099216 -0.041619 0.208922 0.150885 0.201321 0.392271 0.474518 0.410783 0.384523 0.616891 0.610834 0.488364 0.344156 0.344750 0.325797 0.173011 0.065502 0.046076 0.020334 -0.029142 -0.082553 -0.045885 -0.109868 0.005416 0.015330 0.120141 0.239248 0.234363 0.360255 0.350674 0.403169 0.360565 0.433124 0.367574 0.268073 0.346979 0.138435 0.186073 0.049916 0.086571 0.041239 0.040057 -0.050097 0.057205 0.037762 0.110729 0.230400 0.244910 0.253780 0.272382 0.325372 0.327447 0.326470 0.205240 0.098071 0.141736 0.050153 0.067507 -0.035067 -0.038533 0.080195 0.124980 0.099705 0.092692 0.126575 0.186028 0.205871 0.156445 0.191514 0.214376 0.137651 0.121782 0.076809 0.059825 0.064088 -0.032284 0.026628 0.064907 0.011509 0.106932 0.114148 0.192479 0.208384 0.148712 0.128225 0.167764 0.092202 0.055422 0.087749 0.021929 0.018027 0.071166 0.071703 0.059473 0.029544 0.123152 0.092870 0.132102 0.139898 0.114860 0.063245 0.017887 0.075876 0.045141 0.042966 -0.008080 -0.039621 0.008174 0.000405 0.015389 0.074067 0.012424 0.108311 0.147170 0.045492 0.062876 -0.054416 0.009149 0.013102 -0.065675 -0.065820 0.054552 0.074734 -0.045218 0.068438 0.053361 0.078909 0.053117 -0.000866 0.014105 0.095518 -0.041191 0.020448 -0.045226 -0.012895 -0.043461 0.060184 0.055262 0.061739 0.016104 0.112674 -0.045452 0.073247 -0.010248 -0.068971 0.043306 -0.008309 0.025284 0.008107 0.103542 0.044721 0.070574 0.040730 -0.106769 -0.025338 -0.110567 -0.011302 0.004966 0.018577 0.004365 -0.028574 -0.009593 -0.014467 -0.054485 -0.015593 -0.129265 0.003611 -0.044951 -0.084254 -0.038218 0.024125 0.006047 -0.007790 0.025021 -0.048984 0.062614 -0.040056 -0.115134 -0.031905 0.049353 0.069569 0.081293 0.011580 -0.027638 0.051334 0.008047 -0.062525 -0.016037 -0.103782 0.025102 0.090828 0.070031 -0.040803 0.107828 0.041637 0.225812 0.019491 0.082190 0.090334 0.070445 -0.126611 0.050232 -0.082537 0.088855 0.042024 -0.008822 0.470476 0.152837 0.098623 0.245451 0.215833 0.309748 0.316787 -0.008937 -1.543846
0.072396 0.072835 0.074150 0.076341 0.079409 0.083352 0.088169 0.093860 0.100423 0.107855 0.116154 0.125317 0.135341 0.146221 0.157951 0.170526 0.183937 0.198175 0.213231 0.229092 0.245745 0.263174 0.281361 0.300286 0.319927 0.340258 0.361252 0.382876 0.405096 0.427874 0.451168 0.474933 0.499118 0.523670 0.548529 0.573633 0.598914 0.624298 0.649708 0.675061 0.700269 0.725237 0.749869 0.774059 0.797699 0.820675 0.842869 0.864157 0.884412 0.903501 0.921291 0.937642 0.952414 0.965463 0.976645 0.985815 0.992828 0.997539 0.999808 0.999494 0.996464 0.990588 0.981744 0.969816 0.954700 0.936301 0.914536 0.889339 0.860655 0.828450 0.792705 0.753424 0.710632 0.664375 0.614728 0.561787 0.505679 0.446558 0.384606 0.320037 0.253094 0.184050 0.113212 0.040915 0.032476 0.106567 0.180934 0.255130 0.328681 0.401094 0.471856 0.540437 0.606299 0.668893 0.727670 0.782081 0.831585 0.875656 0.913786 0.945493 0.970327 0.987878 0.997781 0.999724 0.993455 0.978786 0.955604 0.923871 0.883633 0.835025 0.778275 0.713701 0.641723 0.562858 0.477720 0.387018 0.291557 0.192230 0.090013 0.014043 0.118819 0.223143 0.325796 0.425531 0.521086 0.611200 0.694632 0.770178 0.836690 0.893096 0.938420 0.971802 0.992515 0.999982 0.993799 0.973743 0.939787 0.892115 0.831122 0.757426 0.671863 0.575488 0.469569 0.355571 0.235145 0.110108 0.017583 0.145855 0.272559 0.395492 0.512450 0.621258 0.719816 0.806144 0.878424 0.935043 0.974636 0.996120 0.998733 0.982063 0.946071 0.891109 0.817929 0.727685 0.621927 0.502582 0.371927 0.232559 0.087339 0.060647 0.208166 0.351894 0.488496 0.614710 0.727417 0.823731 0.901078 0.957273 0.990585 0.999808 0.984305 0.944052 0.879659 0.792380 0.684107 0.557338 0.415139 0.261074 0.099133 0.066374 0.230917 0.389875 0.538665 0.672874 0.788399 0.881578 0.949320 0.989218 0.999645 0.979835 0.929938 0.851047 0.745197 0.615328 0.465232 0.299447 0.123136 0.058061 0.238204 0.411242 0.571225 0.712503 0.829938 0.919109 0.976486 0.999588 0.987108 0.939002 0.856527 0.742242 0.599950 0.434594 0.252107 0.059214 0.136810 0.328398 0.507995 0.668344 0.802805 0.905633 0.972243 0.999438 0.985585 0.930727 0.836637 0.706795 0.546282 0.361617 0.160507 0.048451 0.256138 0.453296 0.630946 0.780812 0.895715 0.969940 0.999551 0.982617 0.919372 0.812258 0.665877 0.486818 0.283401 0.065309 0.156857 0.372081 0.569479 0.738856 0.871253 0.959440 0.998339 0.985353 0.920569 0.806826 0.649637 0.456958 0.238829 0.006869 0.226323 0.447843 0.645196 0.807020 0.923757 0.988249 0.996219 0.946586 0.841620 0.686883 0.490994 0.265181 0.022666 0.222062 0.454141 0.659210 0.824323 0.938796 0.994936 0.988592 0.919517 0.791476 0.612095 0.392471 0.146516 0.109881 0.359875 0.586751 0.775070 0.911736 0.986946 0.994937 0.934491 0.809115 0.626913 0.400115 0.144318 0.122568 0.381533 0.613835 0.802364 0.932929 0.995373 0.984423 0.900192 0.748287 0.539520 0.289184 0.016007 0.259248 0.515310 0.732084 0.892232 0.982609 0.995407 0.928886 0.787655 0.582427 0.329291 0.048492 0.237126 0.503985 0.729700 0.895004 0.985429 0.992641 0.915282 0.759234 0.537258 0.268032 0.025359 0.317365 0.582190 0.796066 0.939441 0.998815 0.968093 0.849292 0.652514 0.395189 0.100604 0.204162 0.490680 0.731834 0.904424 0.991449 0.983861 0.881597 0.693763 0.437921 0.138545 0.175272 0.472595 0.723709 0.903116
1.000000 1.000000 1.000000 1.000000 1.000000 1.000000 1.000000 1.000000 1.000000 1.000000 1.000000 1.000000 1.000000 1.000000 1.000000 1.000000 1.000000 1.000000 1.000000 1.000000 1.000000 1.000000 1.000000 1.000000 1.000000 1.000000 1.000000 1.000000 1.000000 1.000000 1.000000 1.000000 1.000000 1.000000 1.000000 1.000000 1.000000 1.000000 1.000000 1.000000 1.000000 1.000000 1.000000 1.000000 1.000000 1.000000 1.000000 1.000000 1.000000 1.000000 1.000000 1.000000 0.828843 0.828843 0.828843 0.828843 0.828843 0.828843 0.828843 0.803218 0.803218 0.803218 0.803218 0.803218 0.803218 0.803218 0.803218 0.803218 0.803218 0.803218 0.803218 0.803218 0.803218 0.803218 0.803218 0.803218 0.803218 0.803218 0.803218 0.803218 0.803218 0.803218 0.803218 0.803218 0.803218 0.803218 0.803218 0.803218 0.803218 0.803218 0.803218 0.803218 0.803218 0.803218 0.803218 0.803218 0.803218 0.803218 0.803218 0.803218 0.803218 0.803218 0.803218 0.946123 0.946977 0.947346 0.947980 0.946387 0.946082 0.944376 0.943477 0.946164 0.946373 0.946321 0.947253 0.947803 0.948959 0.950394 0.952291 0.952259 0.960542 0.964329 0.963781 0.962991 0.962025 0.975786 0.975706 0.975451 0.975385 0.975492 0.975477 0.975397 0.975316 0.974840 0.975225 0.975645 0.975572 0.975209 0.974620 0.973168 0.972600 0.971992 0.972327 0.973073 0.973146 0.973632 0.976265 0.975354 0.975969 0.974590 0.973877 0.972757 0.970901 0.971325 0.971301 0.972750 0.970794 0.968997 0.969998 0.968253 0.968173 0.968102 0.968355 0.968605 0.966927 0.966979 0.966999 0.967797 0.964363 0.952722 0.951124 0.947979 0.949043 0.950931 0.953208 0.952705 0.952313 0.950868 0.945095 0.941769 0.931583 0.929317 0.925147 0.924561 0.925489 0.926407 0.925230 0.925635 0.924076 0.923591 0.920305 0.923013 0.921740 0.920132 0.913826 0.913052 0.911570 0.912783 0.914572 0.915256 0.911807 0.907695 0.897749 0.881560 0.880494 0.879384 0.885783 0.879225 0.877391 0.877508 0.860956 0.858344 0.849969 0.848699 0.849894 0.851386 0.851695 0.853494 0.852407 0.831315 0.825778 0.820730 0.820736 0.823948 0.833287 0.835732 0.832345 0.824008 0.821983 0.798290 0.798406 0.801190 0.795215 0.800733 0.783200 0.783070 0.778180 0.780026 0.775771 0.770365 0.770189 0.746315 0.750506 0.753966 0.758202 0.757551 0.742925 0.735742 0.697170 0.703178 0.681924 0.691272 0.692165 0.679571 0.668135 0.669655 0.672796 0.663203 0.667537 0.649825 0.637525 0.620011 0.615844 0.623435 0.591245 0.598607 0.598252 0.590812 0.582717 0.599230 0.611916 0.615458 0.595179 0.594005 0.580220 0.552056 0.527531 0.510826 0.496942 0.497517 0.515093 0.515532 0.523945 0.508289 0.477876 0.443918 0.447172 0.450433 0.436070 0.431114 0.422379 0.409778 0.427228 0.414222 0.437944 0.430573 0.421470 0.388249 0.315779 0.294474 0.253747 0.271150 0.277274 0.278680 0.274446 0.274125 0.248570 0.188457 0.182475 0.184325 0.205110 0.176172 0.140059 0.151891 0.147714 0.143299 0.138425 0.139477 0.196217 0.186992 0.211301 0.209765 0.153480 0.128190 0.066339 0.070190 0.074146 0.105399 0.130180 0.120477 0.094503 0.000659 0.027310 0.059597 0.059597 0.059597 0.059597 0.059597 0.059597 0.059597 0.059597 0.059597 0.059597 0.059597 -0.014731 -0.014731 -0.014731 -0.014731 -0.014731 -0.014731 -0.014731 -0.014731 -0.014731 -0.014731 -0.014731 -0.014731 -0.014731 -0.014731 -0.014731 -0.014731 -0.014731 -0.014731 -0.014731
0.000000 0.000000 0.000000 0.000000 0.000000 0.000000 0.000000 0.000000 0.000000 0.000000 0.000000 0.000000 0.000000 0.000000 0.000000 0.000000 0.000000 0.000000 0.000000 0.000000 0.000000 0.000000 0.000000 0.000000 0.000000 0.000000 0.000000 0.000000 0.000000 0.000000 0.000000 0.000000 0.000000 0.000000 0.000000 0.000000 0.000000 0.000000 0.000000 0.000000 0.000000 0.000000 0.000000 0.000000 0.000000 0.000000 0.000000 0.000000 0.000000 0.000000 0.000000 0.000000 0.173422 0.173422 0.173422 0.173422 0.173422 0.173422 0.173422 0.191565 0.191565 0.191565 0.191565 0.191565 0.191565 0.191565 0.191565 0.191565 0.191565 0.191565 0.191565 0.191565 0.191565 0.191565 0.191565 0.191565 0.191565 0.191565 0.191565 0.191565 0.191565 0.191565 0.191565 0.191565 0.191565 0.191565 0.191565 0.191565 0.191565 0.191565 0.191565 0.191565 0.191565 0.191565 0.191565 0.191565 0.191565 0.191565 0.191565 0.191565 0.191565 0.191565 0.191565 0.219529 0.219529 0.219529 0.219529 0.219529 0.219529 0.219529 0.219529 0.219529 0.219529 0.219529 0.219529 0.219529 0.219529 0.219529 0.219529 0.219529 0.219529 0.219529 0.219529 0.219529 0.219529 0.219529 0.219529 0.219529 0.219529 0.219529 0.219529 0.219529 0.219529 0.219529 0.237356 0.237356 0.237356 0.237356 0.237356 0.237356 0.237356 0.237356 0.237356 0.237356 0.237356 0.237356 0.237356 0.237356 0.237356 0.237356 0.237356 0.237356 0.237356 0.237356 0.237356 0.237356 0.237356 0.237356 0.244339 0.244339 0.244339 0.244339 0.244339 0.244339 0.244339 0.244339 0.244339 0.244339 0.244339 0.244339 0.244339 0.244339 0.244339 0.244339 0.244339 0.244339 0.244339 0.244339 0.244339 0.248069 0.248069 0.248069 0.248069 0.248069 0.248069 0.248069 0.248069 0.248069 0.248069 0.248069 0.248069 0.248069 0.248069 0.248069 0.248069 0.248069 0.248069 0.248069 0.248069 0.248069 0.248069 0.248069 0.248069 0.248069 0.248069 0.248069 0.248069 0.248069 0.248069 0.248069 0.248069 0.248069 0.248069 0.248069 0.248069 0.248069 0.256074 0.256074 0.256074 0.256074 0.256074 0.256074 0.256074 0.256074 0.256074 0.256074 0.256074 0.256074 0.256074 0.256074 0.256074 0.256074 0.256074 0.256074 0.256074 0.256074 0.256074 0.256074 0.256074 0.256074 0.256074 0.256074 0.256074 0.256074 0.256074 0.256074 0.256074 0.256074 0.256074 0.256074 0.256074 0.256074 0.256074 0.256074 0.256074 0.256074 0.256074 0.256074 0.256074 0.256074 0.256074 0.260378 0.260378 0.260378 0.260378 0.260378 0.260378 0.260378 0.260378 0.260378 0.260378 0.260378 0.260378 0.260378 0.256074 0.256074 0.256074 0.256074 0.256074 0.256074 0.256074 0.256074 0.256074 0.256074 0.256074 0.256074 0.256074 0.260378 0.260378 0.260378 0.260378 0.260378 0.260378 0.260378 0.260378 0.260378 0.260378 0.260378 0.260378 0.251976 0.251976 0.251976 0.251976 0.251976 0.251976 0.251976 0.251976 0.251976 0.251976 0.251976 0.251976 0.256074 0.256074 0.256074 0.256074 0.256074 0.256074 0.256074 0.256074 0.256074 0.256074 0.256074 0.251976 0.251976 0.251976 0.251976 0.251976 0.251976 0.251976 0.251976 0.251976 0.251976 0.251976 0.248069 0.248069 0.248069 0.248069 0.248069 0.248069 0.248069 0.248069 0.248069 0.248069 0.248069 0.256074 0.256074 0.256074 0.256074 0.256074 0.256074 0.256074 0.256074 0.256074 0.256074 0.256074 0.256074 0.256074 0.256074 0.256074 0.256074 0.256074 0.256074 0.256074
