# Output from CTFFind version 4.1.9, run on 2019-11-03 19:32:30
# Input file: stack11_bm3d_averaged_1_4.25_0_250_half.mrc ; Number of micrographs: 1
# Pixel size: 3.000 Angstroms ; acceleration voltage: 300.0 keV ; spherical aberration: 0.00 mm ; amplitude contrast: 0.07
# Box size: 512 pixels ; min. res.: 30.0 Angstroms ; max. res.: 5.0 Angstroms ; min. def.: 5000.0 um; max. def. 50000.0 um; num. frames averaged: 1
# 6 lines per micrograph: #1 - spatial frequency (1/Angstroms); #2 - 1D rotational average of spectrum (assuming no astigmatism); #3 - 1D rotational average of spectrum; #4 - CTF fit; #5 - cross-correlation between spectrum and CTF fit; #6 - 2sigma of expected cross correlation of noise
0.000000 0.000651 0.001302 0.001953 0.002604 0.003255 0.003906 0.004557 0.005208 0.005859 0.006510 0.007161 0.007812 0.008464 0.009115 0.009766 0.010417 0.011068 0.011719 0.012370 0.013021 0.013672 0.014323 0.014974 0.015625 0.016276 0.016927 0.017578 0.018229 0.018880 0.019531 0.020182 0.020833 0.021484 0.022135 0.022786 0.023438 0.024089 0.024740 0.025391 0.026042 0.026693 0.027344 0.027995 0.028646 0.029297 0.029948 0.030599 0.031250 0.031901 0.032552 0.033203 0.033854 0.034505 0.035156 0.035807 0.036458 0.037109 0.037760 0.038411 0.039062 0.039714 0.040365 0.041016 0.041667 0.042318 0.042969 0.043620 0.044271 0.044922 0.045573 0.046224 0.046875 0.047526 0.048177 0.048828 0.049479 0.050130 0.050781 0.051432 0.052083 0.052734 0.053385 0.054036 0.054688 0.055339 0.055990 0.056641 0.057292 0.057943 0.058594 0.059245 0.059896 0.060547 0.061198 0.061849 0.062500 0.063151 0.063802 0.064453 0.065104 0.065755 0.066406 0.067057 0.067708 0.068359 0.069010 0.069661 0.070312 0.070964 0.071615 0.072266 0.072917 0.073568 0.074219 0.074870 0.075521 0.076172 0.076823 0.077474 0.078125 0.078776 0.079427 0.080078 0.080729 0.081380 0.082031 0.082682 0.083333 0.083984 0.084635 0.085286 0.085938 0.086589 0.087240 0.087891 0.088542 0.089193 0.089844 0.090495 0.091146 0.091797 0.092448 0.093099 0.093750 0.094401 0.095052 0.095703 0.096354 0.097005 0.097656 0.098307 0.098958 0.099609 0.100260 0.100911 0.101562 0.102214 0.102865 0.103516 0.104167 0.104818 0.105469 0.106120 0.106771 0.107422 0.108073 0.108724 0.109375 0.110026 0.110677 0.111328 0.111979 0.112630 0.113281 0.113932 0.114583 0.115234 0.115885 0.116536 0.117188 0.117839 0.118490 0.119141 0.119792 0.120443 0.121094 0.121745 0.122396 0.123047 0.123698 0.124349 0.125000 0.125651 0.126302 0.126953 0.127604 0.128255 0.128906 0.129557 0.130208 0.130859 0.131510 0.132161 0.132812 0.133464 0.134115 0.134766 0.135417 0.136068 0.136719 0.137370 0.138021 0.138672 0.139323 0.139974 0.140625 0.141276 0.141927 0.142578 0.143229 0.143880 0.144531 0.145182 0.145833 0.146484 0.147135 0.147786 0.148438 0.149089 0.149740 0.150391 0.151042 0.151693 0.152344 0.152995 0.153646 0.154297 0.154948 0.155599 0.156250 0.156901 0.157552 0.158203 0.158854 0.159505 0.160156 0.160807 0.161458 0.162109 0.162760 0.163411 0.164062 0.164714 0.165365 0.166016 0.166667 0.167318 0.167969 0.168620 0.169271 0.169922 0.170573 0.171224 0.171875 0.172526 0.173177 0.173828 0.174479 0.175130 0.175781 0.176432 0.177083 0.177734 0.178385 0.179036 0.179688 0.180339 0.180990 0.181641 0.182292 0.182943 0.183594 0.184245 0.184896 0.185547 0.186198 0.186849 0.187500 0.188151 0.188802 0.189453 0.190104 0.190755 0.191406 0.192057 0.192708 0.193359 0.194010 0.194661 0.195312 0.195964 0.196615 0.197266 0.197917 0.198568 0.199219 0.199870 0.200521 0.201172 0.201823 0.202474 0.203125 0.203776 0.204427 0.205078 0.205729 0.206380 0.207031 0.207682 0.208333 0.208984 0.209635 0.210286 0.210938 0.211589 0.212240 0.212891 0.213542 0.214193 0.214844 0.215495 0.216146 0.216797 0.217448 0.218099 0.218750 0.219401 0.220052 0.220703 0.221354 0.222005 0.222656 0.223307 0.223958 0.224609 0.225260 0.225911 0.226562 0.227214 0.227865 0.228516 0.229167 0.229818 0.230469 0.231120 0.231771 0.232422 0.233073 0.233724 0.234375 0.235026 0.235677
       0.33876        0.33876        0.33876        0.33876        0.33876        0.33876        0.33876        0.33876        0.33876        0.33876        0.33876        0.33876        0.33876        0.33876        0.33876        0.33876        0.33876        0.33876        0.33876        0.33876        0.33876        0.33876        0.33876        0.33876        0.33876        0.33876        0.33876        0.33876        0.33876        0.33876        0.33876        0.33876        0.33876        0.33876        0.33876        0.33876        0.33876        0.33876        0.33876        0.33876        0.33876        0.33876        0.33876        0.33876        0.33876        0.33876        0.33876        0.33876        0.33876        0.33876        0.33876        0.69510        0.86094        0.53487        0.10439       -0.03310       -0.39442       -0.18261       -0.28780       -0.11240       -0.05563       -0.10983       -0.05313       -0.17306       -0.20943       -0.22184       -0.31090       -0.32275       -0.45093       -0.36431       -0.43159       -0.42541       -0.39971       -0.42201       -0.46502       -0.51809       -0.56260       -0.56522       -0.53806       -0.36743       -0.33986       -0.30099       -0.27915       -0.18976       -0.17968        0.05263        0.13150        0.16225        0.25659        0.37918        0.45645        0.52034        0.59189        0.58930        0.57749        0.69752        0.80589        0.70935        0.74043        0.62788        0.56810        0.48339        0.42867        0.51087        0.39329        0.25705        0.10873        0.09812        0.07761       -0.02483        0.02601        0.03873       -0.00603        0.02074        0.01688        0.23567        0.26735        0.29524        0.43294        0.45256        0.41194        0.58669        0.62467        0.65045        0.73213        0.67946        0.65009        0.66808        0.56536        0.46832        0.41917        0.30192        0.25248        0.17515        0.13041        0.05315        0.05198        0.05605        0.09128        0.14883        0.23582        0.28789        0.41112        0.46083        0.48425        0.57863        0.61066        0.63943        0.61981        0.56265        0.45879        0.47055        0.37786        0.26513        0.20416        0.15684        0.16256        0.14636        0.14313        0.16958        0.30573        0.31699        0.39385        0.43296        0.42920        0.49076        0.55880        0.55573        0.49686        0.45559        0.40788        0.35978        0.33130        0.29663        0.24473        0.23827        0.23386        0.24520        0.21834        0.30356        0.36198        0.38694        0.44080        0.45488        0.47142        0.42491        0.40526        0.40306        0.36075        0.31891        0.27143        0.26410        0.25984        0.23011        0.27996        0.27916        0.34466        0.37572        0.41836        0.47701        0.41519        0.42696        0.43300        0.40783        0.34586        0.32268        0.29138        0.31247        0.26895        0.31281        0.30560        0.32349        0.33323        0.35621        0.31812        0.39678        0.41693        0.38048        0.34730        0.37156        0.31247        0.29150        0.29524        0.31805        0.30161        0.31376        0.33253        0.34567        0.34115        0.36774        0.36823        0.40343        0.37992        0.33169        0.33766        0.29426        0.28181        0.32250        0.31688        0.32662        0.33637        0.33193        0.37563        0.32889        0.32980        0.32954        0.33689        0.30012        0.30943        0.27571        0.30069        0.32261        0.30168        0.32305        0.34707        0.35395        0.28834        0.32601        0.29093        0.30230        0.27937        0.24285        0.29736        0.29821        0.34261        0.33571        0.33493        0.32356        0.34494        0.30808        0.34309        0.31671        0.30837        0.27946        0.32583        0.31436        0.35988        0.32508        0.33153        0.34069        0.29247        0.27479        0.30809        0.24652        0.22411        0.33389        0.32146        0.35100        0.33803        0.35330        0.32298        0.33864        0.34380        0.26332        0.24897        0.31027        0.29784        0.30854        0.32236        0.34015        0.33763        0.30057        0.28865        0.33872        0.31834        0.30242        0.28400        0.32093        0.34748        0.39662        0.34345        0.30595        0.27813        0.30572        0.28056        0.29171        0.26595        0.25221        0.30934        0.33083        0.34093        0.34826        0.32004        0.28245        0.29146        0.26077        0.26623        0.25087        0.31853        0.28087        0.23392        0.31395        0.30674        0.26620        0.29043        0.20919        0.21510        0.25401        0.18845        0.25792        0.32407        0.23858        0.22251        0.31438        0.31706        0.32374        0.32068        0.25769        0.22908        0.18229        0.21381        0.18575        0.22368        0.22006        0.26055        0.32124        0.29673        0.22502        0.12906        0.06271       -0.02084       -0.11561       -0.64224
2.743095 2.714004 2.685072 2.656299 2.627685 2.599230 2.570934 2.542798 2.514820 2.487002 2.459343 2.431843 2.404502 2.377320 2.350297 2.323433 2.296728 2.270183 2.243797 2.217569 2.191501 2.165592 2.139842 2.114251 2.088819 2.063547 2.038433 2.013479 1.988683 1.964047 1.939570 1.915252 1.891093 1.867093 1.843252 1.819570 1.796048 1.772684 1.749480 1.726435 1.703549 1.680822 1.658254 1.635845 1.613595 1.591505 1.569573 1.547801 1.526187 1.504733 1.483438 1.699099 2.119298 1.680429 1.175726 1.039661 0.446666 0.843869 0.563668 0.845633 0.807608 0.815755 0.758271 0.745090 0.592351 0.552526 0.499215 0.430188 0.244224 0.371795 0.204139 0.328748 0.225355 0.203087 0.175464 0.038503 0.016546 0.015868 -0.067667 0.129495 0.227445 0.188331 0.174311 0.330537 0.184050 0.512115 0.617596 0.617586 0.633956 0.872092 0.829255 0.938964 0.921282 1.019486 0.983527 1.076332 1.161897 1.041770 1.149107 0.911758 0.925687 0.789198 0.651712 0.797986 0.697937 0.483290 0.328249 0.249705 0.259806 0.148405 0.124702 0.158355 0.102797 0.128006 0.073470 0.253762 0.358315 0.342905 0.476080 0.547341 0.421642 0.584658 0.723038 0.671053 0.731201 0.709514 0.719876 0.659036 0.600571 0.508662 0.378140 0.279097 0.220784 0.084196 0.118433 -0.092646 -0.045020 -0.063541 -0.075565 -0.021144 0.137158 0.068975 0.243501 0.306227 0.340233 0.395261 0.502801 0.479920 0.480657 0.494048 0.307938 0.292511 0.284970 0.087096 0.043988 -0.068479 -0.012640 -0.060117 -0.091752 -0.085037 0.035497 0.083367 0.120325 0.213717 0.228816 0.238797 0.295235 0.438069 0.392395 0.268970 0.241748 0.220425 0.153316 0.144419 0.113570 0.001179 0.020219 0.067990 -0.002199 0.060630 0.144946 0.146987 0.233614 0.247372 0.274238 0.196251 0.220134 0.145910 0.166582 0.119883 0.051443 -0.007780 0.013997 -0.002425 -0.042365 0.062403 0.022205 0.125292 0.151005 0.194774 0.192249 0.157579 0.160391 0.179855 0.129538 0.057746 0.000046 0.051739 0.026413 -0.017593 0.039118 0.039959 0.059393 0.054306 0.062708 0.069600 0.139625 0.148548 0.056166 0.055964 0.054728 0.016727 -0.023393 0.015071 0.018420 0.005637 0.014343 0.047013 0.058569 0.057936 0.084498 0.054380 0.141045 0.060088 0.027861 0.036619 -0.036366 0.001862 0.043101 0.002558 0.036685 0.051497 0.020799 0.117071 0.031591 0.004808 0.053347 0.005374 0.009849 0.006670 -0.023717 0.026862 0.006599 0.003031 0.053745 0.054757 0.055093 0.030607 0.035956 0.030812 0.022181 -0.018414 -0.024873 0.030859 0.049766 0.083067 0.085281 0.062843 0.077100 0.106993 0.057421 0.111078 0.086328 0.037695 0.035624 0.101704 0.074295 0.119671 0.095527 0.061765 0.130098 0.053948 0.017491 0.092934 -0.027826 -0.007355 0.110201 0.061732 0.151700 0.096121 0.100375 0.051545 0.087288 0.095345 -0.013197 -0.029524 0.061425 0.053975 0.046773 0.046965 0.108720 0.072893 0.000172 0.047708 0.067417 0.058413 0.051534 -0.010843 0.074199 0.081391 0.136891 0.042960 0.019539 -0.018992 0.011555 -0.012820 0.000171 -0.042452 -0.035044 0.010828 0.044427 0.018733 0.037480 0.000741 -0.038367 -0.043199 -0.026906 -0.068878 -0.059827 -0.003745 0.022367 -0.091094 0.013674 -0.034218 -0.065891 0.006409 -0.134771 -0.079787 -0.081914 -0.186428 -0.034918 0.050660 -0.049966 -0.154887 0.044123 0.064036 -0.037061 0.067787 -0.057029 0.249797 0.149027 0.222051 0.242968 0.262573 0.236351 0.292449 0.311359 0.340752 0.206950 0.231102 0.082204 -0.027103 -0.698670
0.072396 0.072899 0.074407 0.076920 0.080438 0.084959 0.090482 0.097006 0.104529 0.113047 0.122558 0.133056 0.144538 0.156995 0.170421 0.184807 0.200141 0.216410 0.233600 0.251693 0.270669 0.290505 0.311175 0.332650 0.354897 0.377878 0.401552 0.425873 0.450790 0.476248 0.502184 0.528533 0.555220 0.582168 0.609290 0.636495 0.663685 0.690754 0.717591 0.744076 0.770083 0.795481 0.820131 0.843886 0.866596 0.888103 0.908246 0.926856 0.943764 0.958796 0.971773 0.982520 0.990857 0.996607 0.999595 0.999650 0.996605 0.990301 0.980589 0.967327 0.950388 0.929660 0.905046 0.876469 0.843873 0.807226 0.766519 0.721774 0.673041 0.620402 0.563973 0.503906 0.440390 0.373652 0.303958 0.231616 0.156972 0.080414 0.002370 0.076694 0.156273 0.235829 0.314790 0.392554 0.468495 0.541966 0.612303 0.678835 0.740885 0.797782 0.848866 0.893497 0.931064 0.960993 0.982758 0.995890 0.999984 0.994714 0.979835 0.955200 0.920760 0.876578 0.822833 0.759826 0.687980 0.607851 0.520121 0.425601 0.325226 0.220052 0.111246 0.000077 0.112095 0.223834 0.333648 0.440004 0.541351 0.636145 0.722871 0.800070 0.866369 0.920503 0.961348 0.987943 0.999521 0.995531 0.975658 0.939843 0.888301 0.821528 0.740310 0.645723 0.539126 0.422154 0.296698 0.164883 0.029031 0.108363 0.244685 0.377247 0.503339 0.620282 0.725495 0.816553 0.891244 0.947639 0.984137 0.999530 0.993042 0.964369 0.913714 0.841798 0.749875 0.639718 0.513606 0.374283 0.224918 0.069029 0.089578 0.246908 0.398872 0.541393 0.670519 0.782537 0.874091 0.942288 0.984805 0.999978 0.986879 0.945379 0.876178 0.780826 0.661705 0.521993 0.365597 0.197055 0.021423 0.155874 0.329201 0.492892 0.641438 0.769680 0.872999 0.947493 0.990146 0.998965 0.973090 0.912872 0.819901 0.696999 0.548159 0.378441 0.193817 0.000984 0.192874 0.380348 0.554086 0.707083 0.832980 0.926344 0.982921 0.999855 0.975856 0.911312 0.808325 0.670690 0.503777 0.314362 0.110369 0.099438 0.305828 0.499500 0.671509 0.813691 0.919068 0.982223 0.999596 0.969729 0.893396 0.773643 0.615708 0.426833 0.215970 0.006627 0.229872 0.442401 0.633144 0.791923 0.910008 0.980632 0.999414 0.964669 0.877584 0.742240 0.565472 0.356573 0.126837 0.111017 0.343536 0.557291 0.739664 0.879603 0.968340 0.999969 0.971893 0.885073 0.744078 0.556899 0.334554 0.090485 0.160229 0.401781 0.618639 0.796548 0.923507 0.990617 0.992751 0.929008 0.802892 0.622181 0.398530 0.146762 0.116073 0.371824 0.602490 0.791507 0.924961 0.992665 0.988997 0.913427 0.770696 0.570596 0.327374 0.058770 0.215226 0.473849 0.697140 0.867499 0.971127 0.999205 0.948713 0.822821 0.630786 0.387359 0.111722 0.173970 0.446350 0.682747 0.863090 0.971672 0.998582 0.940693 0.802095 0.593914 0.333510 0.043113 0.252031 0.525830 0.753660 0.914611 0.993473 0.982262 0.881112 0.698462 0.450457 0.159612 0.147154 0.440975 0.693752 0.880870 0.983650 0.991308 0.902186 0.724127 0.473901 0.175740 0.140941 0.444386 0.703686 0.891962 0.989211 0.984538 0.877488 0.678320 0.407157 0.092068 0.233766 0.535507 0.780380 0.941295 0.999926 0.948912 0.792912 0.548328 0.241733 0.092937 0.418053 0.696524 0.896050 0.992957 0.975125 0.843632 0.612905 0.309288 0.031849 0.370136 0.664981 0.880441 0.989696 0.978516 0.847253 0.611090 0.298460 0.052267 0.397390 0.693298 0.902030 0.996223 0.962840 0.805139 0.542561 0.208507 0.153780
1.000000 1.000000 1.000000 1.000000 1.000000 1.000000 1.000000 1.000000 1.000000 1.000000 1.000000 1.000000 1.000000 1.000000 1.000000 1.000000 1.000000 1.000000 1.000000 1.000000 1.000000 1.000000 1.000000 1.000000 1.000000 1.000000 1.000000 1.000000 1.000000 1.000000 1.000000 1.000000 1.000000 1.000000 1.000000 1.000000 1.000000 1.000000 1.000000 1.000000 1.000000 1.000000 1.000000 1.000000 1.000000 1.000000 1.000000 1.000000 1.000000 1.000000 1.000000 1.000000 0.920378 0.920378 0.920378 0.912368 0.912368 0.912368 0.912368 0.912368 0.912368 0.912368 0.912368 0.912368 0.912368 0.912368 0.912368 0.912368 0.912368 0.912368 0.912368 0.912368 0.912368 0.912368 0.912368 0.912368 0.912368 0.912368 0.912368 0.912368 0.912368 0.912368 0.912368 0.912368 0.912368 0.912368 0.912368 0.912368 0.912368 0.912368 0.912368 0.912368 0.912368 0.912368 0.912368 0.912368 0.941488 0.942922 0.951120 0.950741 0.950145 0.948082 0.946899 0.946546 0.946444 0.946774 0.947480 0.948442 0.954689 0.955918 0.960350 0.962014 0.962769 0.963425 0.964093 0.963688 0.955058 0.954847 0.953469 0.952900 0.955426 0.954475 0.953687 0.954655 0.954540 0.955225 0.955147 0.954455 0.953373 0.952277 0.951336 0.950919 0.950711 0.951440 0.951856 0.953328 0.956624 0.957208 0.957339 0.957493 0.957596 0.958885 0.957860 0.957310 0.945293 0.945053 0.943931 0.944016 0.947206 0.947201 0.947776 0.948378 0.950089 0.950439 0.946052 0.944955 0.936959 0.934835 0.931748 0.926588 0.922077 0.923924 0.925386 0.926078 0.926497 0.921589 0.921540 0.919323 0.915956 0.918554 0.918364 0.919556 0.920932 0.919320 0.918343 0.917436 0.915571 0.906988 0.894241 0.893486 0.893717 0.898475 0.899591 0.898418 0.900664 0.889395 0.872401 0.853127 0.855590 0.859002 0.849816 0.846943 0.847235 0.848020 0.851730 0.844983 0.842762 0.838221 0.827722 0.820176 0.813284 0.807312 0.808942 0.802028 0.792647 0.790077 0.815433 0.808957 0.818261 0.822570 0.820605 0.818982 0.815056 0.808776 0.784193 0.783634 0.771041 0.749203 0.749670 0.748249 0.747494 0.744032 0.750391 0.740477 0.737816 0.720536 0.719354 0.723812 0.727071 0.724550 0.721704 0.726653 0.731190 0.714101 0.704609 0.693169 0.697915 0.701745 0.700714 0.702110 0.679817 0.653698 0.633792 0.651507 0.656887 0.628424 0.650343 0.663324 0.643826 0.641004 0.631123 0.633899 0.622521 0.625971 0.625807 0.626418 0.630095 0.645089 0.631544 0.627996 0.637486 0.641602 0.652940 0.653093 0.654531 0.619941 0.620715 0.643420 0.646844 0.625678 0.642880 0.632141 0.647865 0.683657 0.683723 0.645479 0.638333 0.622376 0.584699 0.575366 0.571241 0.581637 0.614101 0.608871 0.581007 0.555487 0.561114 0.573880 0.581837 0.582652 0.563276 0.570468 0.560291 0.538000 0.545539 0.556857 0.556443 0.543716 0.526972 0.532460 0.538100 0.554083 0.546387 0.508504 0.523279 0.520800 0.512534 0.456232 0.471026 0.456274 0.445804 0.402802 0.412608 0.421659 0.408685 0.329989 0.311461 0.311842 0.312796 0.303319 0.285615 0.261490 0.252085 0.219168 0.222716 0.210824 0.187021 0.187775 0.171400 0.161007 0.162092 0.128508 0.181427 0.242233 0.242718 0.242718 0.242718 0.242718 0.242718 0.242718 0.230701 0.230701 0.230701 0.230701 0.230701 0.230701 0.230701 0.230701 0.230701 0.255705 0.255705 0.255705 0.255705 0.255705 0.255705 0.255705 0.255705 0.255705 0.255705 0.255705 0.255705 0.255705 0.255705
0.000000 0.000000 0.000000 0.000000 0.000000 0.000000 0.000000 0.000000 0.000000 0.000000 0.000000 0.000000 0.000000 0.000000 0.000000 0.000000 0.000000 0.000000 0.000000 0.000000 0.000000 0.000000 0.000000 0.000000 0.000000 0.000000 0.000000 0.000000 0.000000 0.000000 0.000000 0.000000 0.000000 0.000000 0.000000 0.000000 0.000000 0.000000 0.000000 0.000000 0.000000 0.000000 0.000000 0.000000 0.000000 0.000000 0.000000 0.000000 0.000000 0.000000 0.000000 0.000000 0.180334 0.180334 0.180334 0.199007 0.199007 0.199007 0.199007 0.199007 0.199007 0.199007 0.199007 0.199007 0.199007 0.199007 0.199007 0.199007 0.199007 0.199007 0.199007 0.199007 0.199007 0.199007 0.199007 0.199007 0.199007 0.199007 0.199007 0.199007 0.199007 0.199007 0.199007 0.199007 0.199007 0.199007 0.199007 0.199007 0.199007 0.199007 0.199007 0.199007 0.199007 0.199007 0.199007 0.199007 0.225018 0.225018 0.225018 0.225018 0.225018 0.225018 0.225018 0.225018 0.225018 0.225018 0.225018 0.225018 0.225018 0.225018 0.225018 0.225018 0.225018 0.225018 0.225018 0.225018 0.225018 0.225018 0.225018 0.225018 0.225018 0.225018 0.225018 0.225018 0.225018 0.244339 0.244339 0.244339 0.244339 0.244339 0.244339 0.244339 0.244339 0.244339 0.244339 0.244339 0.244339 0.244339 0.244339 0.244339 0.244339 0.244339 0.244339 0.244339 0.244339 0.244339 0.244339 0.244339 0.251976 0.251976 0.251976 0.251976 0.251976 0.251976 0.251976 0.251976 0.251976 0.251976 0.251976 0.251976 0.251976 0.251976 0.251976 0.251976 0.251976 0.251976 0.251976 0.251976 0.264906 0.264906 0.264906 0.264906 0.264906 0.264906 0.264906 0.264906 0.264906 0.264906 0.264906 0.264906 0.264906 0.264906 0.264906 0.264906 0.264906 0.264906 0.264906 0.264906 0.264906 0.264906 0.264906 0.264906 0.264906 0.264906 0.264906 0.264906 0.264906 0.264906 0.264906 0.264906 0.264906 0.264906 0.264906 0.264906 0.264906 0.264906 0.264906 0.264906 0.264906 0.264906 0.264906 0.264906 0.264906 0.264906 0.264906 0.264906 0.264906 0.264906 0.264906 0.264906 0.264906 0.264906 0.264906 0.264906 0.264906 0.264906 0.264906 0.264906 0.264906 0.264906 0.256074 0.256074 0.256074 0.256074 0.256074 0.256074 0.256074 0.256074 0.256074 0.256074 0.256074 0.256074 0.256074 0.256074 0.269680 0.269680 0.269680 0.269680 0.269680 0.269680 0.269680 0.269680 0.269680 0.269680 0.269680 0.269680 0.264906 0.264906 0.264906 0.264906 0.264906 0.264906 0.264906 0.264906 0.264906 0.264906 0.264906 0.264906 0.269680 0.269680 0.269680 0.269680 0.269680 0.269680 0.269680 0.269680 0.269680 0.269680 0.269680 0.264906 0.264906 0.264906 0.264906 0.264906 0.264906 0.264906 0.264906 0.264906 0.264906 0.264906 0.256074 0.256074 0.256074 0.256074 0.256074 0.256074 0.256074 0.256074 0.256074 0.256074 0.256074 0.264906 0.264906 0.264906 0.264906 0.264906 0.264906 0.264906 0.264906 0.264906 0.264906 0.260378 0.260378 0.260378 0.260378 0.260378 0.260378 0.260378 0.260378 0.260378 0.260378 0.256074 0.256074 0.256074 0.256074 0.256074 0.256074 0.256074 0.256074 0.256074 0.256074 0.260378 0.260378 0.260378 0.260378 0.260378 0.260378 0.260378 0.260378 0.260378 0.256074 0.256074 0.256074 0.256074 0.256074 0.256074 0.256074 0.256074 0.256074 0.251976 0.251976 0.251976 0.251976 0.251976 0.251976 0.251976 0.251976 0.251976 0.251976 0.251976 0.251976 0.251976 0.251976
