# Output from CTFFind version 4.1.9, run on 2019-11-02 17:49:41
# Input file: stack16_bm3d_averaged_1_0.5_0_2500_half.mrc ; Number of micrographs: 1
# Pixel size: 3.000 Angstroms ; acceleration voltage: 300.0 keV ; spherical aberration: 0.00 mm ; amplitude contrast: 0.07
# Box size: 512 pixels ; min. res.: 30.0 Angstroms ; max. res.: 5.0 Angstroms ; min. def.: 5000.0 um; max. def. 50000.0 um; num. frames averaged: 1
# 6 lines per micrograph: #1 - spatial frequency (1/Angstroms); #2 - 1D rotational average of spectrum (assuming no astigmatism); #3 - 1D rotational average of spectrum; #4 - CTF fit; #5 - cross-correlation between spectrum and CTF fit; #6 - 2sigma of expected cross correlation of noise
0.000000 0.000651 0.001302 0.001953 0.002604 0.003255 0.003906 0.004557 0.005208 0.005859 0.006510 0.007161 0.007812 0.008464 0.009115 0.009766 0.010417 0.011068 0.011719 0.012370 0.013021 0.013672 0.014323 0.014974 0.015625 0.016276 0.016927 0.017578 0.018229 0.018880 0.019531 0.020182 0.020833 0.021484 0.022135 0.022786 0.023438 0.024089 0.024740 0.025391 0.026042 0.026693 0.027344 0.027995 0.028646 0.029297 0.029948 0.030599 0.031250 0.031901 0.032552 0.033203 0.033854 0.034505 0.035156 0.035807 0.036458 0.037109 0.037760 0.038411 0.039062 0.039714 0.040365 0.041016 0.041667 0.042318 0.042969 0.043620 0.044271 0.044922 0.045573 0.046224 0.046875 0.047526 0.048177 0.048828 0.049479 0.050130 0.050781 0.051432 0.052083 0.052734 0.053385 0.054036 0.054688 0.055339 0.055990 0.056641 0.057292 0.057943 0.058594 0.059245 0.059896 0.060547 0.061198 0.061849 0.062500 0.063151 0.063802 0.064453 0.065104 0.065755 0.066406 0.067057 0.067708 0.068359 0.069010 0.069661 0.070312 0.070964 0.071615 0.072266 0.072917 0.073568 0.074219 0.074870 0.075521 0.076172 0.076823 0.077474 0.078125 0.078776 0.079427 0.080078 0.080729 0.081380 0.082031 0.082682 0.083333 0.083984 0.084635 0.085286 0.085938 0.086589 0.087240 0.087891 0.088542 0.089193 0.089844 0.090495 0.091146 0.091797 0.092448 0.093099 0.093750 0.094401 0.095052 0.095703 0.096354 0.097005 0.097656 0.098307 0.098958 0.099609 0.100260 0.100911 0.101562 0.102214 0.102865 0.103516 0.104167 0.104818 0.105469 0.106120 0.106771 0.107422 0.108073 0.108724 0.109375 0.110026 0.110677 0.111328 0.111979 0.112630 0.113281 0.113932 0.114583 0.115234 0.115885 0.116536 0.117188 0.117839 0.118490 0.119141 0.119792 0.120443 0.121094 0.121745 0.122396 0.123047 0.123698 0.124349 0.125000 0.125651 0.126302 0.126953 0.127604 0.128255 0.128906 0.129557 0.130208 0.130859 0.131510 0.132161 0.132812 0.133464 0.134115 0.134766 0.135417 0.136068 0.136719 0.137370 0.138021 0.138672 0.139323 0.139974 0.140625 0.141276 0.141927 0.142578 0.143229 0.143880 0.144531 0.145182 0.145833 0.146484 0.147135 0.147786 0.148438 0.149089 0.149740 0.150391 0.151042 0.151693 0.152344 0.152995 0.153646 0.154297 0.154948 0.155599 0.156250 0.156901 0.157552 0.158203 0.158854 0.159505 0.160156 0.160807 0.161458 0.162109 0.162760 0.163411 0.164062 0.164714 0.165365 0.166016 0.166667 0.167318 0.167969 0.168620 0.169271 0.169922 0.170573 0.171224 0.171875 0.172526 0.173177 0.173828 0.174479 0.175130 0.175781 0.176432 0.177083 0.177734 0.178385 0.179036 0.179688 0.180339 0.180990 0.181641 0.182292 0.182943 0.183594 0.184245 0.184896 0.185547 0.186198 0.186849 0.187500 0.188151 0.188802 0.189453 0.190104 0.190755 0.191406 0.192057 0.192708 0.193359 0.194010 0.194661 0.195312 0.195964 0.196615 0.197266 0.197917 0.198568 0.199219 0.199870 0.200521 0.201172 0.201823 0.202474 0.203125 0.203776 0.204427 0.205078 0.205729 0.206380 0.207031 0.207682 0.208333 0.208984 0.209635 0.210286 0.210938 0.211589 0.212240 0.212891 0.213542 0.214193 0.214844 0.215495 0.216146 0.216797 0.217448 0.218099 0.218750 0.219401 0.220052 0.220703 0.221354 0.222005 0.222656 0.223307 0.223958 0.224609 0.225260 0.225911 0.226562 0.227214 0.227865 0.228516 0.229167 0.229818 0.230469 0.231120 0.231771 0.232422 0.233073 0.233724 0.234375 0.235026 0.235677
       0.34377        0.34377        0.34377        0.34377        0.34377        0.34377        0.34377        0.34377        0.34377        0.34377        0.34377        0.34377        0.34377        0.34377        0.34377        0.34377        0.34377        0.34377        0.34377        0.34377        0.34377        0.34377        0.34377        0.34377        0.34377        0.34377        0.34377        0.34377        0.34377        0.34377        0.34377        0.34377        0.34377        0.34377        0.34377        0.34377        0.34377        0.34377        0.34377        0.34377        0.34377        0.34377        0.34377        0.34377        0.34377        0.34377        0.34377        0.34377        0.34377        0.34377        0.34377        0.48980        0.70516        0.45638       -0.10929       -0.41422       -0.57093       -0.66006       -0.74582       -0.76197       -0.86910       -0.91352       -0.76119       -0.92470       -0.87142       -1.02441       -1.09493       -0.98899       -0.96069       -0.88329       -0.86387       -0.75163       -0.64138       -0.49979       -0.42252       -0.21801       -0.11918       -0.02376        0.20403        0.24423        0.30906        0.38697        0.44097        0.51749        0.58211        0.59691        0.59458        0.50323        0.54657        0.48623        0.39035        0.32482        0.20830        0.17514        0.10344       -0.06333       -0.11265       -0.09242        0.00922       -0.01673        0.00883        0.03041        0.21230        0.22052        0.39089        0.45882        0.56416        0.70306        0.76227        0.72780        0.70919        0.70733        0.58708        0.54494        0.40076        0.27366        0.19355        0.14336        0.06620        0.02107        0.02436        0.06177        0.07961        0.27307        0.41798        0.50413        0.58673        0.64020        0.70742        0.66234        0.65179        0.67306        0.61141        0.47994        0.28437        0.23227        0.20530        0.13187        0.04960        0.09421        0.12366        0.24965        0.33939        0.41570        0.50202        0.54167        0.66538        0.61097        0.55608        0.50717        0.36747        0.21117        0.21212        0.15328        0.11225        0.11909        0.21383        0.25581        0.36354        0.44511        0.44092        0.56978        0.51360        0.44523        0.45226        0.38654        0.32438        0.27810        0.22142        0.23901        0.21028        0.21458        0.32702        0.44893        0.48926        0.48032        0.55167        0.49612        0.45672        0.39569        0.29176        0.22405        0.23303        0.24772        0.26852        0.27033        0.32529        0.44263        0.49772        0.48740        0.45900        0.41944        0.38569        0.36276        0.24945        0.23161        0.24845        0.29578        0.35401        0.36504        0.39604        0.40810        0.44617        0.37164        0.34862        0.31306        0.30270        0.26589        0.26107        0.31404        0.34656        0.41709        0.41799        0.39988        0.39557        0.40897        0.35158        0.28852        0.29036        0.27434        0.31064        0.36126        0.36484        0.41545        0.36243        0.36687        0.39018        0.34541        0.31485        0.27990        0.29813        0.34088        0.33489        0.32814        0.37757        0.39725        0.33777        0.35410        0.29459        0.30889        0.29151        0.28226        0.30092        0.33073        0.38310        0.36769        0.34894        0.33063        0.28787        0.27804        0.29725        0.28214        0.31422        0.37035        0.39460        0.33879        0.31845        0.31362        0.29759        0.28215        0.27907        0.29954        0.34269        0.33702        0.34723        0.31915        0.34443        0.32570        0.28957        0.31504        0.32144        0.32934        0.33276        0.31818        0.31712        0.30906        0.32956        0.31603        0.33498        0.39235        0.34066        0.36064        0.32432        0.31681        0.28913        0.31142        0.28956        0.31127        0.31841        0.35340        0.36555        0.31970        0.32152        0.31237        0.29481        0.29478        0.28993        0.33746        0.34060        0.36006        0.33871        0.32794        0.25766        0.27003        0.31303        0.35304        0.31406        0.30158        0.29095        0.29014        0.32356        0.30546        0.30439        0.33286        0.34564        0.31708        0.24609        0.28724        0.28175        0.28877        0.31946        0.32138        0.34817        0.34209        0.27962        0.26417        0.29154        0.26336        0.28721        0.27465        0.24655        0.26806        0.24426        0.27831        0.27518        0.27671        0.27054        0.31415        0.32906        0.31936        0.29888        0.31746        0.24952        0.27277        0.25425        0.33672        0.33955        0.23677        0.26430        0.27827        0.24975        0.24889        0.29828        0.22822        0.14474        0.16817        0.25543        0.28015        0.23257        0.15383        0.03080       -0.39397       -0.74067
3.166153 3.126414 3.086932 3.047706 3.008737 2.970025 2.931569 2.893369 2.855427 2.817741 2.780311 2.743138 2.706222 2.669562 2.633159 2.597013 2.561123 2.525490 2.490113 2.454993 2.420130 2.385523 2.351173 2.317079 2.283242 2.249662 2.216338 2.183271 2.150460 2.117906 2.085609 2.053568 2.021784 1.990257 1.958986 1.927972 1.897214 1.866713 1.836468 1.806481 1.776749 1.747275 1.718057 1.689095 1.660390 1.631942 1.603751 1.575816 1.548137 1.520716 1.493550 1.548963 1.742835 1.650328 0.997296 0.706283 0.498404 0.453742 0.338471 0.281870 0.215625 0.034638 0.209803 0.092828 0.004684 -0.050858 -0.189909 -0.144518 -0.084369 -0.085307 -0.094668 0.015413 0.036040 0.241283 0.155603 0.372469 0.452906 0.483145 0.725779 0.709277 0.717385 0.848526 0.832309 0.863933 0.931114 0.901215 0.949912 0.758900 0.842067 0.846373 0.621808 0.610280 0.457882 0.437042 0.386811 0.202680 0.113010 0.093815 0.198948 0.140488 0.184245 0.103258 0.310061 0.282970 0.451378 0.412173 0.577467 0.642481 0.765536 0.686591 0.658562 0.668018 0.529374 0.499266 0.362953 0.283252 0.105742 0.133791 -0.012369 -0.028921 -0.052366 -0.042703 -0.015281 0.021598 0.262046 0.321610 0.370942 0.389799 0.460875 0.489677 0.437028 0.486920 0.381145 0.367742 0.132324 0.040181 0.047062 -0.024203 -0.147460 -0.066292 -0.133843 -0.006161 0.111942 0.135210 0.232850 0.237984 0.367611 0.439744 0.333601 0.364055 0.260294 0.103183 0.023768 0.027064 -0.014848 -0.023844 -0.020492 0.084065 0.110271 0.243828 0.217067 0.287542 0.354944 0.219854 0.229538 0.202846 0.119286 0.066069 0.041621 0.012879 0.026920 -0.029461 0.017221 0.175362 0.212804 0.241266 0.269932 0.240125 0.245495 0.156647 0.111561 -0.018722 -0.008031 0.002134 0.027352 0.015845 0.037576 0.116644 0.196513 0.217524 0.218714 0.136040 0.146161 0.079513 0.055125 -0.057203 -0.012065 -0.008719 0.054653 0.066087 0.081586 0.154200 0.085222 0.173336 0.069530 0.054499 0.043589 0.027624 0.001180 0.012424 0.057846 0.083753 0.138821 0.140350 0.074370 0.135036 0.102841 0.021125 0.006932 0.004522 -0.005981 0.059901 0.062419 0.099046 0.097921 0.081981 0.064789 0.084138 0.033851 0.012658 -0.010967 0.014855 0.058769 0.032685 0.042572 0.083199 0.087507 0.058344 0.033979 0.005699 0.015570 -0.004615 -0.013520 0.015039 0.052447 0.103851 0.061123 0.060075 0.041766 -0.014222 -0.000161 0.013677 0.010446 0.025917 0.106143 0.057379 0.023601 0.044029 0.003131 0.025259 -0.012958 -0.005678 0.023071 0.065936 0.037956 0.043826 0.031000 0.052950 0.028787 -0.004233 0.027090 0.043003 0.034085 0.029227 0.027989 0.006955 -0.005019 0.027911 0.011557 0.043399 0.082324 0.049314 0.024963 0.017781 0.002844 -0.001828 0.006990 0.001951 0.013186 -0.001987 0.088072 0.056218 0.034670 0.038892 0.003634 0.011139 0.012656 -0.006857 0.059417 0.063463 0.089506 0.051866 0.052148 -0.026132 0.018837 0.037355 0.080912 0.025145 0.039492 0.013601 0.008046 0.048090 0.043547 0.033491 0.070706 0.074382 0.063778 -0.019114 0.019085 0.042423 0.027631 0.046123 0.069464 0.083371 0.074330 0.016675 0.002297 0.016077 -0.002627 0.016687 -0.014350 -0.031862 -0.004978 -0.049203 0.000918 -0.008609 0.005331 -0.067670 0.000490 0.018783 0.005947 -0.026295 0.038823 -0.089811 -0.022845 -0.034351 0.037837 0.066195 -0.097788 -0.010154 0.043480 0.020915 -0.043172 0.047196 0.031466 0.004038 -0.047704 0.082218 0.243778 0.209372 0.121060 0.030081 -0.657473
0.072396 0.073046 0.074994 0.078241 0.082785 0.088625 0.095759 0.104183 0.113894 0.124887 0.137154 0.150689 0.165480 0.181515 0.198778 0.217252 0.236914 0.257738 0.279694 0.302746 0.326854 0.351970 0.378042 0.405009 0.432802 0.461346 0.490555 0.520337 0.550586 0.581189 0.612022 0.642949 0.673825 0.704492 0.734780 0.764510 0.793490 0.821517 0.848377 0.873848 0.897696 0.919681 0.939553 0.957059 0.971940 0.983935 0.992782 0.998221 0.999998 0.997863 0.991579 0.980921 0.965684 0.945679 0.920747 0.890754 0.855600 0.815223 0.769601 0.718759 0.662771 0.601764 0.535923 0.465492 0.390778 0.312156 0.230064 0.145009 0.057567 0.031621 0.121851 0.212356 0.302314 0.390850 0.477049 0.559958 0.638601 0.711988 0.779128 0.839045 0.890790 0.933458 0.966210 0.988282 0.999011 0.997850 0.984383 0.958349 0.919650 0.868372 0.804796 0.729403 0.642889 0.546163 0.440349 0.326780 0.206992 0.082707 0.044184 0.171647 0.297532 0.419609 0.535606 0.643252 0.740325 0.824700 0.894402 0.947657 0.982945 0.999049 0.995103 0.970635 0.925601 0.860414 0.775963 0.673621 0.555239 0.423135 0.280053 0.129134 0.026158 0.182098 0.334790 0.480256 0.614548 0.733857 0.834627 0.913672 0.968294 0.996380 0.996510 0.968026 0.911102 0.826781 0.716986 0.584508 0.432961 0.266708 0.090747 0.089414 0.267928 0.438790 0.596043 0.733992 0.847416 0.931793 0.983492 0.999961 0.979867 0.923215 0.831404 0.707245 0.554910 0.379831 0.188535 0.011577 0.212494 0.405912 0.583581 0.737654 0.861059 0.947846 0.993507 0.995236 0.952146 0.865381 0.738156 0.575697 0.385064 0.174891 0.044975 0.263915 0.471040 0.655739 0.808240 0.920146 0.984945 0.998423 0.958993 0.867881 0.729172 0.549694 0.338744 0.107654 0.130783 0.362995 0.575411 0.755251 0.891328 0.974795 0.999762 0.963776 0.868107 0.717796 0.521481 0.290966 0.040573 0.213710 0.455228 0.667753 0.836601 0.949680 0.998426 0.978517 0.890330 0.739075 0.534585 0.290776 0.024753 0.244331 0.496636 0.713099 0.876913 0.974883 0.998569 0.945099 0.817579 0.625045 0.381927 0.107064 0.177695 0.449191 0.684835 0.864522 0.972404 0.998379 0.939139 0.798672 0.588135 0.325096 0.032169 0.264870 0.539306 0.765912 0.923309 0.996065 0.976328 0.864786 0.670856 0.412049 0.112497 0.199190 0.492624 0.738589 0.912006 0.994579 0.976846 0.859404 0.653136 0.378365 0.062999 0.260223 0.557066 0.795449 0.948968 0.999943 0.941596 0.779099 0.529335 0.219308 0.116646 0.440566 0.715159 0.908121 0.996060 0.967478 0.824450 0.582740 0.270256 0.076007 0.414252 0.702899 0.905735 0.996579 0.962826 0.807397 0.548748 0.218922 0.140288 0.482510 0.762770 0.943473 0.999584 0.922300 0.720631 0.420624 0.062209 0.305949 0.633001 0.872948 0.991236 0.969917 0.810608 0.534731 0.180887 0.200352 0.553556 0.826488 0.977938 0.984134 0.842715 0.573592 0.216435 0.174961 0.540638 0.823654 0.979053 0.981202 0.828294 0.543177 0.170238 0.231262 0.596493 0.865516 0.993249 0.957267 0.762031 0.438727 0.040604 0.365573 0.710652 0.934872 0.998440 0.888856 0.623698 0.248160 0.172335 0.563398 0.854757 0.993067 0.951914 0.737207 0.386770 0.035971 0.453233 0.787102 0.974191 0.977901 0.795938 0.461457 0.037406 0.395034 0.751894 0.962767 0.984953 0.812462 0.477957 0.046971 0.394622 0.757580 0.967423 0.979948 0.790940 0.437837 0.007266 0.452019 0.802865 0.984841 0.957865 0.726011 0.337469 0.125019 0.561524
1.000000 1.000000 1.000000 1.000000 1.000000 1.000000 1.000000 1.000000 1.000000 1.000000 1.000000 1.000000 1.000000 1.000000 1.000000 1.000000 1.000000 1.000000 1.000000 1.000000 1.000000 1.000000 1.000000 1.000000 1.000000 1.000000 1.000000 1.000000 1.000000 1.000000 1.000000 1.000000 1.000000 1.000000 1.000000 1.000000 1.000000 1.000000 1.000000 1.000000 1.000000 1.000000 1.000000 1.000000 1.000000 1.000000 1.000000 1.000000 1.000000 1.000000 1.000000 1.000000 0.941711 0.941711 0.941711 0.941711 0.941711 0.941711 0.941711 0.941711 0.941711 0.941711 0.941711 0.941711 0.941711 0.941711 0.941711 0.941711 0.941711 0.941711 0.941711 0.941711 0.941711 0.941711 0.941711 0.941711 0.941711 0.941711 0.941711 0.941711 0.941711 0.941711 0.941711 0.941711 0.941711 0.922058 0.923547 0.926555 0.927642 0.927601 0.927136 0.926808 0.927017 0.928733 0.931062 0.947716 0.949891 0.950584 0.951894 0.952317 0.955172 0.953956 0.956887 0.965679 0.964595 0.965000 0.965533 0.967038 0.967417 0.967398 0.966029 0.966325 0.965909 0.965046 0.964179 0.963869 0.963573 0.965209 0.965553 0.965499 0.966810 0.966715 0.966408 0.962868 0.961502 0.962815 0.964548 0.964121 0.970259 0.970496 0.979177 0.979932 0.978430 0.978320 0.978420 0.978541 0.967755 0.961326 0.955632 0.944348 0.934876 0.932823 0.935166 0.936194 0.934906 0.930646 0.929750 0.927542 0.922953 0.922211 0.922292 0.923749 0.920348 0.916652 0.899403 0.898627 0.900694 0.899604 0.897584 0.889976 0.885807 0.886416 0.889453 0.892444 0.889624 0.891780 0.887447 0.888556 0.889080 0.891107 0.894378 0.890734 0.890087 0.886274 0.882666 0.877973 0.879412 0.865367 0.868486 0.862165 0.852262 0.844175 0.847371 0.857319 0.865518 0.873663 0.872484 0.872503 0.871839 0.866706 0.867139 0.860396 0.861478 0.867067 0.873404 0.868797 0.866198 0.870875 0.868937 0.872502 0.874238 0.869870 0.868159 0.858615 0.858732 0.861486 0.878808 0.877903 0.866852 0.862762 0.854376 0.861069 0.864302 0.863681 0.865164 0.856093 0.857224 0.847690 0.836816 0.837998 0.842548 0.837547 0.839367 0.836812 0.839841 0.842117 0.840516 0.834896 0.833710 0.840207 0.816913 0.824948 0.828413 0.824637 0.828680 0.821040 0.815093 0.810491 0.810146 0.808953 0.818286 0.817119 0.786586 0.772564 0.780685 0.765043 0.756925 0.751768 0.750901 0.712230 0.688511 0.661380 0.655912 0.648739 0.650051 0.649060 0.641232 0.624945 0.610867 0.611701 0.628801 0.628953 0.596057 0.596109 0.589685 0.584402 0.579386 0.580434 0.578571 0.583588 0.588793 0.555309 0.551446 0.557118 0.531612 0.531816 0.530202 0.521100 0.492626 0.499237 0.496836 0.513947 0.530480 0.501566 0.498520 0.503287 0.519675 0.531944 0.531807 0.517554 0.499085 0.501820 0.477550 0.459888 0.476382 0.491614 0.479065 0.495310 0.487270 0.517049 0.512261 0.504420 0.530084 0.549065 0.547510 0.524449 0.537571 0.513608 0.516815 0.496950 0.457533 0.467450 0.456798 0.409198 0.398751 0.414301 0.399656 0.397871 0.371814 0.372907 0.350635 0.316548 0.330068 0.323683 0.291224 0.253341 0.254358 0.256629 0.224619 0.197176 0.216870 0.166545 0.159127 0.176561 0.186819 0.193895 0.180855 0.202976 0.202976 0.202976 0.202976 0.202976 0.202976 0.202976 0.202976 0.202976 0.202976 0.202976 0.202976 0.202976 0.202976 0.228909 0.228909 0.228909 0.228909 0.228909 0.228909 0.228909 0.228909 0.228909 0.228909 0.228909 0.228909
0.000000 0.000000 0.000000 0.000000 0.000000 0.000000 0.000000 0.000000 0.000000 0.000000 0.000000 0.000000 0.000000 0.000000 0.000000 0.000000 0.000000 0.000000 0.000000 0.000000 0.000000 0.000000 0.000000 0.000000 0.000000 0.000000 0.000000 0.000000 0.000000 0.000000 0.000000 0.000000 0.000000 0.000000 0.000000 0.000000 0.000000 0.000000 0.000000 0.000000 0.000000 0.000000 0.000000 0.000000 0.000000 0.000000 0.000000 0.000000 0.000000 0.000000 0.000000 0.000000 0.209657 0.209657 0.209657 0.209657 0.209657 0.209657 0.209657 0.209657 0.209657 0.209657 0.209657 0.209657 0.209657 0.209657 0.209657 0.209657 0.209657 0.209657 0.209657 0.209657 0.209657 0.209657 0.209657 0.209657 0.209657 0.209657 0.209657 0.209657 0.209657 0.209657 0.209657 0.209657 0.209657 0.244339 0.244339 0.244339 0.244339 0.244339 0.244339 0.244339 0.244339 0.244339 0.244339 0.244339 0.244339 0.244339 0.244339 0.244339 0.244339 0.244339 0.244339 0.244339 0.244339 0.244339 0.244339 0.244339 0.244339 0.244339 0.260378 0.260378 0.260378 0.260378 0.260378 0.260378 0.260378 0.260378 0.260378 0.260378 0.260378 0.260378 0.260378 0.260378 0.260378 0.260378 0.260378 0.260378 0.260378 0.260378 0.269680 0.269680 0.269680 0.269680 0.269680 0.269680 0.269680 0.269680 0.269680 0.269680 0.269680 0.269680 0.269680 0.269680 0.269680 0.269680 0.269680 0.269680 0.269680 0.269680 0.269680 0.269680 0.269680 0.269680 0.269680 0.269680 0.269680 0.269680 0.269680 0.269680 0.269680 0.269680 0.269680 0.280056 0.280056 0.280056 0.280056 0.280056 0.280056 0.280056 0.280056 0.280056 0.280056 0.280056 0.280056 0.280056 0.280056 0.280056 0.280056 0.280056 0.280056 0.280056 0.280056 0.280056 0.280056 0.280056 0.280056 0.280056 0.280056 0.280056 0.274721 0.274721 0.274721 0.274721 0.274721 0.274721 0.274721 0.274721 0.274721 0.274721 0.274721 0.274721 0.274721 0.285714 0.285714 0.285714 0.285714 0.285714 0.285714 0.285714 0.285714 0.285714 0.285714 0.285714 0.280056 0.280056 0.280056 0.280056 0.280056 0.280056 0.280056 0.280056 0.280056 0.280056 0.280056 0.274721 0.274721 0.274721 0.274721 0.274721 0.274721 0.274721 0.274721 0.274721 0.274721 0.274721 0.280056 0.280056 0.280056 0.280056 0.280056 0.280056 0.280056 0.280056 0.280056 0.280056 0.285714 0.285714 0.285714 0.285714 0.285714 0.285714 0.285714 0.285714 0.285714 0.269680 0.269680 0.269680 0.269680 0.269680 0.269680 0.269680 0.269680 0.269680 0.269680 0.274721 0.274721 0.274721 0.274721 0.274721 0.274721 0.274721 0.274721 0.274721 0.285714 0.285714 0.285714 0.285714 0.285714 0.285714 0.285714 0.285714 0.264906 0.264906 0.264906 0.264906 0.264906 0.264906 0.264906 0.264906 0.264906 0.274721 0.274721 0.274721 0.274721 0.274721 0.274721 0.274721 0.274721 0.269680 0.269680 0.269680 0.269680 0.269680 0.269680 0.269680 0.269680 0.269680 0.269680 0.269680 0.269680 0.269680 0.269680 0.269680 0.269680 0.280056 0.280056 0.280056 0.280056 0.280056 0.280056 0.280056 0.260378 0.260378 0.260378 0.260378 0.260378 0.260378 0.260378 0.260378 0.269680 0.269680 0.269680 0.269680 0.269680 0.269680 0.269680 0.264906 0.264906 0.264906 0.264906 0.264906 0.264906 0.264906 0.264906 0.264906 0.264906 0.264906 0.264906 0.264906 0.264906 0.260378 0.260378 0.260378 0.260378 0.260378 0.260378 0.260378 0.260378 0.260378 0.260378 0.260378 0.260378
