# Output from CTFFind version 4.1.9, run on 2019-11-02 17:58:58
# Input file: stack11_bm3d_averaged_1_1.75_0_2000_half.mrc ; Number of micrographs: 1
# Pixel size: 3.000 Angstroms ; acceleration voltage: 300.0 keV ; spherical aberration: 0.00 mm ; amplitude contrast: 0.07
# Box size: 512 pixels ; min. res.: 30.0 Angstroms ; max. res.: 5.0 Angstroms ; min. def.: 5000.0 um; max. def. 50000.0 um; num. frames averaged: 1
# 6 lines per micrograph: #1 - spatial frequency (1/Angstroms); #2 - 1D rotational average of spectrum (assuming no astigmatism); #3 - 1D rotational average of spectrum; #4 - CTF fit; #5 - cross-correlation between spectrum and CTF fit; #6 - 2sigma of expected cross correlation of noise
0.000000 0.000651 0.001302 0.001953 0.002604 0.003255 0.003906 0.004557 0.005208 0.005859 0.006510 0.007161 0.007812 0.008464 0.009115 0.009766 0.010417 0.011068 0.011719 0.012370 0.013021 0.013672 0.014323 0.014974 0.015625 0.016276 0.016927 0.017578 0.018229 0.018880 0.019531 0.020182 0.020833 0.021484 0.022135 0.022786 0.023438 0.024089 0.024740 0.025391 0.026042 0.026693 0.027344 0.027995 0.028646 0.029297 0.029948 0.030599 0.031250 0.031901 0.032552 0.033203 0.033854 0.034505 0.035156 0.035807 0.036458 0.037109 0.037760 0.038411 0.039062 0.039714 0.040365 0.041016 0.041667 0.042318 0.042969 0.043620 0.044271 0.044922 0.045573 0.046224 0.046875 0.047526 0.048177 0.048828 0.049479 0.050130 0.050781 0.051432 0.052083 0.052734 0.053385 0.054036 0.054688 0.055339 0.055990 0.056641 0.057292 0.057943 0.058594 0.059245 0.059896 0.060547 0.061198 0.061849 0.062500 0.063151 0.063802 0.064453 0.065104 0.065755 0.066406 0.067057 0.067708 0.068359 0.069010 0.069661 0.070312 0.070964 0.071615 0.072266 0.072917 0.073568 0.074219 0.074870 0.075521 0.076172 0.076823 0.077474 0.078125 0.078776 0.079427 0.080078 0.080729 0.081380 0.082031 0.082682 0.083333 0.083984 0.084635 0.085286 0.085938 0.086589 0.087240 0.087891 0.088542 0.089193 0.089844 0.090495 0.091146 0.091797 0.092448 0.093099 0.093750 0.094401 0.095052 0.095703 0.096354 0.097005 0.097656 0.098307 0.098958 0.099609 0.100260 0.100911 0.101562 0.102214 0.102865 0.103516 0.104167 0.104818 0.105469 0.106120 0.106771 0.107422 0.108073 0.108724 0.109375 0.110026 0.110677 0.111328 0.111979 0.112630 0.113281 0.113932 0.114583 0.115234 0.115885 0.116536 0.117188 0.117839 0.118490 0.119141 0.119792 0.120443 0.121094 0.121745 0.122396 0.123047 0.123698 0.124349 0.125000 0.125651 0.126302 0.126953 0.127604 0.128255 0.128906 0.129557 0.130208 0.130859 0.131510 0.132161 0.132812 0.133464 0.134115 0.134766 0.135417 0.136068 0.136719 0.137370 0.138021 0.138672 0.139323 0.139974 0.140625 0.141276 0.141927 0.142578 0.143229 0.143880 0.144531 0.145182 0.145833 0.146484 0.147135 0.147786 0.148438 0.149089 0.149740 0.150391 0.151042 0.151693 0.152344 0.152995 0.153646 0.154297 0.154948 0.155599 0.156250 0.156901 0.157552 0.158203 0.158854 0.159505 0.160156 0.160807 0.161458 0.162109 0.162760 0.163411 0.164062 0.164714 0.165365 0.166016 0.166667 0.167318 0.167969 0.168620 0.169271 0.169922 0.170573 0.171224 0.171875 0.172526 0.173177 0.173828 0.174479 0.175130 0.175781 0.176432 0.177083 0.177734 0.178385 0.179036 0.179688 0.180339 0.180990 0.181641 0.182292 0.182943 0.183594 0.184245 0.184896 0.185547 0.186198 0.186849 0.187500 0.188151 0.188802 0.189453 0.190104 0.190755 0.191406 0.192057 0.192708 0.193359 0.194010 0.194661 0.195312 0.195964 0.196615 0.197266 0.197917 0.198568 0.199219 0.199870 0.200521 0.201172 0.201823 0.202474 0.203125 0.203776 0.204427 0.205078 0.205729 0.206380 0.207031 0.207682 0.208333 0.208984 0.209635 0.210286 0.210938 0.211589 0.212240 0.212891 0.213542 0.214193 0.214844 0.215495 0.216146 0.216797 0.217448 0.218099 0.218750 0.219401 0.220052 0.220703 0.221354 0.222005 0.222656 0.223307 0.223958 0.224609 0.225260 0.225911 0.226562 0.227214 0.227865 0.228516 0.229167 0.229818 0.230469 0.231120 0.231771 0.232422 0.233073 0.233724 0.234375 0.235026 0.235677
       0.31637        0.31637        0.31637        0.31637        0.31637        0.31637        0.31637        0.31637        0.31637        0.31637        0.31637        0.31637        0.31637        0.31637        0.31637        0.31637        0.31637        0.31637        0.31637        0.31637        0.31637        0.31637        0.31637        0.31637        0.31637        0.31637        0.31637        0.31637        0.31637        0.31637        0.31637        0.31637        0.31637        0.31637        0.31637        0.31637        0.31637        0.31637        0.31637        0.31637        0.31637        0.31637        0.31637        0.31637        0.31637        0.31637        0.31637        0.31637        0.31637        0.31637        0.31637        0.68255        0.86714        0.52144        0.08706       -0.06453       -0.42693       -0.20478       -0.29751       -0.11955       -0.07720       -0.11962       -0.06962       -0.20864       -0.23622       -0.25750       -0.33210       -0.33973       -0.49065       -0.38262       -0.46517       -0.45009       -0.42093       -0.46751       -0.53940       -0.56180       -0.58701       -0.62104       -0.57823       -0.41453       -0.37791       -0.33138       -0.31546       -0.21119       -0.19827        0.02018        0.07442        0.10629        0.22464        0.37020        0.44237        0.51422        0.55775        0.55352        0.57026        0.69544        0.81137        0.74004        0.73305        0.66707        0.57737        0.48211        0.40432        0.49385        0.37539        0.20208        0.07642        0.04461        0.01138       -0.06156       -0.03898       -0.01997       -0.06961       -0.00880       -0.02130        0.21243        0.25109        0.28930        0.42649        0.45748        0.40212        0.53381        0.62486        0.69510        0.76267        0.68674        0.65598        0.69509        0.58296        0.49913        0.41807        0.28910        0.19160        0.15649        0.11053        0.03593        0.01091        0.00232        0.07425        0.13192        0.20523        0.27894        0.39662        0.41748        0.50416        0.59962        0.63231        0.61597        0.62819        0.55323        0.44528        0.44821        0.35217        0.22693        0.18327        0.14635        0.10982        0.12252        0.07228        0.10342        0.22854        0.26401        0.34391        0.35451        0.44778        0.51116        0.53731        0.54813        0.46897        0.42871        0.38909        0.36662        0.30523        0.25106        0.20404        0.18716        0.16517        0.19495        0.17775        0.27027        0.33311        0.36711        0.42411        0.45999        0.47595        0.43878        0.39137        0.41008        0.37180        0.28475        0.26886        0.22475        0.21398        0.19361        0.21552        0.22943        0.32682        0.37213        0.37102        0.46008        0.43378        0.43769        0.42814        0.39376        0.34305        0.32634        0.27926        0.24081        0.23622        0.26957        0.27291        0.30044        0.30254        0.33547        0.32724        0.40694        0.41751        0.37684        0.34645        0.36401        0.27993        0.27945        0.26118        0.27804        0.26186        0.28070        0.29000        0.30951        0.34607        0.35862        0.36102        0.33782        0.35270        0.28857        0.32397        0.26706        0.24244        0.28357        0.28555        0.31010        0.31190        0.32610        0.32516        0.31332        0.31772        0.28475        0.28608        0.26012        0.28196        0.26593        0.30695        0.28286        0.26516        0.30621        0.30983        0.31533        0.28368        0.29863        0.28439        0.25065        0.24544        0.21712        0.27902        0.27570        0.32031        0.31093        0.32173        0.31749        0.30900        0.27475        0.28581        0.32919        0.26691        0.25847        0.29165        0.28852        0.34125        0.33677        0.35427        0.33187        0.30682        0.28299        0.26789        0.25733        0.22351        0.26953        0.30642        0.29746        0.27944        0.29651        0.26818        0.32264        0.33259        0.25059        0.22008        0.27111        0.33275        0.27630        0.30897        0.32611        0.32339        0.29694        0.31924        0.34183        0.29883        0.28827        0.25422        0.28329        0.35108        0.35821        0.26354        0.26578        0.25326        0.28143        0.21869        0.28794        0.22649        0.25075        0.33073        0.32066        0.35117        0.30047        0.23591        0.23258        0.24213        0.23234        0.18868        0.22353        0.26725        0.29906        0.26540        0.31017        0.30022        0.26987        0.27607        0.20818        0.17032        0.19423        0.22903        0.19146        0.21133        0.22892        0.19704        0.25317        0.35165        0.30351        0.31928        0.22735        0.24529        0.22004        0.28712        0.29636        0.14795        0.23786        0.23008        0.10901        0.22077        0.11339        0.14743        0.23102        0.13380       -0.13543       -0.63402
2.583474 2.556536 2.529744 2.503098 2.476598 2.450244 2.424036 2.397973 2.372057 2.346287 2.320662 2.295184 2.269851 2.244664 2.219624 2.194729 2.169980 2.145378 2.120921 2.096610 2.072445 2.048426 2.024553 2.000826 1.977244 1.953809 1.930520 1.907377 1.884379 1.861528 1.838822 1.816263 1.793849 1.771582 1.749460 1.727484 1.705654 1.683971 1.662433 1.641041 1.619795 1.598695 1.577741 1.556932 1.536270 1.515754 1.495384 1.475159 1.455081 1.435148 1.415362 1.636516 2.042824 1.615797 1.128006 0.988572 0.416840 0.813864 0.557826 0.832136 0.771589 0.786836 0.749006 0.709767 0.560483 0.513458 0.482935 0.439931 0.204904 0.378261 0.200946 0.307232 0.235280 0.181446 0.134601 0.005878 0.038847 -0.011056 -0.056882 0.104696 0.208201 0.191805 0.153675 0.332274 0.198565 0.497772 0.580626 0.552589 0.594497 0.876325 0.811486 0.944302 0.887921 0.976472 0.943865 1.079517 1.140481 1.073770 1.130768 0.950563 0.941295 0.785045 0.649400 0.772305 0.708884 0.460930 0.308766 0.250809 0.215783 0.148560 0.090134 0.130928 0.073831 0.151778 0.053123 0.262758 0.380231 0.361043 0.478913 0.577344 0.463933 0.548537 0.699116 0.741337 0.781833 0.731177 0.733984 0.712756 0.627749 0.567450 0.430188 0.286776 0.212059 0.080783 0.136207 -0.042910 -0.032274 -0.074443 -0.038094 0.003452 0.150596 0.088714 0.297285 0.280382 0.362698 0.452639 0.526511 0.507197 0.521382 0.506788 0.335452 0.310964 0.283604 0.098394 0.051285 -0.008709 -0.028572 -0.040864 -0.084817 -0.100676 -0.004308 0.057243 0.138098 0.147883 0.228438 0.329145 0.313584 0.410820 0.398522 0.286445 0.231744 0.247253 0.203558 0.104371 0.081474 0.020978 0.002337 0.015401 -0.013713 0.060992 0.150444 0.143541 0.236526 0.253673 0.308327 0.250621 0.220954 0.179370 0.213026 0.141745 0.043032 0.041187 -0.009021 -0.011471 -0.032502 0.017966 0.018769 0.165918 0.133029 0.183588 0.236341 0.200221 0.190637 0.194837 0.141236 0.101569 0.062649 0.052706 -0.034808 0.008425 0.022644 0.056196 0.054611 0.076440 0.095449 0.121029 0.138474 0.187908 0.082100 0.097934 0.073628 0.000259 0.004842 0.009415 -0.005083 0.018857 0.007004 0.028654 0.065028 0.083038 0.115970 0.054661 0.106019 0.058261 0.018208 0.063349 -0.035437 -0.016037 0.027525 0.006526 0.058661 0.054025 0.047546 0.066764 0.053394 0.046215 0.024060 -0.000031 0.016085 0.016177 -0.007449 0.072576 -0.013086 0.015845 0.059783 0.051368 0.038346 0.046433 0.040101 0.021883 -0.012288 -0.031226 -0.016446 0.024771 0.034039 0.077302 0.061469 0.063752 0.092267 0.069707 0.024898 0.070980 0.089123 0.016159 0.020793 0.062002 0.055327 0.106053 0.112776 0.110954 0.120903 0.070448 0.047295 0.039603 0.003286 0.002655 0.054783 0.088686 0.052292 0.036770 0.035022 0.022810 0.097906 0.065894 -0.043578 -0.047118 0.032375 0.096836 0.007404 0.026791 0.067148 0.087274 0.026199 0.059881 0.083938 0.037360 0.035205 -0.034494 0.022912 0.111628 0.076733 -0.044071 -0.022635 -0.045458 0.025276 -0.109150 0.037976 -0.098284 -0.028841 0.053324 0.039611 0.034198 -0.034387 -0.070371 -0.087596 -0.084064 -0.068642 -0.122595 -0.089252 -0.029509 0.038674 -0.042565 0.050391 -0.018366 -0.052002 0.049470 -0.107888 -0.103581 -0.087799 -0.010308 -0.066710 -0.028233 -0.016535 -0.005616 0.021855 0.200854 -0.015600 0.155521 0.018042 0.251699 0.235305 0.330030 0.273474 0.110353 0.241403 0.274808 0.028270 0.240848 0.116204 0.123114 0.318224 0.137535 -0.657473
0.072396 0.072899 0.074406 0.076917 0.080432 0.084950 0.090470 0.096989 0.104507 0.113019 0.122523 0.133015 0.144488 0.156937 0.170354 0.184730 0.200053 0.216312 0.233490 0.251571 0.270535 0.290358 0.311015 0.332477 0.354710 0.377677 0.401337 0.425643 0.450547 0.475990 0.501913 0.528248 0.554923 0.581859 0.608971 0.636166 0.663347 0.690409 0.717240 0.743722 0.769728 0.795126 0.819779 0.843540 0.866259 0.887779 0.907937 0.926567 0.943499 0.958558 0.971568 0.982351 0.990729 0.996526 0.999565 0.999677 0.996694 0.990458 0.980818 0.967633 0.950777 0.930136 0.905614 0.877134 0.844638 0.808093 0.767492 0.722855 0.674231 0.621701 0.565381 0.505422 0.442010 0.375373 0.305774 0.233521 0.158958 0.082472 0.004489 0.074526 0.154071 0.233608 0.312566 0.390346 0.466322 0.539849 0.610265 0.676897 0.739071 0.796116 0.847371 0.892198 0.929984 0.960155 0.982185 0.995600 0.999997 0.995045 0.980498 0.956204 0.922113 0.878283 0.824887 0.762222 0.690709 0.610895 0.523459 0.429205 0.329064 0.224086 0.115432 0.004368 0.107753 0.219498 0.329378 0.435863 0.537405 0.632459 0.719512 0.797102 0.863854 0.918499 0.959907 0.987113 0.999341 0.996030 0.976855 0.941747 0.890907 0.824818 0.744254 0.650275 0.544227 0.427730 0.302664 0.171139 0.035469 0.101862 0.238249 0.371007 0.497428 0.614836 0.720644 0.812421 0.887946 0.945275 0.982793 0.999271 0.993911 0.966386 0.916870 0.846058 0.755173 0.645963 0.520675 0.382029 0.233167 0.077591 0.080915 0.238367 0.390681 0.533781 0.663710 0.776743 0.869503 0.939072 0.983093 0.999865 0.988419 0.948574 0.880985 0.787147 0.669394 0.530855 0.375390 0.207500 0.032207 0.145087 0.318762 0.483153 0.632741 0.762346 0.867315 0.943700 0.988426 0.999436 0.975796 0.917776 0.826886 0.705865 0.558630 0.390170 0.206395 0.013957 0.179996 0.368068 0.542900 0.697461 0.825349 0.921061 0.980262 0.999996 0.978862 0.917127 0.816773 0.681473 0.516488 0.328493 0.125332 0.084290 0.291170 0.486008 0.659828 0.804405 0.912667 0.979073 0.999926 0.973603 0.900710 0.784118 0.628901 0.442153 0.232696 0.010692 0.212830 0.426520 0.619276 0.780838 0.902354 0.976892 0.999875 0.969398 0.886416 0.754776 0.581096 0.374474 0.146052 0.091556 0.324943 0.540666 0.726015 0.869802 0.963048 0.999597 0.976565 0.894609 0.757993 0.574418 0.354661 0.111967 0.138707 0.381595 0.601111 0.782873 0.914658 0.987268 0.995235 0.937274 0.816494 0.640298 0.420008 0.170185 0.092297 0.349355 0.582944 0.776326 0.915316 0.989358 0.992387 0.923392 0.786625 0.591412 0.351607 0.084657 0.189622 0.450495 0.677879 0.853898 0.964355 0.999918 0.956990 0.838136 0.652032 0.412920 0.139590 0.146045 0.420683 0.661509 0.848142 0.964387 0.999713 0.950288 0.819472 0.617697 0.361733 0.073368 0.222390 0.499456 0.732977 0.901580 0.989411 0.987689 0.895687 0.720984 0.478953 0.191505 0.114824 0.411281 0.669585 0.864646 0.977073 0.995176 0.916288 0.747231 0.503852 0.209644 0.106435 0.412770 0.678233 0.875383 0.983358 0.990189 0.894231 0.704564 0.440270 0.128626 0.197630 0.503694 0.756409 0.927905 0.998746 0.960258 0.815713 0.580208 0.279238 0.053963 0.382025 0.667608 0.877682 0.987422 0.983256 0.864678 0.644573 0.347982 0.009360 0.331323 0.633275 0.859789 0.982779 0.986379 0.869136 0.644482 0.339351 0.008895 0.356975 0.661012 0.882106 0.991388 0.973933 0.830943 0.579910 0.252667 0.108539
1.000000 1.000000 1.000000 1.000000 1.000000 1.000000 1.000000 1.000000 1.000000 1.000000 1.000000 1.000000 1.000000 1.000000 1.000000 1.000000 1.000000 1.000000 1.000000 1.000000 1.000000 1.000000 1.000000 1.000000 1.000000 1.000000 1.000000 1.000000 1.000000 1.000000 1.000000 1.000000 1.000000 1.000000 1.000000 1.000000 1.000000 1.000000 1.000000 1.000000 1.000000 1.000000 1.000000 1.000000 1.000000 1.000000 1.000000 1.000000 1.000000 1.000000 1.000000 1.000000 0.929013 0.929013 0.929013 0.918935 0.918935 0.918935 0.918935 0.918935 0.918935 0.918935 0.918935 0.918935 0.918935 0.918935 0.918935 0.918935 0.918935 0.918935 0.918935 0.918935 0.918935 0.918935 0.918935 0.918935 0.918935 0.918935 0.918935 0.918935 0.918935 0.918935 0.918935 0.918935 0.918935 0.918935 0.918935 0.918935 0.918935 0.918935 0.918935 0.918935 0.918935 0.918935 0.918935 0.918935 0.949287 0.950558 0.958470 0.958311 0.957806 0.955696 0.954773 0.953639 0.953184 0.953459 0.954071 0.954914 0.963647 0.964731 0.966321 0.967153 0.967868 0.968506 0.968320 0.969012 0.968197 0.967613 0.967084 0.963066 0.965846 0.965209 0.965311 0.966342 0.966218 0.968256 0.968441 0.967828 0.966930 0.966174 0.965446 0.965015 0.964731 0.965238 0.965533 0.966845 0.970033 0.969448 0.969159 0.969317 0.969416 0.969595 0.970029 0.971725 0.967951 0.968600 0.966928 0.964733 0.968954 0.966069 0.965856 0.967220 0.967600 0.967999 0.966091 0.962164 0.955320 0.954318 0.951130 0.941730 0.940199 0.941062 0.943476 0.944053 0.942901 0.936184 0.936729 0.931080 0.931374 0.934710 0.930282 0.930414 0.931559 0.930959 0.929712 0.929053 0.926473 0.923506 0.921727 0.921148 0.924168 0.924500 0.925726 0.925625 0.920570 0.911728 0.898674 0.896336 0.891078 0.894218 0.883970 0.883559 0.883515 0.878428 0.882010 0.882621 0.883661 0.880070 0.863721 0.844268 0.834975 0.839556 0.844804 0.842850 0.840433 0.833590 0.845763 0.824757 0.837456 0.849194 0.844256 0.845097 0.843940 0.841798 0.834812 0.835264 0.838059 0.839441 0.838243 0.836408 0.832894 0.816153 0.816606 0.754426 0.737520 0.732096 0.737261 0.743100 0.742377 0.740900 0.750294 0.755342 0.754209 0.740056 0.732639 0.724445 0.729440 0.730754 0.736762 0.725264 0.700598 0.693628 0.662403 0.679271 0.695388 0.655889 0.678781 0.689211 0.686656 0.686531 0.679222 0.674924 0.669447 0.672406 0.680627 0.696283 0.715392 0.741040 0.736760 0.726556 0.723965 0.704777 0.697144 0.688175 0.700616 0.680447 0.675201 0.694451 0.693484 0.679536 0.658233 0.643494 0.632647 0.630159 0.638347 0.628864 0.627021 0.615953 0.591266 0.587073 0.624597 0.640481 0.658632 0.633960 0.621424 0.614416 0.596230 0.609702 0.553001 0.553141 0.573779 0.580764 0.560915 0.540342 0.548286 0.557745 0.561624 0.553442 0.539387 0.526477 0.540089 0.570220 0.561220 0.536666 0.539966 0.539558 0.537230 0.459887 0.456193 0.426507 0.396251 0.335855 0.318763 0.311593 0.294044 0.277605 0.242529 0.239293 0.247972 0.258191 0.268331 0.268697 0.253989 0.256961 0.247320 0.233785 0.172660 0.160670 0.153416 0.142599 0.143103 0.119246 0.142380 0.208880 0.211296 0.211296 0.211296 0.211296 0.211296 0.211296 0.220122 0.220122 0.220122 0.220122 0.220122 0.220122 0.220122 0.220122 0.220122 0.229488 0.229488 0.229488 0.229488 0.229488 0.229488 0.229488 0.229488 0.229488 0.229488 0.229488 0.229488 0.229488 0.229488
0.000000 0.000000 0.000000 0.000000 0.000000 0.000000 0.000000 0.000000 0.000000 0.000000 0.000000 0.000000 0.000000 0.000000 0.000000 0.000000 0.000000 0.000000 0.000000 0.000000 0.000000 0.000000 0.000000 0.000000 0.000000 7.000000 4.000000 0.000000 0.000000 0.000000 0.000000 0.000000 0.000000 0.000000 0.000000 0.000000 0.000000 0.000000 0.000000 0.000000 0.000000 0.000000 0.000000 0.000000 0.000000 0.000000 0.000000 0.000000 0.000000 0.000000 0.000000 0.000000 0.180334 0.180334 0.180334 0.199007 0.199007 0.199007 0.199007 0.199007 0.199007 0.199007 0.199007 0.199007 0.199007 0.199007 0.199007 0.199007 0.199007 0.199007 0.199007 0.199007 0.199007 0.199007 0.199007 0.199007 0.199007 0.199007 0.199007 0.199007 0.199007 0.199007 0.199007 0.199007 0.199007 0.199007 0.199007 0.199007 0.199007 0.199007 0.199007 0.199007 0.199007 0.199007 0.199007 0.199007 0.225018 0.225018 0.225018 0.225018 0.225018 0.225018 0.225018 0.225018 0.225018 0.225018 0.225018 0.225018 0.225018 0.225018 0.225018 0.225018 0.225018 0.225018 0.225018 0.225018 0.225018 0.225018 0.225018 0.225018 0.225018 0.225018 0.225018 0.225018 0.225018 0.244339 0.244339 0.244339 0.244339 0.244339 0.244339 0.244339 0.244339 0.244339 0.244339 0.244339 0.244339 0.244339 0.244339 0.244339 0.244339 0.244339 0.244339 0.244339 0.244339 0.244339 0.244339 0.244339 0.251976 0.251976 0.251976 0.251976 0.251976 0.251976 0.251976 0.251976 0.251976 0.251976 0.251976 0.251976 0.251976 0.251976 0.251976 0.251976 0.251976 0.251976 0.251976 0.251976 0.264906 0.264906 0.264906 0.264906 0.264906 0.264906 0.264906 0.264906 0.264906 0.264906 0.264906 0.264906 0.264906 0.264906 0.264906 0.264906 0.264906 0.264906 0.264906 0.264906 0.264906 0.264906 0.264906 0.264906 0.264906 0.264906 0.264906 0.264906 0.264906 0.264906 0.264906 0.264906 0.264906 0.264906 0.264906 0.264906 0.264906 0.264906 0.264906 0.264906 0.264906 0.264906 0.264906 0.264906 0.264906 0.264906 0.264906 0.264906 0.264906 0.264906 0.264906 0.264906 0.264906 0.264906 0.264906 0.264906 0.264906 0.264906 0.264906 0.264906 0.264906 0.264906 0.256074 0.256074 0.256074 0.256074 0.256074 0.256074 0.256074 0.256074 0.256074 0.256074 0.256074 0.256074 0.256074 0.256074 0.269680 0.269680 0.269680 0.269680 0.269680 0.269680 0.269680 0.269680 0.269680 0.269680 0.269680 0.269680 0.264906 0.264906 0.264906 0.264906 0.264906 0.264906 0.264906 0.264906 0.264906 0.264906 0.264906 0.264906 0.269680 0.269680 0.269680 0.269680 0.269680 0.269680 0.269680 0.269680 0.269680 0.269680 0.269680 0.264906 0.264906 0.264906 0.264906 0.264906 0.264906 0.264906 0.264906 0.264906 0.264906 0.264906 0.256074 0.256074 0.256074 0.256074 0.256074 0.256074 0.256074 0.256074 0.256074 0.256074 0.256074 0.264906 0.264906 0.264906 0.264906 0.264906 0.264906 0.264906 0.264906 0.264906 0.264906 0.260378 0.260378 0.260378 0.260378 0.260378 0.260378 0.260378 0.260378 0.260378 0.260378 0.256074 0.256074 0.256074 0.256074 0.256074 0.256074 0.256074 0.256074 0.256074 0.256074 0.260378 0.260378 0.260378 0.260378 0.260378 0.260378 0.260378 0.260378 0.260378 0.256074 0.256074 0.256074 0.256074 0.256074 0.256074 0.256074 0.256074 0.256074 0.251976 0.251976 0.251976 0.251976 0.251976 0.251976 0.251976 0.251976 0.251976 0.251976 0.251976 0.251976 0.251976 0.251976
