# Output from CTFFind version 4.1.9, run on 2019-11-02 17:48:35
# Input file: stack11_bm3d_averaged_1_1.5_0_2000_half.mrc ; Number of micrographs: 1
# Pixel size: 3.000 Angstroms ; acceleration voltage: 300.0 keV ; spherical aberration: 0.00 mm ; amplitude contrast: 0.07
# Box size: 512 pixels ; min. res.: 30.0 Angstroms ; max. res.: 5.0 Angstroms ; min. def.: 5000.0 um; max. def. 50000.0 um; num. frames averaged: 1
# 6 lines per micrograph: #1 - spatial frequency (1/Angstroms); #2 - 1D rotational average of spectrum (assuming no astigmatism); #3 - 1D rotational average of spectrum; #4 - CTF fit; #5 - cross-correlation between spectrum and CTF fit; #6 - 2sigma of expected cross correlation of noise
0.000000 0.000651 0.001302 0.001953 0.002604 0.003255 0.003906 0.004557 0.005208 0.005859 0.006510 0.007161 0.007812 0.008464 0.009115 0.009766 0.010417 0.011068 0.011719 0.012370 0.013021 0.013672 0.014323 0.014974 0.015625 0.016276 0.016927 0.017578 0.018229 0.018880 0.019531 0.020182 0.020833 0.021484 0.022135 0.022786 0.023438 0.024089 0.024740 0.025391 0.026042 0.026693 0.027344 0.027995 0.028646 0.029297 0.029948 0.030599 0.031250 0.031901 0.032552 0.033203 0.033854 0.034505 0.035156 0.035807 0.036458 0.037109 0.037760 0.038411 0.039062 0.039714 0.040365 0.041016 0.041667 0.042318 0.042969 0.043620 0.044271 0.044922 0.045573 0.046224 0.046875 0.047526 0.048177 0.048828 0.049479 0.050130 0.050781 0.051432 0.052083 0.052734 0.053385 0.054036 0.054688 0.055339 0.055990 0.056641 0.057292 0.057943 0.058594 0.059245 0.059896 0.060547 0.061198 0.061849 0.062500 0.063151 0.063802 0.064453 0.065104 0.065755 0.066406 0.067057 0.067708 0.068359 0.069010 0.069661 0.070312 0.070964 0.071615 0.072266 0.072917 0.073568 0.074219 0.074870 0.075521 0.076172 0.076823 0.077474 0.078125 0.078776 0.079427 0.080078 0.080729 0.081380 0.082031 0.082682 0.083333 0.083984 0.084635 0.085286 0.085938 0.086589 0.087240 0.087891 0.088542 0.089193 0.089844 0.090495 0.091146 0.091797 0.092448 0.093099 0.093750 0.094401 0.095052 0.095703 0.096354 0.097005 0.097656 0.098307 0.098958 0.099609 0.100260 0.100911 0.101562 0.102214 0.102865 0.103516 0.104167 0.104818 0.105469 0.106120 0.106771 0.107422 0.108073 0.108724 0.109375 0.110026 0.110677 0.111328 0.111979 0.112630 0.113281 0.113932 0.114583 0.115234 0.115885 0.116536 0.117188 0.117839 0.118490 0.119141 0.119792 0.120443 0.121094 0.121745 0.122396 0.123047 0.123698 0.124349 0.125000 0.125651 0.126302 0.126953 0.127604 0.128255 0.128906 0.129557 0.130208 0.130859 0.131510 0.132161 0.132812 0.133464 0.134115 0.134766 0.135417 0.136068 0.136719 0.137370 0.138021 0.138672 0.139323 0.139974 0.140625 0.141276 0.141927 0.142578 0.143229 0.143880 0.144531 0.145182 0.145833 0.146484 0.147135 0.147786 0.148438 0.149089 0.149740 0.150391 0.151042 0.151693 0.152344 0.152995 0.153646 0.154297 0.154948 0.155599 0.156250 0.156901 0.157552 0.158203 0.158854 0.159505 0.160156 0.160807 0.161458 0.162109 0.162760 0.163411 0.164062 0.164714 0.165365 0.166016 0.166667 0.167318 0.167969 0.168620 0.169271 0.169922 0.170573 0.171224 0.171875 0.172526 0.173177 0.173828 0.174479 0.175130 0.175781 0.176432 0.177083 0.177734 0.178385 0.179036 0.179688 0.180339 0.180990 0.181641 0.182292 0.182943 0.183594 0.184245 0.184896 0.185547 0.186198 0.186849 0.187500 0.188151 0.188802 0.189453 0.190104 0.190755 0.191406 0.192057 0.192708 0.193359 0.194010 0.194661 0.195312 0.195964 0.196615 0.197266 0.197917 0.198568 0.199219 0.199870 0.200521 0.201172 0.201823 0.202474 0.203125 0.203776 0.204427 0.205078 0.205729 0.206380 0.207031 0.207682 0.208333 0.208984 0.209635 0.210286 0.210938 0.211589 0.212240 0.212891 0.213542 0.214193 0.214844 0.215495 0.216146 0.216797 0.217448 0.218099 0.218750 0.219401 0.220052 0.220703 0.221354 0.222005 0.222656 0.223307 0.223958 0.224609 0.225260 0.225911 0.226562 0.227214 0.227865 0.228516 0.229167 0.229818 0.230469 0.231120 0.231771 0.232422 0.233073 0.233724 0.234375 0.235026 0.235677
       0.31609        0.31609        0.31609        0.31609        0.31609        0.31609        0.31609        0.31609        0.31609        0.31609        0.31609        0.31609        0.31609        0.31609        0.31609        0.31609        0.31609        0.31609        0.31609        0.31609        0.31609        0.31609        0.31609        0.31609        0.31609        0.31609        0.31609        0.31609        0.31609        0.31609        0.31609        0.31609        0.31609        0.31609        0.31609        0.31609        0.31609        0.31609        0.31609        0.31609        0.31609        0.31609        0.31609        0.31609        0.31609        0.31609        0.31609        0.31609        0.31609        0.31609        0.31609        0.68264        0.86833        0.52086        0.08630       -0.06568       -0.42684       -0.20544       -0.29708       -0.11947       -0.07827       -0.12010       -0.07069       -0.20900       -0.23676       -0.25859       -0.33263       -0.33985       -0.49171       -0.38374       -0.46675       -0.45087       -0.42250       -0.46929       -0.54338       -0.56300       -0.58815       -0.62354       -0.57866       -0.41563       -0.37859       -0.33176       -0.31611       -0.21187       -0.19919        0.01895        0.07186        0.10452        0.22368        0.37007        0.44198        0.51590        0.55783        0.55173        0.57192        0.69737        0.81179        0.74219        0.73329        0.66876        0.57822        0.48393        0.40450        0.49299        0.37308        0.20064        0.07684        0.04359        0.00878       -0.06190       -0.04065       -0.02247       -0.07233       -0.00889       -0.02165        0.21215        0.25033        0.28963        0.42808        0.46122        0.40292        0.53261        0.62497        0.69777        0.76305        0.68761        0.65752        0.69644        0.58436        0.50035        0.41843        0.28937        0.18834        0.15607        0.11011        0.03524        0.01084       -0.00004        0.07487        0.13235        0.20374        0.27947        0.39911        0.41681        0.50584        0.59946        0.63298        0.61439        0.62898        0.55206        0.44548        0.44618        0.35185        0.22742        0.18305        0.14775        0.10752        0.12212        0.06943        0.10190        0.22460        0.26181        0.34067        0.35209        0.45002        0.51170        0.53736        0.54872        0.46867        0.42773        0.38913        0.36903        0.30684        0.25046        0.20223        0.18494        0.16271        0.19284        0.17691        0.26778        0.33254        0.36539        0.42327        0.45950        0.47641        0.44160        0.39293        0.41104        0.37345        0.28660        0.27175        0.22548        0.21244        0.19335        0.21341        0.22838        0.32721        0.37227        0.36847        0.46035        0.43459        0.43758        0.42788        0.39394        0.34353        0.32755        0.27867        0.23852        0.23627        0.26918        0.27173        0.29943        0.30043        0.33649        0.32835        0.40790        0.41645        0.37488        0.34505        0.36402        0.28094        0.27882        0.26119        0.27681        0.26019        0.28046        0.29153        0.31096        0.34731        0.35732        0.35950        0.33443        0.35124        0.28739        0.32404        0.26721        0.24381        0.28262        0.28429        0.30903        0.31240        0.32823        0.32377        0.31191        0.31794        0.28560        0.28521        0.25889        0.28193        0.26838        0.30872        0.28262        0.26435        0.30653        0.30971        0.31422        0.28537        0.29785        0.28705        0.24779        0.24301        0.21750        0.27838        0.27444        0.31593        0.31313        0.32171        0.31637        0.30570        0.27419        0.28393        0.32965        0.26746        0.25974        0.29211        0.28984        0.33986        0.33629        0.35686        0.33272        0.30960        0.28355        0.26532        0.25858        0.22416        0.26738        0.30469        0.29663        0.27912        0.29417        0.26755        0.32279        0.33495        0.24959        0.21746        0.26960        0.33546        0.27780        0.30920        0.32657        0.32472        0.29575        0.32027        0.34322        0.29762        0.28948        0.25598        0.27923        0.34980        0.35532        0.26058        0.26550        0.25387        0.28106        0.22093        0.29093        0.22289        0.25118        0.33372        0.31998        0.35044        0.29922        0.23715        0.23404        0.24007        0.23352        0.18244        0.22042        0.26325        0.29463        0.27045        0.30867        0.29569        0.27292        0.27933        0.20981        0.17267        0.18995        0.22826        0.19386        0.21378        0.22919        0.20106        0.25318        0.34436        0.29940        0.31468        0.22233        0.25530        0.22578        0.28494        0.29870        0.14726        0.22926        0.22270        0.11361        0.22507        0.11303        0.15875        0.22995        0.13718       -0.13563       -0.64498
2.582450 2.555521 2.528739 2.502102 2.475611 2.449267 2.423068 2.397015 2.371107 2.345346 2.319731 2.294261 2.268938 2.243760 2.218729 2.193843 2.169103 2.144509 2.120061 2.095758 2.071602 2.047592 2.023727 2.000008 1.976436 1.953009 1.929728 1.906593 1.883604 1.860760 1.838063 1.815511 1.793106 1.770846 1.748732 1.726765 1.704943 1.683267 1.661736 1.640352 1.619114 1.598021 1.577075 1.556274 1.535619 1.515110 1.494747 1.474530 1.454459 1.434534 1.414754 1.636221 2.042973 1.615009 1.127057 0.987252 0.417465 0.813243 0.558735 0.832399 0.770484 0.785483 0.748806 0.709325 0.560096 0.512120 0.482388 0.440815 0.203398 0.377487 0.200582 0.305796 0.234241 0.180145 0.130947 0.003984 0.039193 -0.013638 -0.056443 0.103946 0.206830 0.192324 0.152863 0.332673 0.197271 0.497514 0.577451 0.550223 0.592620 0.877189 0.809941 0.946430 0.889076 0.973904 0.943388 1.081487 1.140135 1.077224 1.129481 0.952816 0.941653 0.785981 0.650250 0.771360 0.706916 0.459395 0.308877 0.251225 0.213106 0.147834 0.088785 0.129541 0.069782 0.152214 0.052573 0.262719 0.380544 0.360512 0.479947 0.580678 0.467012 0.546804 0.697935 0.743789 0.782275 0.732132 0.735501 0.714878 0.627991 0.569050 0.430336 0.287681 0.209787 0.079330 0.135980 -0.043438 -0.031182 -0.077819 -0.037755 0.005656 0.148876 0.087963 0.301339 0.279684 0.364301 0.452762 0.525856 0.508363 0.521020 0.506190 0.335046 0.309963 0.282679 0.099593 0.049624 -0.005505 -0.031021 -0.040124 -0.087374 -0.101295 -0.008320 0.055039 0.136126 0.143477 0.228923 0.332477 0.311811 0.411631 0.398826 0.285103 0.231987 0.248099 0.207024 0.104401 0.077972 0.019896 0.001312 0.011495 -0.014093 0.059016 0.148167 0.143694 0.233130 0.253843 0.307479 0.255078 0.222189 0.182957 0.212359 0.145252 0.046094 0.044590 -0.010214 -0.011719 -0.031597 0.016173 0.017531 0.168357 0.129972 0.183753 0.236762 0.200127 0.191769 0.195283 0.140970 0.103682 0.064009 0.050654 -0.036641 0.009104 0.022875 0.055645 0.051107 0.077289 0.096087 0.121507 0.137241 0.185508 0.079201 0.096829 0.073361 -0.000772 0.003307 0.008841 -0.008694 0.016989 0.006437 0.029102 0.065878 0.083053 0.110836 0.050716 0.101015 0.055040 0.015571 0.063072 -0.037461 -0.016129 0.023821 0.004150 0.055916 0.052961 0.046716 0.063354 0.050156 0.047311 0.021990 -0.001284 0.010640 0.017271 -0.007911 0.071356 -0.013806 0.013078 0.058014 0.048941 0.036058 0.044185 0.038801 0.020272 -0.017238 -0.035923 -0.017225 0.022338 0.029246 0.071147 0.062107 0.060967 0.089627 0.065572 0.025074 0.067417 0.089312 0.016041 0.020701 0.062358 0.054661 0.105266 0.111721 0.115457 0.121844 0.070001 0.049784 0.036690 0.005414 0.002248 0.052645 0.087351 0.052228 0.034729 0.033638 0.023574 0.096650 0.069270 -0.046067 -0.050757 0.032643 0.098028 0.009232 0.027945 0.065689 0.088758 0.023394 0.060563 0.084679 0.035980 0.036539 -0.033897 0.016516 0.110275 0.073136 -0.049695 -0.022037 -0.046260 0.021772 -0.107774 0.039722 -0.105530 -0.030465 0.057532 0.033698 0.036027 -0.043061 -0.069060 -0.092632 -0.086402 -0.073826 -0.131138 -0.095999 -0.036143 0.026744 -0.040179 0.044022 -0.024424 -0.051027 0.051415 -0.110932 -0.103882 -0.093515 -0.013698 -0.066495 -0.029429 -0.018664 -0.001336 0.020272 0.188629 -0.015303 0.149208 0.005537 0.262326 0.240958 0.328584 0.272766 0.111173 0.232709 0.265330 0.033953 0.245800 0.117296 0.136510 0.311578 0.140875 -0.668408
0.072396 0.072899 0.074406 0.076917 0.080432 0.084950 0.090470 0.096989 0.104506 0.113019 0.122523 0.133014 0.144487 0.156936 0.170353 0.184729 0.200052 0.216311 0.233489 0.251570 0.270533 0.290356 0.311013 0.332475 0.354707 0.377674 0.401334 0.425641 0.450544 0.475987 0.501910 0.528245 0.554920 0.581855 0.608967 0.636162 0.663343 0.690405 0.717236 0.743717 0.769723 0.795122 0.819775 0.843536 0.866255 0.887775 0.907933 0.926564 0.943496 0.958555 0.971565 0.982349 0.990728 0.996525 0.999565 0.999677 0.996695 0.990460 0.980820 0.967637 0.950782 0.930142 0.905621 0.877142 0.844647 0.808104 0.767504 0.722868 0.674246 0.621717 0.565399 0.505440 0.442030 0.375394 0.305797 0.233544 0.158983 0.082497 0.004515 0.074500 0.154044 0.233580 0.312539 0.390319 0.466296 0.539823 0.610239 0.676873 0.739048 0.796095 0.847353 0.892182 0.929971 0.960145 0.982178 0.995597 0.999997 0.995049 0.980506 0.956217 0.922129 0.878304 0.824912 0.762252 0.690742 0.610933 0.523500 0.429250 0.329112 0.224136 0.115484 0.004421 0.107699 0.219444 0.329325 0.435812 0.537356 0.632414 0.719470 0.797065 0.863823 0.918474 0.959890 0.987103 0.999339 0.996036 0.976870 0.941770 0.890939 0.824859 0.744303 0.650331 0.544290 0.427799 0.302738 0.171216 0.035549 0.101782 0.238169 0.370930 0.497356 0.614768 0.720584 0.812370 0.887905 0.945245 0.982776 0.999267 0.993921 0.966410 0.916908 0.846110 0.755239 0.646040 0.520762 0.382125 0.233269 0.077696 0.080809 0.238261 0.390579 0.533687 0.663626 0.776671 0.869446 0.939031 0.983072 0.999863 0.988437 0.948613 0.881043 0.787225 0.669489 0.530965 0.375511 0.207629 0.032340 0.144954 0.318632 0.483031 0.632633 0.762255 0.867244 0.943652 0.988404 0.999441 0.975829 0.917836 0.826971 0.705975 0.558760 0.390314 0.206550 0.014118 0.179837 0.367917 0.542761 0.697342 0.825253 0.920995 0.980228 0.999996 0.978897 0.917197 0.816877 0.681606 0.516645 0.328666 0.125516 0.084102 0.290988 0.485841 0.659683 0.804289 0.912586 0.979033 0.999928 0.973649 0.900798 0.784245 0.629063 0.442341 0.232902 0.010905 0.212620 0.426324 0.619104 0.780700 0.902258 0.976844 0.999879 0.969454 0.886523 0.754930 0.581287 0.374695 0.146289 0.091315 0.324714 0.540459 0.725846 0.869678 0.962980 0.999590 0.976620 0.894725 0.758162 0.574634 0.354909 0.112232 0.138441 0.381343 0.600895 0.782702 0.914545 0.987223 0.995263 0.937374 0.816659 0.640521 0.420274 0.170471 0.092005 0.349076 0.582699 0.776136 0.915193 0.989313 0.992425 0.923512 0.786818 0.591667 0.351903 0.084976 0.189303 0.450205 0.677637 0.853725 0.964267 0.999923 0.957088 0.838321 0.652289 0.413233 0.139934 0.145702 0.420361 0.661243 0.847954 0.964292 0.999721 0.950401 0.819681 0.617988 0.362081 0.073741 0.222022 0.499129 0.732717 0.901413 0.989354 0.987750 0.895862 0.721256 0.479302 0.191898 0.114426 0.410912 0.669282 0.864441 0.976985 0.995217 0.916456 0.747513 0.504217 0.210062 0.106007 0.412377 0.677913 0.875171 0.983279 0.990250 0.894430 0.704880 0.440674 0.129076 0.197181 0.503298 0.756107 0.927732 0.998722 0.960390 0.815986 0.580596 0.279700 0.053480 0.381574 0.667245 0.877446 0.987344 0.983347 0.864929 0.644958 0.348454 0.009867 0.330840 0.632876 0.859524 0.982683 0.986465 0.869396 0.644887 0.339853 0.008361 0.356472 0.660606 0.881848 0.991317 0.974057 0.831248 0.580363 0.253213 0.107978
1.000000 1.000000 1.000000 1.000000 1.000000 1.000000 1.000000 1.000000 1.000000 1.000000 1.000000 1.000000 1.000000 1.000000 1.000000 1.000000 1.000000 1.000000 1.000000 1.000000 1.000000 1.000000 1.000000 1.000000 1.000000 1.000000 1.000000 1.000000 1.000000 1.000000 1.000000 1.000000 1.000000 1.000000 1.000000 1.000000 1.000000 1.000000 1.000000 1.000000 1.000000 1.000000 1.000000 1.000000 1.000000 1.000000 1.000000 1.000000 1.000000 1.000000 1.000000 1.000000 0.929588 0.929588 0.929588 0.919651 0.919651 0.919651 0.919651 0.919651 0.919651 0.919651 0.919651 0.919651 0.919651 0.919651 0.919651 0.919651 0.919651 0.919651 0.919651 0.919651 0.919651 0.919651 0.919651 0.919651 0.919651 0.919651 0.919651 0.919651 0.919651 0.919651 0.919651 0.919651 0.919651 0.919651 0.919651 0.919651 0.919651 0.919651 0.919651 0.919651 0.919651 0.919651 0.919651 0.919651 0.950228 0.951474 0.959364 0.959205 0.958709 0.956611 0.955703 0.954575 0.954125 0.954394 0.954994 0.955821 0.964543 0.965610 0.967187 0.968010 0.968722 0.969362 0.969184 0.969900 0.969099 0.968524 0.967998 0.963989 0.964632 0.965190 0.965290 0.966321 0.966196 0.968236 0.968423 0.967808 0.966910 0.966152 0.965424 0.964992 0.964707 0.965215 0.965510 0.966823 0.970011 0.969425 0.969137 0.969295 0.969394 0.969573 0.970007 0.971703 0.967924 0.968574 0.966900 0.964703 0.968926 0.966038 0.965826 0.967189 0.967569 0.967968 0.966414 0.962612 0.956254 0.955235 0.952332 0.943307 0.941936 0.942632 0.945042 0.945558 0.944208 0.937216 0.937777 0.931759 0.932593 0.935916 0.931053 0.931168 0.932306 0.931654 0.930471 0.929818 0.927249 0.924493 0.922829 0.922319 0.925290 0.925314 0.926499 0.926410 0.921002 0.912481 0.899742 0.898110 0.893090 0.896177 0.885799 0.885564 0.885713 0.881025 0.884520 0.884503 0.885498 0.882052 0.866550 0.848421 0.840302 0.845038 0.850036 0.847729 0.845256 0.838457 0.850365 0.827494 0.840008 0.850902 0.846234 0.846979 0.845709 0.843798 0.837513 0.838337 0.840644 0.842039 0.840379 0.838082 0.836517 0.818039 0.818110 0.756111 0.738727 0.732263 0.737502 0.743945 0.744276 0.743102 0.752011 0.757046 0.754216 0.738831 0.731405 0.723758 0.728715 0.729172 0.734381 0.720889 0.696141 0.690118 0.658598 0.676129 0.691621 0.651790 0.675491 0.686122 0.683423 0.682871 0.675831 0.672164 0.667186 0.670142 0.677374 0.692145 0.711398 0.736203 0.731911 0.721987 0.719559 0.699546 0.691446 0.683123 0.697657 0.676766 0.672350 0.691489 0.690483 0.675771 0.654119 0.640709 0.631528 0.627882 0.636904 0.626018 0.622371 0.612639 0.589052 0.584526 0.619998 0.635957 0.654879 0.625965 0.611783 0.602405 0.585590 0.598846 0.543678 0.543519 0.563178 0.570392 0.548948 0.531567 0.541147 0.549428 0.553194 0.544177 0.530610 0.517299 0.531927 0.562465 0.552854 0.530557 0.534378 0.534060 0.530139 0.445781 0.440585 0.410812 0.379192 0.319993 0.303104 0.295350 0.277599 0.260268 0.224673 0.221649 0.230648 0.238961 0.250974 0.252339 0.236822 0.240879 0.232856 0.219448 0.158454 0.147911 0.141136 0.130600 0.130275 0.105036 0.128714 0.197107 0.199698 0.199698 0.199698 0.199698 0.199698 0.199698 0.208999 0.208999 0.208999 0.208999 0.208999 0.208999 0.208999 0.208999 0.208999 0.219234 0.219234 0.219234 0.219234 0.219234 0.219234 0.219234 0.219234 0.219234 0.219234 0.219234 0.219234 0.219234 0.219234
0.000000 0.000000 0.000000 0.000000 0.000000 0.000000 0.000000 0.000000 0.000000 0.000000 0.000000 0.000000 0.000000 0.000000 0.000000 0.000000 0.000000 0.000000 0.000000 0.000000 0.000000 0.000000 0.000000 0.000000 0.000000 0.000000 0.000000 0.000000 0.000000 0.000000 0.000000 0.000000 0.000000 0.000000 0.000000 0.000000 0.000000 0.000000 0.000000 0.000000 0.000000 0.000000 0.000000 0.000000 0.000000 0.000000 0.000000 0.000000 0.000000 0.000000 0.000000 0.000000 0.180334 0.180334 0.180334 0.199007 0.199007 0.199007 0.199007 0.199007 0.199007 0.199007 0.199007 0.199007 0.199007 0.199007 0.199007 0.199007 0.199007 0.199007 0.199007 0.199007 0.199007 0.199007 0.199007 0.199007 0.199007 0.199007 0.199007 0.199007 0.199007 0.199007 0.199007 0.199007 0.199007 0.199007 0.199007 0.199007 0.199007 0.199007 0.199007 0.199007 0.199007 0.199007 0.199007 0.199007 0.225018 0.225018 0.225018 0.225018 0.225018 0.225018 0.225018 0.225018 0.225018 0.225018 0.225018 0.225018 0.225018 0.225018 0.225018 0.225018 0.225018 0.225018 0.225018 0.225018 0.225018 0.225018 0.225018 0.225018 0.225018 0.225018 0.225018 0.225018 0.225018 0.244339 0.244339 0.244339 0.244339 0.244339 0.244339 0.244339 0.244339 0.244339 0.244339 0.244339 0.244339 0.244339 0.244339 0.244339 0.244339 0.244339 0.244339 0.244339 0.244339 0.244339 0.244339 0.244339 0.251976 0.251976 0.251976 0.251976 0.251976 0.251976 0.251976 0.251976 0.251976 0.251976 0.251976 0.251976 0.251976 0.251976 0.251976 0.251976 0.251976 0.251976 0.251976 0.251976 0.264906 0.264906 0.264906 0.264906 0.264906 0.264906 0.264906 0.264906 0.264906 0.264906 0.264906 0.264906 0.264906 0.264906 0.264906 0.264906 0.264906 0.264906 0.264906 0.264906 0.264906 0.264906 0.264906 0.264906 0.264906 0.264906 0.264906 0.264906 0.264906 0.264906 0.264906 0.264906 0.264906 0.264906 0.264906 0.264906 0.264906 0.264906 0.264906 0.264906 0.264906 0.264906 0.264906 0.264906 0.264906 0.264906 0.264906 0.264906 0.264906 0.264906 0.264906 0.264906 0.264906 0.264906 0.264906 0.264906 0.264906 0.264906 0.264906 0.264906 0.264906 0.264906 0.256074 0.256074 0.256074 0.256074 0.256074 0.256074 0.256074 0.256074 0.256074 0.256074 0.256074 0.256074 0.256074 0.256074 0.269680 0.269680 0.269680 0.269680 0.269680 0.269680 0.269680 0.269680 0.269680 0.269680 0.269680 0.269680 0.264906 0.264906 0.264906 0.264906 0.264906 0.264906 0.264906 0.264906 0.264906 0.264906 0.264906 0.264906 0.269680 0.269680 0.269680 0.269680 0.269680 0.269680 0.269680 0.269680 0.269680 0.269680 0.269680 0.264906 0.264906 0.264906 0.264906 0.264906 0.264906 0.264906 0.264906 0.264906 0.264906 0.264906 0.256074 0.256074 0.256074 0.256074 0.256074 0.256074 0.256074 0.256074 0.256074 0.256074 0.256074 0.264906 0.264906 0.264906 0.264906 0.264906 0.264906 0.264906 0.264906 0.264906 0.264906 0.260378 0.260378 0.260378 0.260378 0.260378 0.260378 0.260378 0.260378 0.260378 0.260378 0.256074 0.256074 0.256074 0.256074 0.256074 0.256074 0.256074 0.256074 0.256074 0.256074 0.260378 0.260378 0.260378 0.260378 0.260378 0.260378 0.260378 0.260378 0.260378 0.256074 0.256074 0.256074 0.256074 0.256074 0.256074 0.256074 0.256074 0.256074 0.251976 0.251976 0.251976 0.251976 0.251976 0.251976 0.251976 0.251976 0.251976 0.251976 0.251976 0.251976 0.251976 0.251976
