# Output from CTFFind version 4.1.9, run on 2019-11-03 19:48:34
# Input file: stack6_bm3d_averaged_1_5.25_0_2000_half.mrc ; Number of micrographs: 1
# Pixel size: 3.000 Angstroms ; acceleration voltage: 300.0 keV ; spherical aberration: 0.00 mm ; amplitude contrast: 0.07
# Box size: 512 pixels ; min. res.: 30.0 Angstroms ; max. res.: 5.0 Angstroms ; min. def.: 5000.0 um; max. def. 50000.0 um; num. frames averaged: 1
# 6 lines per micrograph: #1 - spatial frequency (1/Angstroms); #2 - 1D rotational average of spectrum (assuming no astigmatism); #3 - 1D rotational average of spectrum; #4 - CTF fit; #5 - cross-correlation between spectrum and CTF fit; #6 - 2sigma of expected cross correlation of noise
0.000000 0.000651 0.001302 0.001953 0.002604 0.003255 0.003906 0.004557 0.005208 0.005859 0.006510 0.007161 0.007812 0.008464 0.009115 0.009766 0.010417 0.011068 0.011719 0.012370 0.013021 0.013672 0.014323 0.014974 0.015625 0.016276 0.016927 0.017578 0.018229 0.018880 0.019531 0.020182 0.020833 0.021484 0.022135 0.022786 0.023438 0.024089 0.024740 0.025391 0.026042 0.026693 0.027344 0.027995 0.028646 0.029297 0.029948 0.030599 0.031250 0.031901 0.032552 0.033203 0.033854 0.034505 0.035156 0.035807 0.036458 0.037109 0.037760 0.038411 0.039062 0.039714 0.040365 0.041016 0.041667 0.042318 0.042969 0.043620 0.044271 0.044922 0.045573 0.046224 0.046875 0.047526 0.048177 0.048828 0.049479 0.050130 0.050781 0.051432 0.052083 0.052734 0.053385 0.054036 0.054688 0.055339 0.055990 0.056641 0.057292 0.057943 0.058594 0.059245 0.059896 0.060547 0.061198 0.061849 0.062500 0.063151 0.063802 0.064453 0.065104 0.065755 0.066406 0.067057 0.067708 0.068359 0.069010 0.069661 0.070312 0.070964 0.071615 0.072266 0.072917 0.073568 0.074219 0.074870 0.075521 0.076172 0.076823 0.077474 0.078125 0.078776 0.079427 0.080078 0.080729 0.081380 0.082031 0.082682 0.083333 0.083984 0.084635 0.085286 0.085938 0.086589 0.087240 0.087891 0.088542 0.089193 0.089844 0.090495 0.091146 0.091797 0.092448 0.093099 0.093750 0.094401 0.095052 0.095703 0.096354 0.097005 0.097656 0.098307 0.098958 0.099609 0.100260 0.100911 0.101562 0.102214 0.102865 0.103516 0.104167 0.104818 0.105469 0.106120 0.106771 0.107422 0.108073 0.108724 0.109375 0.110026 0.110677 0.111328 0.111979 0.112630 0.113281 0.113932 0.114583 0.115234 0.115885 0.116536 0.117188 0.117839 0.118490 0.119141 0.119792 0.120443 0.121094 0.121745 0.122396 0.123047 0.123698 0.124349 0.125000 0.125651 0.126302 0.126953 0.127604 0.128255 0.128906 0.129557 0.130208 0.130859 0.131510 0.132161 0.132812 0.133464 0.134115 0.134766 0.135417 0.136068 0.136719 0.137370 0.138021 0.138672 0.139323 0.139974 0.140625 0.141276 0.141927 0.142578 0.143229 0.143880 0.144531 0.145182 0.145833 0.146484 0.147135 0.147786 0.148438 0.149089 0.149740 0.150391 0.151042 0.151693 0.152344 0.152995 0.153646 0.154297 0.154948 0.155599 0.156250 0.156901 0.157552 0.158203 0.158854 0.159505 0.160156 0.160807 0.161458 0.162109 0.162760 0.163411 0.164062 0.164714 0.165365 0.166016 0.166667 0.167318 0.167969 0.168620 0.169271 0.169922 0.170573 0.171224 0.171875 0.172526 0.173177 0.173828 0.174479 0.175130 0.175781 0.176432 0.177083 0.177734 0.178385 0.179036 0.179688 0.180339 0.180990 0.181641 0.182292 0.182943 0.183594 0.184245 0.184896 0.185547 0.186198 0.186849 0.187500 0.188151 0.188802 0.189453 0.190104 0.190755 0.191406 0.192057 0.192708 0.193359 0.194010 0.194661 0.195312 0.195964 0.196615 0.197266 0.197917 0.198568 0.199219 0.199870 0.200521 0.201172 0.201823 0.202474 0.203125 0.203776 0.204427 0.205078 0.205729 0.206380 0.207031 0.207682 0.208333 0.208984 0.209635 0.210286 0.210938 0.211589 0.212240 0.212891 0.213542 0.214193 0.214844 0.215495 0.216146 0.216797 0.217448 0.218099 0.218750 0.219401 0.220052 0.220703 0.221354 0.222005 0.222656 0.223307 0.223958 0.224609 0.225260 0.225911 0.226562 0.227214 0.227865 0.228516 0.229167 0.229818 0.230469 0.231120 0.231771 0.232422 0.233073 0.233724 0.234375 0.235026 0.235677
       0.30525        0.30525        0.30525        0.30525        0.30525        0.30525        0.30525        0.30525        0.30525        0.30525        0.30525        0.30525        0.30525        0.30525        0.30525        0.30525        0.30525        0.30525        0.30525        0.30525        0.30525        0.30525        0.30525        0.30525        0.30525        0.30525        0.30525        0.30525        0.30525        0.30525        0.30525        0.30525        0.30525        0.30525        0.30525        0.30525        0.30525        0.30525        0.30525        0.30525        0.30525        0.30525        0.30525        0.30525        0.30525        0.30525        0.30525        0.30525        0.30525        0.30525        0.30525        0.59735        0.72441        0.35304        0.18377        0.12370       -0.15267        0.10473        0.02341        0.02826        0.08605        0.30537        0.32830        0.25526        0.14876       -0.04167       -0.01411        0.03845       -0.13833       -0.14796       -0.08983       -0.11006       -0.23341       -0.15209       -0.27282       -0.28494       -0.28596       -0.35124       -0.42922       -0.37323       -0.28136       -0.25170       -0.35068       -0.26128       -0.31963       -0.25715       -0.18112       -0.13112       -0.09366       -0.02147        0.01015        0.11403        0.15804        0.20908        0.33115        0.39546        0.35232        0.45971        0.54830        0.55654        0.63831        0.58022        0.61545        0.59648        0.61182        0.61334        0.55221        0.56840        0.55097        0.38951        0.32511        0.35755        0.34106        0.18719        0.15149        0.12010        0.07704        0.08201       -0.00795        0.05022        0.02632       -0.01816        0.08932        0.15670        0.25370        0.34722        0.33543        0.36429        0.45830        0.49212        0.42151        0.64583        0.53023        0.47835        0.56515        0.49748        0.52556        0.48547        0.36209        0.30362        0.26203        0.21477        0.19853        0.18284        0.16193        0.11213        0.18570        0.17633        0.21871        0.19296        0.25864        0.29922        0.32454        0.44300        0.42478        0.40764        0.43395        0.47497        0.45073        0.43821        0.38328        0.39851        0.33501        0.28040        0.23013        0.24063        0.23051        0.18094        0.15365        0.20617        0.20749        0.25545        0.32869        0.34788        0.40565        0.38586        0.43888        0.45341        0.44649        0.42063        0.38829        0.40477        0.36816        0.32832        0.32305        0.30338        0.25121        0.26737        0.26568        0.21991        0.28010        0.26197        0.27200        0.31183        0.36262        0.40122        0.39545        0.41298        0.37352        0.40257        0.38603        0.29629        0.27948        0.23780        0.25214        0.21317        0.19414        0.27744        0.32785        0.30384        0.27417        0.33145        0.25973        0.32542        0.36523        0.36175        0.35953        0.37923        0.31856        0.32942        0.31139        0.27624        0.27313        0.23907        0.27981        0.29495        0.30162        0.32271        0.36571        0.37151        0.36174        0.33024        0.34870        0.32620        0.31177        0.30979        0.27747        0.28061        0.25032        0.30431        0.31745        0.30641        0.28605        0.31785        0.32101        0.32568        0.33440        0.30287        0.26971        0.28365        0.27925        0.26110        0.24042        0.22720        0.24175        0.25527        0.24013        0.27272        0.27758        0.32057        0.31118        0.27137        0.29971        0.25420        0.20294        0.25943        0.23938        0.22010        0.26694        0.29772        0.28489        0.29303        0.29364        0.29123        0.30086        0.31187        0.26561        0.30178        0.29608        0.33887        0.27106        0.26378        0.24850        0.29982        0.30544        0.31492        0.33099        0.30771        0.21614        0.27479        0.25492        0.23599        0.23914        0.24080        0.28161        0.24333        0.29846        0.30600        0.34163        0.30402        0.27966        0.23878        0.24968        0.25375        0.23596        0.26215        0.28128        0.31034        0.32516        0.28472        0.28200        0.25585        0.28835        0.26585        0.23078        0.19695        0.25727        0.32820        0.30659        0.29842        0.28670        0.23238        0.23318        0.23782        0.21622        0.22006        0.26786        0.27531        0.26191        0.22157        0.20982        0.25791        0.23861        0.24906        0.25974        0.25525        0.17866        0.21609        0.25080        0.23665        0.28208        0.23946        0.22952        0.17969        0.25857        0.28831        0.18660        0.18979        0.11825        0.14239        0.29787        0.16468        0.16700        0.32501        0.20060        0.15954        0.11045        0.19727        0.11555        0.15044       -0.05581       -0.64354       -0.99592
2.224711 2.205889 2.187150 2.168495 2.149923 2.131434 2.113030 2.094709 2.076471 2.058317 2.040246 2.022259 2.004356 1.986536 1.968799 1.951147 1.933577 1.916092 1.898689 1.881371 1.864136 1.846984 1.829916 1.812931 1.796031 1.779213 1.762479 1.745829 1.729262 1.712779 1.696379 1.680063 1.663831 1.647682 1.631616 1.615634 1.599736 1.583921 1.568189 1.552542 1.536977 1.521497 1.506100 1.490786 1.475556 1.460409 1.445346 1.430367 1.415471 1.400659 1.385930 1.741144 2.066092 1.428038 1.310082 1.052006 0.521571 0.889913 0.815641 0.810500 0.692435 1.331311 1.195314 1.206667 0.965817 0.636820 0.490189 0.744365 0.548938 0.230435 0.310532 0.465599 0.217008 0.251354 0.106535 0.015953 -0.020096 -0.015527 -0.288477 -0.180190 -0.026002 -0.059197 -0.109958 -0.017854 -0.145480 -0.116808 0.057926 0.143851 0.208518 0.259552 0.325704 0.571623 0.525533 0.600825 0.816143 0.966098 0.794939 1.155942 1.137086 1.197332 1.294891 1.210415 1.193121 1.282915 1.181238 1.310939 1.135266 1.073128 1.164691 0.932548 0.647949 0.703813 0.762404 0.470386 0.389844 0.330504 0.191572 0.188214 0.042619 0.165780 0.129656 -0.006177 0.109107 0.229441 0.337020 0.589823 0.580811 0.544372 0.709297 0.862395 0.587127 1.008337 0.970879 0.740811 0.880018 0.736962 0.812517 0.828579 0.558618 0.415665 0.363909 0.306739 0.207525 0.147814 0.169120 -0.012930 0.148967 0.122871 0.212853 0.099545 0.277046 0.303834 0.268672 0.478745 0.579112 0.489900 0.377235 0.687869 0.565627 0.495336 0.479415 0.435636 0.324647 0.321548 0.121929 0.166258 0.062938 0.157827 -0.055715 0.039755 0.008488 0.206975 0.100918 0.334876 0.308886 0.353560 0.409443 0.404375 0.534730 0.389753 0.377033 0.426174 0.235145 0.319856 0.169207 0.249248 0.093527 0.132543 0.086908 0.085026 0.021145 0.138876 0.044529 0.133455 0.228015 0.253753 0.344554 0.272664 0.315079 0.257552 0.289544 0.186817 0.091472 0.058210 -0.000921 0.008377 -0.076854 -0.048189 0.084434 0.175843 0.062460 0.088542 0.098594 0.036650 0.174625 0.205795 0.186769 0.237150 0.143229 0.109166 0.102484 0.084373 0.044047 -0.055091 -0.015652 0.127655 -0.015919 0.117148 0.090942 0.210116 0.218326 0.166351 0.156600 0.168781 0.083338 0.090202 0.104167 0.032455 -0.014394 0.028134 0.088830 0.112927 0.082102 0.043444 0.118257 0.093741 0.076675 0.106565 0.009782 -0.030315 0.029084 -0.025285 -0.016012 -0.086842 -0.094670 -0.025456 -0.067769 -0.065850 -0.008325 0.015772 0.092309 0.053603 -0.019979 0.047811 -0.080987 -0.099609 0.015268 -0.080830 -0.096845 0.043445 0.044043 0.008248 0.046259 -0.001927 0.050502 0.102497 -0.042222 -0.000093 0.091540 0.013610 0.114328 -0.040655 -0.008329 -0.053818 0.104086 0.011301 0.087701 0.117711 0.043309 -0.101489 0.014848 -0.015619 -0.046120 -0.048209 -0.031626 0.017023 -0.049202 0.119750 0.071069 0.160839 0.066159 -0.007142 -0.015986 -0.005503 0.013550 -0.037121 0.053745 0.049829 0.126446 0.120542 0.079126 0.084666 0.034094 0.128473 0.003628 0.016206 -0.097831 0.082047 0.177684 0.096137 0.130016 0.056321 -0.017759 -0.015947 -0.018626 -0.038053 -0.020948 0.057113 0.099966 0.034069 -0.019726 -0.001732 0.061692 0.056818 0.054192 0.092807 0.045351 -0.007437 0.009498 0.104386 0.083691 0.157959 0.080103 0.004843 0.062066 0.164558 0.193371 0.103456 0.069342 -0.067037 -0.097909 0.450193 0.331828 0.272560 0.605402 0.280142 0.270098 0.118282 0.464056 0.190850 0.279512 0.208419 -0.882761
0.072396 0.072838 0.074163 0.076371 0.079462 0.083435 0.088289 0.094022 0.100634 0.108122 0.116484 0.125716 0.135815 0.146776 0.158594 0.171262 0.184772 0.199116 0.214282 0.230259 0.247032 0.264586 0.282903 0.301961 0.321739 0.342209 0.363344 0.385111 0.407474 0.430396 0.453833 0.477738 0.502061 0.526747 0.551735 0.576960 0.602354 0.627843 0.653346 0.678779 0.704051 0.729069 0.753731 0.777931 0.801559 0.824499 0.846629 0.867825 0.887956 0.906890 0.924488 0.940610 0.955112 0.967851 0.978680 0.987451 0.994019 0.998237 0.999964 0.999060 0.995388 0.988821 0.979236 0.966518 0.950564 0.931282 0.908590 0.882425 0.852736 0.819493 0.782682 0.742313 0.698416 0.651047 0.600285 0.546238 0.489041 0.428857 0.365881 0.300336 0.232478 0.162594 0.091002 0.018050 0.055883 0.130388 0.205031 0.279348 0.352856 0.425047 0.495396 0.563366 0.628407 0.689964 0.747479 0.800402 0.848190 0.890315 0.926273 0.955588 0.977820 0.992569 0.999485 0.998277 0.988713 0.970632 0.943948 0.908657 0.864842 0.812675 0.752424 0.684454 0.609231 0.527317 0.439375 0.346165 0.248540 0.147440 0.043885 0.061028 0.166143 0.270251 0.372106 0.470437 0.563965 0.651424 0.731572 0.803218 0.865233 0.916578 0.956321 0.983654 0.997916 0.998607 0.985407 0.958192 0.917039 0.862242 0.794319 0.714007 0.622269 0.520285 0.409446 0.291336 0.167716 0.040506 0.088250 0.216406 0.341757 0.462066 0.575119 0.678750 0.770902 0.849658 0.913296 0.960323 0.989521 0.999980 0.991137 0.962795 0.915150 0.848800 0.764752 0.664419 0.549605 0.422480 0.285552 0.141622 0.006269 0.154897 0.300927 0.440980 0.571721 0.689935 0.792613 0.877034 0.940842 0.982127 0.999484 0.992074 0.959665 0.902665 0.822136 0.719788 0.597962 0.459586 0.308120 0.147478 0.018066 0.183983 0.345614 0.498297 0.637510 0.759000 0.858929 0.934004 0.981593 0.999836 0.987727 0.945176 0.873050 0.773168 0.648289 0.502048 0.338864 0.163824 0.017463 0.199040 0.374797 0.538674 0.684877 0.808085 0.903659 0.967832 0.997874 0.992225 0.950588 0.873990 0.764777 0.626575 0.464192 0.283467 0.091080 0.105682 0.299199 0.481803 0.646095 0.785242 0.893285 0.965408 0.998170 0.989698 0.939809 0.850073 0.723801 0.565943 0.382939 0.182460 0.026882 0.235900 0.435226 0.615737 0.768976 0.887568 0.965597 0.998919 0.985421 0.925170 0.820481 0.675864 0.497862 0.294798 0.076395 0.146661 0.363236 0.562304 0.733521 0.867767 0.957665 0.998014 0.986118 0.922006 0.808499 0.651135 0.457938 0.239048 0.006209 0.227834 0.450029 0.647754 0.809529 0.925727 0.989163 0.995583 0.943987 0.836772 0.679681 0.481538 0.253798 0.009912 0.235431 0.467203 0.670938 0.833664 0.944749 0.996643 0.985427 0.911160 0.777971 0.593885 0.370404 0.121820 0.135662 0.384967 0.609279 0.793179 0.923751 0.991510 0.991152 0.922021 0.788260 0.598637 0.366026 0.106581 0.161341 0.418481 0.646035 0.827068 0.947796 0.998685 0.975268 0.878586 0.715243 0.497021 0.240102 0.036101 0.310362 0.561273 0.768927 0.916516 0.991754 0.987952 0.904681 0.747947 0.529842 0.267673 0.017345 0.301778 0.561874 0.775578 0.924413 0.995148 0.981031 0.882517 0.707374 0.470168 0.191118 0.105567 0.393759 0.647693 0.844311 0.965377 0.999256 0.942097 0.798357 0.580554 0.308267 0.006448 0.296823 0.572914 0.795383 0.942524 0.999570 0.960250 0.827572 0.613716 0.339009 0.030078 0.282680 0.568056 0.797160 0.946401 0.999962
1.000000 1.000000 1.000000 1.000000 1.000000 1.000000 1.000000 1.000000 1.000000 1.000000 1.000000 1.000000 1.000000 1.000000 1.000000 1.000000 1.000000 1.000000 1.000000 1.000000 1.000000 1.000000 1.000000 1.000000 1.000000 1.000000 1.000000 1.000000 1.000000 1.000000 1.000000 1.000000 1.000000 1.000000 1.000000 1.000000 1.000000 1.000000 1.000000 1.000000 1.000000 1.000000 1.000000 1.000000 1.000000 1.000000 1.000000 1.000000 1.000000 1.000000 1.000000 1.000000 0.781340 0.781340 0.781340 0.781340 0.781340 0.781340 0.781340 0.766715 0.766715 0.766715 0.766715 0.766715 0.766715 0.766715 0.766715 0.766715 0.766715 0.766715 0.766715 0.766715 0.766715 0.766715 0.766715 0.766715 0.766715 0.766715 0.766715 0.766715 0.766715 0.766715 0.766715 0.766715 0.766715 0.766715 0.766715 0.766715 0.766715 0.766715 0.766715 0.766715 0.766715 0.766715 0.766715 0.766715 0.766715 0.766715 0.766715 0.766715 0.766715 0.766715 0.766715 0.915047 0.915241 0.917883 0.912561 0.914361 0.912325 0.905862 0.908834 0.908132 0.907982 0.908916 0.910150 0.911965 0.913838 0.920182 0.922924 0.930887 0.934127 0.935434 0.934175 0.931211 0.938713 0.936275 0.934518 0.922622 0.925969 0.925619 0.925802 0.924617 0.924740 0.925947 0.925891 0.923762 0.921909 0.919681 0.917857 0.917678 0.917258 0.917210 0.917390 0.917985 0.918423 0.919011 0.915150 0.917414 0.916300 0.912732 0.909467 0.909058 0.910244 0.904269 0.901276 0.895218 0.896596 0.896740 0.900919 0.897454 0.897680 0.898887 0.899639 0.900286 0.899539 0.899590 0.898094 0.899802 0.897354 0.893029 0.890667 0.891138 0.893389 0.899041 0.901546 0.901470 0.898966 0.893152 0.883840 0.882234 0.868896 0.844052 0.845482 0.847400 0.849681 0.849459 0.848988 0.847810 0.844706 0.840127 0.834694 0.838707 0.837847 0.831599 0.815133 0.814631 0.809651 0.816718 0.821456 0.814008 0.817211 0.812531 0.815159 0.815963 0.813694 0.813687 0.809951 0.813037 0.820555 0.820493 0.815682 0.811560 0.803969 0.781701 0.779755 0.785872 0.798999 0.799520 0.794987 0.782188 0.789580 0.786758 0.783665 0.796746 0.796327 0.794415 0.772518 0.738389 0.721474 0.712374 0.713987 0.716735 0.710808 0.706660 0.705528 0.710126 0.670180 0.661825 0.649718 0.648407 0.657813 0.656985 0.655323 0.639432 0.656625 0.652330 0.631339 0.626119 0.577761 0.564925 0.510269 0.514167 0.514866 0.486578 0.475752 0.462029 0.481258 0.493840 0.493940 0.489718 0.461881 0.446860 0.437233 0.439164 0.446032 0.444737 0.449349 0.418963 0.403387 0.393310 0.407276 0.409076 0.410313 0.434895 0.453503 0.456747 0.440663 0.423021 0.418350 0.433074 0.442927 0.454373 0.453342 0.443157 0.420857 0.399486 0.408318 0.442877 0.445246 0.445224 0.433278 0.442100 0.453239 0.436636 0.422819 0.404880 0.451165 0.455468 0.446552 0.397203 0.377654 0.392961 0.396029 0.396177 0.372860 0.379050 0.400780 0.400201 0.406600 0.407525 0.446771 0.501087 0.489030 0.477106 0.499804 0.488035 0.478386 0.456707 0.447390 0.440400 0.422431 0.412193 0.393138 0.389702 0.378784 0.382046 0.405013 0.410157 0.427176 0.402186 0.374928 0.274872 0.349321 0.249768 0.264308 0.264308 0.264308 0.264308 0.264308 0.264308 0.264308 0.264308 0.301276 0.301276 0.301276 0.301276 0.301276 0.301276 0.301276 0.301276 0.301276 0.301276 0.301276 0.301276 0.301276 0.301276 0.301276 0.301276 0.301276 0.301276 0.301276 0.301276 0.301276
0.000000 0.000000 0.000000 0.000000 0.000000 0.000000 0.000000 0.000000 0.000000 0.000000 0.000000 0.000000 0.000000 0.000000 0.000000 0.000000 0.000000 0.000000 0.000000 0.000000 0.000000 0.000000 0.000000 0.000000 0.000000 0.000000 0.000000 0.000000 0.000000 0.000000 0.000000 0.000000 0.000000 0.000000 0.000000 0.000000 0.000000 0.000000 0.000000 0.000000 0.000000 0.000000 0.000000 0.000000 0.000000 0.000000 0.000000 0.000000 0.000000 0.000000 0.000000 0.000000 0.173422 0.173422 0.173422 0.173422 0.173422 0.173422 0.173422 0.191565 0.191565 0.191565 0.191565 0.191565 0.191565 0.191565 0.191565 0.191565 0.191565 0.191565 0.191565 0.191565 0.191565 0.191565 0.191565 0.191565 0.191565 0.191565 0.191565 0.191565 0.191565 0.191565 0.191565 0.191565 0.191565 0.191565 0.191565 0.191565 0.191565 0.191565 0.191565 0.191565 0.191565 0.191565 0.191565 0.191565 0.191565 0.191565 0.191565 0.191565 0.191565 0.191565 0.191565 0.222222 0.222222 0.222222 0.222222 0.222222 0.222222 0.222222 0.222222 0.222222 0.222222 0.222222 0.222222 0.222222 0.222222 0.222222 0.222222 0.222222 0.222222 0.222222 0.222222 0.222222 0.222222 0.222222 0.222222 0.222222 0.222222 0.222222 0.222222 0.222222 0.222222 0.234082 0.234082 0.234082 0.234082 0.234082 0.234082 0.234082 0.234082 0.234082 0.234082 0.234082 0.234082 0.234082 0.234082 0.234082 0.234082 0.234082 0.234082 0.234082 0.234082 0.234082 0.234082 0.234082 0.234082 0.234082 0.244339 0.244339 0.244339 0.244339 0.244339 0.244339 0.244339 0.244339 0.244339 0.244339 0.244339 0.244339 0.244339 0.244339 0.244339 0.244339 0.244339 0.244339 0.244339 0.244339 0.244339 0.248069 0.248069 0.248069 0.248069 0.248069 0.248069 0.248069 0.248069 0.248069 0.248069 0.248069 0.248069 0.248069 0.248069 0.248069 0.248069 0.248069 0.248069 0.248069 0.256074 0.256074 0.256074 0.256074 0.256074 0.256074 0.256074 0.256074 0.256074 0.256074 0.256074 0.256074 0.256074 0.256074 0.256074 0.256074 0.256074 0.256074 0.256074 0.256074 0.256074 0.256074 0.256074 0.256074 0.256074 0.256074 0.256074 0.256074 0.256074 0.256074 0.256074 0.256074 0.256074 0.256074 0.256074 0.256074 0.256074 0.256074 0.256074 0.256074 0.256074 0.256074 0.256074 0.256074 0.256074 0.256074 0.256074 0.256074 0.256074 0.256074 0.256074 0.256074 0.256074 0.256074 0.256074 0.256074 0.256074 0.256074 0.256074 0.256074 0.256074 0.256074 0.260378 0.260378 0.260378 0.260378 0.260378 0.260378 0.260378 0.260378 0.260378 0.260378 0.260378 0.260378 0.260378 0.256074 0.256074 0.256074 0.256074 0.256074 0.256074 0.256074 0.256074 0.256074 0.256074 0.256074 0.256074 0.256074 0.260378 0.260378 0.260378 0.260378 0.260378 0.260378 0.260378 0.260378 0.260378 0.260378 0.260378 0.260378 0.251976 0.251976 0.251976 0.251976 0.251976 0.251976 0.251976 0.251976 0.251976 0.251976 0.251976 0.251976 0.256074 0.256074 0.256074 0.256074 0.256074 0.256074 0.256074 0.256074 0.256074 0.256074 0.256074 0.251976 0.251976 0.251976 0.251976 0.251976 0.251976 0.251976 0.251976 0.251976 0.251976 0.251976 0.260378 0.260378 0.260378 0.260378 0.260378 0.260378 0.260378 0.260378 0.260378 0.260378 0.244339 0.244339 0.244339 0.244339 0.244339 0.244339 0.244339 0.244339 0.244339 0.244339 0.244339 0.244339 0.244339 0.244339 0.244339 0.244339 0.244339 0.244339 0.244339 0.244339 0.244339
