# Output from CTFFind version 4.1.9, run on 2019-11-03 20:09:41
# Input file: stack6_bm3d_averaged_1_5.5_0_2500_half.mrc ; Number of micrographs: 1
# Pixel size: 3.000 Angstroms ; acceleration voltage: 300.0 keV ; spherical aberration: 0.00 mm ; amplitude contrast: 0.07
# Box size: 512 pixels ; min. res.: 30.0 Angstroms ; max. res.: 5.0 Angstroms ; min. def.: 5000.0 um; max. def. 50000.0 um; num. frames averaged: 1
# 6 lines per micrograph: #1 - spatial frequency (1/Angstroms); #2 - 1D rotational average of spectrum (assuming no astigmatism); #3 - 1D rotational average of spectrum; #4 - CTF fit; #5 - cross-correlation between spectrum and CTF fit; #6 - 2sigma of expected cross correlation of noise
0.000000 0.000651 0.001302 0.001953 0.002604 0.003255 0.003906 0.004557 0.005208 0.005859 0.006510 0.007161 0.007812 0.008464 0.009115 0.009766 0.010417 0.011068 0.011719 0.012370 0.013021 0.013672 0.014323 0.014974 0.015625 0.016276 0.016927 0.017578 0.018229 0.018880 0.019531 0.020182 0.020833 0.021484 0.022135 0.022786 0.023438 0.024089 0.024740 0.025391 0.026042 0.026693 0.027344 0.027995 0.028646 0.029297 0.029948 0.030599 0.031250 0.031901 0.032552 0.033203 0.033854 0.034505 0.035156 0.035807 0.036458 0.037109 0.037760 0.038411 0.039062 0.039714 0.040365 0.041016 0.041667 0.042318 0.042969 0.043620 0.044271 0.044922 0.045573 0.046224 0.046875 0.047526 0.048177 0.048828 0.049479 0.050130 0.050781 0.051432 0.052083 0.052734 0.053385 0.054036 0.054688 0.055339 0.055990 0.056641 0.057292 0.057943 0.058594 0.059245 0.059896 0.060547 0.061198 0.061849 0.062500 0.063151 0.063802 0.064453 0.065104 0.065755 0.066406 0.067057 0.067708 0.068359 0.069010 0.069661 0.070312 0.070964 0.071615 0.072266 0.072917 0.073568 0.074219 0.074870 0.075521 0.076172 0.076823 0.077474 0.078125 0.078776 0.079427 0.080078 0.080729 0.081380 0.082031 0.082682 0.083333 0.083984 0.084635 0.085286 0.085938 0.086589 0.087240 0.087891 0.088542 0.089193 0.089844 0.090495 0.091146 0.091797 0.092448 0.093099 0.093750 0.094401 0.095052 0.095703 0.096354 0.097005 0.097656 0.098307 0.098958 0.099609 0.100260 0.100911 0.101562 0.102214 0.102865 0.103516 0.104167 0.104818 0.105469 0.106120 0.106771 0.107422 0.108073 0.108724 0.109375 0.110026 0.110677 0.111328 0.111979 0.112630 0.113281 0.113932 0.114583 0.115234 0.115885 0.116536 0.117188 0.117839 0.118490 0.119141 0.119792 0.120443 0.121094 0.121745 0.122396 0.123047 0.123698 0.124349 0.125000 0.125651 0.126302 0.126953 0.127604 0.128255 0.128906 0.129557 0.130208 0.130859 0.131510 0.132161 0.132812 0.133464 0.134115 0.134766 0.135417 0.136068 0.136719 0.137370 0.138021 0.138672 0.139323 0.139974 0.140625 0.141276 0.141927 0.142578 0.143229 0.143880 0.144531 0.145182 0.145833 0.146484 0.147135 0.147786 0.148438 0.149089 0.149740 0.150391 0.151042 0.151693 0.152344 0.152995 0.153646 0.154297 0.154948 0.155599 0.156250 0.156901 0.157552 0.158203 0.158854 0.159505 0.160156 0.160807 0.161458 0.162109 0.162760 0.163411 0.164062 0.164714 0.165365 0.166016 0.166667 0.167318 0.167969 0.168620 0.169271 0.169922 0.170573 0.171224 0.171875 0.172526 0.173177 0.173828 0.174479 0.175130 0.175781 0.176432 0.177083 0.177734 0.178385 0.179036 0.179688 0.180339 0.180990 0.181641 0.182292 0.182943 0.183594 0.184245 0.184896 0.185547 0.186198 0.186849 0.187500 0.188151 0.188802 0.189453 0.190104 0.190755 0.191406 0.192057 0.192708 0.193359 0.194010 0.194661 0.195312 0.195964 0.196615 0.197266 0.197917 0.198568 0.199219 0.199870 0.200521 0.201172 0.201823 0.202474 0.203125 0.203776 0.204427 0.205078 0.205729 0.206380 0.207031 0.207682 0.208333 0.208984 0.209635 0.210286 0.210938 0.211589 0.212240 0.212891 0.213542 0.214193 0.214844 0.215495 0.216146 0.216797 0.217448 0.218099 0.218750 0.219401 0.220052 0.220703 0.221354 0.222005 0.222656 0.223307 0.223958 0.224609 0.225260 0.225911 0.226562 0.227214 0.227865 0.228516 0.229167 0.229818 0.230469 0.231120 0.231771 0.232422 0.233073 0.233724 0.234375 0.235026 0.235677
       0.30802        0.30802        0.30802        0.30802        0.30802        0.30802        0.30802        0.30802        0.30802        0.30802        0.30802        0.30802        0.30802        0.30802        0.30802        0.30802        0.30802        0.30802        0.30802        0.30802        0.30802        0.30802        0.30802        0.30802        0.30802        0.30802        0.30802        0.30802        0.30802        0.30802        0.30802        0.30802        0.30802        0.30802        0.30802        0.30802        0.30802        0.30802        0.30802        0.30802        0.30802        0.30802        0.30802        0.30802        0.30802        0.30802        0.30802        0.30802        0.30802        0.30802        0.30802        0.59726        0.72231        0.35369        0.18257        0.12481       -0.15080        0.10570        0.02541        0.03025        0.08717        0.30474        0.32558        0.25126        0.14663       -0.04119       -0.01401        0.03900       -0.13306       -0.14200       -0.08784       -0.10638       -0.22755       -0.14895       -0.26792       -0.28081       -0.27928       -0.34436       -0.42236       -0.36305       -0.27167       -0.24242       -0.34162       -0.25390       -0.31074       -0.25019       -0.17409       -0.12256       -0.08630       -0.01540        0.01818        0.11989        0.16332        0.20958        0.33260        0.39782        0.35224        0.46084        0.54727        0.55529        0.63776        0.57611        0.60993        0.59608        0.61021        0.61261        0.55207        0.57053        0.54860        0.38878        0.32633        0.35987        0.34130        0.18861        0.15756        0.12757        0.07937        0.08645       -0.00158        0.05718        0.03534       -0.01002        0.09322        0.15833        0.25578        0.34916        0.33759        0.36672        0.45648        0.49059        0.41926        0.64629        0.53164        0.47829        0.56781        0.49754        0.52891        0.49041        0.36403        0.30331        0.26837        0.22026        0.20578        0.18785        0.16634        0.12073        0.19632        0.18257        0.22415        0.19705        0.26113        0.30499        0.32676        0.44097        0.42762        0.40878        0.42999        0.47210        0.44555        0.43430        0.38530        0.39883        0.33405        0.28255        0.23503        0.24478        0.23643        0.18521        0.15694        0.21259        0.21620        0.26146        0.33358        0.35097        0.40784        0.38887        0.43557        0.45677        0.44839        0.42175        0.38855        0.40725        0.36781        0.32721        0.32684        0.30541        0.25202        0.27000        0.26804        0.22526        0.28840        0.26725        0.27829        0.31343        0.36742        0.40444        0.39682        0.41772        0.37153        0.40500        0.38634        0.29894        0.28070        0.23941        0.25404        0.21708        0.19578        0.28096        0.33545        0.30815        0.27927        0.33642        0.26300        0.32481        0.37014        0.36511        0.36036        0.38012        0.32133        0.33525        0.31749        0.27958        0.27590        0.23927        0.28460        0.29735        0.30768        0.32653        0.36957        0.37179        0.36456        0.32913        0.34828        0.33113        0.31605        0.31324        0.28212        0.28221        0.25009        0.30879        0.32121        0.31186        0.28754        0.32163        0.32510        0.32752        0.33769        0.30909        0.27503        0.28402        0.28338        0.26295        0.24187        0.23078        0.24224        0.25708        0.24190        0.27642        0.27841        0.32064        0.31666        0.26888        0.30020        0.26161        0.20618        0.26083        0.24072        0.22655        0.27202        0.29857        0.29044        0.29453        0.29545        0.29228        0.30217        0.31654        0.27050        0.30429        0.30172        0.34597        0.27431        0.26342        0.25360        0.30428        0.30927        0.31634        0.33402        0.30846        0.22080        0.27777        0.25273        0.23898        0.24133        0.24322        0.28287        0.23776        0.29947        0.31014        0.34183        0.30736        0.28230        0.24378        0.25664        0.26250        0.23544        0.25958        0.27943        0.31148        0.32829        0.29108        0.28657        0.26026        0.29631        0.26678        0.23251        0.19624        0.27082        0.33350        0.31088        0.30039        0.28848        0.23699        0.22333        0.23535        0.22773        0.22683        0.26767        0.27464        0.26009        0.23033        0.21407        0.26594        0.24022        0.24388        0.25694        0.25744        0.17721        0.22146        0.24934        0.23469        0.28847        0.24369        0.23790        0.19286        0.24845        0.27963        0.19407        0.20055        0.12323        0.14591        0.30895        0.16990        0.17938        0.31478        0.19300        0.16449        0.11231        0.21572        0.12052        0.15885       -0.05869       -0.61092       -0.94498
2.343610 2.323230 2.302944 2.282753 2.262656 2.242654 2.222746 2.202933 2.183214 2.163590 2.144060 2.124624 2.105283 2.086036 2.066884 2.047826 2.028863 2.009994 1.991220 1.972540 1.953954 1.935463 1.917067 1.898764 1.880557 1.862443 1.844425 1.826500 1.808670 1.790935 1.773294 1.755747 1.738295 1.720937 1.703674 1.686505 1.669431 1.652451 1.635566 1.618775 1.602078 1.585476 1.568968 1.552555 1.536236 1.520012 1.503882 1.487847 1.471906 1.456059 1.440307 1.802307 2.133196 1.478454 1.350828 1.090140 0.543147 0.923526 0.817299 0.857038 0.718540 1.373724 1.226323 1.236340 0.992134 0.653479 0.506121 0.764124 0.571884 0.247573 0.317902 0.483518 0.228634 0.259913 0.112952 0.015774 -0.013194 -0.009056 -0.292551 -0.175902 -0.015228 -0.051399 -0.104339 -0.016198 -0.141191 -0.117001 0.061020 0.154274 0.220284 0.268172 0.341387 0.590224 0.541253 0.615064 0.827779 0.995151 0.805009 1.185682 1.158950 1.221457 1.325706 1.232327 1.187747 1.331235 1.203037 1.337849 1.158146 1.099248 1.184743 0.949424 0.655941 0.719080 0.773305 0.475716 0.395469 0.343053 0.190057 0.188481 0.039772 0.170557 0.137124 -0.001428 0.106235 0.227293 0.338694 0.600508 0.588235 0.554394 0.716471 0.876731 0.589812 1.023824 0.970152 0.766353 0.899041 0.751402 0.827963 0.850174 0.578168 0.409956 0.375774 0.317966 0.210123 0.159828 0.171941 -0.015879 0.165007 0.133905 0.218846 0.106474 0.276220 0.314267 0.277771 0.490108 0.587287 0.505359 0.404585 0.595369 0.590631 0.487289 0.486632 0.437456 0.317411 0.323953 0.121658 0.173063 0.056233 0.171942 -0.066345 0.041636 0.018018 0.222313 0.102172 0.353702 0.318321 0.370567 0.418061 0.413908 0.587997 0.375991 0.394764 0.447645 0.248239 0.337215 0.184042 0.271246 0.102456 0.145729 0.106774 0.102596 0.044788 0.165104 0.067784 0.155703 0.250625 0.282405 0.346902 0.301070 0.367555 0.269471 0.313602 0.208018 0.117214 0.072651 0.018809 0.035429 -0.055959 -0.028511 0.117884 0.215302 0.090281 0.124790 0.127176 0.068847 0.210935 0.257763 0.229578 0.281031 0.176580 0.169480 0.148314 0.136389 0.090280 -0.019055 0.022485 0.178306 0.028919 0.169266 0.135630 0.274011 0.187387 0.251220 0.211638 0.227670 0.134440 0.159035 0.160741 0.090623 0.035885 0.074707 0.148401 0.170580 0.141500 0.092321 0.175077 0.163182 0.121932 0.152677 0.053180 0.009429 0.062754 0.019772 0.012206 -0.051212 -0.059624 0.004361 -0.023534 -0.047318 0.030649 0.044348 0.115463 0.075597 -0.015110 0.067785 -0.054089 -0.090752 0.027950 -0.069936 -0.084015 0.054704 0.056136 0.025385 0.078167 -0.049351 0.072314 0.128724 -0.017024 0.004497 0.102996 0.038277 0.134101 -0.032077 -0.005527 -0.046646 0.129534 0.040710 0.070249 0.116885 0.036715 -0.099853 -0.001311 -0.031587 -0.058038 -0.057495 -0.046828 0.009681 -0.090156 0.073008 0.124089 0.152620 0.058604 -0.010558 -0.016251 -0.004108 0.025076 -0.051089 0.041619 0.032184 0.130212 0.114071 0.081871 0.073549 0.033548 0.138904 -0.008156 0.010850 -0.106983 0.104307 0.188965 0.069544 0.146920 0.027081 -0.000540 -0.042231 -0.034986 -0.022148 -0.022942 0.053727 0.090405 0.034652 -0.003115 -0.037889 0.094708 0.066050 0.056682 0.089972 0.053460 -0.016012 0.026928 0.121144 0.060651 0.217314 0.111514 0.071800 0.084353 0.155438 0.214575 0.099649 0.089734 -0.053101 -0.090087 0.490534 0.310763 0.322824 0.595659 0.278423 0.288376 0.122045 0.499832 0.215136 0.332384 -0.094601 -1.676044
0.072396 0.072837 0.074161 0.076366 0.079453 0.083421 0.088269 0.093995 0.100598 0.108077 0.116428 0.125649 0.135735 0.146683 0.158486 0.171138 0.184632 0.198957 0.214105 0.230063 0.246816 0.264349 0.282644 0.301680 0.321434 0.341881 0.362992 0.384735 0.407075 0.429972 0.453385 0.477267 0.501567 0.526230 0.551196 0.576401 0.601777 0.627248 0.652735 0.678155 0.703417 0.728426 0.753083 0.777282 0.800912 0.823858 0.846000 0.867211 0.887364 0.906324 0.923954 0.940115 0.954664 0.967456 0.978344 0.987183 0.993826 0.998128 0.999947 0.999142 0.995579 0.989129 0.979669 0.967084 0.951272 0.932138 0.909603 0.883601 0.854082 0.821013 0.784382 0.744196 0.700485 0.653302 0.602728 0.548866 0.491851 0.431845 0.369040 0.303658 0.235953 0.166208 0.094741 0.021896 0.051949 0.126387 0.200987 0.275288 0.348807 0.421039 0.491462 0.559540 0.624723 0.686460 0.744193 0.797371 0.845453 0.887910 0.924239 0.953961 0.976635 0.991859 0.999282 0.998607 0.989600 0.972094 0.946000 0.911308 0.868093 0.816523 0.756857 0.689454 0.614770 0.533361 0.445882 0.353084 0.255811 0.154995 0.051652 0.053133 0.158209 0.262371 0.364379 0.462965 0.556854 0.644780 0.725500 0.797820 0.860610 0.912823 0.953520 0.981884 0.997241 0.999079 0.987065 0.961054 0.921109 0.867503 0.800734 0.721519 0.630799 0.529734 0.419692 0.302239 0.179120 0.052234 0.076387 0.204610 0.330236 0.451037 0.564795 0.669345 0.762620 0.842693 0.907823 0.956495 0.987467 0.999799 0.992892 0.966514 0.920819 0.856363 0.774112 0.675434 0.562090 0.436210 0.300264 0.157020 0.009490 0.139123 0.285498 0.426267 0.558090 0.677742 0.782193 0.868690 0.934841 0.978684 0.998760 0.994163 0.964594 0.910386 0.832525 0.732644 0.613008 0.476475 0.326440 0.166762 0.001669 0.164341 0.326628 0.480534 0.621517 0.745294 0.847978 0.926207 0.977270 0.999209 0.990909 0.952166 0.883723 0.787278 0.665468 0.521815 0.360633 0.186926 0.006233 0.175537 0.352293 0.517966 0.666729 0.793192 0.892627 0.961148 0.995881 0.995106 0.958353 0.886464 0.781604 0.647220 0.487958 0.309513 0.118447 0.078034 0.272350 0.456843 0.624066 0.767103 0.879863 0.957360 0.995949 0.993524 0.949652 0.865646 0.744556 0.591094 0.411480 0.213203 0.004745 0.204789 0.406048 0.589863 0.747663 0.871899 0.956420 0.996801 0.990606 0.937561 0.839628 0.700970 0.527820 0.328224 0.111695 0.111218 0.329442 0.531914 0.708162 0.848852 0.946306 0.994954 0.991682 0.936063 0.830457 0.679956 0.492181 0.276931 0.045704 0.188902 0.413862 0.616448 0.784967 0.909445 0.982255 0.998627 0.956987 0.859141 0.710258 0.518636 0.295291 0.053355 0.192672 0.427779 0.637362 0.808139 0.929033 0.991906 0.992166 0.929142 0.806226 0.630749 0.413602 0.168601 0.088355 0.340297 0.570311 0.762660 0.903916 0.983905 0.996513 0.940190 0.818176 0.638378 0.412923 0.157392 0.110220 0.370760 0.605259 0.796354 0.929582 0.994535 0.985719 0.903086 0.752156 0.543724 0.293155 0.019299 0.256901 0.513972 0.731618 0.892320 0.982810 0.995216 0.927820 0.785325 0.578616 0.324001 0.041987 0.244346 0.511196 0.736030 0.899528 0.987271 0.991097 0.909927 0.750006 0.524518 0.252577 0.042336 0.334355 0.597502 0.807985 0.946418 0.999643 0.962080 0.836377 0.633348 0.371124 0.073619 0.231614 0.515888 0.752094 0.917326 0.995150 0.977333 0.864797 0.667713 0.404684 0.101077 0.213366 0.507407 0.751418 0.920412 0.996652
1.000000 1.000000 1.000000 1.000000 1.000000 1.000000 1.000000 1.000000 1.000000 1.000000 1.000000 1.000000 1.000000 1.000000 1.000000 1.000000 1.000000 1.000000 1.000000 1.000000 1.000000 1.000000 1.000000 1.000000 1.000000 1.000000 1.000000 1.000000 1.000000 1.000000 1.000000 1.000000 1.000000 1.000000 1.000000 1.000000 1.000000 1.000000 1.000000 1.000000 1.000000 1.000000 1.000000 1.000000 1.000000 1.000000 1.000000 1.000000 1.000000 1.000000 1.000000 1.000000 0.777242 0.777242 0.777242 0.777242 0.777242 0.777242 0.777242 0.762062 0.762062 0.762062 0.762062 0.762062 0.762062 0.762062 0.762062 0.762062 0.762062 0.762062 0.762062 0.762062 0.762062 0.762062 0.762062 0.762062 0.762062 0.762062 0.762062 0.762062 0.762062 0.762062 0.762062 0.762062 0.762062 0.762062 0.762062 0.762062 0.762062 0.762062 0.762062 0.762062 0.762062 0.762062 0.762062 0.762062 0.762062 0.762062 0.762062 0.762062 0.762062 0.762062 0.762062 0.908641 0.908938 0.911665 0.905929 0.907767 0.905428 0.899493 0.902420 0.901563 0.901426 0.902361 0.903623 0.905560 0.910753 0.917304 0.919254 0.927073 0.930528 0.931710 0.931474 0.928544 0.935235 0.932595 0.930457 0.919282 0.922770 0.922200 0.922825 0.921391 0.921794 0.922666 0.923053 0.920606 0.918950 0.916453 0.914678 0.915160 0.914675 0.914627 0.914790 0.914130 0.915179 0.915824 0.911639 0.914198 0.912799 0.909703 0.905760 0.905754 0.906862 0.900286 0.897779 0.887778 0.889779 0.888912 0.892638 0.890019 0.889362 0.890488 0.891284 0.891982 0.890058 0.890155 0.886414 0.888225 0.884321 0.878569 0.874576 0.874286 0.876948 0.883538 0.886966 0.886884 0.884261 0.878424 0.869188 0.867302 0.852716 0.828369 0.829167 0.831597 0.833805 0.834547 0.833455 0.832295 0.829290 0.824005 0.818577 0.823718 0.823870 0.816106 0.802356 0.802231 0.797536 0.804996 0.809172 0.801157 0.802941 0.802132 0.807539 0.808329 0.807100 0.806566 0.800861 0.802744 0.811189 0.811469 0.804026 0.797634 0.793115 0.774718 0.776490 0.782155 0.794010 0.796633 0.790525 0.775266 0.785378 0.781673 0.792505 0.805794 0.806390 0.804972 0.788053 0.747659 0.732855 0.726000 0.728946 0.730286 0.720467 0.718505 0.717730 0.720684 0.685105 0.677350 0.667213 0.664330 0.672453 0.673660 0.677529 0.627610 0.646150 0.643914 0.625629 0.621001 0.582426 0.566326 0.509609 0.514827 0.515382 0.490043 0.477730 0.466607 0.482811 0.494970 0.495146 0.488693 0.466197 0.449642 0.444166 0.448278 0.456814 0.456827 0.463151 0.424701 0.403881 0.406965 0.426423 0.431190 0.429669 0.444651 0.451506 0.454094 0.440174 0.422334 0.417678 0.431545 0.441960 0.450053 0.450276 0.438114 0.417515 0.394646 0.398967 0.439636 0.437172 0.432166 0.415310 0.423143 0.423094 0.408125 0.383778 0.363784 0.402365 0.410585 0.408334 0.367833 0.331331 0.342883 0.340272 0.336600 0.326083 0.363910 0.384559 0.381942 0.387479 0.378377 0.423384 0.500904 0.491273 0.485240 0.502715 0.492460 0.476231 0.457713 0.443772 0.440302 0.430136 0.419919 0.401668 0.394842 0.380151 0.379112 0.397660 0.400221 0.429935 0.412824 0.360723 0.213491 0.267507 0.267507 0.267507 0.267507 0.267507 0.267507 0.267507 0.267507 0.267507 0.267507 0.267507 0.209269 0.209269 0.209269 0.209269 0.209269 0.209269 0.209269 0.209269 0.209269 0.209269 0.209269 0.209269 0.209269 0.209269 0.209269 0.209269 0.209269 0.209269 0.209269 0.209269
0.000000 0.000000 0.000000 0.000000 0.000000 0.000000 0.000000 0.000000 0.000000 0.000000 0.000000 0.000000 0.000000 0.000000 0.000000 0.000000 0.000000 0.000000 0.000000 0.000000 0.000000 0.000000 0.000000 0.000000 0.000000 0.000000 0.000000 0.000000 0.000000 0.000000 0.000000 0.000000 0.000000 0.000000 0.000000 0.000000 0.000000 0.000000 0.000000 0.000000 0.000000 0.000000 0.000000 0.000000 0.000000 0.000000 0.000000 0.000000 0.000000 0.000000 0.000000 0.000000 0.173422 0.173422 0.173422 0.173422 0.173422 0.173422 0.173422 0.191565 0.191565 0.191565 0.191565 0.191565 0.191565 0.191565 0.191565 0.191565 0.191565 0.191565 0.191565 0.191565 0.191565 0.191565 0.191565 0.191565 0.191565 0.191565 0.191565 0.191565 0.191565 0.191565 0.191565 0.191565 0.191565 0.191565 0.191565 0.191565 0.191565 0.191565 0.191565 0.191565 0.191565 0.191565 0.191565 0.191565 0.191565 0.191565 0.191565 0.191565 0.191565 0.191565 0.191565 0.222222 0.222222 0.222222 0.222222 0.222222 0.222222 0.222222 0.222222 0.222222 0.222222 0.222222 0.222222 0.222222 0.222222 0.222222 0.222222 0.222222 0.222222 0.222222 0.222222 0.222222 0.222222 0.222222 0.222222 0.222222 0.222222 0.222222 0.222222 0.222222 0.222222 0.234082 0.234082 0.234082 0.234082 0.234082 0.234082 0.234082 0.234082 0.234082 0.234082 0.234082 0.234082 0.234082 0.234082 0.234082 0.234082 0.234082 0.234082 0.234082 0.234082 0.234082 0.234082 0.234082 0.234082 0.234082 0.244339 0.244339 0.244339 0.244339 0.244339 0.244339 0.244339 0.244339 0.244339 0.244339 0.244339 0.244339 0.244339 0.244339 0.244339 0.244339 0.244339 0.244339 0.244339 0.244339 0.244339 0.248069 0.248069 0.248069 0.248069 0.248069 0.248069 0.248069 0.248069 0.248069 0.248069 0.248069 0.248069 0.248069 0.248069 0.248069 0.248069 0.248069 0.248069 0.248069 0.256074 0.256074 0.256074 0.256074 0.256074 0.256074 0.256074 0.256074 0.256074 0.256074 0.256074 0.256074 0.256074 0.256074 0.256074 0.256074 0.256074 0.256074 0.256074 0.256074 0.256074 0.256074 0.256074 0.256074 0.256074 0.256074 0.256074 0.256074 0.256074 0.256074 0.256074 0.256074 0.256074 0.256074 0.256074 0.256074 0.256074 0.256074 0.256074 0.256074 0.256074 0.256074 0.256074 0.256074 0.256074 0.256074 0.256074 0.256074 0.256074 0.256074 0.256074 0.256074 0.256074 0.256074 0.256074 0.256074 0.256074 0.256074 0.256074 0.256074 0.256074 0.256074 0.260378 0.260378 0.260378 0.260378 0.260378 0.260378 0.260378 0.260378 0.260378 0.260378 0.260378 0.260378 0.260378 0.256074 0.256074 0.256074 0.256074 0.256074 0.256074 0.256074 0.256074 0.256074 0.256074 0.256074 0.256074 0.256074 0.260378 0.260378 0.260378 0.260378 0.260378 0.260378 0.260378 0.260378 0.260378 0.260378 0.260378 0.260378 0.251976 0.251976 0.251976 0.251976 0.251976 0.251976 0.251976 0.251976 0.251976 0.251976 0.251976 0.251976 0.256074 0.256074 0.256074 0.256074 0.256074 0.256074 0.256074 0.256074 0.256074 0.256074 0.256074 0.251976 0.251976 0.251976 0.251976 0.251976 0.251976 0.251976 0.251976 0.251976 0.251976 0.251976 0.248069 0.248069 0.248069 0.248069 0.248069 0.248069 0.248069 0.248069 0.248069 0.248069 0.248069 0.256074 0.256074 0.256074 0.256074 0.256074 0.256074 0.256074 0.256074 0.256074 0.256074 0.256074 0.256074 0.256074 0.256074 0.256074 0.256074 0.256074 0.256074 0.256074 0.256074
