# Output from CTFFind version 4.1.9, run on 2019-11-02 17:48:36
# Input file: stack11_bm3d_averaged_1_0.75_0_2000_half.mrc ; Number of micrographs: 1
# Pixel size: 3.000 Angstroms ; acceleration voltage: 300.0 keV ; spherical aberration: 0.00 mm ; amplitude contrast: 0.07
# Box size: 512 pixels ; min. res.: 30.0 Angstroms ; max. res.: 5.0 Angstroms ; min. def.: 5000.0 um; max. def. 50000.0 um; num. frames averaged: 1
# 6 lines per micrograph: #1 - spatial frequency (1/Angstroms); #2 - 1D rotational average of spectrum (assuming no astigmatism); #3 - 1D rotational average of spectrum; #4 - CTF fit; #5 - cross-correlation between spectrum and CTF fit; #6 - 2sigma of expected cross correlation of noise
0.000000 0.000651 0.001302 0.001953 0.002604 0.003255 0.003906 0.004557 0.005208 0.005859 0.006510 0.007161 0.007812 0.008464 0.009115 0.009766 0.010417 0.011068 0.011719 0.012370 0.013021 0.013672 0.014323 0.014974 0.015625 0.016276 0.016927 0.017578 0.018229 0.018880 0.019531 0.020182 0.020833 0.021484 0.022135 0.022786 0.023438 0.024089 0.024740 0.025391 0.026042 0.026693 0.027344 0.027995 0.028646 0.029297 0.029948 0.030599 0.031250 0.031901 0.032552 0.033203 0.033854 0.034505 0.035156 0.035807 0.036458 0.037109 0.037760 0.038411 0.039062 0.039714 0.040365 0.041016 0.041667 0.042318 0.042969 0.043620 0.044271 0.044922 0.045573 0.046224 0.046875 0.047526 0.048177 0.048828 0.049479 0.050130 0.050781 0.051432 0.052083 0.052734 0.053385 0.054036 0.054688 0.055339 0.055990 0.056641 0.057292 0.057943 0.058594 0.059245 0.059896 0.060547 0.061198 0.061849 0.062500 0.063151 0.063802 0.064453 0.065104 0.065755 0.066406 0.067057 0.067708 0.068359 0.069010 0.069661 0.070312 0.070964 0.071615 0.072266 0.072917 0.073568 0.074219 0.074870 0.075521 0.076172 0.076823 0.077474 0.078125 0.078776 0.079427 0.080078 0.080729 0.081380 0.082031 0.082682 0.083333 0.083984 0.084635 0.085286 0.085938 0.086589 0.087240 0.087891 0.088542 0.089193 0.089844 0.090495 0.091146 0.091797 0.092448 0.093099 0.093750 0.094401 0.095052 0.095703 0.096354 0.097005 0.097656 0.098307 0.098958 0.099609 0.100260 0.100911 0.101562 0.102214 0.102865 0.103516 0.104167 0.104818 0.105469 0.106120 0.106771 0.107422 0.108073 0.108724 0.109375 0.110026 0.110677 0.111328 0.111979 0.112630 0.113281 0.113932 0.114583 0.115234 0.115885 0.116536 0.117188 0.117839 0.118490 0.119141 0.119792 0.120443 0.121094 0.121745 0.122396 0.123047 0.123698 0.124349 0.125000 0.125651 0.126302 0.126953 0.127604 0.128255 0.128906 0.129557 0.130208 0.130859 0.131510 0.132161 0.132812 0.133464 0.134115 0.134766 0.135417 0.136068 0.136719 0.137370 0.138021 0.138672 0.139323 0.139974 0.140625 0.141276 0.141927 0.142578 0.143229 0.143880 0.144531 0.145182 0.145833 0.146484 0.147135 0.147786 0.148438 0.149089 0.149740 0.150391 0.151042 0.151693 0.152344 0.152995 0.153646 0.154297 0.154948 0.155599 0.156250 0.156901 0.157552 0.158203 0.158854 0.159505 0.160156 0.160807 0.161458 0.162109 0.162760 0.163411 0.164062 0.164714 0.165365 0.166016 0.166667 0.167318 0.167969 0.168620 0.169271 0.169922 0.170573 0.171224 0.171875 0.172526 0.173177 0.173828 0.174479 0.175130 0.175781 0.176432 0.177083 0.177734 0.178385 0.179036 0.179688 0.180339 0.180990 0.181641 0.182292 0.182943 0.183594 0.184245 0.184896 0.185547 0.186198 0.186849 0.187500 0.188151 0.188802 0.189453 0.190104 0.190755 0.191406 0.192057 0.192708 0.193359 0.194010 0.194661 0.195312 0.195964 0.196615 0.197266 0.197917 0.198568 0.199219 0.199870 0.200521 0.201172 0.201823 0.202474 0.203125 0.203776 0.204427 0.205078 0.205729 0.206380 0.207031 0.207682 0.208333 0.208984 0.209635 0.210286 0.210938 0.211589 0.212240 0.212891 0.213542 0.214193 0.214844 0.215495 0.216146 0.216797 0.217448 0.218099 0.218750 0.219401 0.220052 0.220703 0.221354 0.222005 0.222656 0.223307 0.223958 0.224609 0.225260 0.225911 0.226562 0.227214 0.227865 0.228516 0.229167 0.229818 0.230469 0.231120 0.231771 0.232422 0.233073 0.233724 0.234375 0.235026 0.235677
       0.31625        0.31625        0.31625        0.31625        0.31625        0.31625        0.31625        0.31625        0.31625        0.31625        0.31625        0.31625        0.31625        0.31625        0.31625        0.31625        0.31625        0.31625        0.31625        0.31625        0.31625        0.31625        0.31625        0.31625        0.31625        0.31625        0.31625        0.31625        0.31625        0.31625        0.31625        0.31625        0.31625        0.31625        0.31625        0.31625        0.31625        0.31625        0.31625        0.31625        0.31625        0.31625        0.31625        0.31625        0.31625        0.31625        0.31625        0.31625        0.31625        0.31625        0.31625        0.68445        0.87234        0.52160        0.08546       -0.06818       -0.42675       -0.20847       -0.29701       -0.11840       -0.07912       -0.11914       -0.06998       -0.21074       -0.23903       -0.26116       -0.33103       -0.33798       -0.49382       -0.38529       -0.46872       -0.45208       -0.42238       -0.47225       -0.55022       -0.56565       -0.59006       -0.62965       -0.58094       -0.41817       -0.37926       -0.33091       -0.31760       -0.21473       -0.20088        0.01877        0.06661        0.10083        0.22214        0.37131        0.44158        0.51617        0.55857        0.55311        0.57196        0.69874        0.81455        0.74668        0.73432        0.67454        0.58240        0.48623        0.40606        0.49180        0.37116        0.19972        0.07670        0.04397        0.00580       -0.06086       -0.04210       -0.02882       -0.07592       -0.00690       -0.02313        0.20902        0.24781        0.29213        0.42979        0.46686        0.40351        0.53149        0.63110        0.70391        0.76819        0.69053        0.66142        0.70106        0.58863        0.50677        0.41829        0.28868        0.18386        0.15705        0.10821        0.03590        0.01218       -0.00246        0.07494        0.13214        0.20215        0.28352        0.40318        0.41571        0.51120        0.60210        0.63672        0.61223        0.63097        0.55259        0.44510        0.44155        0.35034        0.22864        0.18459        0.14879        0.10272        0.11794        0.06301        0.09786        0.21870        0.26217        0.33932        0.34486        0.45242        0.51148        0.53633        0.55134        0.46821        0.42608        0.39272        0.37644        0.30751        0.25027        0.20058        0.18377        0.16055        0.19063        0.17675        0.26788        0.33249        0.36306        0.42069        0.46182        0.47835        0.44600        0.39277        0.41236        0.37572        0.29160        0.27534        0.22844        0.21175        0.19318        0.21047        0.22989        0.32843        0.37149        0.36475        0.45706        0.43826        0.43930        0.42951        0.39484        0.34261        0.32891        0.27785        0.23328        0.23443        0.26761        0.26889        0.29861        0.29762        0.33978        0.32866        0.41034        0.41643        0.37333        0.34221        0.36243        0.28049        0.28000        0.26269        0.27623        0.25840        0.28007        0.29323        0.31561        0.35245        0.35731        0.35866        0.33140        0.35081        0.28662        0.32360        0.26686        0.24849        0.28092        0.28079        0.30624        0.31515        0.33164        0.32393        0.31146        0.31717        0.28637        0.28498        0.25904        0.28170        0.26993        0.31106        0.28277        0.26041        0.30750        0.31092        0.31533        0.29127        0.29831        0.29340        0.24327        0.23813        0.22003        0.27681        0.27103        0.30561        0.31674        0.32049        0.31352        0.30129        0.27577        0.28168        0.33079        0.27386        0.26781        0.29370        0.29648        0.34123        0.33918        0.36257        0.33154        0.31188        0.28030        0.26367        0.26231        0.22515        0.26492        0.29911        0.29624        0.27639        0.29430        0.26951        0.32215        0.33258        0.24973        0.21584        0.26776        0.33746        0.27856        0.31522        0.32662        0.32820        0.29687        0.31970        0.34292        0.29676        0.29531        0.26310        0.27442        0.35009        0.35071        0.25633        0.26835        0.25391        0.27680        0.22768        0.29010        0.22055        0.25186        0.32707        0.31688        0.34381        0.29825        0.23715        0.23829        0.24323        0.24355        0.17998        0.21704        0.25801        0.29064        0.28126        0.30118        0.28913        0.27977        0.28426        0.20963        0.18099        0.18530        0.23397        0.20055        0.22305        0.23197        0.21011        0.24906        0.33035        0.29110        0.30431        0.21838        0.26326        0.23594        0.28368        0.30313        0.14804        0.21181        0.22233        0.13548        0.23525        0.11051        0.17564        0.18749        0.13492       -0.12258       -0.64242
2.581106 2.554184 2.527408 2.500778 2.474294 2.447956 2.421764 2.395717 2.369817 2.344062 2.318453 2.292990 2.267673 2.242501 2.217476 2.192596 2.167862 2.143274 2.118832 2.094536 2.070385 2.046381 2.022522 1.998809 1.975242 1.951821 1.928545 1.905416 1.882432 1.859594 1.836903 1.814357 1.791956 1.769702 1.747593 1.725631 1.703814 1.682143 1.660618 1.639239 1.618005 1.596918 1.575976 1.555180 1.534530 1.514026 1.493667 1.473455 1.453388 1.433468 1.413693 1.636010 2.041634 1.613439 1.126583 0.984805 0.422215 0.810469 0.561885 0.834350 0.771220 0.785802 0.751770 0.709303 0.559424 0.510204 0.485938 0.446051 0.203529 0.378999 0.203176 0.304333 0.238398 0.180041 0.128459 0.002761 0.042976 -0.016473 -0.054955 0.103653 0.206837 0.197627 0.153442 0.330888 0.197701 0.498545 0.572137 0.545499 0.589417 0.877436 0.806907 0.945795 0.888311 0.972272 0.939821 1.080261 1.141056 1.080539 1.124700 0.956267 0.943391 0.785341 0.651704 0.768029 0.701994 0.460149 0.307246 0.253542 0.210150 0.149095 0.089199 0.124849 0.065120 0.155963 0.049907 0.261148 0.377175 0.361504 0.478241 0.585102 0.470059 0.540574 0.699482 0.748783 0.781906 0.734803 0.734601 0.719307 0.627986 0.573626 0.430788 0.285455 0.206431 0.077374 0.134267 -0.043148 -0.027477 -0.081629 -0.036961 0.008158 0.142673 0.093199 0.304764 0.277508 0.366657 0.453579 0.525594 0.511004 0.517341 0.505460 0.333051 0.306823 0.275563 0.101786 0.047196 0.000820 -0.037344 -0.042650 -0.093551 -0.102642 -0.018638 0.054102 0.137146 0.134429 0.226682 0.333100 0.304870 0.411925 0.397332 0.282044 0.232299 0.251748 0.211578 0.100405 0.073108 0.018145 0.002433 0.006045 -0.017429 0.058157 0.147604 0.143188 0.223840 0.251634 0.306513 0.260345 0.219713 0.188077 0.208758 0.153086 0.046537 0.050503 -0.009694 -0.010591 -0.031645 0.015073 0.016432 0.172198 0.121764 0.182557 0.235353 0.201803 0.193072 0.197860 0.135215 0.105216 0.065975 0.044697 -0.041678 0.006920 0.020699 0.052380 0.046557 0.077774 0.098338 0.119076 0.138016 0.184208 0.075030 0.095193 0.069150 0.000528 0.004506 0.009120 -0.012313 0.016929 0.003308 0.031721 0.070757 0.086753 0.103866 0.050384 0.094776 0.054611 0.012501 0.062111 -0.036723 -0.015184 0.018779 -0.000213 0.049584 0.055965 0.045541 0.058971 0.045667 0.045760 0.017772 -0.002212 0.002724 0.016738 -0.013046 0.068140 -0.016617 0.004949 0.053303 0.046634 0.030604 0.042240 0.036729 0.016469 -0.027256 -0.046433 -0.019138 0.014302 0.016652 0.054831 0.060714 0.050356 0.082276 0.057744 0.020424 0.059600 0.084599 0.019808 0.023009 0.056408 0.055329 0.101007 0.109576 0.116741 0.110147 0.062293 0.042613 0.030081 0.005839 -0.006019 0.044496 0.075991 0.045658 0.027335 0.031041 0.027105 0.084555 0.067000 -0.049070 -0.055011 0.029350 0.092779 0.010902 0.034613 0.057871 0.090624 0.019244 0.056301 0.084798 0.032066 0.040859 -0.027241 0.007193 0.108862 0.066603 -0.059707 -0.017578 -0.050400 0.010508 -0.101095 0.033563 -0.111663 -0.032994 0.049902 0.023224 0.028522 -0.047325 -0.067148 -0.094249 -0.080199 -0.068503 -0.135269 -0.103130 -0.040464 0.007672 -0.029368 0.030462 -0.025090 -0.042608 0.053120 -0.114166 -0.093389 -0.101195 -0.006224 -0.061032 -0.021597 -0.014508 0.012196 0.012788 0.168970 -0.012604 0.138795 -0.004159 0.270359 0.249121 0.323360 0.279214 0.113893 0.214660 0.266152 0.056864 0.260240 0.116473 0.161100 0.236237 0.137418 -0.662347
0.072396 0.072899 0.074406 0.076917 0.080432 0.084950 0.090469 0.096989 0.104506 0.113018 0.122522 0.133013 0.144486 0.156935 0.170352 0.184727 0.200051 0.216309 0.233487 0.251567 0.270530 0.290353 0.311010 0.332471 0.354704 0.377670 0.401330 0.425636 0.450539 0.475982 0.501904 0.528239 0.554914 0.581849 0.608960 0.636156 0.663337 0.690398 0.717229 0.743710 0.769716 0.795115 0.819768 0.843529 0.866248 0.887768 0.907927 0.926558 0.943490 0.958550 0.971561 0.982345 0.990725 0.996523 0.999564 0.999678 0.996697 0.990463 0.980825 0.967643 0.950790 0.930151 0.905632 0.877155 0.844662 0.808121 0.767523 0.722890 0.674269 0.621743 0.565426 0.505470 0.442062 0.375428 0.305832 0.233582 0.159021 0.082538 0.004557 0.074457 0.154001 0.233537 0.312495 0.390275 0.466253 0.539782 0.610199 0.676835 0.739013 0.796062 0.847323 0.892156 0.929949 0.960129 0.982166 0.995591 0.999997 0.995055 0.980519 0.956236 0.922156 0.878337 0.824953 0.762299 0.690796 0.610993 0.523566 0.429321 0.329187 0.224215 0.115566 0.004504 0.107614 0.219359 0.329241 0.435730 0.537279 0.632341 0.719404 0.797007 0.863773 0.918434 0.959861 0.987087 0.999335 0.996046 0.976893 0.941807 0.890990 0.824924 0.744380 0.650419 0.544389 0.427909 0.302855 0.171339 0.035675 0.101654 0.238043 0.370807 0.497239 0.614662 0.720488 0.812288 0.887840 0.945198 0.982749 0.999262 0.993938 0.966449 0.916970 0.846193 0.755342 0.646162 0.520901 0.382276 0.233431 0.077865 0.080638 0.238094 0.390419 0.533537 0.663491 0.776556 0.869355 0.938967 0.983037 0.999860 0.988466 0.948675 0.881137 0.787348 0.669639 0.531138 0.375703 0.207833 0.032551 0.144743 0.318428 0.482841 0.632462 0.762110 0.867132 0.943576 0.988369 0.999449 0.975880 0.917930 0.827108 0.706147 0.558964 0.390544 0.206798 0.014371 0.179585 0.367674 0.542540 0.697152 0.825102 0.920890 0.980174 0.999997 0.978954 0.917309 0.817041 0.681815 0.516893 0.328944 0.125809 0.083805 0.290699 0.485575 0.659453 0.804104 0.912458 0.978969 0.999932 0.973723 0.900939 0.784449 0.629321 0.442640 0.233229 0.011247 0.212284 0.426011 0.618830 0.780481 0.902104 0.976767 0.999884 0.969544 0.886693 0.755172 0.581591 0.375043 0.146665 0.090933 0.324348 0.540130 0.725574 0.869482 0.962872 0.999578 0.976707 0.894908 0.758432 0.574975 0.355301 0.112653 0.138018 0.380946 0.600547 0.782432 0.914366 0.987153 0.995306 0.937531 0.816921 0.640872 0.420693 0.170930 0.091538 0.348637 0.582312 0.775833 0.914999 0.989242 0.992486 0.923703 0.787124 0.592070 0.352378 0.085482 0.188801 0.449745 0.677253 0.853453 0.964127 0.999929 0.957243 0.838614 0.652702 0.413733 0.140478 0.145151 0.419856 0.660819 0.847652 0.964141 0.999735 0.950581 0.820016 0.618450 0.362629 0.074334 0.221438 0.498607 0.732304 0.901149 0.989265 0.987846 0.896138 0.721692 0.479857 0.192520 0.113790 0.410324 0.668800 0.864113 0.976844 0.995281 0.916722 0.747956 0.504800 0.210725 0.105328 0.411751 0.677405 0.874835 0.983150 0.990348 0.894746 0.705386 0.441318 0.129791 0.196470 0.502665 0.755625 0.927455 0.998684 0.960598 0.816420 0.581214 0.280432 0.052714 0.380862 0.666665 0.877072 0.987219 0.983490 0.865327 0.645570 0.349208 0.010676 0.330074 0.632244 0.859104 0.982529 0.986601 0.869811 0.645528 0.340650 0.007510 0.355670 0.659958 0.881440 0.991201 0.974256 0.831740 0.581084 0.254069 0.107090
1.000000 1.000000 1.000000 1.000000 1.000000 1.000000 1.000000 1.000000 1.000000 1.000000 1.000000 1.000000 1.000000 1.000000 1.000000 1.000000 1.000000 1.000000 1.000000 1.000000 1.000000 1.000000 1.000000 1.000000 1.000000 1.000000 1.000000 1.000000 1.000000 1.000000 1.000000 1.000000 1.000000 1.000000 1.000000 1.000000 1.000000 1.000000 1.000000 1.000000 1.000000 1.000000 1.000000 1.000000 1.000000 1.000000 1.000000 1.000000 1.000000 1.000000 1.000000 1.000000 0.933101 0.933101 0.933101 0.923986 0.923986 0.923986 0.923986 0.923986 0.923986 0.923986 0.923986 0.923986 0.923986 0.923986 0.923986 0.923986 0.923986 0.923986 0.923986 0.923986 0.923986 0.923986 0.923986 0.923986 0.923986 0.923986 0.923986 0.923986 0.923986 0.923986 0.923986 0.923986 0.923986 0.923986 0.923986 0.923986 0.923986 0.923986 0.923986 0.923986 0.923986 0.923986 0.923986 0.923986 0.949947 0.951164 0.959014 0.958841 0.958332 0.956213 0.955308 0.954173 0.953725 0.953996 0.954602 0.955435 0.967192 0.968208 0.969746 0.970545 0.971247 0.971895 0.971741 0.972529 0.971768 0.971222 0.970711 0.966732 0.967373 0.967958 0.968114 0.969160 0.969041 0.971290 0.971427 0.970844 0.970001 0.969300 0.968627 0.968231 0.967955 0.968050 0.968488 0.969760 0.972911 0.972318 0.972015 0.972173 0.972274 0.972442 0.972837 0.973612 0.969679 0.968181 0.966489 0.964281 0.968497 0.965603 0.965393 0.966757 0.967140 0.967543 0.966327 0.962180 0.956473 0.955669 0.953344 0.944361 0.943328 0.943978 0.946291 0.946739 0.945263 0.938074 0.938626 0.931528 0.933500 0.936788 0.930709 0.930658 0.931807 0.931465 0.930554 0.930002 0.927188 0.924730 0.923272 0.922892 0.925835 0.925578 0.926719 0.926642 0.921113 0.913263 0.901636 0.899852 0.895230 0.898223 0.886943 0.886651 0.886546 0.882668 0.886034 0.885329 0.886265 0.883076 0.867350 0.851097 0.845082 0.850001 0.854765 0.852957 0.850379 0.843510 0.854818 0.830119 0.842366 0.852575 0.848846 0.849114 0.847856 0.846502 0.840975 0.842299 0.843886 0.845053 0.842568 0.840728 0.840843 0.820744 0.821801 0.761028 0.743395 0.733582 0.738829 0.746334 0.748046 0.746922 0.754141 0.758895 0.751293 0.735037 0.728254 0.723684 0.727953 0.722641 0.725883 0.707502 0.675764 0.671291 0.643320 0.661348 0.671105 0.634331 0.659141 0.670514 0.670088 0.668652 0.662520 0.660425 0.655893 0.658165 0.663860 0.675879 0.693185 0.715980 0.710515 0.701066 0.696782 0.676655 0.669783 0.665151 0.682806 0.660847 0.657462 0.676355 0.675320 0.658155 0.635185 0.623322 0.618513 0.611494 0.621909 0.606858 0.601211 0.593558 0.571927 0.567185 0.599558 0.614870 0.636905 0.606187 0.593525 0.582030 0.564037 0.575575 0.518948 0.519070 0.540077 0.547951 0.526593 0.515798 0.527148 0.530700 0.529723 0.519913 0.511032 0.499956 0.516952 0.553401 0.541143 0.522329 0.524389 0.523594 0.515467 0.423949 0.417409 0.392050 0.358397 0.301486 0.285901 0.277851 0.261126 0.247196 0.210488 0.207016 0.217046 0.221935 0.234558 0.236869 0.217652 0.227862 0.223954 0.210398 0.147956 0.138409 0.131162 0.120768 0.118110 0.094857 0.121890 0.192238 0.194355 0.194355 0.194355 0.194355 0.194355 0.194355 0.201914 0.201914 0.201914 0.201914 0.201914 0.201914 0.201914 0.201914 0.201914 0.212170 0.212170 0.212170 0.212170 0.212170 0.212170 0.212170 0.212170 0.212170 0.212170 0.212170 0.212170 0.212170 0.212170
0.000000 0.000000 0.000000 0.000000 0.000000 0.000000 0.000000 0.000000 0.000000 0.000000 0.000000 0.000000 0.000000 0.000000 0.000000 0.000000 0.000000 0.000000 0.000000 0.000000 0.000000 0.000000 0.000000 0.000000 0.000000 7.000000 4.000000 0.000000 0.000000 0.000000 0.000000 0.000000 0.000000 0.000000 0.000000 0.000000 0.000000 0.000000 0.000000 0.000000 0.000000 0.000000 0.000000 0.000000 0.000000 0.000000 0.000000 0.000000 0.000000 0.000000 0.000000 0.000000 0.180334 0.180334 0.180334 0.199007 0.199007 0.199007 0.199007 0.199007 0.199007 0.199007 0.199007 0.199007 0.199007 0.199007 0.199007 0.199007 0.199007 0.199007 0.199007 0.199007 0.199007 0.199007 0.199007 0.199007 0.199007 0.199007 0.199007 0.199007 0.199007 0.199007 0.199007 0.199007 0.199007 0.199007 0.199007 0.199007 0.199007 0.199007 0.199007 0.199007 0.199007 0.199007 0.199007 0.199007 0.225018 0.225018 0.225018 0.225018 0.225018 0.225018 0.225018 0.225018 0.225018 0.225018 0.225018 0.225018 0.225018 0.225018 0.225018 0.225018 0.225018 0.225018 0.225018 0.225018 0.225018 0.225018 0.225018 0.225018 0.225018 0.225018 0.225018 0.225018 0.225018 0.244339 0.244339 0.244339 0.244339 0.244339 0.244339 0.244339 0.244339 0.244339 0.244339 0.244339 0.244339 0.244339 0.244339 0.244339 0.244339 0.244339 0.244339 0.244339 0.244339 0.244339 0.244339 0.244339 0.251976 0.251976 0.251976 0.251976 0.251976 0.251976 0.251976 0.251976 0.251976 0.251976 0.251976 0.251976 0.251976 0.251976 0.251976 0.251976 0.251976 0.251976 0.251976 0.251976 0.264906 0.264906 0.264906 0.264906 0.264906 0.264906 0.264906 0.264906 0.264906 0.264906 0.264906 0.264906 0.264906 0.264906 0.264906 0.264906 0.264906 0.264906 0.264906 0.264906 0.264906 0.264906 0.264906 0.264906 0.264906 0.264906 0.264906 0.264906 0.264906 0.264906 0.264906 0.264906 0.264906 0.264906 0.264906 0.264906 0.264906 0.264906 0.264906 0.264906 0.264906 0.264906 0.264906 0.264906 0.264906 0.264906 0.264906 0.264906 0.264906 0.264906 0.264906 0.264906 0.264906 0.264906 0.264906 0.264906 0.264906 0.264906 0.264906 0.264906 0.264906 0.264906 0.256074 0.256074 0.256074 0.256074 0.256074 0.256074 0.256074 0.256074 0.256074 0.256074 0.256074 0.256074 0.256074 0.256074 0.269680 0.269680 0.269680 0.269680 0.269680 0.269680 0.269680 0.269680 0.269680 0.269680 0.269680 0.269680 0.264906 0.264906 0.264906 0.264906 0.264906 0.264906 0.264906 0.264906 0.264906 0.264906 0.264906 0.264906 0.269680 0.269680 0.269680 0.269680 0.269680 0.269680 0.269680 0.269680 0.269680 0.269680 0.269680 0.264906 0.264906 0.264906 0.264906 0.264906 0.264906 0.264906 0.264906 0.264906 0.264906 0.264906 0.256074 0.256074 0.256074 0.256074 0.256074 0.256074 0.256074 0.256074 0.256074 0.256074 0.256074 0.264906 0.264906 0.264906 0.264906 0.264906 0.264906 0.264906 0.264906 0.264906 0.264906 0.260378 0.260378 0.260378 0.260378 0.260378 0.260378 0.260378 0.260378 0.260378 0.260378 0.256074 0.256074 0.256074 0.256074 0.256074 0.256074 0.256074 0.256074 0.256074 0.256074 0.260378 0.260378 0.260378 0.260378 0.260378 0.260378 0.260378 0.260378 0.260378 0.256074 0.256074 0.256074 0.256074 0.256074 0.256074 0.256074 0.256074 0.256074 0.251976 0.251976 0.251976 0.251976 0.251976 0.251976 0.251976 0.251976 0.251976 0.251976 0.251976 0.251976 0.251976 0.251976
