# Output from CTFFind version 4.1.9, run on 2019-11-03 20:06:47
# Input file: stack1_bm3d_averaged_1_5.5_0_1250_half.mrc ; Number of micrographs: 1
# Pixel size: 3.000 Angstroms ; acceleration voltage: 300.0 keV ; spherical aberration: 0.00 mm ; amplitude contrast: 0.07
# Box size: 512 pixels ; min. res.: 30.0 Angstroms ; max. res.: 5.0 Angstroms ; min. def.: 5000.0 um; max. def. 50000.0 um; num. frames averaged: 1
# 6 lines per micrograph: #1 - spatial frequency (1/Angstroms); #2 - 1D rotational average of spectrum (assuming no astigmatism); #3 - 1D rotational average of spectrum; #4 - CTF fit; #5 - cross-correlation between spectrum and CTF fit; #6 - 2sigma of expected cross correlation of noise
0.000000 0.000651 0.001302 0.001953 0.002604 0.003255 0.003906 0.004557 0.005208 0.005859 0.006510 0.007161 0.007812 0.008464 0.009115 0.009766 0.010417 0.011068 0.011719 0.012370 0.013021 0.013672 0.014323 0.014974 0.015625 0.016276 0.016927 0.017578 0.018229 0.018880 0.019531 0.020182 0.020833 0.021484 0.022135 0.022786 0.023438 0.024089 0.024740 0.025391 0.026042 0.026693 0.027344 0.027995 0.028646 0.029297 0.029948 0.030599 0.031250 0.031901 0.032552 0.033203 0.033854 0.034505 0.035156 0.035807 0.036458 0.037109 0.037760 0.038411 0.039062 0.039714 0.040365 0.041016 0.041667 0.042318 0.042969 0.043620 0.044271 0.044922 0.045573 0.046224 0.046875 0.047526 0.048177 0.048828 0.049479 0.050130 0.050781 0.051432 0.052083 0.052734 0.053385 0.054036 0.054688 0.055339 0.055990 0.056641 0.057292 0.057943 0.058594 0.059245 0.059896 0.060547 0.061198 0.061849 0.062500 0.063151 0.063802 0.064453 0.065104 0.065755 0.066406 0.067057 0.067708 0.068359 0.069010 0.069661 0.070312 0.070964 0.071615 0.072266 0.072917 0.073568 0.074219 0.074870 0.075521 0.076172 0.076823 0.077474 0.078125 0.078776 0.079427 0.080078 0.080729 0.081380 0.082031 0.082682 0.083333 0.083984 0.084635 0.085286 0.085938 0.086589 0.087240 0.087891 0.088542 0.089193 0.089844 0.090495 0.091146 0.091797 0.092448 0.093099 0.093750 0.094401 0.095052 0.095703 0.096354 0.097005 0.097656 0.098307 0.098958 0.099609 0.100260 0.100911 0.101562 0.102214 0.102865 0.103516 0.104167 0.104818 0.105469 0.106120 0.106771 0.107422 0.108073 0.108724 0.109375 0.110026 0.110677 0.111328 0.111979 0.112630 0.113281 0.113932 0.114583 0.115234 0.115885 0.116536 0.117188 0.117839 0.118490 0.119141 0.119792 0.120443 0.121094 0.121745 0.122396 0.123047 0.123698 0.124349 0.125000 0.125651 0.126302 0.126953 0.127604 0.128255 0.128906 0.129557 0.130208 0.130859 0.131510 0.132161 0.132812 0.133464 0.134115 0.134766 0.135417 0.136068 0.136719 0.137370 0.138021 0.138672 0.139323 0.139974 0.140625 0.141276 0.141927 0.142578 0.143229 0.143880 0.144531 0.145182 0.145833 0.146484 0.147135 0.147786 0.148438 0.149089 0.149740 0.150391 0.151042 0.151693 0.152344 0.152995 0.153646 0.154297 0.154948 0.155599 0.156250 0.156901 0.157552 0.158203 0.158854 0.159505 0.160156 0.160807 0.161458 0.162109 0.162760 0.163411 0.164062 0.164714 0.165365 0.166016 0.166667 0.167318 0.167969 0.168620 0.169271 0.169922 0.170573 0.171224 0.171875 0.172526 0.173177 0.173828 0.174479 0.175130 0.175781 0.176432 0.177083 0.177734 0.178385 0.179036 0.179688 0.180339 0.180990 0.181641 0.182292 0.182943 0.183594 0.184245 0.184896 0.185547 0.186198 0.186849 0.187500 0.188151 0.188802 0.189453 0.190104 0.190755 0.191406 0.192057 0.192708 0.193359 0.194010 0.194661 0.195312 0.195964 0.196615 0.197266 0.197917 0.198568 0.199219 0.199870 0.200521 0.201172 0.201823 0.202474 0.203125 0.203776 0.204427 0.205078 0.205729 0.206380 0.207031 0.207682 0.208333 0.208984 0.209635 0.210286 0.210938 0.211589 0.212240 0.212891 0.213542 0.214193 0.214844 0.215495 0.216146 0.216797 0.217448 0.218099 0.218750 0.219401 0.220052 0.220703 0.221354 0.222005 0.222656 0.223307 0.223958 0.224609 0.225260 0.225911 0.226562 0.227214 0.227865 0.228516 0.229167 0.229818 0.230469 0.231120 0.231771 0.232422 0.233073 0.233724 0.234375 0.235026 0.235677
       0.34891        0.34891        0.34891        0.34891        0.34891        0.34891        0.34891        0.34891        0.34891        0.34891        0.34891        0.34891        0.34891        0.34891        0.34891        0.34891        0.34891        0.34891        0.34891        0.34891        0.34891        0.34891        0.34891        0.34891        0.34891        0.34891        0.34891        0.34891        0.34891        0.34891        0.34891        0.34891        0.34891        0.34891        0.34891        0.34891        0.34891        0.34891        0.34891        0.34891        0.34891        0.34891        0.34891        0.34891        0.34891        0.34891        0.34891        0.34891        0.34891        0.34891        0.34891        0.39254        0.57281        0.26598        0.11306       -0.01423       -0.27323       -0.10364       -0.17683       -0.21353        0.01525       -0.13625       -0.10745       -0.05943       -0.04044       -0.13123       -0.15865       -0.29095       -0.38396       -0.49352       -0.43170       -0.33100       -0.26480       -0.37883       -0.29193       -0.38364       -0.32725       -0.36971       -0.19006       -0.18750       -0.24789       -0.07904       -0.02984       -0.04492        0.08175        0.02843        0.20466        0.22669        0.33651        0.36312        0.43720        0.47253        0.53195        0.59645        0.65041        0.55586        0.51600        0.50605        0.47655        0.56184        0.47338        0.41752        0.40591        0.33392        0.28749        0.30988        0.32882        0.22618        0.19529        0.09925        0.13206        0.13872        0.16637        0.13156        0.20084        0.24841        0.30216        0.29864        0.33864        0.46217        0.41119        0.48333        0.62947        0.61511        0.54776        0.54900        0.58085        0.42356        0.48294        0.37099        0.31393        0.29091        0.25395        0.25422        0.18726        0.17324        0.14397        0.21790        0.25281        0.27948        0.34607        0.32003        0.41105        0.46923        0.46734        0.45246        0.48597        0.54511        0.48950        0.46855        0.41988        0.34607        0.33782        0.27491        0.30247        0.23698        0.22187        0.28392        0.23893        0.26227        0.32494        0.42111        0.41766        0.44000        0.41797        0.49844        0.49484        0.46860        0.44386        0.38714        0.38175        0.40133        0.39835        0.33033        0.28139        0.31592        0.29274        0.29523        0.29665        0.33778        0.36716        0.39054        0.45344        0.48803        0.39701        0.43330        0.42806        0.38543        0.31868        0.36577        0.32197        0.31452        0.33508        0.27902        0.25488        0.31822        0.33625        0.42733        0.42130        0.40435        0.39808        0.40115        0.36755        0.36813        0.31925        0.32024        0.33671        0.30824        0.30548        0.33892        0.35166        0.34615        0.35309        0.39366        0.38853        0.45580        0.40047        0.34267        0.36078        0.35083        0.33356        0.32814        0.33717        0.37909        0.33951        0.35708        0.34943        0.42005        0.37770        0.35616        0.36723        0.37601        0.36491        0.33777        0.33147        0.30900        0.34009        0.33083        0.30989        0.32302        0.35410        0.35512        0.34118        0.33597        0.30374        0.30184        0.28249        0.31970        0.32407        0.35300        0.33184        0.33317        0.37139        0.33261        0.33589        0.32436        0.29250        0.34179        0.31375        0.32054        0.33031        0.32203        0.31711        0.30062        0.34077        0.36824        0.33386        0.32332        0.31298        0.32895        0.29859        0.34913        0.32158        0.27527        0.32800        0.30123        0.34615        0.34321        0.38623        0.32430        0.31724        0.26670        0.33184        0.37084        0.34552        0.31222        0.32210        0.32364        0.32299        0.29929        0.31673        0.30947        0.30888        0.28811        0.29389        0.31234        0.29572        0.29894        0.31259        0.26190        0.31675        0.34708        0.36417        0.34556        0.31273        0.32070        0.27817        0.30511        0.29622        0.32093        0.33806        0.28040        0.27079        0.32356        0.34731        0.33608        0.28210        0.27782        0.32212        0.28786        0.30821        0.34848        0.34574        0.28711        0.25660        0.31036        0.33554        0.28465        0.24320        0.26563        0.26406        0.30714        0.34823        0.29817        0.34432        0.28428        0.27016        0.30545        0.29152        0.22108        0.26280        0.30513        0.25382        0.21647        0.23855        0.29275        0.41537        0.30402        0.24796        0.17897        0.24129        0.25938        0.26071        0.36729        0.20966        0.14220        0.27794        0.32693        0.29184        0.18374        0.03799       -0.59447       -1.08291
2.514101 2.489596 2.465213 2.440954 2.416817 2.392802 2.368911 2.345142 2.321496 2.297973 2.274573 2.251295 2.228141 2.205109 2.182200 2.159413 2.136750 2.114209 2.091791 2.069496 2.047323 2.025274 2.003347 1.981543 1.959862 1.938303 1.916868 1.895555 1.874365 1.853297 1.832353 1.811531 1.790832 1.770256 1.749803 1.729472 1.709264 1.689179 1.669217 1.649378 1.629661 1.610067 1.590597 1.571248 1.552023 1.532920 1.513940 1.495083 1.476349 1.457738 1.439249 1.391082 1.877346 1.420320 0.924879 0.766825 -0.026331 0.611016 0.139348 0.320682 0.643006 0.386560 0.275437 0.504929 0.433853 0.351440 0.225574 0.001290 -0.245728 -0.428366 -0.410173 -0.346911 0.136310 -0.402632 -0.172655 -0.322675 -0.231473 -0.398766 -0.033803 -0.068030 -0.181171 0.068796 0.242623 0.092095 0.348256 0.249341 0.631384 0.505919 0.822736 0.773235 0.887154 1.114187 0.991800 1.260643 1.314081 1.102506 1.054781 1.019863 0.982434 1.008786 0.982064 0.817425 0.707567 0.653491 0.563915 0.502239 0.575326 0.403566 0.330976 0.143390 0.095221 0.154423 0.198542 0.113807 0.162417 0.300243 0.384731 0.396153 0.483681 0.515224 0.664621 0.471462 0.898269 0.998833 0.823505 0.729298 0.865251 0.588180 0.557245 0.531772 0.271884 0.296685 0.113201 0.242063 0.011663 0.029884 -0.065300 -0.048698 0.189035 0.085469 0.206623 0.265745 0.309362 0.436366 0.496838 0.447891 0.453427 0.560376 0.519644 0.408051 0.383981 0.245692 0.207353 0.102434 0.030197 0.045675 -0.109110 0.032543 0.041242 -0.072154 -0.016522 0.195864 0.358825 0.245870 0.343821 0.186915 0.542714 0.367139 0.325062 0.317794 0.180096 0.128754 0.358518 0.050024 0.062621 -0.011910 0.075733 -0.027107 0.078649 -0.017500 0.171431 0.018353 0.243982 0.337005 0.278176 0.181276 0.208768 0.168836 0.061470 0.074500 0.072139 -0.032696 -0.006585 0.041442 -0.154066 -0.110697 -0.013013 0.083484 0.271535 0.139336 0.165967 0.110122 0.159984 0.069980 0.072949 -0.051363 0.024767 0.009951 -0.049473 0.006116 0.039527 0.065318 0.011044 0.080317 0.098627 0.163096 0.287800 0.022795 0.044826 0.057985 -0.007812 0.014741 -0.018458 0.054464 0.106556 -0.017915 0.037659 0.060584 0.132670 0.066769 0.052335 0.093691 0.045628 0.074745 -0.017377 0.020323 -0.040609 0.014662 -0.011837 -0.016630 -0.020232 0.046166 0.020743 0.028279 -0.017523 -0.080929 -0.036221 -0.102726 -0.012283 -0.005307 0.050745 -0.026561 0.006646 0.097760 -0.052553 0.005704 -0.069982 -0.094870 0.006654 -0.079874 -0.020531 -0.015920 -0.036280 -0.050363 -0.086057 0.038375 0.025478 -0.000286 -0.037347 -0.024180 -0.064970 -0.043677 0.025454 -0.034258 -0.094252 -0.004583 -0.086254 0.052937 0.016718 0.107616 -0.002825 -0.056751 -0.129408 0.035842 0.115269 -0.042596 -0.021751 -0.022469 0.044610 -0.038709 -0.094398 -0.009623 -0.012331 -0.041464 -0.076374 -0.084220 -0.001775 -0.059005 -0.006028 -0.140873 -0.126725 0.059193 0.061563 0.109218 0.024424 0.041559 -0.042210 -0.057073 -0.028658 -0.060216 0.024844 0.069994 -0.098724 -0.087413 0.044702 0.059185 0.052091 -0.082620 -0.047746 -0.049876 -0.054634 -0.084873 0.083376 -0.002440 -0.069880 -0.131756 -0.062036 0.024351 -0.069897 -0.155121 -0.131429 -0.026547 -0.026624 0.019339 -0.087723 0.057192 0.018645 -0.082841 0.006506 -0.057779 -0.196746 -0.055631 0.046164 -0.091922 -0.086552 -0.069623 0.063289 0.301458 -0.009487 0.050550 -0.267551 0.012257 0.043186 0.003115 0.280761 -0.037077 0.271556 0.607441 0.611803 0.523674 0.283228 0.080516 -2.019215
0.072396 0.072904 0.074427 0.076965 0.080517 0.085083 0.090661 0.097250 0.104847 0.113449 0.123054 0.133656 0.145250 0.157830 0.171387 0.185912 0.201394 0.217820 0.235174 0.253439 0.272593 0.292614 0.313474 0.335143 0.357588 0.380769 0.404645 0.429168 0.454286 0.479941 0.506070 0.532605 0.559470 0.586585 0.613862 0.641207 0.668518 0.695687 0.722600 0.749134 0.775162 0.800546 0.825145 0.848809 0.871385 0.892711 0.912621 0.930946 0.947510 0.962137 0.974646 0.984857 0.992590 0.997664 0.999904 0.999135 0.995192 0.987914 0.977152 0.962768 0.944636 0.922646 0.896706 0.866744 0.832710 0.794579 0.752353 0.706061 0.655765 0.601560 0.543576 0.481980 0.416977 0.348810 0.277766 0.204171 0.128392 0.050838 0.028043 0.107760 0.187790 0.267572 0.346512 0.423991 0.499362 0.571961 0.641111 0.706128 0.766325 0.821027 0.869570 0.911317 0.945664 0.972050 0.989964 0.998962 0.998666 0.988785 0.969116 0.939557 0.900114 0.850906 0.792176 0.724292 0.647751 0.563184 0.471349 0.373137 0.269562 0.161756 0.050962 0.061481 0.174150 0.285553 0.394150 0.498371 0.596645 0.687418 0.769181 0.840502 0.900046 0.946613 0.979156 0.996817 0.998945 0.985126 0.955199 0.909274 0.847747 0.771307 0.680938 0.577918 0.463809 0.340442 0.209893 0.074457 0.063389 0.201029 0.335751 0.464805 0.585458 0.695053 0.791073 0.871202 0.933391 0.975913 0.997424 0.997009 0.974223 0.929132 0.862326 0.774938 0.668632 0.545597 0.408506 0.260476 0.105000 0.054118 0.212861 0.367088 0.512651 0.645503 0.761815 0.858100 0.931321 0.979002 0.999323 0.991204 0.954364 0.889371 0.797653 0.681493 0.543994 0.389014 0.221072 0.045233 0.133039 0.308043 0.474026 0.625362 0.756765 0.863478 0.941454 0.987533 0.999587 0.976633 0.918917 0.827950 0.706501 0.558538 0.389128 0.204282 0.010755 0.184179 0.373005 0.548254 0.702796 0.830154 0.924784 0.982337 0.999889 0.976109 0.911376 0.807819 0.669288 0.501248 0.310590 0.105371 0.105500 0.312648 0.506636 0.678411 0.819726 0.923569 0.984528 0.999107 0.965961 0.886027 0.762559 0.601035 0.408961 0.195547 0.028699 0.252476 0.464254 0.652869 0.808121 0.921359 0.985987 0.997886 0.955719 0.861092 0.718549 0.535413 0.321451 0.088393 0.150688 0.382087 0.592261 0.768624 0.900333 0.978979 0.999181 0.958991 0.860119 0.707932 0.511229 0.281773 0.033646 0.217599 0.455898 0.665695 0.832988 0.946292 0.997471 0.982383 0.901264 0.758836 0.564110 0.329868 0.071896 0.192066 0.443509 0.664460 0.838787 0.953412 0.999347 0.972467 0.873935 0.710263 0.492952 0.237775 0.036342 0.308669 0.558233 0.765446 0.913672 0.990623 0.989436 0.909367 0.756007 0.540982 0.281156 0.002626 0.287168 0.548802 0.765366 0.918118 0.993421 0.984030 0.889883 0.718273 0.483395 0.205254 0.091971 0.381982 0.638695 0.838585 0.962907 0.999529 0.944204 0.801152 0.582865 0.309115 0.005257 0.300068 0.577617 0.800344 0.946090 0.999876 0.955526 0.816490 0.595715 0.314554 0.000800 0.314003 0.597698 0.820834 0.959754 0.999216 0.934158 0.770470 0.524602 0.222031 0.105276 0.422189 0.694166 0.891064 0.990538 0.980700 0.861660 0.645775 0.356505 0.025990 0.308444 0.608462 0.839145 0.973098 0.993831 0.897919 0.695674 0.410208 0.074918 0.270320 0.583845 0.827254 0.970180 0.994178 0.895268 0.684715 0.387920 0.041501 0.311112 0.625095 0.859947 0.984779 0.982520 0.852412 0.610425 0.287477 0.074360 0.427270 0.723962
1.000000 1.000000 1.000000 1.000000 1.000000 1.000000 1.000000 1.000000 1.000000 1.000000 1.000000 1.000000 1.000000 1.000000 1.000000 1.000000 1.000000 1.000000 1.000000 1.000000 1.000000 1.000000 1.000000 1.000000 1.000000 1.000000 1.000000 1.000000 1.000000 1.000000 1.000000 1.000000 1.000000 1.000000 1.000000 1.000000 1.000000 1.000000 1.000000 1.000000 1.000000 1.000000 1.000000 1.000000 1.000000 1.000000 1.000000 1.000000 1.000000 1.000000 1.000000 1.000000 0.824756 0.824756 0.824756 0.817010 0.817010 0.817010 0.817010 0.817010 0.817010 0.817010 0.817010 0.817010 0.817010 0.817010 0.817010 0.817010 0.817010 0.817010 0.817010 0.817010 0.817010 0.817010 0.817010 0.817010 0.817010 0.817010 0.817010 0.817010 0.817010 0.817010 0.817010 0.817010 0.817010 0.817010 0.817010 0.817010 0.817010 0.817010 0.817010 0.817010 0.817010 0.817010 0.817010 0.817010 0.828396 0.835523 0.836234 0.841826 0.845253 0.843567 0.841502 0.840728 0.840384 0.841389 0.850488 0.875841 0.893252 0.900902 0.914648 0.918970 0.923185 0.925269 0.932190 0.932068 0.964144 0.959098 0.956474 0.957299 0.955115 0.949680 0.948722 0.947191 0.956438 0.950537 0.948160 0.945517 0.944386 0.939918 0.939130 0.939050 0.936083 0.936481 0.936656 0.936601 0.935880 0.934427 0.933611 0.920687 0.919825 0.919314 0.921938 0.896632 0.892307 0.881403 0.881501 0.882974 0.878791 0.877676 0.869835 0.871267 0.872409 0.872381 0.864665 0.860989 0.857024 0.849729 0.846921 0.844958 0.847494 0.844560 0.843208 0.837322 0.825004 0.816252 0.806124 0.798252 0.787103 0.781441 0.784943 0.788476 0.791335 0.786511 0.785180 0.776955 0.771161 0.754411 0.752534 0.752136 0.762812 0.765754 0.766194 0.766253 0.751316 0.736357 0.706517 0.706105 0.706517 0.668430 0.653397 0.655184 0.657028 0.663432 0.677801 0.673252 0.664210 0.638509 0.615621 0.594231 0.607256 0.626672 0.617733 0.622004 0.601437 0.637579 0.639364 0.655494 0.670427 0.676604 0.673177 0.651743 0.614945 0.610606 0.606386 0.603912 0.597122 0.586052 0.588586 0.606799 0.581411 0.576248 0.568054 0.559895 0.562375 0.574114 0.559274 0.561180 0.531451 0.496374 0.468922 0.466276 0.425539 0.397080 0.393115 0.393880 0.371101 0.367276 0.387896 0.403976 0.405638 0.409857 0.406011 0.312279 0.313987 0.307136 0.287362 0.280191 0.305084 0.312739 0.319060 0.301535 0.266438 0.279138 0.240368 0.256422 0.225940 0.200197 0.193974 0.190472 0.210620 0.204398 0.180759 0.166337 0.153371 0.121070 0.147872 0.156463 0.195325 0.181795 0.162455 0.161134 0.125748 0.105234 0.111415 0.078074 0.040469 0.019966 0.007534 0.010797 0.007557 -0.010790 -0.024954 0.000937 -0.013142 0.024359 -0.002975 -0.022567 -0.042974 -0.031967 -0.047578 -0.060084 -0.051339 -0.086589 -0.128607 -0.157499 -0.164307 -0.143775 -0.129911 -0.149289 -0.150084 -0.157923 -0.192437 -0.184116 -0.143523 -0.133757 -0.137448 -0.112427 -0.089123 -0.107566 -0.223067 -0.172009 -0.134424 -0.137963 -0.141177 -0.183504 -0.211703 -0.208353 -0.193517 -0.163276 -0.136563 -0.110662 -0.111155 -0.109398 -0.105222 -0.160694 -0.201304 -0.205688 -0.197061 -0.181003 -0.144875 -0.118082 -0.100776 -0.086418 -0.108026 -0.108026 -0.108026 -0.108026 -0.098731 -0.098731 -0.098731 -0.098731 -0.098731 -0.098731 -0.098731 -0.098731 -0.098731 -0.135516 -0.135516 -0.135516 -0.135516 -0.135516 -0.135516 -0.135516 -0.135516 -0.135516 -0.135516 -0.135516 -0.135516 -0.135516 -0.135516 -0.135516 -0.135516
0.000000 0.000000 0.000000 0.000000 0.000000 0.000000 0.000000 0.000000 0.000000 0.000000 0.000000 0.000000 0.000000 0.000000 0.000000 0.000000 0.000000 0.000000 0.000000 0.000000 0.000000 0.000000 0.000000 0.000000 0.000000 0.000000 0.000000 0.000000 0.000000 0.000000 0.000000 0.000000 0.000000 0.000000 0.000000 0.000000 0.000000 0.000000 0.000000 0.000000 0.000000 0.000000 0.000000 0.000000 0.000000 0.000000 0.000000 0.000000 0.000000 0.000000 0.000000 0.000000 0.180334 0.180334 0.180334 0.199007 0.199007 0.199007 0.199007 0.199007 0.199007 0.199007 0.199007 0.199007 0.199007 0.199007 0.199007 0.199007 0.199007 0.199007 0.199007 0.199007 0.199007 0.199007 0.199007 0.199007 0.199007 0.199007 0.199007 0.199007 0.199007 0.199007 0.199007 0.199007 0.199007 0.199007 0.199007 0.199007 0.199007 0.199007 0.199007 0.199007 0.199007 0.199007 0.199007 0.199007 0.230940 0.230940 0.230940 0.230940 0.230940 0.230940 0.230940 0.230940 0.230940 0.230940 0.230940 0.230940 0.230940 0.230940 0.230940 0.230940 0.230940 0.230940 0.230940 0.230940 0.230940 0.230940 0.230940 0.230940 0.230940 0.230940 0.230940 0.230940 0.244339 0.244339 0.244339 0.244339 0.244339 0.244339 0.244339 0.244339 0.244339 0.244339 0.244339 0.244339 0.244339 0.244339 0.244339 0.244339 0.244339 0.244339 0.244339 0.244339 0.244339 0.244339 0.244339 0.251976 0.251976 0.251976 0.251976 0.251976 0.251976 0.251976 0.251976 0.251976 0.251976 0.251976 0.251976 0.251976 0.251976 0.251976 0.251976 0.251976 0.251976 0.251976 0.251976 0.264906 0.264906 0.264906 0.264906 0.264906 0.264906 0.264906 0.264906 0.264906 0.264906 0.264906 0.264906 0.264906 0.264906 0.264906 0.264906 0.264906 0.264906 0.264906 0.264906 0.264906 0.264906 0.264906 0.264906 0.264906 0.264906 0.264906 0.264906 0.264906 0.264906 0.264906 0.264906 0.264906 0.264906 0.264906 0.264906 0.264906 0.264906 0.264906 0.264906 0.264906 0.264906 0.264906 0.264906 0.264906 0.264906 0.264906 0.264906 0.264906 0.264906 0.264906 0.264906 0.264906 0.264906 0.264906 0.264906 0.264906 0.264906 0.264906 0.264906 0.264906 0.264906 0.264906 0.264906 0.264906 0.264906 0.264906 0.264906 0.264906 0.264906 0.264906 0.264906 0.264906 0.264906 0.264906 0.260378 0.260378 0.260378 0.260378 0.260378 0.260378 0.260378 0.260378 0.260378 0.260378 0.260378 0.260378 0.260378 0.264906 0.264906 0.264906 0.264906 0.264906 0.264906 0.264906 0.264906 0.264906 0.264906 0.264906 0.264906 0.269680 0.269680 0.269680 0.269680 0.269680 0.269680 0.269680 0.269680 0.269680 0.269680 0.269680 0.264906 0.264906 0.264906 0.264906 0.264906 0.264906 0.264906 0.264906 0.264906 0.264906 0.264906 0.269680 0.269680 0.269680 0.269680 0.269680 0.269680 0.269680 0.269680 0.269680 0.269680 0.251976 0.251976 0.251976 0.251976 0.251976 0.251976 0.251976 0.251976 0.251976 0.251976 0.251976 0.269680 0.269680 0.269680 0.269680 0.269680 0.269680 0.269680 0.269680 0.269680 0.256074 0.256074 0.256074 0.256074 0.256074 0.256074 0.256074 0.256074 0.256074 0.256074 0.260378 0.260378 0.260378 0.260378 0.260378 0.260378 0.260378 0.260378 0.260378 0.256074 0.256074 0.256074 0.256074 0.256074 0.256074 0.256074 0.256074 0.256074 0.251976 0.251976 0.251976 0.251976 0.251976 0.251976 0.251976 0.251976 0.251976 0.251976 0.251976 0.251976 0.251976 0.251976 0.251976 0.251976
