# Output from CTFFind version 4.1.9, run on 2019-11-02 17:47:29
# Input file: stack6_bm3d_averaged_1_0.5_0_1500_half.mrc ; Number of micrographs: 1
# Pixel size: 3.000 Angstroms ; acceleration voltage: 300.0 keV ; spherical aberration: 0.00 mm ; amplitude contrast: 0.07
# Box size: 512 pixels ; min. res.: 30.0 Angstroms ; max. res.: 5.0 Angstroms ; min. def.: 5000.0 um; max. def. 50000.0 um; num. frames averaged: 1
# 6 lines per micrograph: #1 - spatial frequency (1/Angstroms); #2 - 1D rotational average of spectrum (assuming no astigmatism); #3 - 1D rotational average of spectrum; #4 - CTF fit; #5 - cross-correlation between spectrum and CTF fit; #6 - 2sigma of expected cross correlation of noise
0.000000 0.000651 0.001302 0.001953 0.002604 0.003255 0.003906 0.004557 0.005208 0.005859 0.006510 0.007161 0.007812 0.008464 0.009115 0.009766 0.010417 0.011068 0.011719 0.012370 0.013021 0.013672 0.014323 0.014974 0.015625 0.016276 0.016927 0.017578 0.018229 0.018880 0.019531 0.020182 0.020833 0.021484 0.022135 0.022786 0.023438 0.024089 0.024740 0.025391 0.026042 0.026693 0.027344 0.027995 0.028646 0.029297 0.029948 0.030599 0.031250 0.031901 0.032552 0.033203 0.033854 0.034505 0.035156 0.035807 0.036458 0.037109 0.037760 0.038411 0.039062 0.039714 0.040365 0.041016 0.041667 0.042318 0.042969 0.043620 0.044271 0.044922 0.045573 0.046224 0.046875 0.047526 0.048177 0.048828 0.049479 0.050130 0.050781 0.051432 0.052083 0.052734 0.053385 0.054036 0.054688 0.055339 0.055990 0.056641 0.057292 0.057943 0.058594 0.059245 0.059896 0.060547 0.061198 0.061849 0.062500 0.063151 0.063802 0.064453 0.065104 0.065755 0.066406 0.067057 0.067708 0.068359 0.069010 0.069661 0.070312 0.070964 0.071615 0.072266 0.072917 0.073568 0.074219 0.074870 0.075521 0.076172 0.076823 0.077474 0.078125 0.078776 0.079427 0.080078 0.080729 0.081380 0.082031 0.082682 0.083333 0.083984 0.084635 0.085286 0.085938 0.086589 0.087240 0.087891 0.088542 0.089193 0.089844 0.090495 0.091146 0.091797 0.092448 0.093099 0.093750 0.094401 0.095052 0.095703 0.096354 0.097005 0.097656 0.098307 0.098958 0.099609 0.100260 0.100911 0.101562 0.102214 0.102865 0.103516 0.104167 0.104818 0.105469 0.106120 0.106771 0.107422 0.108073 0.108724 0.109375 0.110026 0.110677 0.111328 0.111979 0.112630 0.113281 0.113932 0.114583 0.115234 0.115885 0.116536 0.117188 0.117839 0.118490 0.119141 0.119792 0.120443 0.121094 0.121745 0.122396 0.123047 0.123698 0.124349 0.125000 0.125651 0.126302 0.126953 0.127604 0.128255 0.128906 0.129557 0.130208 0.130859 0.131510 0.132161 0.132812 0.133464 0.134115 0.134766 0.135417 0.136068 0.136719 0.137370 0.138021 0.138672 0.139323 0.139974 0.140625 0.141276 0.141927 0.142578 0.143229 0.143880 0.144531 0.145182 0.145833 0.146484 0.147135 0.147786 0.148438 0.149089 0.149740 0.150391 0.151042 0.151693 0.152344 0.152995 0.153646 0.154297 0.154948 0.155599 0.156250 0.156901 0.157552 0.158203 0.158854 0.159505 0.160156 0.160807 0.161458 0.162109 0.162760 0.163411 0.164062 0.164714 0.165365 0.166016 0.166667 0.167318 0.167969 0.168620 0.169271 0.169922 0.170573 0.171224 0.171875 0.172526 0.173177 0.173828 0.174479 0.175130 0.175781 0.176432 0.177083 0.177734 0.178385 0.179036 0.179688 0.180339 0.180990 0.181641 0.182292 0.182943 0.183594 0.184245 0.184896 0.185547 0.186198 0.186849 0.187500 0.188151 0.188802 0.189453 0.190104 0.190755 0.191406 0.192057 0.192708 0.193359 0.194010 0.194661 0.195312 0.195964 0.196615 0.197266 0.197917 0.198568 0.199219 0.199870 0.200521 0.201172 0.201823 0.202474 0.203125 0.203776 0.204427 0.205078 0.205729 0.206380 0.207031 0.207682 0.208333 0.208984 0.209635 0.210286 0.210938 0.211589 0.212240 0.212891 0.213542 0.214193 0.214844 0.215495 0.216146 0.216797 0.217448 0.218099 0.218750 0.219401 0.220052 0.220703 0.221354 0.222005 0.222656 0.223307 0.223958 0.224609 0.225260 0.225911 0.226562 0.227214 0.227865 0.228516 0.229167 0.229818 0.230469 0.231120 0.231771 0.232422 0.233073 0.233724 0.234375 0.235026 0.235677
       0.31236        0.31236        0.31236        0.31236        0.31236        0.31236        0.31236        0.31236        0.31236        0.31236        0.31236        0.31236        0.31236        0.31236        0.31236        0.31236        0.31236        0.31236        0.31236        0.31236        0.31236        0.31236        0.31236        0.31236        0.31236        0.31236        0.31236        0.31236        0.31236        0.31236        0.31236        0.31236        0.31236        0.31236        0.31236        0.31236        0.31236        0.31236        0.31236        0.31236        0.31236        0.31236        0.31236        0.31236        0.31236        0.31236        0.31236        0.31236        0.31236        0.31236        0.31236        0.63581        0.82082        0.41778        0.31259        0.19016       -0.10479        0.11270       -0.00234        0.03463        0.11865        0.33696        0.42492        0.40718        0.22539       -0.01097        0.04860        0.07193       -0.16573       -0.17826       -0.08645       -0.10685       -0.29110       -0.18673       -0.30165       -0.25659       -0.28450       -0.40008       -0.47544       -0.47741       -0.42038       -0.33658       -0.43871       -0.36719       -0.40701       -0.34709       -0.27333       -0.19747       -0.19206       -0.13399       -0.09340        0.03769        0.08560        0.25029        0.28130        0.37135        0.40294        0.51921        0.58941        0.60689        0.74153        0.70057        0.74147        0.64969        0.66662        0.69846        0.63417        0.61545        0.60945        0.43715        0.40024        0.36005        0.32539        0.22256        0.13351        0.06088        0.05911        0.00024       -0.07849       -0.03040       -0.03083       -0.06865        0.06198        0.16479        0.25505        0.32243        0.33680        0.43272        0.54874        0.59348        0.54425        0.67077        0.56585        0.54432        0.59856        0.64235        0.53249        0.46060        0.40799        0.37540        0.25095        0.21549        0.13162        0.11669        0.05606        0.05989        0.11050        0.16966        0.14580        0.18052        0.21903        0.24103        0.33424        0.45888        0.49441        0.49833        0.52232        0.57855        0.57053        0.52300        0.42521        0.38510        0.36764        0.27147        0.24779        0.21641        0.20720        0.20515        0.18357        0.16004        0.12591        0.19202        0.25078        0.34993        0.38446        0.40633        0.46372        0.53699        0.47688        0.48276        0.42250        0.40296        0.38421        0.36375        0.28968        0.25937        0.20020        0.23286        0.21776        0.19268        0.21831        0.22486        0.24321        0.29969        0.40259        0.40346        0.37186        0.39102        0.45573        0.48457        0.42710        0.35418        0.32693        0.27985        0.26203        0.24723        0.21323        0.28520        0.29279        0.29563        0.31694        0.31207        0.34983        0.37280        0.37337        0.37475        0.35841        0.31999        0.33585        0.31825        0.29830        0.28146        0.27168        0.21834        0.27306        0.27403        0.30367        0.32279        0.34616        0.37850        0.34164        0.32201        0.36095        0.37044        0.26836        0.29580        0.30532        0.24406        0.21140        0.25942        0.27209        0.27709        0.30044        0.30662        0.33531        0.33542        0.36345        0.32761        0.32238        0.31046        0.29443        0.27641        0.25134        0.25466        0.25835        0.27560        0.29883        0.29578        0.30193        0.31521        0.32761        0.26387        0.30548        0.27012        0.26325        0.27844        0.26448        0.26231        0.26673        0.31183        0.28541        0.31677        0.28699        0.27541        0.30625        0.30922        0.33036        0.31546        0.29276        0.25499        0.26856        0.27312        0.26568        0.31239        0.31686        0.33944        0.32247        0.30851        0.26034        0.28142        0.21142        0.20704        0.24296        0.25893        0.25584        0.28951        0.31164        0.29656        0.34856        0.31075        0.26476        0.23658        0.23659        0.28946        0.31147        0.30493        0.26761        0.28026        0.25996        0.32238        0.28435        0.25258        0.26707        0.25375        0.29034        0.25193        0.28993        0.33044        0.28852        0.21752        0.23481        0.28547        0.32234        0.27380        0.26609        0.24419        0.27697        0.29230        0.37625        0.29368        0.27731        0.25349        0.26196        0.22225        0.17732        0.25148        0.22830        0.20638        0.18855        0.19613        0.23908        0.22799        0.23739        0.19177        0.25439        0.22699        0.20602        0.17770        0.16810        0.19689        0.23715        0.14662        0.06328        0.19610        0.20471        0.15495        0.24788        0.14765        0.21420        0.21919       -0.05927       -0.46808       -0.93418
2.851080 2.823023 2.795111 2.767343 2.739719 2.712240 2.684905 2.657715 2.630669 2.603767 2.577010 2.550396 2.523928 2.497603 2.471424 2.445388 2.419497 2.393750 2.368147 2.342689 2.317375 2.292206 2.267181 2.242300 2.217564 2.192972 2.168524 2.144221 2.120062 2.096048 2.072178 2.048452 2.024870 2.001433 1.978140 1.954992 1.931988 1.909129 1.886413 1.863842 1.841416 1.819134 1.796996 1.775002 1.753153 1.731449 1.709888 1.688472 1.667201 1.646073 1.625090 1.921352 2.279249 1.701177 1.741618 1.381690 0.943209 1.199138 1.021146 1.072889 1.031166 1.492316 1.518866 1.545016 1.279533 0.942131 0.824212 1.009316 0.717665 0.490474 0.586129 0.678169 0.421057 0.489075 0.323394 0.367501 0.244826 0.161427 -0.038774 -0.000217 0.023900 0.080278 0.037169 0.070928 -0.039539 0.027086 0.112102 0.225502 0.286768 0.208623 0.318382 0.549249 0.452809 0.727020 0.789953 0.880009 0.909198 1.120759 1.142384 1.173839 1.328660 1.236781 1.371782 1.194379 1.115376 1.299774 1.145723 1.053403 1.126933 0.889676 0.743175 0.681227 0.674923 0.457986 0.396002 0.257187 0.229265 0.090402 -0.008831 0.087172 0.025590 -0.064451 0.111971 0.251944 0.304778 0.466393 0.486308 0.556996 0.724903 0.824061 0.662528 0.960579 0.799232 0.667102 0.767534 0.803879 0.712756 0.639750 0.448984 0.500265 0.280862 0.193711 0.139462 0.005085 -0.019795 -0.106502 -0.015279 0.026512 0.090764 -0.051985 0.251481 0.097279 0.208841 0.378702 0.441066 0.529526 0.438229 0.575967 0.627770 0.517737 0.389249 0.334053 0.322624 0.147232 0.137989 0.014704 0.089990 0.031214 -0.000727 -0.024676 -0.123069 -0.011838 0.021312 0.111602 0.296904 0.200527 0.355276 0.373070 0.424056 0.430912 0.373208 0.328459 0.229674 0.303550 0.165174 0.154821 0.007927 0.043940 0.062024 -0.025152 -0.011259 0.015972 0.058535 0.073938 0.212564 0.308543 0.242447 0.207563 0.377459 0.406476 0.350662 0.241621 0.175470 0.149326 0.080367 0.075374 0.021141 0.020709 0.135052 0.051358 0.187148 0.089786 0.142418 0.232471 0.211199 0.222294 0.209623 0.198928 0.122077 0.163604 0.121794 0.095265 0.109032 -0.001755 0.032400 0.088628 0.049511 0.149124 0.123845 0.210867 0.208327 0.137899 0.131025 0.233059 0.119270 0.074298 0.086614 0.057050 -0.001150 -0.028131 0.043678 0.071074 0.030031 0.116600 0.110657 0.123035 0.129138 0.179354 0.115633 0.079458 0.100561 0.081382 0.023786 0.014048 0.030043 -0.002856 0.067753 0.100271 0.061032 0.069214 0.141481 0.081886 0.016565 0.113083 0.025213 0.029678 0.060300 0.019311 0.014893 0.059495 0.085430 0.027836 0.108798 0.050416 0.028495 0.117938 0.068843 0.093880 0.089172 0.023833 -0.006200 0.005979 0.044865 0.009545 0.066725 0.101560 0.091946 0.064327 0.134602 -0.006900 0.029648 -0.090966 -0.017898 -0.042474 0.009701 0.019526 0.035770 0.071681 0.082911 0.107991 0.016610 -0.014538 -0.059868 -0.077772 0.070770 0.047431 0.052383 -0.017106 0.002045 -0.032833 0.069825 0.014421 -0.060639 -0.015112 -0.074895 0.028291 -0.041315 0.029695 0.068851 -0.012033 -0.073794 -0.040561 0.092840 0.044330 0.009776 0.004950 -0.048028 0.075042 0.077089 0.175375 0.051121 0.019606 0.029803 0.062137 -0.050607 -0.045413 0.060022 0.022392 -0.022629 -0.034505 -0.033773 0.097549 -0.043033 0.073563 0.003946 0.128168 -0.002702 0.061317 -0.084452 -0.013459 -0.033582 0.106486 -0.013280 -0.172433 0.287141 0.300463 0.219708 0.415686 0.177854 0.279640 0.377557 -0.081525 -1.309015
0.072396 0.072834 0.074148 0.076338 0.079403 0.083342 0.088156 0.093841 0.100398 0.107824 0.116116 0.125271 0.135286 0.146156 0.157877 0.170440 0.183839 0.198066 0.213109 0.228956 0.245595 0.263010 0.281182 0.300092 0.319717 0.340032 0.361008 0.382616 0.404819 0.427580 0.450858 0.474606 0.498776 0.523312 0.548156 0.573246 0.598513 0.623885 0.649285 0.674628 0.699828 0.724791 0.749418 0.773607 0.797248 0.820228 0.842429 0.863728 0.883996 0.903104 0.920916 0.937293 0.952096 0.965180 0.976403 0.985618 0.992682 0.997450 0.999781 0.999536 0.996580 0.990784 0.982025 0.970188 0.955169 0.936872 0.915215 0.890130 0.861562 0.829477 0.793856 0.754702 0.712037 0.665911 0.616393 0.563581 0.507601 0.448604 0.386772 0.322318 0.255482 0.186538 0.115790 0.043571 0.029755 0.103795 0.178127 0.252305 0.325858 0.398293 0.469098 0.537746 0.603699 0.666409 0.725327 0.779906 0.829605 0.873897 0.912275 0.944255 0.969387 0.987259 0.997506 0.999812 0.993923 0.979649 0.956872 0.925552 0.885731 0.837539 0.781198 0.717023 0.645428 0.566924 0.482119 0.391718 0.296520 0.197411 0.095362 0.008579 0.113301 0.217633 0.320361 0.420241 0.516013 0.606417 0.690212 0.766193 0.833211 0.890189 0.936147 0.970220 0.991671 0.999918 0.994546 0.975320 0.942202 0.895363 0.835186 0.762272 0.677445 0.581745 0.476424 0.362934 0.242914 0.118168 0.009358 0.137603 0.264418 0.387610 0.504976 0.614340 0.713599 0.800766 0.874015 0.931717 0.972492 0.995238 0.999171 0.983856 0.949225 0.895603 0.823712 0.734679 0.630020 0.511635 0.381776 0.243010 0.098182 0.049644 0.197247 0.341311 0.478505 0.605561 0.719351 0.816974 0.895831 0.953707 0.988837 0.999974 0.986434 0.948145 0.885665 0.800196 0.693576 0.568254 0.427245 0.274075 0.112693 0.052615 0.217343 0.376877 0.526628 0.662173 0.779382 0.874557 0.944558 0.986914 0.999934 0.982773 0.935502 0.859129 0.755602 0.627784 0.479385 0.314878 0.139367 0.041549 0.221959 0.395823 0.557177 0.700344 0.820139 0.912071 0.972525 0.998917 0.989829 0.945095 0.865846 0.754516 0.614785 0.451488 0.270462 0.078354 0.117608 0.309887 0.490921 0.653424 0.790685 0.896868 0.967265 0.998536 0.988885 0.938183 0.848022 0.721706 0.564154 0.381736 0.182040 0.026428 0.234593 0.433207 0.613256 0.766376 0.885265 0.964045 0.998578 0.986714 0.928448 0.825979 0.683672 0.507905 0.306812 0.089930 0.132226 0.348677 0.548512 0.721444 0.858361 0.951822 0.996496 0.989494 0.930590 0.822304 0.669843 0.480888 0.265247 0.034368 0.199247 0.422708 0.623455 0.789965 0.912449 0.983445 0.998317 0.955592 0.857128 0.708096 0.516750 0.294015 0.052894 0.192260 0.426596 0.635661 0.806308 0.927541 0.991269 0.992879 0.931623 0.810756 0.637427 0.422307 0.178973 0.076905 0.328563 0.559236 0.753270 0.897230 0.980849 0.997812 0.946287 0.829160 0.653936 0.432322 0.179505 0.086874 0.347895 0.584727 0.779986 0.919033 0.991126 0.990298 0.915910 0.772824 0.571151 0.325615 0.054509 0.221616 0.481489 0.704781 0.873699 0.974453 0.998440 0.943039 0.811958 0.615065 0.367720 0.089647 0.196610 0.467484 0.700336 0.875353 0.977306 0.996912 0.931768 0.786694 0.573476 0.309977 0.018720 0.275017 0.545356 0.768121 0.923024 0.995577 0.978522 0.872633 0.686808 0.437425 0.146966 0.157950 0.448961 0.698623 0.883002 0.984031 0.991359 0.903497 0.728138 0.481583 0.187329 0.126117 0.427953 0.688110 0.880261
1.000000 1.000000 1.000000 1.000000 1.000000 1.000000 1.000000 1.000000 1.000000 1.000000 1.000000 1.000000 1.000000 1.000000 1.000000 1.000000 1.000000 1.000000 1.000000 1.000000 1.000000 1.000000 1.000000 1.000000 1.000000 1.000000 1.000000 1.000000 1.000000 1.000000 1.000000 1.000000 1.000000 1.000000 1.000000 1.000000 1.000000 1.000000 1.000000 1.000000 1.000000 1.000000 1.000000 1.000000 1.000000 1.000000 1.000000 1.000000 1.000000 1.000000 1.000000 1.000000 0.834952 0.834952 0.834952 0.834952 0.834952 0.834952 0.834952 0.812395 0.812395 0.812395 0.812395 0.812395 0.812395 0.812395 0.812395 0.812395 0.812395 0.812395 0.812395 0.812395 0.812395 0.812395 0.812395 0.812395 0.812395 0.812395 0.812395 0.812395 0.812395 0.812395 0.812395 0.812395 0.812395 0.812395 0.812395 0.812395 0.812395 0.812395 0.812395 0.812395 0.812395 0.812395 0.812395 0.812395 0.812395 0.812395 0.812395 0.812395 0.812395 0.812395 0.812395 0.952541 0.953194 0.945517 0.944394 0.942631 0.939434 0.934961 0.934502 0.935860 0.936068 0.936708 0.938154 0.939235 0.940974 0.942087 0.942991 0.943849 0.951908 0.955521 0.955938 0.955469 0.950845 0.957444 0.956604 0.956442 0.957229 0.957532 0.958249 0.958127 0.957957 0.957406 0.956258 0.956981 0.956834 0.956109 0.955075 0.952751 0.952734 0.952278 0.952398 0.953356 0.954045 0.954685 0.955198 0.955156 0.955343 0.955324 0.955225 0.950175 0.950206 0.943755 0.944445 0.945629 0.945323 0.944262 0.942857 0.942906 0.942768 0.942675 0.942468 0.942695 0.923668 0.923112 0.923143 0.923306 0.915716 0.904871 0.897676 0.891025 0.891912 0.895923 0.900828 0.901176 0.898022 0.897120 0.880914 0.884671 0.871821 0.868879 0.857388 0.867750 0.869881 0.871381 0.866496 0.865881 0.864620 0.862658 0.853541 0.857602 0.857875 0.853580 0.850236 0.848033 0.846930 0.848385 0.853175 0.849685 0.845367 0.842698 0.830949 0.821502 0.820310 0.822931 0.830772 0.842830 0.843115 0.842352 0.835068 0.831208 0.824252 0.817504 0.815044 0.816962 0.814159 0.818121 0.816378 0.823084 0.813047 0.808334 0.813363 0.822661 0.828314 0.831072 0.833401 0.831292 0.830218 0.813870 0.814551 0.805949 0.757097 0.760589 0.749043 0.748663 0.739499 0.738077 0.734475 0.734622 0.729140 0.713281 0.725515 0.718190 0.692633 0.700345 0.693703 0.681452 0.659804 0.664292 0.678970 0.687536 0.686984 0.690604 0.679231 0.678942 0.691254 0.692504 0.699756 0.694136 0.692304 0.685057 0.686830 0.676785 0.676051 0.671273 0.670128 0.670704 0.667059 0.656770 0.664697 0.661718 0.656180 0.647397 0.602592 0.563691 0.543563 0.536501 0.519071 0.495553 0.512889 0.520370 0.502727 0.494055 0.475570 0.436768 0.427479 0.425933 0.401997 0.385848 0.364306 0.334767 0.342335 0.344059 0.347684 0.334252 0.331887 0.316663 0.273151 0.264407 0.225810 0.241430 0.261431 0.249206 0.227137 0.229241 0.241988 0.239941 0.252549 0.250959 0.265161 0.220117 0.166472 0.180287 0.177490 0.188703 0.172163 0.145897 0.170823 0.158608 0.168945 0.171902 0.131881 0.101427 0.081349 0.056341 0.061780 0.086612 0.102993 0.096152 0.073199 -0.016670 0.016352 0.044850 0.044850 0.044850 0.044850 0.044850 0.044850 0.044850 0.044850 0.044850 0.044850 0.044850 -0.021859 -0.021859 -0.021859 -0.021859 -0.021859 -0.021859 -0.021859 -0.021859 -0.021859 -0.021859 -0.021859 -0.021859 -0.021859 -0.021859 -0.021859 -0.021859 -0.021859 -0.021859 -0.021859
0.000000 0.000000 0.000000 0.000000 0.000000 0.000000 0.000000 0.000000 0.000000 0.000000 0.000000 0.000000 0.000000 0.000000 0.000000 0.000000 0.000000 0.000000 0.000000 0.000000 0.000000 0.000000 0.000000 0.000000 0.000000 0.000000 0.000000 0.000000 0.000000 0.000000 0.000000 0.000000 0.000000 0.000000 0.000000 0.000000 0.000000 0.000000 0.000000 0.000000 0.000000 0.000000 0.000000 0.000000 0.000000 0.000000 0.000000 0.000000 0.000000 0.000000 0.000000 0.000000 0.173422 0.173422 0.173422 0.173422 0.173422 0.173422 0.173422 0.191565 0.191565 0.191565 0.191565 0.191565 0.191565 0.191565 0.191565 0.191565 0.191565 0.191565 0.191565 0.191565 0.191565 0.191565 0.191565 0.191565 0.191565 0.191565 0.191565 0.191565 0.191565 0.191565 0.191565 0.191565 0.191565 0.191565 0.191565 0.191565 0.191565 0.191565 0.191565 0.191565 0.191565 0.191565 0.191565 0.191565 0.191565 0.191565 0.191565 0.191565 0.191565 0.191565 0.191565 0.219529 0.219529 0.219529 0.219529 0.219529 0.219529 0.219529 0.219529 0.219529 0.219529 0.219529 0.219529 0.219529 0.219529 0.219529 0.219529 0.219529 0.219529 0.219529 0.219529 0.219529 0.219529 0.219529 0.219529 0.219529 0.219529 0.219529 0.219529 0.219529 0.219529 0.219529 0.237356 0.237356 0.237356 0.237356 0.237356 0.237356 0.237356 0.237356 0.237356 0.237356 0.237356 0.237356 0.237356 0.237356 0.237356 0.237356 0.237356 0.237356 0.237356 0.237356 0.237356 0.237356 0.237356 0.237356 0.244339 0.244339 0.244339 0.244339 0.244339 0.244339 0.244339 0.244339 0.244339 0.244339 0.244339 0.244339 0.244339 0.244339 0.244339 0.244339 0.244339 0.244339 0.244339 0.244339 0.244339 0.248069 0.248069 0.248069 0.248069 0.248069 0.248069 0.248069 0.248069 0.248069 0.248069 0.248069 0.248069 0.248069 0.248069 0.248069 0.248069 0.248069 0.248069 0.248069 0.248069 0.248069 0.248069 0.248069 0.248069 0.248069 0.248069 0.248069 0.248069 0.248069 0.248069 0.248069 0.248069 0.248069 0.248069 0.248069 0.248069 0.248069 0.256074 0.256074 0.256074 0.256074 0.256074 0.256074 0.256074 0.256074 0.256074 0.256074 0.256074 0.256074 0.256074 0.256074 0.256074 0.256074 0.256074 0.256074 0.256074 0.256074 0.256074 0.256074 0.256074 0.256074 0.256074 0.256074 0.256074 0.256074 0.256074 0.256074 0.256074 0.256074 0.256074 0.256074 0.256074 0.256074 0.256074 0.256074 0.256074 0.256074 0.256074 0.256074 0.256074 0.256074 0.256074 0.260378 0.260378 0.260378 0.260378 0.260378 0.260378 0.260378 0.260378 0.260378 0.260378 0.260378 0.260378 0.260378 0.256074 0.256074 0.256074 0.256074 0.256074 0.256074 0.256074 0.256074 0.256074 0.256074 0.256074 0.256074 0.256074 0.260378 0.260378 0.260378 0.260378 0.260378 0.260378 0.260378 0.260378 0.260378 0.260378 0.260378 0.260378 0.251976 0.251976 0.251976 0.251976 0.251976 0.251976 0.251976 0.251976 0.251976 0.251976 0.251976 0.251976 0.256074 0.256074 0.256074 0.256074 0.256074 0.256074 0.256074 0.256074 0.256074 0.256074 0.256074 0.251976 0.251976 0.251976 0.251976 0.251976 0.251976 0.251976 0.251976 0.251976 0.251976 0.251976 0.248069 0.248069 0.248069 0.248069 0.248069 0.248069 0.248069 0.248069 0.248069 0.248069 0.248069 0.256074 0.256074 0.256074 0.256074 0.256074 0.256074 0.256074 0.256074 0.256074 0.256074 0.256074 0.256074 0.256074 0.256074 0.256074 0.256074 0.256074 0.256074 0.256074
