# Output from CTFFind version 4.1.9, run on 2019-11-03 20:02:29
# Input file: stack6_bm3d_averaged_1_7.0_0_50_half.mrc ; Number of micrographs: 1
# Pixel size: 3.000 Angstroms ; acceleration voltage: 300.0 keV ; spherical aberration: 0.00 mm ; amplitude contrast: 0.07
# Box size: 512 pixels ; min. res.: 30.0 Angstroms ; max. res.: 5.0 Angstroms ; min. def.: 5000.0 um; max. def. 50000.0 um; num. frames averaged: 1
# 6 lines per micrograph: #1 - spatial frequency (1/Angstroms); #2 - 1D rotational average of spectrum (assuming no astigmatism); #3 - 1D rotational average of spectrum; #4 - CTF fit; #5 - cross-correlation between spectrum and CTF fit; #6 - 2sigma of expected cross correlation of noise
0.000000 0.000651 0.001302 0.001953 0.002604 0.003255 0.003906 0.004557 0.005208 0.005859 0.006510 0.007161 0.007812 0.008464 0.009115 0.009766 0.010417 0.011068 0.011719 0.012370 0.013021 0.013672 0.014323 0.014974 0.015625 0.016276 0.016927 0.017578 0.018229 0.018880 0.019531 0.020182 0.020833 0.021484 0.022135 0.022786 0.023438 0.024089 0.024740 0.025391 0.026042 0.026693 0.027344 0.027995 0.028646 0.029297 0.029948 0.030599 0.031250 0.031901 0.032552 0.033203 0.033854 0.034505 0.035156 0.035807 0.036458 0.037109 0.037760 0.038411 0.039062 0.039714 0.040365 0.041016 0.041667 0.042318 0.042969 0.043620 0.044271 0.044922 0.045573 0.046224 0.046875 0.047526 0.048177 0.048828 0.049479 0.050130 0.050781 0.051432 0.052083 0.052734 0.053385 0.054036 0.054688 0.055339 0.055990 0.056641 0.057292 0.057943 0.058594 0.059245 0.059896 0.060547 0.061198 0.061849 0.062500 0.063151 0.063802 0.064453 0.065104 0.065755 0.066406 0.067057 0.067708 0.068359 0.069010 0.069661 0.070312 0.070964 0.071615 0.072266 0.072917 0.073568 0.074219 0.074870 0.075521 0.076172 0.076823 0.077474 0.078125 0.078776 0.079427 0.080078 0.080729 0.081380 0.082031 0.082682 0.083333 0.083984 0.084635 0.085286 0.085938 0.086589 0.087240 0.087891 0.088542 0.089193 0.089844 0.090495 0.091146 0.091797 0.092448 0.093099 0.093750 0.094401 0.095052 0.095703 0.096354 0.097005 0.097656 0.098307 0.098958 0.099609 0.100260 0.100911 0.101562 0.102214 0.102865 0.103516 0.104167 0.104818 0.105469 0.106120 0.106771 0.107422 0.108073 0.108724 0.109375 0.110026 0.110677 0.111328 0.111979 0.112630 0.113281 0.113932 0.114583 0.115234 0.115885 0.116536 0.117188 0.117839 0.118490 0.119141 0.119792 0.120443 0.121094 0.121745 0.122396 0.123047 0.123698 0.124349 0.125000 0.125651 0.126302 0.126953 0.127604 0.128255 0.128906 0.129557 0.130208 0.130859 0.131510 0.132161 0.132812 0.133464 0.134115 0.134766 0.135417 0.136068 0.136719 0.137370 0.138021 0.138672 0.139323 0.139974 0.140625 0.141276 0.141927 0.142578 0.143229 0.143880 0.144531 0.145182 0.145833 0.146484 0.147135 0.147786 0.148438 0.149089 0.149740 0.150391 0.151042 0.151693 0.152344 0.152995 0.153646 0.154297 0.154948 0.155599 0.156250 0.156901 0.157552 0.158203 0.158854 0.159505 0.160156 0.160807 0.161458 0.162109 0.162760 0.163411 0.164062 0.164714 0.165365 0.166016 0.166667 0.167318 0.167969 0.168620 0.169271 0.169922 0.170573 0.171224 0.171875 0.172526 0.173177 0.173828 0.174479 0.175130 0.175781 0.176432 0.177083 0.177734 0.178385 0.179036 0.179688 0.180339 0.180990 0.181641 0.182292 0.182943 0.183594 0.184245 0.184896 0.185547 0.186198 0.186849 0.187500 0.188151 0.188802 0.189453 0.190104 0.190755 0.191406 0.192057 0.192708 0.193359 0.194010 0.194661 0.195312 0.195964 0.196615 0.197266 0.197917 0.198568 0.199219 0.199870 0.200521 0.201172 0.201823 0.202474 0.203125 0.203776 0.204427 0.205078 0.205729 0.206380 0.207031 0.207682 0.208333 0.208984 0.209635 0.210286 0.210938 0.211589 0.212240 0.212891 0.213542 0.214193 0.214844 0.215495 0.216146 0.216797 0.217448 0.218099 0.218750 0.219401 0.220052 0.220703 0.221354 0.222005 0.222656 0.223307 0.223958 0.224609 0.225260 0.225911 0.226562 0.227214 0.227865 0.228516 0.229167 0.229818 0.230469 0.231120 0.231771 0.232422 0.233073 0.233724 0.234375 0.235026 0.235677
       0.33302        0.33302        0.33302        0.33302        0.33302        0.33302        0.33302        0.33302        0.33302        0.33302        0.33302        0.33302        0.33302        0.33302        0.33302        0.33302        0.33302        0.33302        0.33302        0.33302        0.33302        0.33302        0.33302        0.33302        0.33302        0.33302        0.33302        0.33302        0.33302        0.33302        0.33302        0.33302        0.33302        0.33302        0.33302        0.33302        0.33302        0.33302        0.33302        0.33302        0.33302        0.33302        0.33302        0.33302        0.33302        0.33302        0.33302        0.33302        0.33302        0.33302        0.33302        0.59595        0.70851        0.36594        0.17248        0.13987       -0.12817        0.11302        0.04149        0.04391        0.09401        0.30973        0.30682        0.23613        0.14203       -0.03711       -0.00942        0.05245       -0.08846       -0.09507       -0.06817       -0.07437       -0.17229       -0.10941       -0.21845       -0.23754       -0.23590       -0.29412       -0.36462       -0.29333       -0.20234       -0.16668       -0.27411       -0.19942       -0.23906       -0.18026       -0.12109       -0.06241       -0.03466        0.02040        0.06937        0.15199        0.19315        0.23553        0.34717        0.41189        0.36189        0.48412        0.54575        0.55410        0.62991        0.55429        0.58419        0.60441        0.60444        0.59410        0.55995        0.59699        0.54198        0.39934        0.35557        0.37828        0.34444        0.21344        0.20505        0.17476        0.11821        0.11571        0.04417        0.11142        0.08919        0.05681        0.13748        0.19188        0.27842        0.34946        0.36714        0.39932        0.44915        0.48187        0.42296        0.63712        0.55062        0.48243        0.56968        0.50386        0.55901        0.51761        0.39158        0.32945        0.31563        0.27006        0.25985        0.21659        0.19874        0.17719        0.26876        0.24693        0.26608        0.23655        0.27592        0.33953        0.33860        0.45070        0.44628        0.43323        0.41845        0.48237        0.43640        0.41686        0.40844        0.39750        0.33705        0.28440        0.28414        0.27257        0.27094        0.21641        0.20597        0.25392        0.27040        0.29122        0.35197        0.38724        0.42807        0.41784        0.43012        0.49172        0.47541        0.43047        0.38338        0.41892        0.38271        0.33167        0.34120        0.33243        0.27436        0.28549        0.28179        0.25807        0.32212        0.30150        0.32044        0.34023        0.40038        0.42345        0.41359        0.44244        0.39193        0.43467        0.40740        0.33618        0.30204        0.27704        0.28755        0.26016        0.22920        0.31548        0.37831        0.33987        0.31196        0.36805        0.29462        0.35279        0.40441        0.38923        0.36669        0.38052        0.34934        0.36438        0.33633        0.30843        0.28969        0.27171        0.32322        0.33471        0.35431        0.36859        0.39068        0.37304        0.36927        0.32794        0.35805        0.36619        0.34659        0.33053        0.29169        0.28993        0.27239        0.34178        0.33797        0.35076        0.31966        0.35090        0.37394        0.34043        0.35820        0.35069        0.31649        0.31320        0.31058        0.28399        0.27461        0.26486        0.25581        0.27644        0.26954        0.30555        0.27685        0.31831        0.36209        0.26509        0.29686        0.28409        0.25080        0.30581        0.28804        0.28924        0.31538        0.33001        0.33103        0.31852        0.31707        0.31438        0.36363        0.36098        0.30454        0.32886        0.32052        0.37075        0.28127        0.27991        0.29694        0.30775        0.33371        0.36825        0.35895        0.29806        0.23430        0.29889        0.26927        0.26010        0.26184        0.27792        0.31077        0.24058        0.30807        0.33356        0.36818        0.31142        0.31772        0.28570        0.29633        0.29282        0.26830        0.29081        0.27154        0.28634        0.35335        0.34978        0.28568        0.32684        0.33125        0.26273        0.23192        0.18962        0.33351        0.32954        0.36215        0.34679        0.29390        0.23184        0.22145        0.27837        0.27212        0.27147        0.29429        0.29356        0.24797        0.28383        0.28473        0.31037        0.28359        0.28108        0.27592        0.24748        0.23465        0.28986        0.25196        0.21741        0.26226        0.25834        0.26338        0.22606        0.20591        0.27338        0.30455        0.28021        0.20362        0.14714        0.28912        0.22662        0.26026        0.27527        0.16789        0.16285        0.20346        0.24154        0.30049        0.09245       -0.11808       -0.61089       -0.96748
2.429488 2.408904 2.388411 2.368009 2.347699 2.327479 2.307351 2.287313 2.267367 2.247512 2.227748 2.208075 2.188493 2.169002 2.149602 2.130294 2.111076 2.091950 2.072915 2.053971 2.035118 2.016356 1.997685 1.979105 1.960617 1.942219 1.923913 1.905697 1.887573 1.869540 1.851598 1.833747 1.815987 1.798319 1.780741 1.763255 1.745859 1.728555 1.711342 1.694220 1.677189 1.660249 1.643400 1.626643 1.609976 1.593401 1.576916 1.560523 1.544221 1.528010 1.511890 1.869738 2.211976 1.535995 1.331627 1.107050 0.519433 0.936635 0.803772 0.847276 0.701471 1.427855 1.195593 1.213181 0.988860 0.595780 0.470033 0.748680 0.605059 0.284323 0.271271 0.488564 0.248711 0.266243 0.110409 -0.001952 -0.016463 -0.009416 -0.321309 -0.142308 0.013825 0.011208 -0.080563 -0.013544 -0.103829 -0.082927 0.069337 0.199105 0.261423 0.281468 0.388644 0.633829 0.564927 0.671891 0.830569 1.066008 0.807225 1.273114 1.198276 1.274889 1.374533 1.266336 1.163636 1.378935 1.241391 1.349387 1.208685 1.210405 1.225650 0.966258 0.719162 0.751504 0.798589 0.483861 0.450766 0.373458 0.242182 0.198334 0.034983 0.236834 0.175937 0.061990 0.143414 0.239816 0.365648 0.608326 0.612135 0.632741 0.698196 0.882021 0.595585 1.029341 1.056361 0.777172 0.928713 0.772233 0.890824 0.921889 0.653777 0.409781 0.440348 0.388867 0.222996 0.246447 0.162327 -0.014693 0.254430 0.235518 0.263078 0.158831 0.249164 0.335043 0.276585 0.502412 0.604011 0.557964 0.367217 0.651094 0.562118 0.417953 0.542302 0.435058 0.267492 0.312394 0.139988 0.216376 0.025266 0.216025 -0.054123 0.058205 0.067135 0.259658 0.048197 0.400211 0.351374 0.406038 0.380757 0.420386 0.591884 0.410232 0.344318 0.400317 0.196640 0.363369 0.107138 0.268415 0.064411 0.090315 0.080433 0.061585 0.045652 0.158792 0.057829 0.159139 0.242453 0.287507 0.329808 0.264532 0.345919 0.264457 0.293909 0.187269 0.104635 0.019292 -0.007456 0.017053 -0.063405 -0.071755 0.127953 0.219585 0.053241 0.108215 0.131145 0.008110 0.191427 0.260017 0.188640 0.180438 0.129829 0.169922 0.105840 0.096648 0.046249 -0.087452 -0.000971 0.133187 0.055058 0.155045 0.135661 0.221417 0.178933 0.153001 0.106881 0.187806 0.100382 0.144671 0.090495 0.007180 -0.012229 -0.013436 0.128519 0.122346 0.131338 0.059914 0.151722 0.163496 0.044138 0.145162 0.053362 -0.009330 0.027005 0.007631 -0.059784 -0.061504 -0.117716 -0.049519 -0.053362 -0.098156 0.010396 -0.049486 0.044569 0.103641 -0.115053 0.022032 -0.052187 -0.096769 0.050693 -0.023840 -0.061387 0.043848 0.099432 0.030660 0.058561 -0.045821 0.026583 0.205600 0.010773 -0.048145 0.080603 0.040909 0.112427 -0.111665 -0.048331 -0.006263 0.043357 0.060043 0.102710 0.130899 -0.050834 -0.110279 0.008154 -0.063277 -0.066234 -0.047310 -0.044687 0.053797 -0.175997 0.129302 0.132371 0.184008 0.038508 0.057065 0.035119 0.031802 0.097249 -0.024667 0.040859 0.010707 0.053595 0.143556 0.191850 0.042746 0.168572 0.170110 -0.040580 -0.010114 -0.161626 0.238547 0.134494 0.216350 0.173044 0.027937 -0.063477 -0.092564 0.016938 0.009251 -0.020273 0.047922 0.048319 -0.080608 0.017149 0.112140 0.068124 0.036819 0.005838 0.056591 -0.109880 -0.013076 0.055961 -0.033633 -0.122198 0.037776 -0.013446 -0.042987 -0.040421 -0.120029 0.082520 0.121238 -0.003499 -0.094333 -0.349437 0.181274 0.509593 0.454008 0.577535 0.264129 0.324440 0.413126 0.509439 0.577534 0.039588 0.015907 -0.939164
0.072396 0.072838 0.074163 0.076371 0.079462 0.083435 0.088289 0.094022 0.100634 0.108122 0.116484 0.125716 0.135815 0.146776 0.158594 0.171262 0.184772 0.199116 0.214282 0.230259 0.247032 0.264586 0.282903 0.301961 0.321739 0.342209 0.363344 0.385111 0.407474 0.430396 0.453833 0.477738 0.502061 0.526747 0.551735 0.576960 0.602354 0.627843 0.653346 0.678779 0.704051 0.729069 0.753731 0.777931 0.801559 0.824499 0.846629 0.867825 0.887956 0.906890 0.924488 0.940610 0.955112 0.967851 0.978680 0.987451 0.994019 0.998237 0.999964 0.999060 0.995388 0.988821 0.979236 0.966518 0.950564 0.931282 0.908590 0.882425 0.852736 0.819493 0.782682 0.742313 0.698416 0.651047 0.600285 0.546238 0.489041 0.428857 0.365881 0.300336 0.232478 0.162594 0.091002 0.018050 0.055883 0.130388 0.205031 0.279348 0.352856 0.425047 0.495396 0.563366 0.628407 0.689964 0.747479 0.800402 0.848190 0.890315 0.926273 0.955588 0.977820 0.992569 0.999485 0.998277 0.988713 0.970632 0.943948 0.908657 0.864842 0.812675 0.752424 0.684454 0.609231 0.527317 0.439375 0.346165 0.248540 0.147440 0.043885 0.061028 0.166143 0.270251 0.372106 0.470437 0.563965 0.651424 0.731572 0.803218 0.865233 0.916578 0.956321 0.983654 0.997916 0.998607 0.985407 0.958192 0.917039 0.862242 0.794319 0.714007 0.622269 0.520285 0.409446 0.291336 0.167716 0.040506 0.088250 0.216406 0.341757 0.462066 0.575119 0.678750 0.770902 0.849658 0.913296 0.960323 0.989521 0.999980 0.991137 0.962795 0.915150 0.848800 0.764752 0.664419 0.549605 0.422480 0.285552 0.141622 0.006269 0.154897 0.300927 0.440980 0.571721 0.689935 0.792613 0.877034 0.940842 0.982127 0.999484 0.992074 0.959665 0.902665 0.822136 0.719788 0.597962 0.459586 0.308120 0.147478 0.018066 0.183983 0.345614 0.498297 0.637510 0.759000 0.858929 0.934004 0.981593 0.999836 0.987727 0.945176 0.873050 0.773168 0.648289 0.502048 0.338864 0.163824 0.017463 0.199040 0.374797 0.538674 0.684877 0.808085 0.903659 0.967832 0.997874 0.992225 0.950588 0.873990 0.764777 0.626575 0.464192 0.283467 0.091080 0.105682 0.299199 0.481803 0.646095 0.785242 0.893285 0.965408 0.998170 0.989698 0.939809 0.850073 0.723801 0.565943 0.382939 0.182460 0.026882 0.235900 0.435226 0.615737 0.768976 0.887568 0.965597 0.998919 0.985421 0.925170 0.820481 0.675864 0.497862 0.294798 0.076395 0.146661 0.363236 0.562304 0.733521 0.867767 0.957665 0.998014 0.986118 0.922006 0.808499 0.651135 0.457938 0.239048 0.006209 0.227834 0.450029 0.647754 0.809529 0.925727 0.989163 0.995583 0.943987 0.836772 0.679681 0.481538 0.253798 0.009912 0.235431 0.467203 0.670938 0.833664 0.944749 0.996643 0.985427 0.911160 0.777971 0.593885 0.370404 0.121820 0.135662 0.384967 0.609279 0.793179 0.923751 0.991510 0.991152 0.922021 0.788260 0.598637 0.366026 0.106581 0.161341 0.418481 0.646035 0.827068 0.947796 0.998685 0.975268 0.878586 0.715243 0.497021 0.240102 0.036101 0.310362 0.561273 0.768927 0.916516 0.991754 0.987952 0.904681 0.747947 0.529842 0.267673 0.017345 0.301778 0.561874 0.775578 0.924413 0.995148 0.981031 0.882517 0.707374 0.470168 0.191118 0.105567 0.393759 0.647693 0.844311 0.965377 0.999256 0.942097 0.798357 0.580554 0.308267 0.006448 0.296823 0.572914 0.795383 0.942524 0.999570 0.960250 0.827572 0.613716 0.339009 0.030078 0.282680 0.568056 0.797160 0.946401 0.999962
1.000000 1.000000 1.000000 1.000000 1.000000 1.000000 1.000000 1.000000 1.000000 1.000000 1.000000 1.000000 1.000000 1.000000 1.000000 1.000000 1.000000 1.000000 1.000000 1.000000 1.000000 1.000000 1.000000 1.000000 1.000000 1.000000 1.000000 1.000000 1.000000 1.000000 1.000000 1.000000 1.000000 1.000000 1.000000 1.000000 1.000000 1.000000 1.000000 1.000000 1.000000 1.000000 1.000000 1.000000 1.000000 1.000000 1.000000 1.000000 1.000000 1.000000 1.000000 1.000000 0.771301 0.771301 0.771301 0.771301 0.771301 0.771301 0.771301 0.759893 0.759893 0.759893 0.759893 0.759893 0.759893 0.759893 0.759893 0.759893 0.759893 0.759893 0.759893 0.759893 0.759893 0.759893 0.759893 0.759893 0.759893 0.759893 0.759893 0.759893 0.759893 0.759893 0.759893 0.759893 0.759893 0.759893 0.759893 0.759893 0.759893 0.759893 0.759893 0.759893 0.759893 0.759893 0.759893 0.759893 0.759893 0.759893 0.759893 0.759893 0.759893 0.759893 0.759893 0.900294 0.901761 0.904817 0.900235 0.902166 0.900008 0.893575 0.896503 0.897123 0.896935 0.897724 0.899374 0.901375 0.908709 0.917617 0.919502 0.926485 0.929922 0.929907 0.931426 0.930049 0.937530 0.935043 0.933276 0.921372 0.924770 0.926665 0.925672 0.924512 0.921335 0.927103 0.925697 0.923617 0.918331 0.914407 0.912490 0.914130 0.911889 0.912471 0.912652 0.913578 0.911764 0.912563 0.908717 0.909659 0.908558 0.905005 0.901979 0.901689 0.903066 0.901376 0.898006 0.891753 0.897726 0.897892 0.897285 0.896194 0.896404 0.897198 0.897970 0.898635 0.896193 0.896244 0.893705 0.895487 0.892019 0.887339 0.881239 0.881557 0.884026 0.891044 0.893045 0.891639 0.888776 0.880335 0.869701 0.867603 0.856181 0.821539 0.823522 0.827382 0.829422 0.829839 0.828838 0.825016 0.820766 0.812691 0.803791 0.808568 0.809057 0.801787 0.797818 0.798744 0.799525 0.806885 0.810549 0.802370 0.799129 0.801561 0.797446 0.798624 0.802573 0.795549 0.792709 0.799633 0.807762 0.807744 0.792301 0.788004 0.785457 0.773412 0.780556 0.787090 0.786490 0.787911 0.784886 0.773113 0.771817 0.765171 0.775906 0.782968 0.782268 0.777291 0.760440 0.717069 0.702680 0.668817 0.667101 0.668699 0.634948 0.635173 0.636657 0.640748 0.583702 0.560276 0.546109 0.547123 0.556253 0.561392 0.555116 0.528439 0.545972 0.542325 0.527804 0.523736 0.505249 0.491735 0.474267 0.476827 0.476039 0.468569 0.436993 0.438533 0.458639 0.467767 0.462908 0.459085 0.431339 0.410974 0.410795 0.403116 0.402895 0.409126 0.417494 0.359823 0.337020 0.323466 0.352058 0.350256 0.348462 0.366339 0.358138 0.351634 0.326528 0.306073 0.276206 0.288810 0.309444 0.312641 0.316035 0.284644 0.275537 0.260245 0.264332 0.309516 0.298858 0.321734 0.327406 0.332412 0.357179 0.330261 0.306775 0.285009 0.328509 0.336666 0.307341 0.301460 0.315780 0.328695 0.327744 0.323575 0.318414 0.365481 0.368401 0.347150 0.347387 0.314587 0.334434 0.365279 0.363141 0.369197 0.379339 0.385742 0.348566 0.272757 0.243598 0.247108 0.223838 0.223612 0.209740 0.194495 0.186339 0.198695 0.220490 0.226660 0.258766 0.226813 0.181247 0.090755 0.157580 0.074659 0.088803 0.088803 0.088803 0.088803 0.088803 0.088803 0.088803 0.088803 0.126102 0.126102 0.126102 0.126102 0.126102 0.126102 0.126102 0.126102 0.126102 0.126102 0.126102 0.126102 0.126102 0.126102 0.126102 0.126102 0.126102 0.126102 0.126102 0.126102 0.126102
0.000000 0.000000 0.000000 0.000000 0.000000 0.000000 0.000000 0.000000 0.000000 0.000000 0.000000 0.000000 0.000000 0.000000 0.000000 0.000000 0.000000 0.000000 2.000000 0.000000 0.000000 0.000000 0.000000 0.000000 0.000000 0.000000 0.000000 0.000000 0.000000 0.000000 0.000000 0.000000 0.000000 0.000000 0.000000 0.000000 0.000000 0.000000 0.000000 0.000000 0.000000 0.000000 0.000000 0.000000 0.000000 0.000000 0.000000 0.000000 0.000000 0.000000 0.000000 0.000000 0.173422 0.173422 0.173422 0.173422 0.173422 0.173422 0.173422 0.191565 0.191565 0.191565 0.191565 0.191565 0.191565 0.191565 0.191565 0.191565 0.191565 0.191565 0.191565 0.191565 0.191565 0.191565 0.191565 0.191565 0.191565 0.191565 0.191565 0.191565 0.191565 0.191565 0.191565 0.191565 0.191565 0.191565 0.191565 0.191565 0.191565 0.191565 0.191565 0.191565 0.191565 0.191565 0.191565 0.191565 0.191565 0.191565 0.191565 0.191565 0.191565 0.191565 0.191565 0.222222 0.222222 0.222222 0.222222 0.222222 0.222222 0.222222 0.222222 0.222222 0.222222 0.222222 0.222222 0.222222 0.222222 0.222222 0.222222 0.222222 0.222222 0.222222 0.222222 0.222222 0.222222 0.222222 0.222222 0.222222 0.222222 0.222222 0.222222 0.222222 0.222222 0.234082 0.234082 0.234082 0.234082 0.234082 0.234082 0.234082 0.234082 0.234082 0.234082 0.234082 0.234082 0.234082 0.234082 0.234082 0.234082 0.234082 0.234082 0.234082 0.234082 0.234082 0.234082 0.234082 0.234082 0.234082 0.244339 0.244339 0.244339 0.244339 0.244339 0.244339 0.244339 0.244339 0.244339 0.244339 0.244339 0.244339 0.244339 0.244339 0.244339 0.244339 0.244339 0.244339 0.244339 0.244339 0.244339 0.248069 0.248069 0.248069 0.248069 0.248069 0.248069 0.248069 0.248069 0.248069 0.248069 0.248069 0.248069 0.248069 0.248069 0.248069 0.248069 0.248069 0.248069 0.248069 0.256074 0.256074 0.256074 0.256074 0.256074 0.256074 0.256074 0.256074 0.256074 0.256074 0.256074 0.256074 0.256074 0.256074 0.256074 0.256074 0.256074 0.256074 0.256074 0.256074 0.256074 0.256074 0.256074 0.256074 0.256074 0.256074 0.256074 0.256074 0.256074 0.256074 0.256074 0.256074 0.256074 0.256074 0.256074 0.256074 0.256074 0.256074 0.256074 0.256074 0.256074 0.256074 0.256074 0.256074 0.256074 0.256074 0.256074 0.256074 0.256074 0.256074 0.256074 0.256074 0.256074 0.256074 0.256074 0.256074 0.256074 0.256074 0.256074 0.256074 0.256074 0.256074 0.260378 0.260378 0.260378 0.260378 0.260378 0.260378 0.260378 0.260378 0.260378 0.260378 0.260378 0.260378 0.260378 0.256074 0.256074 0.256074 0.256074 0.256074 0.256074 0.256074 0.256074 0.256074 0.256074 0.256074 0.256074 0.256074 0.260378 0.260378 0.260378 0.260378 0.260378 0.260378 0.260378 0.260378 0.260378 0.260378 0.260378 0.260378 0.251976 0.251976 0.251976 0.251976 0.251976 0.251976 0.251976 0.251976 0.251976 0.251976 0.251976 0.251976 0.256074 0.256074 0.256074 0.256074 0.256074 0.256074 0.256074 0.256074 0.256074 0.256074 0.256074 0.251976 0.251976 0.251976 0.251976 0.251976 0.251976 0.251976 0.251976 0.251976 0.251976 0.251976 0.260378 0.260378 0.260378 0.260378 0.260378 0.260378 0.260378 0.260378 0.260378 0.260378 0.244339 0.244339 0.244339 0.244339 0.244339 0.244339 0.244339 0.244339 0.244339 0.244339 0.244339 0.244339 0.244339 0.244339 0.244339 0.244339 0.244339 0.244339 0.244339 0.244339 0.244339
