# Output from CTFFind version 4.1.9, run on 2019-11-03 19:38:08
# Input file: stack11_bm3d_averaged_1_4.75_0_50_half.mrc ; Number of micrographs: 1
# Pixel size: 3.000 Angstroms ; acceleration voltage: 300.0 keV ; spherical aberration: 0.00 mm ; amplitude contrast: 0.07
# Box size: 512 pixels ; min. res.: 30.0 Angstroms ; max. res.: 5.0 Angstroms ; min. def.: 5000.0 um; max. def. 50000.0 um; num. frames averaged: 1
# 6 lines per micrograph: #1 - spatial frequency (1/Angstroms); #2 - 1D rotational average of spectrum (assuming no astigmatism); #3 - 1D rotational average of spectrum; #4 - CTF fit; #5 - cross-correlation between spectrum and CTF fit; #6 - 2sigma of expected cross correlation of noise
0.000000 0.000651 0.001302 0.001953 0.002604 0.003255 0.003906 0.004557 0.005208 0.005859 0.006510 0.007161 0.007812 0.008464 0.009115 0.009766 0.010417 0.011068 0.011719 0.012370 0.013021 0.013672 0.014323 0.014974 0.015625 0.016276 0.016927 0.017578 0.018229 0.018880 0.019531 0.020182 0.020833 0.021484 0.022135 0.022786 0.023438 0.024089 0.024740 0.025391 0.026042 0.026693 0.027344 0.027995 0.028646 0.029297 0.029948 0.030599 0.031250 0.031901 0.032552 0.033203 0.033854 0.034505 0.035156 0.035807 0.036458 0.037109 0.037760 0.038411 0.039062 0.039714 0.040365 0.041016 0.041667 0.042318 0.042969 0.043620 0.044271 0.044922 0.045573 0.046224 0.046875 0.047526 0.048177 0.048828 0.049479 0.050130 0.050781 0.051432 0.052083 0.052734 0.053385 0.054036 0.054688 0.055339 0.055990 0.056641 0.057292 0.057943 0.058594 0.059245 0.059896 0.060547 0.061198 0.061849 0.062500 0.063151 0.063802 0.064453 0.065104 0.065755 0.066406 0.067057 0.067708 0.068359 0.069010 0.069661 0.070312 0.070964 0.071615 0.072266 0.072917 0.073568 0.074219 0.074870 0.075521 0.076172 0.076823 0.077474 0.078125 0.078776 0.079427 0.080078 0.080729 0.081380 0.082031 0.082682 0.083333 0.083984 0.084635 0.085286 0.085938 0.086589 0.087240 0.087891 0.088542 0.089193 0.089844 0.090495 0.091146 0.091797 0.092448 0.093099 0.093750 0.094401 0.095052 0.095703 0.096354 0.097005 0.097656 0.098307 0.098958 0.099609 0.100260 0.100911 0.101562 0.102214 0.102865 0.103516 0.104167 0.104818 0.105469 0.106120 0.106771 0.107422 0.108073 0.108724 0.109375 0.110026 0.110677 0.111328 0.111979 0.112630 0.113281 0.113932 0.114583 0.115234 0.115885 0.116536 0.117188 0.117839 0.118490 0.119141 0.119792 0.120443 0.121094 0.121745 0.122396 0.123047 0.123698 0.124349 0.125000 0.125651 0.126302 0.126953 0.127604 0.128255 0.128906 0.129557 0.130208 0.130859 0.131510 0.132161 0.132812 0.133464 0.134115 0.134766 0.135417 0.136068 0.136719 0.137370 0.138021 0.138672 0.139323 0.139974 0.140625 0.141276 0.141927 0.142578 0.143229 0.143880 0.144531 0.145182 0.145833 0.146484 0.147135 0.147786 0.148438 0.149089 0.149740 0.150391 0.151042 0.151693 0.152344 0.152995 0.153646 0.154297 0.154948 0.155599 0.156250 0.156901 0.157552 0.158203 0.158854 0.159505 0.160156 0.160807 0.161458 0.162109 0.162760 0.163411 0.164062 0.164714 0.165365 0.166016 0.166667 0.167318 0.167969 0.168620 0.169271 0.169922 0.170573 0.171224 0.171875 0.172526 0.173177 0.173828 0.174479 0.175130 0.175781 0.176432 0.177083 0.177734 0.178385 0.179036 0.179688 0.180339 0.180990 0.181641 0.182292 0.182943 0.183594 0.184245 0.184896 0.185547 0.186198 0.186849 0.187500 0.188151 0.188802 0.189453 0.190104 0.190755 0.191406 0.192057 0.192708 0.193359 0.194010 0.194661 0.195312 0.195964 0.196615 0.197266 0.197917 0.198568 0.199219 0.199870 0.200521 0.201172 0.201823 0.202474 0.203125 0.203776 0.204427 0.205078 0.205729 0.206380 0.207031 0.207682 0.208333 0.208984 0.209635 0.210286 0.210938 0.211589 0.212240 0.212891 0.213542 0.214193 0.214844 0.215495 0.216146 0.216797 0.217448 0.218099 0.218750 0.219401 0.220052 0.220703 0.221354 0.222005 0.222656 0.223307 0.223958 0.224609 0.225260 0.225911 0.226562 0.227214 0.227865 0.228516 0.229167 0.229818 0.230469 0.231120 0.231771 0.232422 0.233073 0.233724 0.234375 0.235026 0.235677
       0.33853        0.33852        0.33853        0.33853        0.33852        0.33853        0.33852        0.33853        0.33852        0.33853        0.33853        0.33853        0.33852        0.33852        0.33853        0.33852        0.33853        0.33852        0.33853        0.33853        0.33852        0.33853        0.33853        0.33853        0.33852        0.33853        0.33852        0.33852        0.33852        0.33853        0.33852        0.33853        0.33852        0.33853        0.33852        0.33852        0.33853        0.33852        0.33853        0.33852        0.33853        0.33853        0.33853        0.33853        0.33853        0.33853        0.33852        0.33852        0.33852        0.33853        0.33853        0.69436        0.86018        0.53514        0.10436       -0.03360       -0.39609       -0.18351       -0.28950       -0.11149       -0.05597       -0.10935       -0.05383       -0.17370       -0.20913       -0.22282       -0.31133       -0.32227       -0.45111       -0.36554       -0.43172       -0.42563       -0.40148       -0.42369       -0.46617       -0.51880       -0.56343       -0.56673       -0.53861       -0.36761       -0.34118       -0.30140       -0.27952       -0.18845       -0.17945        0.05192        0.13148        0.16098        0.25613        0.37878        0.45620        0.52106        0.59190        0.58933        0.57765        0.69700        0.80492        0.70967        0.74094        0.62787        0.56816        0.48465        0.42881        0.51019        0.39344        0.25607        0.10879        0.09679        0.07692       -0.02569        0.02570        0.03918       -0.00691        0.02100        0.01617        0.23596        0.26761        0.29481        0.43315        0.45401        0.41238        0.58627        0.62521        0.65067        0.73132        0.68102        0.64963        0.66802        0.56361        0.46772        0.41860        0.30288        0.25333        0.17492        0.13010        0.05295        0.05033        0.05536        0.09074        0.14757        0.23485        0.28559        0.41160        0.45968        0.48429        0.58029        0.61187        0.63961        0.61860        0.56126        0.45766        0.46957        0.37725        0.26502        0.20488        0.15866        0.16246        0.14618        0.14369        0.17031        0.30592        0.31675        0.39068        0.43262        0.43014        0.49245        0.55833        0.55385        0.49602        0.45533        0.40786        0.35807        0.33113        0.29667        0.24591        0.24031        0.23416        0.24330        0.21858        0.30406        0.36261        0.38512        0.44102        0.45416        0.47034        0.42427        0.40246        0.40276        0.36221        0.31653        0.27173        0.26360        0.26045        0.22838        0.28032        0.27776        0.34368        0.37691        0.41708        0.47711        0.41583        0.42733        0.43314        0.40852        0.34554        0.32231        0.29365        0.31330        0.26902        0.31146        0.30485        0.32121        0.33133        0.35562        0.31925        0.39781        0.41741        0.37981        0.34607        0.37160        0.31088        0.29093        0.29460        0.31687        0.30139        0.31325        0.33320        0.34526        0.34102        0.36780        0.36734        0.40295        0.37884        0.33088        0.33597        0.29440        0.28356        0.32442        0.31673        0.32482        0.33442        0.33215        0.37480        0.32943        0.33117        0.32858        0.33620        0.29793        0.30852        0.27575        0.29992        0.32244        0.30307        0.32440        0.34765        0.35401        0.28669        0.32439        0.29109        0.30466        0.27981        0.24380        0.29709        0.29719        0.34029        0.33382        0.33164        0.32337        0.34501        0.30916        0.34325        0.31945        0.30780        0.27986        0.32677        0.31399        0.35792        0.32445        0.33073        0.33814        0.29213        0.27595        0.30878        0.24817        0.22480        0.32986        0.31970        0.35040        0.33864        0.35238        0.32270        0.34087        0.34295        0.26544        0.25202        0.31035        0.29602        0.30993        0.32090        0.33945        0.33581        0.30094        0.29076        0.33745        0.31486        0.30096        0.28120        0.32167        0.34721        0.39428        0.34378        0.30997        0.28169        0.30487        0.27990        0.29120        0.26653        0.24927        0.30738        0.32628        0.33913        0.34708        0.31827        0.28433        0.29291        0.26266        0.26890        0.24986        0.31904        0.27768        0.23383        0.32028        0.31068        0.26187        0.29032        0.21146        0.21791        0.25823        0.18656        0.25548        0.32549        0.24107        0.22487        0.31067        0.31498        0.32533        0.32061        0.25569        0.23305        0.17562        0.20831        0.18875        0.22085        0.21474        0.25347        0.31727        0.29206        0.22422        0.13730        0.07494       -0.01621       -0.11760       -0.64422
2.740399 2.711356 2.682473 2.653747 2.625181 2.596773 2.568524 2.540434 2.512502 2.484730 2.457116 2.429660 2.402364 2.375226 2.348247 2.321426 2.294764 2.268261 2.241917 2.215731 2.189704 2.163836 2.138127 2.112576 2.087184 2.061951 2.036876 2.011961 1.987203 1.962605 1.938165 1.913884 1.889762 1.865798 1.841994 1.818348 1.794860 1.771532 1.748362 1.725350 1.702498 1.679804 1.657269 1.634893 1.612675 1.590616 1.568716 1.546975 1.525392 1.503968 1.482703 1.697748 2.117581 1.680602 1.175269 1.039054 0.444765 0.843034 0.561726 0.846831 0.806405 0.817164 0.757086 0.744337 0.593041 0.552181 0.498127 0.431468 0.244053 0.370455 0.205043 0.328939 0.223873 0.201658 0.174615 0.037594 0.017053 0.014856 -0.067851 0.129976 0.226318 0.188796 0.173927 0.332785 0.184677 0.511927 0.617760 0.617539 0.633193 0.872156 0.829413 0.939873 0.922236 1.019905 0.983168 1.076063 1.161279 1.041972 1.150953 0.911580 0.925873 0.791294 0.652875 0.797619 0.698291 0.482230 0.329532 0.249627 0.259751 0.148443 0.124401 0.159160 0.102817 0.129085 0.073860 0.254849 0.358882 0.342722 0.477134 0.549511 0.423182 0.584733 0.723232 0.673125 0.731043 0.710559 0.721023 0.658670 0.599562 0.508005 0.378571 0.279301 0.223567 0.085159 0.118043 -0.091801 -0.046065 -0.063354 -0.073498 -0.024395 0.138237 0.066560 0.244729 0.306018 0.339232 0.398712 0.503293 0.481466 0.479718 0.492535 0.307075 0.292007 0.283563 0.087234 0.044657 -0.066142 -0.011762 -0.060567 -0.090799 -0.083929 0.035997 0.084106 0.118355 0.210831 0.229930 0.242927 0.292669 0.433829 0.394288 0.266946 0.242479 0.219129 0.152228 0.144385 0.115290 0.002375 0.022737 0.066933 -0.004552 0.062309 0.146555 0.145283 0.232377 0.248672 0.280073 0.182652 0.218306 0.142588 0.168309 0.118749 0.050445 -0.008645 0.015131 -0.003858 -0.043629 0.061451 0.020633 0.125322 0.151054 0.192915 0.192369 0.157510 0.160147 0.179350 0.129670 0.057235 -0.000180 0.053731 0.025690 -0.018235 0.037223 0.038360 0.055492 0.051538 0.062624 0.075052 0.130887 0.148989 0.054738 0.055168 0.054618 0.014706 -0.025865 0.014875 0.017193 0.004063 0.014631 0.046430 0.057387 0.055516 0.080427 0.058006 0.139211 0.058100 0.024882 0.034338 -0.037277 0.003829 0.043392 -0.000523 0.033854 0.048311 0.020603 0.112704 0.032062 0.005287 0.052108 0.003350 0.005571 0.006109 -0.023497 0.024838 0.006589 0.004149 0.054483 0.054340 0.054158 0.027343 0.035560 0.031521 0.023630 -0.017551 -0.025790 0.031488 0.047691 0.079893 0.081954 0.060487 0.077075 0.104234 0.058840 0.110313 0.088041 0.036664 0.035925 0.101064 0.072572 0.118020 0.094078 0.057791 0.126753 0.052837 0.017863 0.091150 -0.026362 -0.008031 0.104173 0.059552 0.147680 0.094522 0.101522 0.047485 0.088387 0.091702 -0.010527 -0.028275 0.059037 0.051566 0.046516 0.044197 0.105456 0.070520 -0.002331 0.049543 0.064155 0.053631 0.049376 -0.017929 0.075782 0.079137 0.133428 0.044458 0.022758 -0.016770 0.009570 -0.014775 0.000322 -0.042660 -0.038827 0.008201 0.040279 0.015184 0.037311 -0.002077 -0.034819 -0.042398 -0.024001 -0.064731 -0.061073 -0.002330 0.020311 -0.091536 0.021137 -0.028108 -0.073113 0.007565 -0.127835 -0.076569 -0.073714 -0.186996 -0.034772 0.050197 -0.042733 -0.150241 0.042693 0.061798 -0.030387 0.070463 -0.057458 0.254548 0.133889 0.217116 0.248332 0.259465 0.230366 0.283055 0.300451 0.337806 0.206404 0.250854 0.094479 -0.021940 -0.700521
0.072396 0.072899 0.074407 0.076920 0.080437 0.084958 0.090480 0.097004 0.104526 0.113043 0.122553 0.133050 0.144531 0.156987 0.170412 0.184796 0.200128 0.216396 0.233584 0.251675 0.270650 0.290484 0.311152 0.332626 0.354870 0.377849 0.401521 0.425840 0.450756 0.476211 0.502145 0.528492 0.555178 0.582123 0.609244 0.636448 0.663637 0.690705 0.717541 0.744025 0.770033 0.795431 0.820080 0.843837 0.866548 0.888057 0.908202 0.926815 0.943726 0.958762 0.971744 0.982496 0.990839 0.996595 0.999591 0.999654 0.996618 0.990324 0.980621 0.967370 0.950444 0.929728 0.905127 0.876564 0.843983 0.807350 0.766658 0.721929 0.673211 0.620588 0.564174 0.504123 0.440622 0.373898 0.304218 0.231888 0.157256 0.080708 0.002673 0.076384 0.155958 0.235512 0.314472 0.392238 0.468184 0.541663 0.612012 0.678558 0.740626 0.797544 0.848652 0.893311 0.930910 0.960874 0.982677 0.995849 0.999987 0.994762 0.979931 0.955344 0.920954 0.876822 0.823128 0.760169 0.688371 0.608287 0.520599 0.426117 0.325775 0.220629 0.111844 0.000690 0.111474 0.223215 0.333038 0.439412 0.540788 0.635619 0.722391 0.799647 0.866011 0.920218 0.961143 0.987826 0.999497 0.995604 0.975831 0.940117 0.888675 0.822000 0.740876 0.646375 0.539857 0.422952 0.297552 0.165777 0.029952 0.107433 0.243765 0.376356 0.502495 0.619505 0.724803 0.815964 0.890776 0.947304 0.983948 0.999496 0.993169 0.964661 0.914168 0.842410 0.750636 0.640613 0.514618 0.375393 0.226098 0.070253 0.088339 0.245688 0.397703 0.540307 0.669549 0.781713 0.873440 0.941833 0.984566 0.999967 0.987105 0.945841 0.876871 0.781734 0.662809 0.523264 0.366999 0.198550 0.022965 0.154332 0.327711 0.491504 0.640200 0.768638 0.872193 0.946959 0.989909 0.999041 0.973486 0.913582 0.820908 0.698274 0.549661 0.380121 0.195618 0.002840 0.191035 0.378598 0.552493 0.705715 0.831899 0.925600 0.982552 0.999887 0.976298 0.912154 0.809544 0.672240 0.505600 0.316386 0.112511 0.097273 0.303737 0.497578 0.669848 0.812375 0.918168 0.981788 0.999660 0.970299 0.894457 0.775154 0.617604 0.429031 0.218366 0.004149 0.227439 0.440138 0.631174 0.790354 0.908932 0.980118 0.999501 0.965366 0.878865 0.744048 0.567718 0.359140 0.129588 0.108236 0.340885 0.554928 0.737731 0.878224 0.967608 0.999942 0.972586 0.886460 0.746088 0.559420 0.337439 0.093560 0.157155 0.398906 0.616151 0.794618 0.922270 0.990169 0.993138 0.930222 0.804863 0.624793 0.401613 0.150116 0.112678 0.368624 0.599718 0.789365 0.923616 0.992229 0.989519 0.914888 0.773005 0.573596 0.330850 0.062474 0.211573 0.470530 0.694417 0.865591 0.970202 0.999352 0.949940 0.825049 0.633854 0.391031 0.115713 0.169986 0.442700 0.679745 0.860996 0.970681 0.998796 0.942115 0.804623 0.597346 0.337563 0.047442 0.247806 0.522090 0.750747 0.912802 0.992952 0.983098 0.883252 0.701728 0.454560 0.164182 0.142537 0.436758 0.690343 0.878611 0.982777 0.991929 0.904267 0.727483 0.478219 0.180601 0.136019 0.439900 0.700100 0.889660 0.988451 0.985424 0.879952 0.682128 0.411925 0.097305 0.228618 0.531002 0.777020 0.939463 0.999845 0.950620 0.796245 0.552939 0.247119 0.087371 0.412942 0.692457 0.893510 0.992263 0.976385 0.846727 0.617497 0.314855 0.025958 0.364626 0.660519 0.877582 0.988815 0.979749 0.850478 0.615934 0.304342 0.046072 0.391656 0.688762 0.899289 0.995651 0.964545 0.808932 0.547971 0.214853 0.147331
1.000000 1.000000 1.000000 1.000000 1.000000 1.000000 1.000000 1.000000 1.000000 1.000000 1.000000 1.000000 1.000000 1.000000 1.000000 1.000000 1.000000 1.000000 1.000000 1.000000 1.000000 1.000000 1.000000 1.000000 1.000000 1.000000 1.000000 1.000000 1.000000 1.000000 1.000000 1.000000 1.000000 1.000000 1.000000 1.000000 1.000000 1.000000 1.000000 1.000000 1.000000 1.000000 1.000000 1.000000 1.000000 1.000000 1.000000 1.000000 1.000000 1.000000 1.000000 1.000000 0.920222 0.920222 0.920222 0.912286 0.912286 0.912286 0.912286 0.912286 0.912286 0.912286 0.912286 0.912286 0.912286 0.912286 0.912286 0.912286 0.912286 0.912286 0.912286 0.912286 0.912286 0.912286 0.912286 0.912286 0.912286 0.912286 0.912286 0.912286 0.912286 0.912286 0.912286 0.912286 0.912286 0.912286 0.912286 0.912286 0.912286 0.912286 0.912286 0.912286 0.912286 0.912286 0.912286 0.912286 0.941382 0.942826 0.951006 0.950644 0.950044 0.947961 0.946786 0.946427 0.946322 0.946650 0.947356 0.948319 0.954576 0.955805 0.960247 0.961907 0.962657 0.963305 0.963962 0.963550 0.954869 0.954663 0.953293 0.952714 0.955240 0.954275 0.953474 0.954442 0.954321 0.955052 0.954964 0.954261 0.953166 0.952059 0.951108 0.950687 0.950474 0.951206 0.951623 0.953103 0.956412 0.956992 0.957121 0.957276 0.957377 0.958670 0.957606 0.957093 0.953182 0.953371 0.952954 0.953215 0.956757 0.956733 0.957295 0.957857 0.959448 0.959734 0.952761 0.951244 0.942227 0.940059 0.936765 0.931368 0.926685 0.928367 0.929733 0.930332 0.930755 0.925713 0.925667 0.923464 0.921087 0.923748 0.923366 0.924381 0.925700 0.924196 0.923301 0.922440 0.920686 0.912214 0.899567 0.898521 0.898632 0.903194 0.904302 0.903096 0.905027 0.893417 0.877061 0.861212 0.863265 0.866637 0.857590 0.854981 0.855467 0.856291 0.859825 0.852139 0.849908 0.845706 0.836133 0.829152 0.822544 0.816215 0.817445 0.812370 0.802828 0.800641 0.809796 0.803549 0.817970 0.821436 0.819055 0.817508 0.813750 0.807544 0.784849 0.783969 0.773178 0.751927 0.752388 0.750701 0.750655 0.747302 0.753370 0.743567 0.740914 0.724661 0.724413 0.727946 0.730958 0.728251 0.722696 0.726920 0.731620 0.712612 0.702556 0.691084 0.696047 0.698871 0.698618 0.700024 0.678248 0.651360 0.629002 0.648137 0.653253 0.622240 0.645718 0.659141 0.639367 0.636253 0.626507 0.629685 0.616815 0.620243 0.619451 0.619871 0.624259 0.640084 0.628700 0.625960 0.633934 0.637225 0.648805 0.647091 0.648449 0.616401 0.617970 0.641290 0.645022 0.626598 0.644239 0.633367 0.646669 0.681924 0.682726 0.648172 0.641455 0.625122 0.587623 0.576184 0.571137 0.581506 0.613317 0.608380 0.581670 0.555972 0.562248 0.575147 0.583027 0.584964 0.561494 0.568452 0.559060 0.536486 0.545209 0.558307 0.557790 0.545362 0.526564 0.531302 0.537226 0.554635 0.546320 0.506147 0.521228 0.517964 0.513937 0.454974 0.471052 0.456246 0.447511 0.404904 0.414957 0.423899 0.410361 0.331018 0.312006 0.312420 0.313482 0.307751 0.295321 0.270448 0.257203 0.219111 0.220103 0.208436 0.184190 0.181908 0.164368 0.154571 0.156967 0.123740 0.174435 0.236057 0.237123 0.237123 0.237123 0.237123 0.237123 0.237123 0.227051 0.227051 0.227051 0.227051 0.227051 0.227051 0.227051 0.227051 0.227051 0.250085 0.250085 0.250085 0.250085 0.250085 0.250085 0.250085 0.250085 0.250085 0.250085 0.250085 0.250085 0.250085 0.250085
0.000000 0.000000 0.000000 0.000000 0.000000 0.000000 0.000000 0.000000 0.000000 0.000000 0.000000 0.000000 0.000000 0.000000 0.000000 0.000000 0.000000 0.000000 0.000000 0.000000 0.000000 0.000000 0.000000 0.000000 0.000000 0.000000 0.000000 0.000000 0.000000 0.000000 0.000000 0.000000 0.000000 0.000000 0.000000 0.000000 0.000000 0.000000 0.000000 0.000000 0.000000 0.000000 0.000000 0.000000 0.000000 0.000000 0.000000 0.000000 0.000000 0.000000 0.000000 0.000000 0.180334 0.180334 0.180334 0.199007 0.199007 0.199007 0.199007 0.199007 0.199007 0.199007 0.199007 0.199007 0.199007 0.199007 0.199007 0.199007 0.199007 0.199007 0.199007 0.199007 0.199007 0.199007 0.199007 0.199007 0.199007 0.199007 0.199007 0.199007 0.199007 0.199007 0.199007 0.199007 0.199007 0.199007 0.199007 0.199007 0.199007 0.199007 0.199007 0.199007 0.199007 0.199007 0.199007 0.199007 0.225018 0.225018 0.225018 0.225018 0.225018 0.225018 0.225018 0.225018 0.225018 0.225018 0.225018 0.225018 0.225018 0.225018 0.225018 0.225018 0.225018 0.225018 0.225018 0.225018 0.225018 0.225018 0.225018 0.225018 0.225018 0.225018 0.225018 0.225018 0.225018 0.244339 0.244339 0.244339 0.244339 0.244339 0.244339 0.244339 0.244339 0.244339 0.244339 0.244339 0.244339 0.244339 0.244339 0.244339 0.244339 0.244339 0.244339 0.244339 0.244339 0.244339 0.244339 0.244339 0.251976 0.251976 0.251976 0.251976 0.251976 0.251976 0.251976 0.251976 0.251976 0.251976 0.251976 0.251976 0.251976 0.251976 0.251976 0.251976 0.251976 0.251976 0.251976 0.251976 0.264906 0.264906 0.264906 0.264906 0.264906 0.264906 0.264906 0.264906 0.264906 0.264906 0.264906 0.264906 0.264906 0.264906 0.264906 0.264906 0.264906 0.264906 0.264906 0.264906 0.264906 0.264906 0.264906 0.264906 0.264906 0.264906 0.264906 0.264906 0.264906 0.264906 0.264906 0.264906 0.264906 0.264906 0.264906 0.264906 0.264906 0.264906 0.264906 0.264906 0.264906 0.264906 0.264906 0.264906 0.264906 0.264906 0.264906 0.264906 0.264906 0.264906 0.264906 0.264906 0.264906 0.264906 0.264906 0.264906 0.264906 0.264906 0.264906 0.264906 0.264906 0.264906 0.256074 0.256074 0.256074 0.256074 0.256074 0.256074 0.256074 0.256074 0.256074 0.256074 0.256074 0.256074 0.256074 0.256074 0.269680 0.269680 0.269680 0.269680 0.269680 0.269680 0.269680 0.269680 0.269680 0.269680 0.269680 0.269680 0.264906 0.264906 0.264906 0.264906 0.264906 0.264906 0.264906 0.264906 0.264906 0.264906 0.264906 0.264906 0.269680 0.269680 0.269680 0.269680 0.269680 0.269680 0.269680 0.269680 0.269680 0.269680 0.269680 0.264906 0.264906 0.264906 0.264906 0.264906 0.264906 0.264906 0.264906 0.264906 0.264906 0.264906 0.256074 0.256074 0.256074 0.256074 0.256074 0.256074 0.256074 0.256074 0.256074 0.256074 0.256074 0.264906 0.264906 0.264906 0.264906 0.264906 0.264906 0.264906 0.264906 0.264906 0.264906 0.260378 0.260378 0.260378 0.260378 0.260378 0.260378 0.260378 0.260378 0.260378 0.260378 0.256074 0.256074 0.256074 0.256074 0.256074 0.256074 0.256074 0.256074 0.256074 0.256074 0.260378 0.260378 0.260378 0.260378 0.260378 0.260378 0.260378 0.260378 0.260378 0.256074 0.256074 0.256074 0.256074 0.256074 0.256074 0.256074 0.256074 0.256074 0.251976 0.251976 0.251976 0.251976 0.251976 0.251976 0.251976 0.251976 0.251976 0.251976 0.251976 0.251976 0.251976 0.251976
