# Output from CTFFind version 4.1.9, run on 2019-11-02 17:50:19
# Input file: stack11_bm3d_averaged_1_1.5_0_3000_half.mrc ; Number of micrographs: 1
# Pixel size: 3.000 Angstroms ; acceleration voltage: 300.0 keV ; spherical aberration: 0.00 mm ; amplitude contrast: 0.07
# Box size: 512 pixels ; min. res.: 30.0 Angstroms ; max. res.: 5.0 Angstroms ; min. def.: 5000.0 um; max. def. 50000.0 um; num. frames averaged: 1
# 6 lines per micrograph: #1 - spatial frequency (1/Angstroms); #2 - 1D rotational average of spectrum (assuming no astigmatism); #3 - 1D rotational average of spectrum; #4 - CTF fit; #5 - cross-correlation between spectrum and CTF fit; #6 - 2sigma of expected cross correlation of noise
0.000000 0.000651 0.001302 0.001953 0.002604 0.003255 0.003906 0.004557 0.005208 0.005859 0.006510 0.007161 0.007812 0.008464 0.009115 0.009766 0.010417 0.011068 0.011719 0.012370 0.013021 0.013672 0.014323 0.014974 0.015625 0.016276 0.016927 0.017578 0.018229 0.018880 0.019531 0.020182 0.020833 0.021484 0.022135 0.022786 0.023438 0.024089 0.024740 0.025391 0.026042 0.026693 0.027344 0.027995 0.028646 0.029297 0.029948 0.030599 0.031250 0.031901 0.032552 0.033203 0.033854 0.034505 0.035156 0.035807 0.036458 0.037109 0.037760 0.038411 0.039062 0.039714 0.040365 0.041016 0.041667 0.042318 0.042969 0.043620 0.044271 0.044922 0.045573 0.046224 0.046875 0.047526 0.048177 0.048828 0.049479 0.050130 0.050781 0.051432 0.052083 0.052734 0.053385 0.054036 0.054688 0.055339 0.055990 0.056641 0.057292 0.057943 0.058594 0.059245 0.059896 0.060547 0.061198 0.061849 0.062500 0.063151 0.063802 0.064453 0.065104 0.065755 0.066406 0.067057 0.067708 0.068359 0.069010 0.069661 0.070312 0.070964 0.071615 0.072266 0.072917 0.073568 0.074219 0.074870 0.075521 0.076172 0.076823 0.077474 0.078125 0.078776 0.079427 0.080078 0.080729 0.081380 0.082031 0.082682 0.083333 0.083984 0.084635 0.085286 0.085938 0.086589 0.087240 0.087891 0.088542 0.089193 0.089844 0.090495 0.091146 0.091797 0.092448 0.093099 0.093750 0.094401 0.095052 0.095703 0.096354 0.097005 0.097656 0.098307 0.098958 0.099609 0.100260 0.100911 0.101562 0.102214 0.102865 0.103516 0.104167 0.104818 0.105469 0.106120 0.106771 0.107422 0.108073 0.108724 0.109375 0.110026 0.110677 0.111328 0.111979 0.112630 0.113281 0.113932 0.114583 0.115234 0.115885 0.116536 0.117188 0.117839 0.118490 0.119141 0.119792 0.120443 0.121094 0.121745 0.122396 0.123047 0.123698 0.124349 0.125000 0.125651 0.126302 0.126953 0.127604 0.128255 0.128906 0.129557 0.130208 0.130859 0.131510 0.132161 0.132812 0.133464 0.134115 0.134766 0.135417 0.136068 0.136719 0.137370 0.138021 0.138672 0.139323 0.139974 0.140625 0.141276 0.141927 0.142578 0.143229 0.143880 0.144531 0.145182 0.145833 0.146484 0.147135 0.147786 0.148438 0.149089 0.149740 0.150391 0.151042 0.151693 0.152344 0.152995 0.153646 0.154297 0.154948 0.155599 0.156250 0.156901 0.157552 0.158203 0.158854 0.159505 0.160156 0.160807 0.161458 0.162109 0.162760 0.163411 0.164062 0.164714 0.165365 0.166016 0.166667 0.167318 0.167969 0.168620 0.169271 0.169922 0.170573 0.171224 0.171875 0.172526 0.173177 0.173828 0.174479 0.175130 0.175781 0.176432 0.177083 0.177734 0.178385 0.179036 0.179688 0.180339 0.180990 0.181641 0.182292 0.182943 0.183594 0.184245 0.184896 0.185547 0.186198 0.186849 0.187500 0.188151 0.188802 0.189453 0.190104 0.190755 0.191406 0.192057 0.192708 0.193359 0.194010 0.194661 0.195312 0.195964 0.196615 0.197266 0.197917 0.198568 0.199219 0.199870 0.200521 0.201172 0.201823 0.202474 0.203125 0.203776 0.204427 0.205078 0.205729 0.206380 0.207031 0.207682 0.208333 0.208984 0.209635 0.210286 0.210938 0.211589 0.212240 0.212891 0.213542 0.214193 0.214844 0.215495 0.216146 0.216797 0.217448 0.218099 0.218750 0.219401 0.220052 0.220703 0.221354 0.222005 0.222656 0.223307 0.223958 0.224609 0.225260 0.225911 0.226562 0.227214 0.227865 0.228516 0.229167 0.229818 0.230469 0.231120 0.231771 0.232422 0.233073 0.233724 0.234375 0.235026 0.235677
       0.31538        0.31538        0.31538        0.31538        0.31538        0.31538        0.31538        0.31538        0.31538        0.31538        0.31538        0.31538        0.31538        0.31538        0.31538        0.31538        0.31538        0.31538        0.31538        0.31538        0.31538        0.31538        0.31538        0.31538        0.31538        0.31538        0.31538        0.31538        0.31538        0.31538        0.31538        0.31538        0.31538        0.31538        0.31538        0.31538        0.31539        0.31538        0.31538        0.31538        0.31538        0.31538        0.31538        0.31538        0.31538        0.31538        0.31538        0.31538        0.31538        0.31538        0.31538        0.68222        0.86833        0.51956        0.08486       -0.06779       -0.42923       -0.20588       -0.29828       -0.12057       -0.07946       -0.12085       -0.07272       -0.21071       -0.23856       -0.25989       -0.33431       -0.34113       -0.49408       -0.38537       -0.46827       -0.45306       -0.42412       -0.47074       -0.54620       -0.56532       -0.58938       -0.62485       -0.57976       -0.41678       -0.37951       -0.33279       -0.31798       -0.21253       -0.19903        0.01893        0.06972        0.10284        0.22202        0.36920        0.44152        0.51575        0.55713        0.55066        0.57247        0.69714        0.81195        0.74370        0.73292        0.66954        0.57804        0.48447        0.40335        0.49231        0.37130        0.19789        0.07588        0.04156        0.00570       -0.06236       -0.04224       -0.02375       -0.07390       -0.00944       -0.02318        0.21114        0.24937        0.28939        0.42676        0.46086        0.40249        0.53010        0.62504        0.69822        0.76358        0.68720        0.65878        0.69650        0.58409        0.50021        0.41830        0.28932        0.18771        0.15615        0.11032        0.03354        0.00957       -0.00032        0.07461        0.13238        0.20272        0.27875        0.39987        0.41582        0.50437        0.59860        0.63355        0.61249        0.62868        0.55064        0.44414        0.44404        0.35133        0.22682        0.18315        0.14766        0.10514        0.12179        0.06817        0.10134        0.22176        0.26112        0.33888        0.35017        0.44967        0.51081        0.53703        0.54811        0.46725        0.42625        0.38894        0.37103        0.30742        0.24963        0.20161        0.18301        0.16267        0.19294        0.17574        0.26610        0.33183        0.36406        0.42174        0.45955        0.47553        0.44097        0.39184        0.40902        0.37364        0.28688        0.27175        0.22605        0.21153        0.19260        0.21167        0.22730        0.32604        0.37202        0.36850        0.45903        0.43372        0.43795        0.42791        0.39318        0.34253        0.32754        0.27922        0.23672        0.23480        0.26748        0.27117        0.29815        0.29811        0.33599        0.32819        0.40707        0.41486        0.37351        0.34408        0.36282        0.28071        0.27735        0.26110        0.27564        0.25885        0.28108        0.29250        0.31156        0.34669        0.35571        0.35882        0.33360        0.35003        0.28762        0.32481        0.26666        0.24407        0.28118        0.28397        0.30810        0.31226        0.32754        0.32166        0.31082        0.31805        0.28532        0.28328        0.25778        0.28160        0.27023        0.30888        0.28162        0.26228        0.30534        0.30897        0.31232        0.28569        0.29664        0.28800        0.24665        0.24224        0.21635        0.27589        0.27210        0.31271        0.31264        0.32203        0.31494        0.30423        0.27377        0.28327        0.33033        0.26714        0.26028        0.29127        0.28959        0.34046        0.33741        0.35745        0.33183        0.30948        0.28385        0.26363        0.25826        0.22306        0.26461        0.30345        0.29584        0.27863        0.29364        0.26750        0.32192        0.33756        0.24922        0.21619        0.26610        0.33600        0.27849        0.30759        0.32648        0.32399        0.29356        0.31888        0.34364        0.29548        0.28997        0.25539        0.27672        0.34679        0.35388        0.25888        0.26604        0.25222        0.27653        0.22110        0.29050        0.22248        0.25143        0.33176        0.31909        0.35174        0.30137        0.23459        0.23189        0.24030        0.23441        0.17808        0.21662        0.26101        0.28875        0.27171        0.30838        0.29254        0.27282        0.28084        0.21034        0.17362        0.18751        0.22831        0.19192        0.21636        0.22956        0.20104        0.25489        0.34320        0.29618        0.31347        0.21968        0.26195        0.22319        0.28171        0.29852        0.15056        0.22826        0.22408        0.11878        0.22944        0.11544        0.16325        0.23982        0.14400       -0.14282       -0.66558
2.578003 2.551142 2.524427 2.497857 2.471433 2.445154 2.419021 2.393032 2.367190 2.341493 2.315941 2.290535 2.265274 2.240159 2.215189 2.190365 2.165686 2.141152 2.116764 2.092522 2.068424 2.044473 2.020666 1.997005 1.973490 1.950120 1.926896 1.903816 1.880883 1.858095 1.835452 1.812955 1.790603 1.768396 1.746336 1.724420 1.702650 1.681025 1.659546 1.638212 1.617024 1.595981 1.575084 1.554332 1.533726 1.513264 1.492949 1.472779 1.452754 1.432875 1.413141 1.635160 2.041770 1.612850 1.124660 0.985051 0.414194 0.812696 0.556566 0.831266 0.768715 0.784358 0.746624 0.707737 0.557808 0.510231 0.480537 0.440089 0.200646 0.375798 0.199295 0.303855 0.232269 0.179040 0.128745 0.001201 0.038084 -0.014337 -0.056546 0.102884 0.205845 0.191901 0.151286 0.332682 0.197399 0.498766 0.575709 0.548735 0.591034 0.877348 0.809643 0.946829 0.889029 0.973800 0.943123 1.082495 1.140826 1.079898 1.129722 0.954810 0.941716 0.787462 0.650011 0.771224 0.706665 0.457452 0.308378 0.251168 0.210265 0.148336 0.088158 0.129813 0.068347 0.153906 0.051709 0.262709 0.380496 0.362041 0.479275 0.581424 0.468413 0.545316 0.698087 0.748530 0.781081 0.733334 0.738154 0.716626 0.628383 0.570314 0.431893 0.288309 0.210862 0.080527 0.137239 -0.042697 -0.031320 -0.077530 -0.036411 0.007332 0.149330 0.088037 0.304022 0.280340 0.364619 0.451990 0.527202 0.513098 0.519377 0.505704 0.335523 0.308958 0.283238 0.100256 0.050206 -0.003258 -0.031750 -0.039962 -0.086890 -0.099567 -0.009763 0.053774 0.137891 0.141699 0.229503 0.333786 0.311306 0.412981 0.399572 0.285027 0.232306 0.251499 0.210251 0.104437 0.078463 0.020568 0.001239 0.013772 -0.013730 0.059268 0.147763 0.143743 0.233310 0.253878 0.308109 0.256149 0.221370 0.182570 0.212146 0.147448 0.046126 0.047370 -0.010322 -0.011908 -0.031027 0.014738 0.017884 0.167871 0.130020 0.187590 0.234723 0.200567 0.194066 0.195424 0.139695 0.104767 0.064520 0.051257 -0.038755 0.009084 0.021780 0.055800 0.049392 0.075333 0.097422 0.120021 0.137445 0.182748 0.077888 0.095545 0.072618 -0.002471 0.001542 0.009077 -0.010577 0.014861 0.007601 0.029929 0.065980 0.086854 0.098554 0.050357 0.098626 0.054104 0.016071 0.062622 -0.038134 -0.016555 0.021337 0.004439 0.053723 0.053437 0.044521 0.060288 0.048959 0.048500 0.020447 -0.003149 0.008685 0.018751 -0.006750 0.070642 -0.014848 0.011854 0.056392 0.049932 0.031305 0.046006 0.039672 0.021133 -0.017705 -0.035234 -0.018673 0.021084 0.027578 0.069292 0.061317 0.065281 0.088387 0.065970 0.027461 0.069934 0.092042 0.017372 0.024439 0.063404 0.057137 0.108439 0.115853 0.118146 0.122848 0.071451 0.054279 0.037848 0.008523 0.003554 0.052237 0.090191 0.055100 0.036455 0.036726 0.026723 0.097252 0.074616 -0.044650 -0.050852 0.033177 0.100246 0.012746 0.028019 0.072521 0.085036 0.021504 0.060842 0.087347 0.034635 0.038217 -0.033556 0.014923 0.107978 0.072242 -0.051705 -0.021376 -0.048886 0.012569 -0.107173 0.038159 -0.109204 -0.031952 0.052219 0.030119 0.038979 -0.041534 -0.072685 -0.098004 -0.086091 -0.074493 -0.137788 -0.098162 -0.039541 0.015889 -0.041722 0.040944 -0.029196 -0.052980 0.050757 -0.112285 -0.106765 -0.098572 -0.015935 -0.072228 -0.030514 -0.022296 -0.003898 0.019111 0.182449 -0.020789 0.143687 -0.005908 0.269268 0.234662 0.326464 0.270789 0.117088 0.231663 0.266346 0.041623 0.249926 0.120227 0.138801 0.324475 0.147955 -0.689604
0.072396 0.072898 0.074405 0.076917 0.080431 0.084949 0.090468 0.096987 0.104503 0.113015 0.122518 0.133009 0.144481 0.156929 0.170345 0.184719 0.200041 0.216298 0.233475 0.251554 0.270516 0.290337 0.310993 0.332452 0.354683 0.377648 0.401306 0.425611 0.450512 0.475954 0.501875 0.528208 0.554881 0.581816 0.608926 0.636120 0.663300 0.690361 0.717191 0.743672 0.769678 0.795076 0.819729 0.843491 0.866212 0.887733 0.907893 0.926526 0.943461 0.958524 0.971538 0.982327 0.990711 0.996514 0.999561 0.999681 0.996707 0.990480 0.980850 0.967676 0.950832 0.930203 0.905694 0.877227 0.844745 0.808215 0.767630 0.723008 0.674399 0.621885 0.565580 0.505636 0.442239 0.375616 0.306031 0.233790 0.159238 0.082763 0.004788 0.074220 0.153760 0.233294 0.312252 0.390034 0.466016 0.539550 0.609976 0.676623 0.738814 0.795880 0.847160 0.892014 0.929831 0.960037 0.982103 0.995559 0.999998 0.995091 0.980591 0.956345 0.922303 0.878522 0.825176 0.762560 0.691093 0.611325 0.523930 0.429714 0.329606 0.224656 0.116023 0.004973 0.107140 0.218885 0.328774 0.435278 0.536847 0.631938 0.719036 0.796681 0.863497 0.918214 0.959702 0.986994 0.999314 0.996098 0.977022 0.942013 0.891272 0.825281 0.744809 0.650916 0.544945 0.428517 0.303506 0.172022 0.036378 0.100944 0.237339 0.370125 0.496592 0.614065 0.719956 0.811834 0.887477 0.944937 0.982599 0.999230 0.994029 0.966666 0.917311 0.846655 0.755918 0.646841 0.521670 0.383121 0.234331 0.078799 0.079692 0.237159 0.389522 0.532703 0.662744 0.775919 0.868849 0.938611 0.982844 0.999842 0.988628 0.949018 0.881656 0.788034 0.670475 0.532102 0.376770 0.208973 0.033729 0.143563 0.317285 0.481773 0.631507 0.761303 0.866503 0.943153 0.988172 0.999491 0.976167 0.918458 0.827863 0.707108 0.560102 0.391820 0.208170 0.015788 0.178176 0.366329 0.541312 0.696093 0.824258 0.920301 0.979871 1.000000 0.979270 0.917932 0.817952 0.682985 0.518273 0.330481 0.127442 0.082150 0.289095 0.484093 0.658167 0.803077 0.911744 0.978609 0.999951 0.974129 0.901722 0.785580 0.630750 0.444306 0.235052 0.013137 0.210420 0.424268 0.617302 0.779253 0.901249 0.976337 0.999913 0.970039 0.887637 0.756525 0.583286 0.376991 0.148761 0.088805 0.322308 0.538300 0.724065 0.868389 0.962268 0.999510 0.977191 0.895925 0.759930 0.576872 0.357488 0.114995 0.135662 0.378728 0.598615 0.780911 0.913370 0.986755 0.995544 0.938402 0.818379 0.642829 0.423024 0.173485 0.088935 0.346168 0.580154 0.774143 0.913909 0.988841 0.992816 0.924753 0.788831 0.594321 0.355012 0.088309 0.185995 0.447171 0.675120 0.851929 0.963342 0.999960 0.958101 0.840248 0.654991 0.416502 0.143518 0.142093 0.417028 0.658466 0.845974 0.963293 0.999803 0.951576 0.821867 0.621012 0.365691 0.077636 0.218189 0.495694 0.729999 0.899670 0.988759 0.988375 0.897673 0.724104 0.482937 0.195992 0.110249 0.407052 0.666113 0.862277 0.976056 0.995631 0.918195 0.750424 0.508034 0.214412 0.101553 0.408265 0.674572 0.872953 0.982431 0.990884 0.896500 0.708195 0.444898 0.133777 0.192504 0.499146 0.752938 0.925907 0.998463 0.961749 0.818836 0.584642 0.284501 0.048451 0.376887 0.663440 0.874975 0.986513 0.984276 0.867536 0.648960 0.353398 0.015177 0.325796 0.628708 0.856751 0.981661 0.987346 0.872099 0.649102 0.345079 0.002768 0.351210 0.656348 0.879152 0.990548 0.975343 0.834449 0.585094 0.258863 0.102128
1.000000 1.000000 1.000000 1.000000 1.000000 1.000000 1.000000 1.000000 1.000000 1.000000 1.000000 1.000000 1.000000 1.000000 1.000000 1.000000 1.000000 1.000000 1.000000 1.000000 1.000000 1.000000 1.000000 1.000000 1.000000 1.000000 1.000000 1.000000 1.000000 1.000000 1.000000 1.000000 1.000000 1.000000 1.000000 1.000000 1.000000 1.000000 1.000000 1.000000 1.000000 1.000000 1.000000 1.000000 1.000000 1.000000 1.000000 1.000000 1.000000 1.000000 1.000000 1.000000 0.929306 0.929306 0.929306 0.919396 0.919396 0.919396 0.919396 0.919396 0.919396 0.919396 0.919396 0.919396 0.919396 0.919396 0.919396 0.919396 0.919396 0.919396 0.919396 0.919396 0.919396 0.919396 0.919396 0.919396 0.919396 0.919396 0.919396 0.919396 0.919396 0.919396 0.919396 0.919396 0.919396 0.919396 0.919396 0.919396 0.919396 0.919396 0.919396 0.919396 0.919396 0.919396 0.919396 0.919396 0.950008 0.951267 0.959160 0.958997 0.958495 0.956378 0.955473 0.954332 0.953884 0.954152 0.954755 0.955584 0.964318 0.965387 0.966971 0.967794 0.968501 0.969133 0.968945 0.969651 0.968835 0.968244 0.967705 0.963657 0.964320 0.964871 0.964951 0.965980 0.965850 0.967898 0.968106 0.967478 0.966564 0.965792 0.965051 0.964613 0.964322 0.964428 0.964905 0.966231 0.969435 0.968836 0.968561 0.968718 0.968815 0.968992 0.969428 0.971137 0.967301 0.967953 0.966240 0.964007 0.968250 0.965319 0.965118 0.966483 0.966865 0.967269 0.965753 0.961779 0.955250 0.954566 0.951749 0.942573 0.941313 0.941955 0.944449 0.945041 0.943610 0.936701 0.937247 0.931230 0.932035 0.935388 0.930533 0.931006 0.932144 0.931684 0.930816 0.930213 0.927686 0.925116 0.923532 0.922878 0.925798 0.925498 0.926665 0.926649 0.921334 0.912866 0.900856 0.899164 0.894593 0.897658 0.887363 0.887155 0.887341 0.882445 0.885853 0.885402 0.886411 0.882956 0.868465 0.851360 0.843748 0.848674 0.853620 0.852776 0.848859 0.842051 0.853715 0.827207 0.839442 0.849229 0.843849 0.844383 0.842292 0.840492 0.834949 0.836428 0.838932 0.840143 0.837969 0.835314 0.834279 0.814312 0.813225 0.753640 0.735991 0.729004 0.733888 0.740862 0.739719 0.738408 0.747707 0.752620 0.751207 0.736836 0.729870 0.723210 0.728182 0.729368 0.733322 0.718330 0.693792 0.687883 0.658133 0.675897 0.690131 0.652179 0.676369 0.686693 0.684812 0.684428 0.677590 0.674156 0.668418 0.671126 0.676930 0.691159 0.710302 0.735146 0.729928 0.720319 0.715495 0.695475 0.687447 0.679328 0.697919 0.676308 0.672133 0.692278 0.691181 0.675257 0.651389 0.639087 0.629674 0.627888 0.636516 0.624969 0.621042 0.612049 0.590226 0.584288 0.619921 0.635666 0.654860 0.625366 0.611135 0.602730 0.587047 0.599773 0.541497 0.541493 0.560604 0.568010 0.547147 0.528210 0.537554 0.544454 0.547548 0.538726 0.524367 0.512204 0.526647 0.557657 0.546635 0.525024 0.528640 0.528554 0.524819 0.437147 0.432794 0.403611 0.371398 0.313452 0.297544 0.289486 0.271866 0.251978 0.215108 0.212599 0.221678 0.228153 0.240828 0.242091 0.226824 0.231123 0.223386 0.210044 0.149030 0.138335 0.131753 0.120869 0.120574 0.093258 0.117240 0.188788 0.191550 0.191550 0.191550 0.191550 0.191550 0.191550 0.199687 0.199687 0.199687 0.199687 0.199687 0.199687 0.199687 0.199687 0.199687 0.212060 0.212060 0.212060 0.212060 0.212060 0.212060 0.212060 0.212060 0.212060 0.212060 0.212060 0.212060 0.212060 0.212060
0.000000 0.000000 0.000000 0.000000 0.000000 0.000000 0.000000 0.000000 0.000000 0.000000 0.000000 0.000000 0.000000 0.000000 0.000000 0.000000 0.000000 0.000000 0.000000 0.000000 0.000000 0.000000 0.000000 0.000000 0.000000 0.000000 0.000000 0.000000 0.000000 0.000000 0.000000 0.000000 0.000000 0.000000 0.000000 0.000000 0.000000 0.000000 0.000000 0.000000 0.000000 0.000000 0.000000 0.000000 0.000000 0.000000 0.000000 0.000000 0.000000 0.000000 0.000000 0.000000 0.180334 0.180334 0.180334 0.199007 0.199007 0.199007 0.199007 0.199007 0.199007 0.199007 0.199007 0.199007 0.199007 0.199007 0.199007 0.199007 0.199007 0.199007 0.199007 0.199007 0.199007 0.199007 0.199007 0.199007 0.199007 0.199007 0.199007 0.199007 0.199007 0.199007 0.199007 0.199007 0.199007 0.199007 0.199007 0.199007 0.199007 0.199007 0.199007 0.199007 0.199007 0.199007 0.199007 0.199007 0.225018 0.225018 0.225018 0.225018 0.225018 0.225018 0.225018 0.225018 0.225018 0.225018 0.225018 0.225018 0.225018 0.225018 0.225018 0.225018 0.225018 0.225018 0.225018 0.225018 0.225018 0.225018 0.225018 0.225018 0.225018 0.225018 0.225018 0.225018 0.225018 0.244339 0.244339 0.244339 0.244339 0.244339 0.244339 0.244339 0.244339 0.244339 0.244339 0.244339 0.244339 0.244339 0.244339 0.244339 0.244339 0.244339 0.244339 0.244339 0.244339 0.244339 0.244339 0.244339 0.251976 0.251976 0.251976 0.251976 0.251976 0.251976 0.251976 0.251976 0.251976 0.251976 0.251976 0.251976 0.251976 0.251976 0.251976 0.251976 0.251976 0.251976 0.251976 0.251976 0.264906 0.264906 0.264906 0.264906 0.264906 0.264906 0.264906 0.264906 0.264906 0.264906 0.264906 0.264906 0.264906 0.264906 0.264906 0.264906 0.264906 0.264906 0.264906 0.264906 0.264906 0.264906 0.264906 0.264906 0.264906 0.264906 0.264906 0.264906 0.264906 0.264906 0.264906 0.264906 0.264906 0.264906 0.264906 0.264906 0.264906 0.264906 0.264906 0.264906 0.264906 0.264906 0.264906 0.264906 0.264906 0.264906 0.264906 0.264906 0.264906 0.264906 0.264906 0.264906 0.264906 0.264906 0.264906 0.264906 0.264906 0.264906 0.264906 0.264906 0.264906 0.264906 0.256074 0.256074 0.256074 0.256074 0.256074 0.256074 0.256074 0.256074 0.256074 0.256074 0.256074 0.256074 0.256074 0.256074 0.269680 0.269680 0.269680 0.269680 0.269680 0.269680 0.269680 0.269680 0.269680 0.269680 0.269680 0.269680 0.264906 0.264906 0.264906 0.264906 0.264906 0.264906 0.264906 0.264906 0.264906 0.264906 0.264906 0.264906 0.269680 0.269680 0.269680 0.269680 0.269680 0.269680 0.269680 0.269680 0.269680 0.269680 0.269680 0.264906 0.264906 0.264906 0.264906 0.264906 0.264906 0.264906 0.264906 0.264906 0.264906 0.264906 0.256074 0.256074 0.256074 0.256074 0.256074 0.256074 0.256074 0.256074 0.256074 0.256074 0.256074 0.264906 0.264906 0.264906 0.264906 0.264906 0.264906 0.264906 0.264906 0.264906 0.264906 0.260378 0.260378 0.260378 0.260378 0.260378 0.260378 0.260378 0.260378 0.260378 0.260378 0.256074 0.256074 0.256074 0.256074 0.256074 0.256074 0.256074 0.256074 0.256074 0.256074 0.260378 0.260378 0.260378 0.260378 0.260378 0.260378 0.260378 0.260378 0.260378 0.256074 0.256074 0.256074 0.256074 0.256074 0.256074 0.256074 0.256074 0.256074 0.251976 0.251976 0.251976 0.251976 0.251976 0.251976 0.251976 0.251976 0.251976 0.251976 0.251976 0.251976 0.251976 0.251976
