# Output from CTFFind version 4.1.9, run on 2019-11-02 17:47:17
# Input file: stack1_bm3d_averaged_1_0.75_0_1500_half.mrc ; Number of micrographs: 1
# Pixel size: 3.000 Angstroms ; acceleration voltage: 300.0 keV ; spherical aberration: 0.00 mm ; amplitude contrast: 0.07
# Box size: 512 pixels ; min. res.: 30.0 Angstroms ; max. res.: 5.0 Angstroms ; min. def.: 5000.0 um; max. def. 50000.0 um; num. frames averaged: 1
# 6 lines per micrograph: #1 - spatial frequency (1/Angstroms); #2 - 1D rotational average of spectrum (assuming no astigmatism); #3 - 1D rotational average of spectrum; #4 - CTF fit; #5 - cross-correlation between spectrum and CTF fit; #6 - 2sigma of expected cross correlation of noise
0.000000 0.000651 0.001302 0.001953 0.002604 0.003255 0.003906 0.004557 0.005208 0.005859 0.006510 0.007161 0.007812 0.008464 0.009115 0.009766 0.010417 0.011068 0.011719 0.012370 0.013021 0.013672 0.014323 0.014974 0.015625 0.016276 0.016927 0.017578 0.018229 0.018880 0.019531 0.020182 0.020833 0.021484 0.022135 0.022786 0.023438 0.024089 0.024740 0.025391 0.026042 0.026693 0.027344 0.027995 0.028646 0.029297 0.029948 0.030599 0.031250 0.031901 0.032552 0.033203 0.033854 0.034505 0.035156 0.035807 0.036458 0.037109 0.037760 0.038411 0.039062 0.039714 0.040365 0.041016 0.041667 0.042318 0.042969 0.043620 0.044271 0.044922 0.045573 0.046224 0.046875 0.047526 0.048177 0.048828 0.049479 0.050130 0.050781 0.051432 0.052083 0.052734 0.053385 0.054036 0.054688 0.055339 0.055990 0.056641 0.057292 0.057943 0.058594 0.059245 0.059896 0.060547 0.061198 0.061849 0.062500 0.063151 0.063802 0.064453 0.065104 0.065755 0.066406 0.067057 0.067708 0.068359 0.069010 0.069661 0.070312 0.070964 0.071615 0.072266 0.072917 0.073568 0.074219 0.074870 0.075521 0.076172 0.076823 0.077474 0.078125 0.078776 0.079427 0.080078 0.080729 0.081380 0.082031 0.082682 0.083333 0.083984 0.084635 0.085286 0.085938 0.086589 0.087240 0.087891 0.088542 0.089193 0.089844 0.090495 0.091146 0.091797 0.092448 0.093099 0.093750 0.094401 0.095052 0.095703 0.096354 0.097005 0.097656 0.098307 0.098958 0.099609 0.100260 0.100911 0.101562 0.102214 0.102865 0.103516 0.104167 0.104818 0.105469 0.106120 0.106771 0.107422 0.108073 0.108724 0.109375 0.110026 0.110677 0.111328 0.111979 0.112630 0.113281 0.113932 0.114583 0.115234 0.115885 0.116536 0.117188 0.117839 0.118490 0.119141 0.119792 0.120443 0.121094 0.121745 0.122396 0.123047 0.123698 0.124349 0.125000 0.125651 0.126302 0.126953 0.127604 0.128255 0.128906 0.129557 0.130208 0.130859 0.131510 0.132161 0.132812 0.133464 0.134115 0.134766 0.135417 0.136068 0.136719 0.137370 0.138021 0.138672 0.139323 0.139974 0.140625 0.141276 0.141927 0.142578 0.143229 0.143880 0.144531 0.145182 0.145833 0.146484 0.147135 0.147786 0.148438 0.149089 0.149740 0.150391 0.151042 0.151693 0.152344 0.152995 0.153646 0.154297 0.154948 0.155599 0.156250 0.156901 0.157552 0.158203 0.158854 0.159505 0.160156 0.160807 0.161458 0.162109 0.162760 0.163411 0.164062 0.164714 0.165365 0.166016 0.166667 0.167318 0.167969 0.168620 0.169271 0.169922 0.170573 0.171224 0.171875 0.172526 0.173177 0.173828 0.174479 0.175130 0.175781 0.176432 0.177083 0.177734 0.178385 0.179036 0.179688 0.180339 0.180990 0.181641 0.182292 0.182943 0.183594 0.184245 0.184896 0.185547 0.186198 0.186849 0.187500 0.188151 0.188802 0.189453 0.190104 0.190755 0.191406 0.192057 0.192708 0.193359 0.194010 0.194661 0.195312 0.195964 0.196615 0.197266 0.197917 0.198568 0.199219 0.199870 0.200521 0.201172 0.201823 0.202474 0.203125 0.203776 0.204427 0.205078 0.205729 0.206380 0.207031 0.207682 0.208333 0.208984 0.209635 0.210286 0.210938 0.211589 0.212240 0.212891 0.213542 0.214193 0.214844 0.215495 0.216146 0.216797 0.217448 0.218099 0.218750 0.219401 0.220052 0.220703 0.221354 0.222005 0.222656 0.223307 0.223958 0.224609 0.225260 0.225911 0.226562 0.227214 0.227865 0.228516 0.229167 0.229818 0.230469 0.231120 0.231771 0.232422 0.233073 0.233724 0.234375 0.235026 0.235677
       0.33386        0.33386        0.33386        0.33386        0.33386        0.33386        0.33386        0.33386        0.33386        0.33386        0.33386        0.33386        0.33386        0.33386        0.33386        0.33386        0.33386        0.33386        0.33386        0.33386        0.33386        0.33386        0.33386        0.33386        0.33386        0.33386        0.33386        0.33386        0.33386        0.33386        0.33386        0.33386        0.33386        0.33386        0.33386        0.33386        0.33386        0.33386        0.33386        0.33386        0.33386        0.33386        0.33386        0.33386        0.33386        0.33386        0.33386        0.33386        0.33386        0.33386        0.33386        0.50329        0.72006        0.42957        0.19140       -0.07971       -0.26222       -0.06865       -0.13257       -0.05306       -0.00139       -0.14629       -0.09217       -0.04989       -0.00226       -0.15099       -0.21989       -0.34558       -0.46236       -0.55857       -0.51758       -0.44837       -0.37118       -0.54675       -0.44872       -0.62043       -0.50191       -0.47448       -0.38931       -0.38325       -0.33989       -0.25033       -0.15988       -0.13498        0.03369       -0.01133        0.12040        0.16956        0.30500        0.41007        0.46477        0.49761        0.54162        0.55148        0.69456        0.64638        0.67872        0.59247        0.55762        0.65580        0.52953        0.42912        0.38504        0.32169        0.22948        0.26463        0.25193        0.10740        0.08452        0.00082       -0.00572        0.03683       -0.00351        0.07564        0.09906        0.23260        0.28384        0.30377        0.38215        0.56164        0.53791        0.57915        0.67177        0.70098        0.63094        0.63527        0.63376        0.55429        0.57464        0.39750        0.34635        0.26719        0.18503        0.07303        0.14575        0.11967        0.09245        0.10723        0.20957        0.21318        0.31738        0.35983        0.41355        0.49369        0.58421        0.54360        0.55603        0.60877        0.54102        0.46344        0.47932        0.32447        0.25226        0.25894        0.24389        0.14418        0.14616        0.15276        0.22032        0.24898        0.33057        0.36503        0.39183        0.46803        0.44846        0.47841        0.45388        0.46843        0.44574        0.40726        0.38269        0.35382        0.31099        0.28655        0.20558        0.19914        0.22187        0.27142        0.26914        0.35128        0.37666        0.35930        0.41294        0.45768        0.44942        0.42482        0.43934        0.37137        0.33619        0.28336        0.26440        0.29030        0.27056        0.29583        0.30144        0.34983        0.34268        0.39946        0.40477        0.42649        0.41193        0.43114        0.40454        0.36654        0.28420        0.29231        0.30902        0.27485        0.25656        0.33125        0.37171        0.34235        0.35446        0.36054        0.35543        0.40845        0.40125        0.35981        0.33991        0.31114        0.31061        0.31736        0.31704        0.30144        0.28786        0.33655        0.36011        0.37847        0.33366        0.33005        0.33552        0.34633        0.30725        0.28326        0.30773        0.31645        0.33695        0.32242        0.33319        0.35846        0.33086        0.31449        0.32954        0.30471        0.26558        0.25252        0.26617        0.30735        0.32303        0.35144        0.30175        0.31537        0.33790        0.29468        0.31663        0.28835        0.28315        0.29376        0.29924        0.31033        0.34516        0.32469        0.32971        0.33658        0.31336        0.33435        0.31932        0.32029        0.31100        0.28321        0.29248        0.31416        0.29236        0.32753        0.33855        0.33624        0.32069        0.34143        0.31862        0.27731        0.25457        0.27217        0.33222        0.36000        0.34673        0.31719        0.29503        0.29827        0.31475        0.24897        0.29855        0.30369        0.32912        0.29926        0.31731        0.28701        0.33710        0.34328        0.34570        0.32501        0.29330        0.31577        0.39775        0.33186        0.31606        0.31084        0.29276        0.28752        0.29911        0.26577        0.31267        0.23925        0.27559        0.29703        0.31481        0.29617        0.27623        0.30011        0.23832        0.22848        0.26220        0.30431        0.30489        0.28142        0.28788        0.33548        0.25666        0.21512        0.31103        0.27388        0.25735        0.28301        0.39486        0.29591        0.28725        0.24963        0.25351        0.26878        0.24248        0.23548        0.16974        0.25492        0.23087        0.24938        0.31849        0.27324        0.34884        0.28491        0.25055        0.23266        0.21402        0.23932        0.29995        0.22903        0.12796        0.16300        0.24539        0.24427        0.32483        0.29531        0.03591       -0.42346       -0.90973
2.693781 2.665341 2.637055 2.608921 2.580939 2.553110 2.525433 2.497909 2.470538 2.443319 2.416252 2.389338 2.362577 2.335968 2.309512 2.283208 2.257056 2.231057 2.205211 2.179517 2.153976 2.128587 2.103351 2.078267 2.053336 2.028557 2.003931 1.979458 1.955136 1.930968 1.906952 1.883088 1.859377 1.835818 1.812412 1.789159 1.766058 1.743110 1.720314 1.697670 1.675179 1.652841 1.630655 1.608622 1.586741 1.565012 1.543437 1.522013 1.500743 1.479624 1.458659 1.528443 1.829736 1.514395 1.196382 0.941482 0.544265 0.912073 0.634318 0.874924 0.927835 0.591975 0.709794 0.783013 0.819932 0.630680 0.538848 0.348458 0.104623 0.079811 0.044938 0.082447 0.302466 -0.033790 0.083210 -0.133488 -0.011097 -0.017829 0.084340 0.064083 0.101040 0.176906 0.283729 0.253012 0.484311 0.398164 0.549926 0.528127 0.768106 0.788043 0.880612 0.920208 0.940703 0.944737 1.114204 0.941613 1.141542 0.948411 0.852125 1.016572 0.849249 0.761021 0.617389 0.595450 0.456583 0.418872 0.509753 0.265549 0.199672 0.158650 0.012508 0.208070 -0.004648 0.122017 0.180195 0.258958 0.331994 0.348195 0.426629 0.537805 0.664557 0.540213 0.740720 0.861432 0.639418 0.695534 0.666805 0.593110 0.537135 0.462571 0.299258 0.214637 0.116872 -0.042293 -0.018565 0.058095 -0.097402 -0.057297 0.047858 0.053752 0.112679 0.220419 0.238065 0.309187 0.432904 0.444643 0.439951 0.479119 0.448268 0.330717 0.331130 0.240260 0.053171 0.062665 0.017515 -0.043883 -0.097179 -0.097829 -0.015122 -0.050339 0.073110 0.121889 0.119604 0.261608 0.230386 0.244168 0.287188 0.246719 0.238359 0.213705 0.169871 0.110643 0.102367 0.024870 0.006393 -0.116436 -0.052010 0.002197 0.002341 0.022698 0.097609 0.084871 0.129366 0.196331 0.258374 0.178141 0.180058 0.107668 0.136850 0.022487 -0.034588 0.022134 -0.024542 0.006346 -0.007845 0.035340 0.082241 0.052489 0.153792 0.100077 0.165983 0.063536 0.143876 0.094968 -0.008180 -0.062214 -0.014316 -0.034683 -0.070631 -0.067578 0.056901 0.059142 -0.009182 0.049639 0.061121 0.071392 0.142053 0.064470 0.059546 0.049455 -0.026442 0.022406 0.000355 0.010918 0.001599 -0.007031 0.040539 0.060251 0.068869 0.028539 0.043439 0.021233 0.057316 -0.011602 -0.018963 0.021506 0.010052 0.059340 0.037993 0.043657 0.059729 0.043291 0.019196 0.031136 -0.000307 -0.047022 -0.032980 -0.026755 0.023310 0.038368 0.096535 -0.006206 0.063371 0.050410 -0.008555 0.063147 0.012002 0.008996 0.038011 0.052073 0.037976 0.093609 0.049920 0.070281 0.085314 0.064800 0.065380 0.065372 0.084276 0.034561 -0.008207 0.046056 0.044205 0.044865 0.070630 0.087320 0.013086 0.059501 0.075759 0.006159 0.001703 -0.060413 -0.022681 0.109506 0.080752 0.046360 0.038091 -0.018699 0.050293 0.022025 -0.067429 0.050716 0.029640 0.062798 0.035697 0.009233 0.003332 0.068294 0.037764 0.017167 0.041420 -0.040512 0.065419 0.116065 0.006681 -0.004906 -0.002108 -0.000215 -0.033240 -0.018828 -0.053993 -0.004895 -0.091802 -0.020567 -0.032736 0.022972 -0.034260 -0.049324 0.028063 -0.075288 -0.052223 -0.080589 0.048777 0.010757 0.008493 -0.007479 0.073100 -0.030672 -0.072033 0.056459 -0.006616 0.009251 0.006864 0.200583 -0.024680 0.024488 0.000163 -0.008108 -0.001944 -0.034049 -0.016550 -0.164482 0.016998 -0.041845 -0.014939 0.043011 0.002069 0.117312 -0.004139 -0.009500 -0.039807 -0.029574 -0.064590 0.049905 0.274276 0.153910 0.208955 0.244363 0.328144 0.353643 0.355899 0.044352 -1.065510
0.072396 0.072910 0.074452 0.077022 0.080618 0.085240 0.090887 0.097557 0.105248 0.113957 0.123679 0.134412 0.146148 0.158882 0.172604 0.187306 0.202975 0.219598 0.237159 0.255640 0.275019 0.295271 0.316370 0.338284 0.360977 0.384410 0.408539 0.433315 0.458683 0.484585 0.510956 0.537723 0.564810 0.592132 0.619599 0.647114 0.674572 0.701861 0.728863 0.755452 0.781495 0.806852 0.831376 0.854915 0.877308 0.898391 0.917993 0.935941 0.952054 0.966152 0.978051 0.987568 0.994517 0.998718 0.999990 0.998160 0.993061 0.984532 0.972425 0.956604 0.936946 0.913346 0.885716 0.853993 0.818135 0.778127 0.733980 0.685739 0.633481 0.577315 0.517392 0.453895 0.387053 0.317133 0.244442 0.169334 0.092201 0.013479 0.066354 0.146785 0.227258 0.307188 0.385955 0.462913 0.537396 0.608719 0.676186 0.739100 0.796766 0.848500 0.893642 0.931560 0.961660 0.983401 0.996297 0.999936 0.993983 0.978192 0.952418 0.916621 0.870877 0.815385 0.750470 0.676590 0.594335 0.504434 0.407744 0.305256 0.198083 0.087454 0.025298 0.138750 0.251401 0.361696 0.468044 0.568842 0.662498 0.747460 0.822245 0.885462 0.935849 0.972297 0.993880 0.999879 0.989811 0.963450 0.920844 0.862328 0.788539 0.700414 0.599196 0.486416 0.363889 0.233685 0.098103 0.040364 0.179070 0.315268 0.446157 0.568947 0.680917 0.779479 0.862245 0.927088 0.972207 0.996185 0.998041 0.977273 0.933895 0.868461 0.782078 0.676402 0.553622 0.416433 0.267982 0.111813 0.048215 0.208015 0.363375 0.510067 0.643963 0.761161 0.858105 0.931699 0.979425 0.999434 0.990638 0.952771 0.886435 0.793113 0.675168 0.535795 0.378963 0.209313 0.032032 0.147291 0.322836 0.488746 0.639317 0.769207 0.873632 0.948564 0.990895 0.998592 0.970811 0.907971 0.811792 0.685273 0.532638 0.359207 0.171242 0.024265 0.219844 0.407828 0.580648 0.731148 0.852900 0.940486 0.989769 0.998113 0.964548 0.889870 0.776671 0.629289 0.453670 0.257170 0.048255 0.163835 0.369488 0.559156 0.723812 0.855379 0.947167 0.994230 0.993669 0.944842 0.849474 0.711640 0.537645 0.335771 0.115913 0.110877 0.332938 0.538587 0.716750 0.857574 0.952993 0.997236 0.987206 0.922744 0.806722 0.644979 0.446077 0.220892 0.017949 0.256753 0.481533 0.678834 0.836561 0.944743 0.996207 0.987104 0.917241 0.790204 0.613238 0.396898 0.154466 0.098831 0.346749 0.573066 0.762659 0.902534 0.982762 0.997240 0.944209 0.826497 0.651455 0.430562 0.178731 0.086644 0.346870 0.583263 0.778507 0.917938 0.990720 0.990727 0.917139 0.774641 0.573212 0.327507 0.055849 0.221096 0.481868 0.705880 0.875067 0.975397 0.998098 0.940502 0.806419 0.605988 0.355000 0.073723 0.214683 0.486041 0.717197 0.888019 0.983211 0.993756 0.917858 0.761275 0.536997 0.264265 0.033017 0.328310 0.594817 0.807910 0.947454 0.999800 0.959196 0.828524 0.619228 0.350421 0.047231 0.261478 0.545835 0.777856 0.934247 0.998813 0.964243 0.833044 0.617509 0.338688 0.024441 0.293286 0.581690 0.810482 0.955152 0.999672 0.938384 0.776839 0.531447 0.227930 0.101262 0.420369 0.694193 0.892011 0.991101 0.979461 0.857402 0.637768 0.344745 0.011303 0.324409 0.623422 0.850465 0.978209 0.990675 0.885365 0.673846 0.380642 0.040542 0.305457 0.615024 0.849716 0.979811 0.988195 0.872778 0.647051 0.338691 0.013689 0.365281 0.670745 0.890080 0.993963 0.967806 0.813975 0.551807 0.215367 0.150847 0.497701 0.778014 0.953028 0.997894
1.000000 1.000000 1.000000 1.000000 1.000000 1.000000 1.000000 1.000000 1.000000 1.000000 1.000000 1.000000 1.000000 1.000000 1.000000 1.000000 1.000000 1.000000 1.000000 1.000000 1.000000 1.000000 1.000000 1.000000 1.000000 1.000000 1.000000 1.000000 1.000000 1.000000 1.000000 1.000000 1.000000 1.000000 1.000000 1.000000 1.000000 1.000000 1.000000 1.000000 1.000000 1.000000 1.000000 1.000000 1.000000 1.000000 1.000000 1.000000 1.000000 1.000000 1.000000 1.000000 0.918961 0.918961 0.905224 0.905224 0.905224 0.905224 0.905224 0.905224 0.905224 0.905224 0.905224 0.905224 0.905224 0.905224 0.905224 0.905224 0.905224 0.905224 0.905224 0.905224 0.905224 0.905224 0.905224 0.905224 0.905224 0.905224 0.905224 0.905224 0.905224 0.905224 0.905224 0.905224 0.905224 0.905224 0.905224 0.905224 0.905224 0.905224 0.905224 0.905224 0.905224 0.905224 0.905224 0.901075 0.905943 0.907834 0.906293 0.909843 0.909909 0.909198 0.909528 0.909182 0.909508 0.910901 0.921407 0.932431 0.943679 0.944204 0.949348 0.953752 0.956164 0.957037 0.958593 0.968559 0.967231 0.966734 0.967416 0.968862 0.970988 0.969707 0.969290 0.972460 0.973116 0.971510 0.969281 0.968678 0.968081 0.968184 0.967813 0.967700 0.967571 0.968079 0.968279 0.968434 0.968578 0.968629 0.969647 0.970800 0.973170 0.974150 0.974001 0.972922 0.971039 0.975072 0.975976 0.975712 0.975656 0.975182 0.975445 0.961565 0.957922 0.957840 0.954816 0.953712 0.950751 0.949333 0.947832 0.948037 0.946549 0.946479 0.943550 0.930037 0.916601 0.905842 0.926118 0.911169 0.900090 0.875489 0.875986 0.871749 0.872255 0.864292 0.858728 0.853971 0.851173 0.852463 0.849859 0.853858 0.850741 0.836584 0.839850 0.836415 0.806516 0.789955 0.774557 0.775646 0.772812 0.773902 0.773570 0.768614 0.777049 0.769523 0.767811 0.759405 0.739861 0.707038 0.693938 0.704338 0.713984 0.712482 0.708775 0.693668 0.661057 0.673688 0.694318 0.690808 0.693190 0.685090 0.679490 0.683134 0.683914 0.680194 0.673316 0.672419 0.671974 0.680612 0.685536 0.680639 0.672380 0.658187 0.646199 0.631701 0.646762 0.650784 0.618950 0.613168 0.603183 0.596826 0.583578 0.552177 0.551822 0.529124 0.517234 0.519529 0.522183 0.518392 0.527324 0.528479 0.509975 0.532861 0.538783 0.565718 0.545536 0.542457 0.543705 0.552828 0.536636 0.515865 0.508597 0.509543 0.522037 0.555497 0.596271 0.584525 0.572410 0.559336 0.573629 0.549180 0.558121 0.578079 0.555629 0.482285 0.439030 0.436566 0.397313 0.392167 0.382007 0.374774 0.383778 0.374324 0.364176 0.351113 0.338605 0.280618 0.242643 0.225832 0.203444 0.210889 0.225824 0.211379 0.211320 0.243098 0.290326 0.291419 0.282901 0.269235 0.272047 0.243954 0.255842 0.283203 0.239086 0.233943 0.227529 0.202283 0.195181 0.158267 0.185675 0.102314 0.080642 0.081939 0.098187 0.109643 0.108725 0.114394 0.087346 0.107142 0.100032 0.070411 0.057553 0.074161 0.062920 0.030405 0.041313 0.053062 0.039093 0.021122 0.043479 0.050462 0.062723 0.053618 0.052189 0.104388 0.136196 0.123296 0.124125 0.112329 0.115807 0.090638 0.080175 0.070495 0.060678 0.009146 -0.018795 -0.018795 -0.014523 -0.014523 -0.014523 -0.014523 -0.014523 -0.014523 -0.014523 -0.014523 -0.014523 -0.017879 -0.017879 -0.017879 -0.017879 -0.017879 -0.017879 -0.017879 -0.017879 -0.017879 0.007382 0.007382 0.007382 0.007382 0.007382 0.007382 0.007382 0.007382 0.007382
0.000000 0.000000 0.000000 0.000000 0.000000 0.000000 0.000000 0.000000 0.000000 0.000000 0.000000 0.000000 0.000000 0.000000 0.000000 0.000000 0.000000 0.000000 0.000000 0.000000 0.000000 0.000000 0.000000 0.000000 0.000000 0.000000 0.000000 0.000000 0.000000 0.000000 0.000000 0.000000 0.000000 0.000000 0.000000 0.000000 0.000000 0.000000 0.000000 0.000000 0.000000 0.000000 0.000000 0.000000 0.000000 0.000000 0.000000 0.000000 0.000000 0.000000 0.000000 0.000000 0.181818 0.181818 0.199007 0.199007 0.199007 0.199007 0.199007 0.199007 0.199007 0.199007 0.199007 0.199007 0.199007 0.199007 0.199007 0.199007 0.199007 0.199007 0.199007 0.199007 0.199007 0.199007 0.199007 0.199007 0.199007 0.199007 0.199007 0.199007 0.199007 0.199007 0.199007 0.199007 0.199007 0.199007 0.199007 0.199007 0.199007 0.199007 0.199007 0.199007 0.199007 0.199007 0.199007 0.230940 0.230940 0.230940 0.230940 0.230940 0.230940 0.230940 0.230940 0.230940 0.230940 0.230940 0.230940 0.230940 0.230940 0.230940 0.230940 0.230940 0.230940 0.230940 0.230940 0.230940 0.230940 0.230940 0.230940 0.230940 0.230940 0.230940 0.230940 0.244339 0.244339 0.244339 0.244339 0.244339 0.244339 0.244339 0.244339 0.244339 0.244339 0.244339 0.244339 0.244339 0.244339 0.244339 0.244339 0.244339 0.244339 0.244339 0.244339 0.244339 0.244339 0.244339 0.251976 0.251976 0.251976 0.251976 0.251976 0.251976 0.251976 0.251976 0.251976 0.251976 0.251976 0.251976 0.251976 0.251976 0.251976 0.251976 0.251976 0.251976 0.251976 0.251976 0.264906 0.264906 0.264906 0.264906 0.264906 0.264906 0.264906 0.264906 0.264906 0.264906 0.264906 0.264906 0.264906 0.264906 0.264906 0.264906 0.264906 0.264906 0.264906 0.264906 0.264906 0.264906 0.264906 0.264906 0.264906 0.264906 0.264906 0.264906 0.264906 0.264906 0.264906 0.264906 0.264906 0.264906 0.264906 0.264906 0.264906 0.264906 0.264906 0.264906 0.264906 0.264906 0.264906 0.264906 0.264906 0.264906 0.264906 0.264906 0.264906 0.264906 0.264906 0.264906 0.264906 0.264906 0.264906 0.264906 0.264906 0.264906 0.264906 0.264906 0.264906 0.264906 0.264906 0.264906 0.264906 0.264906 0.264906 0.264906 0.264906 0.264906 0.264906 0.264906 0.264906 0.264906 0.264906 0.269680 0.269680 0.269680 0.269680 0.269680 0.269680 0.269680 0.269680 0.269680 0.269680 0.269680 0.269680 0.264906 0.264906 0.264906 0.264906 0.264906 0.264906 0.264906 0.264906 0.264906 0.264906 0.264906 0.264906 0.269680 0.269680 0.269680 0.269680 0.269680 0.269680 0.269680 0.269680 0.269680 0.269680 0.269680 0.264906 0.264906 0.264906 0.264906 0.264906 0.264906 0.264906 0.264906 0.264906 0.264906 0.264906 0.256074 0.256074 0.256074 0.256074 0.256074 0.256074 0.256074 0.256074 0.256074 0.256074 0.256074 0.264906 0.264906 0.264906 0.264906 0.264906 0.264906 0.264906 0.264906 0.264906 0.264906 0.269680 0.269680 0.269680 0.269680 0.269680 0.269680 0.269680 0.269680 0.269680 0.256074 0.256074 0.256074 0.256074 0.256074 0.256074 0.256074 0.256074 0.256074 0.256074 0.260378 0.260378 0.260378 0.260378 0.260378 0.260378 0.260378 0.260378 0.260378 0.256074 0.256074 0.256074 0.256074 0.256074 0.256074 0.256074 0.256074 0.256074 0.251976 0.251976 0.251976 0.251976 0.251976 0.251976 0.251976 0.251976 0.251976 0.264906 0.264906 0.264906 0.264906 0.264906 0.264906 0.264906 0.264906 0.264906
