# Output from CTFFind version 4.1.9, run on 2019-11-03 19:37:15
# Input file: stack6_bm3d_averaged_1_4.25_0_3000_half.mrc ; Number of micrographs: 1
# Pixel size: 3.000 Angstroms ; acceleration voltage: 300.0 keV ; spherical aberration: 0.00 mm ; amplitude contrast: 0.07
# Box size: 512 pixels ; min. res.: 30.0 Angstroms ; max. res.: 5.0 Angstroms ; min. def.: 5000.0 um; max. def. 50000.0 um; num. frames averaged: 1
# 6 lines per micrograph: #1 - spatial frequency (1/Angstroms); #2 - 1D rotational average of spectrum (assuming no astigmatism); #3 - 1D rotational average of spectrum; #4 - CTF fit; #5 - cross-correlation between spectrum and CTF fit; #6 - 2sigma of expected cross correlation of noise
0.000000 0.000651 0.001302 0.001953 0.002604 0.003255 0.003906 0.004557 0.005208 0.005859 0.006510 0.007161 0.007812 0.008464 0.009115 0.009766 0.010417 0.011068 0.011719 0.012370 0.013021 0.013672 0.014323 0.014974 0.015625 0.016276 0.016927 0.017578 0.018229 0.018880 0.019531 0.020182 0.020833 0.021484 0.022135 0.022786 0.023438 0.024089 0.024740 0.025391 0.026042 0.026693 0.027344 0.027995 0.028646 0.029297 0.029948 0.030599 0.031250 0.031901 0.032552 0.033203 0.033854 0.034505 0.035156 0.035807 0.036458 0.037109 0.037760 0.038411 0.039062 0.039714 0.040365 0.041016 0.041667 0.042318 0.042969 0.043620 0.044271 0.044922 0.045573 0.046224 0.046875 0.047526 0.048177 0.048828 0.049479 0.050130 0.050781 0.051432 0.052083 0.052734 0.053385 0.054036 0.054688 0.055339 0.055990 0.056641 0.057292 0.057943 0.058594 0.059245 0.059896 0.060547 0.061198 0.061849 0.062500 0.063151 0.063802 0.064453 0.065104 0.065755 0.066406 0.067057 0.067708 0.068359 0.069010 0.069661 0.070312 0.070964 0.071615 0.072266 0.072917 0.073568 0.074219 0.074870 0.075521 0.076172 0.076823 0.077474 0.078125 0.078776 0.079427 0.080078 0.080729 0.081380 0.082031 0.082682 0.083333 0.083984 0.084635 0.085286 0.085938 0.086589 0.087240 0.087891 0.088542 0.089193 0.089844 0.090495 0.091146 0.091797 0.092448 0.093099 0.093750 0.094401 0.095052 0.095703 0.096354 0.097005 0.097656 0.098307 0.098958 0.099609 0.100260 0.100911 0.101562 0.102214 0.102865 0.103516 0.104167 0.104818 0.105469 0.106120 0.106771 0.107422 0.108073 0.108724 0.109375 0.110026 0.110677 0.111328 0.111979 0.112630 0.113281 0.113932 0.114583 0.115234 0.115885 0.116536 0.117188 0.117839 0.118490 0.119141 0.119792 0.120443 0.121094 0.121745 0.122396 0.123047 0.123698 0.124349 0.125000 0.125651 0.126302 0.126953 0.127604 0.128255 0.128906 0.129557 0.130208 0.130859 0.131510 0.132161 0.132812 0.133464 0.134115 0.134766 0.135417 0.136068 0.136719 0.137370 0.138021 0.138672 0.139323 0.139974 0.140625 0.141276 0.141927 0.142578 0.143229 0.143880 0.144531 0.145182 0.145833 0.146484 0.147135 0.147786 0.148438 0.149089 0.149740 0.150391 0.151042 0.151693 0.152344 0.152995 0.153646 0.154297 0.154948 0.155599 0.156250 0.156901 0.157552 0.158203 0.158854 0.159505 0.160156 0.160807 0.161458 0.162109 0.162760 0.163411 0.164062 0.164714 0.165365 0.166016 0.166667 0.167318 0.167969 0.168620 0.169271 0.169922 0.170573 0.171224 0.171875 0.172526 0.173177 0.173828 0.174479 0.175130 0.175781 0.176432 0.177083 0.177734 0.178385 0.179036 0.179688 0.180339 0.180990 0.181641 0.182292 0.182943 0.183594 0.184245 0.184896 0.185547 0.186198 0.186849 0.187500 0.188151 0.188802 0.189453 0.190104 0.190755 0.191406 0.192057 0.192708 0.193359 0.194010 0.194661 0.195312 0.195964 0.196615 0.197266 0.197917 0.198568 0.199219 0.199870 0.200521 0.201172 0.201823 0.202474 0.203125 0.203776 0.204427 0.205078 0.205729 0.206380 0.207031 0.207682 0.208333 0.208984 0.209635 0.210286 0.210938 0.211589 0.212240 0.212891 0.213542 0.214193 0.214844 0.215495 0.216146 0.216797 0.217448 0.218099 0.218750 0.219401 0.220052 0.220703 0.221354 0.222005 0.222656 0.223307 0.223958 0.224609 0.225260 0.225911 0.226562 0.227214 0.227865 0.228516 0.229167 0.229818 0.230469 0.231120 0.231771 0.232422 0.233073 0.233724 0.234375 0.235026 0.235677
       0.30225        0.30225        0.30225        0.30225        0.30225        0.30225        0.30225        0.30225        0.30225        0.30225        0.30225        0.30225        0.30225        0.30225        0.30225        0.30224        0.30225        0.30224        0.30225        0.30225        0.30225        0.30224        0.30225        0.30225        0.30225        0.30225        0.30225        0.30225        0.30225        0.30225        0.30224        0.30224        0.30225        0.30225        0.30225        0.30225        0.30225        0.30224        0.30225        0.30224        0.30225        0.30225        0.30225        0.30224        0.30225        0.30225        0.30225        0.30225        0.30225        0.30225        0.30225        0.60947        0.75141        0.36239        0.21432        0.13312       -0.14955        0.11478        0.02432        0.03446        0.09434        0.32206        0.36086        0.29443        0.17557       -0.03157        0.00262        0.04740       -0.15644       -0.16813       -0.09042       -0.11802       -0.26378       -0.16455       -0.29734       -0.29481       -0.30184       -0.37225       -0.44839       -0.41241       -0.32745       -0.29208       -0.38603       -0.29188       -0.35635       -0.29262       -0.22131       -0.16929       -0.13119       -0.04635       -0.02089        0.09558        0.13438        0.21660        0.32991        0.39330        0.36778        0.47066        0.56224        0.57579        0.66051        0.62020        0.66637        0.60500        0.63444        0.63457        0.56861        0.57501        0.57784        0.40006        0.33408        0.35710        0.34652        0.18421        0.12919        0.08871        0.06968        0.06954       -0.03046        0.02975       -0.00795       -0.05193        0.07571        0.16174        0.26014        0.34196        0.33156        0.37082        0.48830        0.51848        0.45368        0.65172        0.52583        0.49843        0.56051        0.51329        0.51415        0.46405        0.36963        0.32945        0.24632        0.20156        0.16861        0.16373        0.13567        0.08009        0.13068        0.15132        0.19361        0.17614        0.24582        0.27960        0.33125        0.45087        0.42498        0.42256        0.47638        0.51908        0.50511        0.47185        0.38044        0.40699        0.35489        0.28115        0.22681        0.23410        0.20198        0.17006        0.15326        0.18522        0.17231        0.22634        0.28915        0.33546        0.39101        0.39233        0.45385        0.47117        0.44996        0.43090        0.39872        0.40526        0.39267        0.34929        0.30259        0.28557        0.23607        0.25542        0.24959        0.20152        0.24391        0.24116        0.25270        0.31923        0.35647        0.38336        0.39032        0.40112        0.40507        0.40561        0.40068        0.29269        0.29011        0.25548        0.26919        0.22741        0.19243        0.25967        0.31140        0.29573        0.27448        0.32986        0.27572        0.35945        0.34509        0.35537        0.36474        0.37370        0.31207        0.30728        0.29157        0.27629        0.26305        0.25036        0.26111        0.29194        0.28682        0.30934        0.34790        0.36924        0.34035        0.33272        0.34488        0.31208        0.29414        0.29147        0.26796        0.27532        0.26431        0.29490        0.29506        0.27950        0.29679        0.30545        0.32018        0.32915        0.33057        0.27720        0.25953        0.28246        0.27507        0.26434        0.25864        0.22655        0.24465        0.25678        0.24880        0.26594        0.28319        0.32097        0.31712        0.30175        0.30384        0.23250        0.22303        0.27048        0.23869        0.20320        0.26346        0.31956        0.25541        0.29569        0.29807        0.29711        0.30673        0.28123        0.27424        0.28995        0.26683        0.28384        0.23797        0.26174        0.25028        0.29058        0.28919        0.31263        0.31237        0.31376        0.22223        0.28528        0.28259        0.22720        0.27668        0.26146        0.29296        0.28583        0.30559        0.29748        0.34880        0.29302        0.25599        0.24171        0.21720        0.24201        0.26382        0.29303        0.28758        0.28557        0.28935        0.27715        0.26989        0.26724        0.23988        0.28450        0.24430        0.23224        0.22330        0.30020        0.29944        0.28304        0.28450        0.22181        0.29094        0.24919        0.19881        0.22986        0.26630        0.27687        0.30837        0.21325        0.19532        0.25895        0.24449        0.26051        0.21021        0.21674        0.20861        0.23879        0.25354        0.20854        0.25810        0.23241        0.26816        0.19968        0.26176        0.29296        0.20096        0.15509        0.14947        0.13754        0.22334        0.15308        0.08884        0.31723        0.18891        0.08315        0.08326        0.11623        0.16689        0.21761       -0.05182       -0.74297       -1.04878
3.021516 2.991403 2.961444 2.931641 2.901992 2.872498 2.843159 2.813975 2.784946 2.756072 2.727353 2.698789 2.670380 2.642125 2.614026 2.586082 2.558292 2.530658 2.503178 2.475853 2.448684 2.421669 2.394809 2.368104 2.341554 2.315159 2.288919 2.262834 2.236904 2.211129 2.185509 2.160043 2.134733 2.109577 2.084577 2.059731 2.035040 2.010505 1.986124 1.961898 1.937827 1.913911 1.890150 1.866544 1.843093 1.819797 1.796656 1.773670 1.750838 1.728162 1.705640 2.049923 2.378185 1.737393 1.668396 1.368805 0.831319 1.229197 1.091513 1.121334 0.979559 1.586667 1.496405 1.496034 1.241408 0.911669 0.751540 0.994046 0.748942 0.423090 0.546464 0.658653 0.391160 0.443338 0.276433 0.211546 0.144640 0.143900 -0.117513 -0.047955 0.072015 0.041063 0.005360 0.098373 -0.053041 -0.017137 0.134628 0.208923 0.257819 0.329828 0.364669 0.630380 0.555839 0.664827 0.897671 0.969883 0.893082 1.174659 1.175479 1.251384 1.332785 1.203618 1.392487 1.202829 1.176812 1.341366 1.123812 1.072178 1.176193 0.930545 0.650640 0.687183 0.743954 0.448615 0.356028 0.262631 0.163480 0.153768 0.009789 0.117567 0.040460 -0.087021 0.066413 0.198598 0.310146 0.511503 0.516217 0.488042 0.687780 0.801819 0.557785 0.960921 0.870182 0.649993 0.775493 0.653238 0.724548 0.697220 0.425694 0.415573 0.251857 0.187608 0.127481 0.004934 0.052205 -0.100593 -0.022970 -0.030713 0.093033 -0.036512 0.199333 0.174126 0.176294 0.389498 0.472378 0.382297 0.353726 0.575126 0.572496 0.450216 0.352211 0.337200 0.303442 0.179988 0.051007 0.040773 0.005250 -0.011435 -0.117295 -0.057723 -0.117790 0.041112 0.015445 0.156642 0.225900 0.240271 0.347130 0.341726 0.396455 0.349301 0.409378 0.371730 0.258520 0.319164 0.152721 0.187798 0.062203 0.107071 0.044552 0.051544 -0.047377 0.075972 0.014595 0.115983 0.222728 0.220369 0.279507 0.279169 0.303786 0.289592 0.303235 0.189875 0.075357 0.111791 0.037101 0.028905 -0.053137 -0.048096 0.068225 0.133408 0.076680 0.083583 0.097462 0.141245 0.190136 0.182285 0.173973 0.231103 0.146271 0.096277 0.080602 0.061388 0.052847 -0.028841 0.020344 0.091481 0.005920 0.097493 0.104131 0.193412 0.207382 0.172911 0.150872 0.166436 0.093023 0.084091 0.100269 0.034188 0.018794 0.078092 0.073160 0.090578 0.055209 0.102793 0.096865 0.134516 0.162392 0.102336 0.042128 -0.004451 0.063820 0.011826 0.052892 -0.020262 -0.057420 0.009128 -0.014844 -0.013594 0.039159 0.035207 0.098232 0.121591 0.042101 0.064981 -0.072954 -0.014156 0.034757 -0.069682 -0.078815 0.053960 0.084565 -0.024793 0.052934 0.057685 0.070830 0.072613 -0.008683 0.015509 0.099748 -0.058176 0.047781 -0.038434 0.013652 -0.044941 0.077421 0.023437 0.078768 0.062734 0.072101 -0.091266 0.050472 -0.004436 -0.068503 0.017449 -0.007492 0.016175 0.033474 0.104129 0.049516 0.086101 0.051956 -0.084343 -0.025347 -0.104500 -0.023172 0.011708 0.024859 0.036081 0.006895 0.044500 0.005804 0.003873 0.018024 -0.054089 0.057365 -0.014160 -0.069429 -0.034393 0.068521 0.038487 0.052513 0.059255 -0.022227 0.080124 0.013450 -0.081808 0.004455 0.039518 0.102869 0.099940 -0.034711 -0.043649 0.084330 0.023556 -0.000546 0.002311 -0.073395 0.040308 0.046421 0.063982 -0.012758 0.108046 0.017340 0.167382 -0.025082 0.154964 0.195786 0.008514 -0.063441 -0.040864 -0.148667 0.139498 -0.022596 -0.009405 0.520550 0.270465 0.124676 0.150936 0.269558 0.229464 0.330115 -0.071629 -1.708781
0.072396 0.072835 0.074150 0.076342 0.079411 0.083355 0.088173 0.093866 0.100430 0.107864 0.116165 0.125331 0.135357 0.146240 0.157973 0.170550 0.183965 0.198207 0.213266 0.229131 0.245788 0.263222 0.281413 0.300343 0.319988 0.340324 0.361322 0.382951 0.405176 0.427959 0.451258 0.475028 0.499217 0.523774 0.548637 0.573746 0.599030 0.624418 0.649831 0.675187 0.700397 0.725367 0.749999 0.774190 0.797830 0.820805 0.842997 0.864282 0.884532 0.903617 0.921400 0.937744 0.952506 0.965545 0.976715 0.985872 0.992870 0.997565 0.999815 0.999482 0.996430 0.990531 0.981661 0.969707 0.954563 0.936134 0.914339 0.889109 0.860391 0.828151 0.792370 0.753052 0.710222 0.663928 0.614243 0.561265 0.505120 0.445963 0.383976 0.319374 0.252399 0.183327 0.112463 0.040143 0.033267 0.107373 0.181750 0.255951 0.329502 0.401908 0.472657 0.541219 0.607054 0.669614 0.728349 0.782711 0.832159 0.876166 0.914223 0.945850 0.970598 0.988055 0.997858 0.999696 0.993316 0.978532 0.955232 0.923378 0.883020 0.834291 0.777421 0.712732 0.640644 0.561674 0.476439 0.385650 0.290113 0.190723 0.088458 0.015631 0.120423 0.224744 0.327374 0.427066 0.522557 0.612586 0.695912 0.771331 0.837695 0.893934 0.939074 0.972254 0.992751 0.999992 0.993573 0.973275 0.939076 0.891162 0.829933 0.756009 0.670233 0.573663 0.467571 0.353426 0.232883 0.107763 0.019973 0.148253 0.274922 0.397778 0.514616 0.623260 0.721612 0.807695 0.879692 0.935996 0.975243 0.996359 0.998588 0.981525 0.945137 0.889786 0.816232 0.725638 0.619561 0.499939 0.369056 0.229514 0.084185 0.063845 0.211336 0.354962 0.491390 0.617354 0.729743 0.825673 0.902580 0.958283 0.991065 0.999731 0.983658 0.942834 0.877886 0.790083 0.681331 0.554146 0.411605 0.257286 0.095187 0.070371 0.234855 0.393641 0.542145 0.675960 0.790988 0.883584 0.950667 0.989846 0.999518 0.978937 0.928279 0.848659 0.742136 0.611678 0.461095 0.294945 0.118410 0.062859 0.242914 0.415704 0.575279 0.715997 0.832740 0.921102 0.977581 0.999723 0.986257 0.937172 0.853763 0.738626 0.595597 0.429652 0.246754 0.053644 0.142384 0.333758 0.512920 0.672632 0.806268 0.908111 0.973614 0.999621 0.984545 0.928482 0.833257 0.702399 0.541039 0.355735 0.154233 0.054849 0.262379 0.459092 0.636029 0.784933 0.898664 0.971557 0.999731 0.981324 0.916636 0.808182 0.660629 0.480632 0.276562 0.058141 0.164001 0.378841 0.575506 0.743828 0.874894 0.961534 0.998747 0.984021 0.917534 0.802218 0.643673 0.449937 0.231115 0.001129 0.234164 0.455086 0.651423 0.811858 0.926903 0.989492 0.995452 0.943818 0.836974 0.680603 0.483425 0.256752 0.013875 0.230690 0.462072 0.665938 0.829409 0.941896 0.995816 0.987159 0.915821 0.785715 0.604607 0.383717 0.137049 0.119450 0.368901 0.594628 0.781244 0.915756 0.988501 0.993880 0.930851 0.803101 0.618909 0.390658 0.134054 0.132915 0.391219 0.622148 0.808670 0.936732 0.996351 0.982458 0.895382 0.740954 0.530173 0.278514 0.004804 0.270119 0.524999 0.739813 0.897360 0.984690 0.994226 0.924490 0.780345 0.572755 0.318011 0.036510 0.248834 0.514435 0.738000 0.900419 0.987456 0.991057 0.910170 0.750981 0.526534 0.255739 0.038166 0.329562 0.592683 0.803893 0.943856 0.999370 0.964681 0.842168 0.642280 0.382749 0.087079 0.217519 0.502606 0.741180 0.910265 0.993176 0.981248 0.874836 0.683454 0.425023 0.124292 0.189483 0.485357 0.733720 0.909331
1.000000 1.000000 1.000000 1.000000 1.000000 1.000000 1.000000 1.000000 1.000000 1.000000 1.000000 1.000000 1.000000 1.000000 1.000000 1.000000 1.000000 1.000000 1.000000 1.000000 1.000000 1.000000 1.000000 1.000000 1.000000 1.000000 1.000000 1.000000 1.000000 1.000000 1.000000 1.000000 1.000000 1.000000 1.000000 1.000000 1.000000 1.000000 1.000000 1.000000 1.000000 1.000000 1.000000 1.000000 1.000000 1.000000 1.000000 1.000000 1.000000 1.000000 1.000000 1.000000 0.822644 0.822644 0.822644 0.822644 0.822644 0.822644 0.822644 0.796991 0.796991 0.796991 0.796991 0.796991 0.796991 0.796991 0.796991 0.796991 0.796991 0.796991 0.796991 0.796991 0.796991 0.796991 0.796991 0.796991 0.796991 0.796991 0.796991 0.796991 0.796991 0.796991 0.796991 0.796991 0.796991 0.796991 0.796991 0.796991 0.796991 0.796991 0.796991 0.796991 0.796991 0.796991 0.796991 0.796991 0.796991 0.796991 0.796991 0.796991 0.796991 0.796991 0.796991 0.944705 0.945631 0.946057 0.946699 0.945139 0.945332 0.941265 0.940308 0.942744 0.942559 0.942752 0.943746 0.943315 0.944556 0.946060 0.947994 0.948456 0.956541 0.960214 0.959613 0.958735 0.957654 0.971413 0.971224 0.971053 0.971061 0.971181 0.969658 0.968216 0.968117 0.968736 0.970522 0.970986 0.969193 0.967358 0.966615 0.966022 0.965825 0.965209 0.965554 0.966366 0.966464 0.967040 0.969739 0.968888 0.969531 0.968201 0.967412 0.966373 0.965037 0.965799 0.965618 0.965129 0.963031 0.960954 0.961791 0.960692 0.961149 0.962881 0.963151 0.963424 0.963708 0.963770 0.963687 0.964504 0.961533 0.949418 0.947265 0.944693 0.945313 0.947108 0.949497 0.948746 0.947097 0.945156 0.940217 0.936318 0.924096 0.918331 0.914516 0.919484 0.917858 0.918484 0.918086 0.915360 0.913527 0.913808 0.912493 0.915456 0.915409 0.911577 0.903023 0.901158 0.897248 0.899032 0.901408 0.903430 0.903440 0.899438 0.889516 0.882503 0.885513 0.885821 0.891997 0.881133 0.880047 0.879086 0.870607 0.866954 0.859129 0.858099 0.859293 0.857714 0.861562 0.860343 0.852821 0.825823 0.820337 0.816711 0.813638 0.817566 0.827149 0.829346 0.824529 0.809287 0.799488 0.785271 0.786228 0.789351 0.787254 0.793379 0.774261 0.774231 0.752498 0.752770 0.748196 0.737934 0.735336 0.723559 0.727942 0.734148 0.740305 0.741486 0.725391 0.720354 0.681190 0.688417 0.646386 0.654964 0.653298 0.637649 0.623281 0.609780 0.620780 0.626342 0.631493 0.605675 0.595306 0.573889 0.562207 0.566488 0.547797 0.548283 0.548930 0.544263 0.534484 0.549177 0.560665 0.568531 0.549966 0.549590 0.551908 0.531734 0.512420 0.494510 0.488646 0.503492 0.523668 0.525855 0.528419 0.521680 0.485078 0.460292 0.487177 0.498390 0.512950 0.503875 0.494686 0.487197 0.499606 0.479839 0.504431 0.499855 0.500854 0.470743 0.421686 0.375558 0.321752 0.343308 0.346617 0.351254 0.346234 0.344209 0.323068 0.292687 0.292061 0.292133 0.314420 0.312702 0.276943 0.291440 0.287495 0.289007 0.290437 0.285015 0.297208 0.300407 0.328652 0.332427 0.269129 0.248973 0.202560 0.201817 0.211096 0.235399 0.254532 0.244602 0.218048 0.106741 0.130116 0.158112 0.158112 0.158112 0.158112 0.158112 0.158112 0.158112 0.158112 0.158112 0.158112 0.158112 0.093831 0.093831 0.093831 0.093831 0.093831 0.093831 0.093831 0.093831 0.093831 0.093831 0.093831 0.093831 0.093831 0.093831 0.093831 0.093831 0.093831 0.093831 0.093831
0.000000 0.000000 0.000000 0.000000 0.000000 0.000000 0.000000 0.000000 0.000000 0.000000 0.000000 0.000000 0.000000 0.000000 0.000000 0.000000 0.000000 0.000000 0.000000 0.000000 0.000000 0.000000 0.000000 0.000000 0.000000 0.000000 0.000000 0.000000 0.000000 0.000000 0.000000 0.000000 0.000000 0.000000 0.000000 0.000000 0.000000 0.000000 0.000000 0.000000 0.000000 0.000000 0.000000 0.000000 0.000000 0.000000 0.000000 0.000000 0.000000 0.000000 0.000000 0.000000 0.173422 0.173422 0.173422 0.173422 0.173422 0.173422 0.173422 0.191565 0.191565 0.191565 0.191565 0.191565 0.191565 0.191565 0.191565 0.191565 0.191565 0.191565 0.191565 0.191565 0.191565 0.191565 0.191565 0.191565 0.191565 0.191565 0.191565 0.191565 0.191565 0.191565 0.191565 0.191565 0.191565 0.191565 0.191565 0.191565 0.191565 0.191565 0.191565 0.191565 0.191565 0.191565 0.191565 0.191565 0.191565 0.191565 0.191565 0.191565 0.191565 0.191565 0.191565 0.219529 0.219529 0.219529 0.219529 0.219529 0.219529 0.219529 0.219529 0.219529 0.219529 0.219529 0.219529 0.219529 0.219529 0.219529 0.219529 0.219529 0.219529 0.219529 0.219529 0.219529 0.219529 0.219529 0.219529 0.219529 0.219529 0.219529 0.219529 0.219529 0.219529 0.219529 0.237356 0.237356 0.237356 0.237356 0.237356 0.237356 0.237356 0.237356 0.237356 0.237356 0.237356 0.237356 0.237356 0.237356 0.237356 0.237356 0.237356 0.237356 0.237356 0.237356 0.237356 0.237356 0.237356 0.237356 0.244339 0.244339 0.244339 0.244339 0.244339 0.244339 0.244339 0.244339 0.244339 0.244339 0.244339 0.244339 0.244339 0.244339 0.244339 0.244339 0.244339 0.244339 0.244339 0.244339 0.244339 0.248069 0.248069 0.248069 0.248069 0.248069 0.248069 0.248069 0.248069 0.248069 0.248069 0.248069 0.248069 0.248069 0.248069 0.248069 0.248069 0.248069 0.248069 0.248069 0.248069 0.248069 0.248069 0.248069 0.248069 0.248069 0.248069 0.248069 0.248069 0.248069 0.248069 0.248069 0.248069 0.248069 0.248069 0.248069 0.248069 0.248069 0.256074 0.256074 0.256074 0.256074 0.256074 0.256074 0.256074 0.256074 0.256074 0.256074 0.256074 0.256074 0.256074 0.256074 0.256074 0.256074 0.256074 0.256074 0.256074 0.256074 0.256074 0.256074 0.256074 0.256074 0.256074 0.256074 0.256074 0.256074 0.256074 0.256074 0.256074 0.256074 0.256074 0.256074 0.256074 0.256074 0.256074 0.256074 0.256074 0.256074 0.256074 0.256074 0.256074 0.256074 0.256074 0.260378 0.260378 0.260378 0.260378 0.260378 0.260378 0.260378 0.260378 0.260378 0.260378 0.260378 0.260378 0.260378 0.256074 0.256074 0.256074 0.256074 0.256074 0.256074 0.256074 0.256074 0.256074 0.256074 0.256074 0.256074 0.256074 0.260378 0.260378 0.260378 0.260378 0.260378 0.260378 0.260378 0.260378 0.260378 0.260378 0.260378 0.260378 0.251976 0.251976 0.251976 0.251976 0.251976 0.251976 0.251976 0.251976 0.251976 0.251976 0.251976 0.251976 0.256074 0.256074 0.256074 0.256074 0.256074 0.256074 0.256074 0.256074 0.256074 0.256074 0.256074 0.251976 0.251976 0.251976 0.251976 0.251976 0.251976 0.251976 0.251976 0.251976 0.251976 0.251976 0.248069 0.248069 0.248069 0.248069 0.248069 0.248069 0.248069 0.248069 0.248069 0.248069 0.248069 0.256074 0.256074 0.256074 0.256074 0.256074 0.256074 0.256074 0.256074 0.256074 0.256074 0.256074 0.256074 0.256074 0.256074 0.256074 0.256074 0.256074 0.256074 0.256074
