# Output from CTFFind version 4.1.9, run on 2019-11-02 17:45:23
# Input file: stack16_bm3d_averaged_1_0.75_0_750_half.mrc ; Number of micrographs: 1
# Pixel size: 3.000 Angstroms ; acceleration voltage: 300.0 keV ; spherical aberration: 0.00 mm ; amplitude contrast: 0.07
# Box size: 512 pixels ; min. res.: 30.0 Angstroms ; max. res.: 5.0 Angstroms ; min. def.: 5000.0 um; max. def. 50000.0 um; num. frames averaged: 1
# 6 lines per micrograph: #1 - spatial frequency (1/Angstroms); #2 - 1D rotational average of spectrum (assuming no astigmatism); #3 - 1D rotational average of spectrum; #4 - CTF fit; #5 - cross-correlation between spectrum and CTF fit; #6 - 2sigma of expected cross correlation of noise
0.000000 0.000651 0.001302 0.001953 0.002604 0.003255 0.003906 0.004557 0.005208 0.005859 0.006510 0.007161 0.007812 0.008464 0.009115 0.009766 0.010417 0.011068 0.011719 0.012370 0.013021 0.013672 0.014323 0.014974 0.015625 0.016276 0.016927 0.017578 0.018229 0.018880 0.019531 0.020182 0.020833 0.021484 0.022135 0.022786 0.023438 0.024089 0.024740 0.025391 0.026042 0.026693 0.027344 0.027995 0.028646 0.029297 0.029948 0.030599 0.031250 0.031901 0.032552 0.033203 0.033854 0.034505 0.035156 0.035807 0.036458 0.037109 0.037760 0.038411 0.039062 0.039714 0.040365 0.041016 0.041667 0.042318 0.042969 0.043620 0.044271 0.044922 0.045573 0.046224 0.046875 0.047526 0.048177 0.048828 0.049479 0.050130 0.050781 0.051432 0.052083 0.052734 0.053385 0.054036 0.054688 0.055339 0.055990 0.056641 0.057292 0.057943 0.058594 0.059245 0.059896 0.060547 0.061198 0.061849 0.062500 0.063151 0.063802 0.064453 0.065104 0.065755 0.066406 0.067057 0.067708 0.068359 0.069010 0.069661 0.070312 0.070964 0.071615 0.072266 0.072917 0.073568 0.074219 0.074870 0.075521 0.076172 0.076823 0.077474 0.078125 0.078776 0.079427 0.080078 0.080729 0.081380 0.082031 0.082682 0.083333 0.083984 0.084635 0.085286 0.085938 0.086589 0.087240 0.087891 0.088542 0.089193 0.089844 0.090495 0.091146 0.091797 0.092448 0.093099 0.093750 0.094401 0.095052 0.095703 0.096354 0.097005 0.097656 0.098307 0.098958 0.099609 0.100260 0.100911 0.101562 0.102214 0.102865 0.103516 0.104167 0.104818 0.105469 0.106120 0.106771 0.107422 0.108073 0.108724 0.109375 0.110026 0.110677 0.111328 0.111979 0.112630 0.113281 0.113932 0.114583 0.115234 0.115885 0.116536 0.117188 0.117839 0.118490 0.119141 0.119792 0.120443 0.121094 0.121745 0.122396 0.123047 0.123698 0.124349 0.125000 0.125651 0.126302 0.126953 0.127604 0.128255 0.128906 0.129557 0.130208 0.130859 0.131510 0.132161 0.132812 0.133464 0.134115 0.134766 0.135417 0.136068 0.136719 0.137370 0.138021 0.138672 0.139323 0.139974 0.140625 0.141276 0.141927 0.142578 0.143229 0.143880 0.144531 0.145182 0.145833 0.146484 0.147135 0.147786 0.148438 0.149089 0.149740 0.150391 0.151042 0.151693 0.152344 0.152995 0.153646 0.154297 0.154948 0.155599 0.156250 0.156901 0.157552 0.158203 0.158854 0.159505 0.160156 0.160807 0.161458 0.162109 0.162760 0.163411 0.164062 0.164714 0.165365 0.166016 0.166667 0.167318 0.167969 0.168620 0.169271 0.169922 0.170573 0.171224 0.171875 0.172526 0.173177 0.173828 0.174479 0.175130 0.175781 0.176432 0.177083 0.177734 0.178385 0.179036 0.179688 0.180339 0.180990 0.181641 0.182292 0.182943 0.183594 0.184245 0.184896 0.185547 0.186198 0.186849 0.187500 0.188151 0.188802 0.189453 0.190104 0.190755 0.191406 0.192057 0.192708 0.193359 0.194010 0.194661 0.195312 0.195964 0.196615 0.197266 0.197917 0.198568 0.199219 0.199870 0.200521 0.201172 0.201823 0.202474 0.203125 0.203776 0.204427 0.205078 0.205729 0.206380 0.207031 0.207682 0.208333 0.208984 0.209635 0.210286 0.210938 0.211589 0.212240 0.212891 0.213542 0.214193 0.214844 0.215495 0.216146 0.216797 0.217448 0.218099 0.218750 0.219401 0.220052 0.220703 0.221354 0.222005 0.222656 0.223307 0.223958 0.224609 0.225260 0.225911 0.226562 0.227214 0.227865 0.228516 0.229167 0.229818 0.230469 0.231120 0.231771 0.232422 0.233073 0.233724 0.234375 0.235026 0.235677
       0.34230        0.34230        0.34230        0.34230        0.34230        0.34230        0.34230        0.34230        0.34230        0.34230        0.34230        0.34230        0.34230        0.34230        0.34230        0.34230        0.34230        0.34230        0.34230        0.34230        0.34230        0.34230        0.34230        0.34230        0.34230        0.34230        0.34230        0.34230        0.34230        0.34230        0.34230        0.34230        0.34230        0.34230        0.34230        0.34230        0.34230        0.34230        0.34230        0.34230        0.34230        0.34230        0.34230        0.34230        0.34230        0.34230        0.34230        0.34230        0.34230        0.34230        0.34230        0.48858        0.70194        0.45524       -0.11235       -0.41306       -0.57232       -0.66276       -0.74633       -0.76370       -0.86947       -0.91499       -0.75972       -0.92562       -0.87248       -1.02494       -1.09793       -0.98953       -0.96296       -0.88440       -0.86197       -0.75163       -0.64155       -0.50100       -0.42472       -0.21929       -0.11780       -0.02243        0.20296        0.24342        0.30799        0.38422        0.43804        0.51516        0.57948        0.59497        0.59074        0.50121        0.54532        0.48630        0.39129        0.32262        0.20574        0.17134        0.10205       -0.06109       -0.11098       -0.09287        0.00965       -0.01759        0.01216        0.02803        0.20913        0.21871        0.39072        0.45607        0.56012        0.69832        0.75946        0.73003        0.70503        0.70070        0.58293        0.54196        0.39961        0.27204        0.19277        0.14461        0.06663        0.02357        0.02198        0.06157        0.07706        0.26994        0.41762        0.50612        0.58844        0.63833        0.70391        0.66014        0.65100        0.67031        0.60867        0.47997        0.28414        0.23481        0.20578        0.12925        0.04407        0.09128        0.12159        0.24995        0.33983        0.41466        0.50012        0.53802        0.66111        0.60943        0.55529        0.50980        0.36477        0.20926        0.21197        0.15168        0.11345        0.12099        0.21582        0.25191        0.35785        0.44167        0.43911        0.56383        0.50997        0.44829        0.45387        0.38207        0.32327        0.27600        0.21693        0.23623        0.20994        0.20948        0.32275        0.44952        0.48515        0.48002        0.55063        0.49564        0.45525        0.39427        0.29408        0.22435        0.23161        0.24500        0.26630        0.27417        0.32425        0.44216        0.49941        0.48621        0.45947        0.41635        0.38718        0.36196        0.24836        0.22466        0.24585        0.29263        0.35395        0.36148        0.39012        0.41004        0.44279        0.37042        0.34792        0.31318        0.30436        0.26613        0.25809        0.30780        0.34508        0.41525        0.41576        0.39659        0.39356        0.40626        0.34867        0.28725        0.29100        0.27738        0.30959        0.35871        0.36735        0.41554        0.35865        0.36708        0.38950        0.34617        0.31633        0.27987        0.29500        0.33980        0.32954        0.32493        0.37491        0.39391        0.33258        0.35145        0.29594        0.30757        0.28674        0.28231        0.30032        0.33118        0.38327        0.36526        0.34654        0.32635        0.28389        0.27665        0.29631        0.28196        0.31302        0.36727        0.39377        0.33698        0.31684        0.30954        0.29795        0.28216        0.27857        0.29897        0.34000        0.33591        0.34207        0.31592        0.34775        0.32275        0.28705        0.31592        0.32197        0.33340        0.33891        0.31961        0.31523        0.30514        0.32666        0.31189        0.33592        0.38715        0.33328        0.36182        0.32004        0.31284        0.28995        0.30965        0.29056        0.30923        0.31580        0.35049        0.36059        0.31567        0.32269        0.31612        0.29254        0.29059        0.28956        0.33133        0.34342        0.35558        0.33322        0.32314        0.25985        0.26482        0.31378        0.34720        0.31976        0.29803        0.28320        0.28695        0.32520        0.30802        0.30931        0.33398        0.34290        0.30972        0.24083        0.28855        0.28317        0.28609        0.32207        0.32094        0.34330        0.34160        0.27994        0.26732        0.29449        0.27065        0.28981        0.27542        0.24695        0.26312        0.24969        0.28000        0.28133        0.27611        0.26467        0.31753        0.32565        0.31338        0.28302        0.30214        0.24308        0.26848        0.25550        0.33540        0.34685        0.23067        0.25447        0.26966        0.24460        0.24935        0.29979        0.22984        0.14215        0.17468        0.24597        0.27466        0.22892        0.13569        0.02807       -0.43005       -0.76668
3.044534 3.006710 2.969130 2.931793 2.894698 2.857847 2.821238 2.784873 2.748750 2.712870 2.677233 2.641839 2.606688 2.571780 2.537115 2.502693 2.468513 2.434577 2.400884 2.367433 2.334225 2.301261 2.268539 2.236060 2.203824 2.171831 2.140081 2.108574 2.077310 2.046289 2.015511 1.984975 1.954683 1.924633 1.894827 1.865263 1.835942 1.806864 1.778030 1.749438 1.721089 1.692982 1.665119 1.637499 1.610122 1.582987 1.556096 1.529447 1.503042 1.476879 1.450959 1.508374 1.695785 1.608608 0.962346 0.681683 0.475285 0.429252 0.320703 0.263246 0.199899 0.020808 0.197703 0.081134 -0.006794 -0.057548 -0.198400 -0.151074 -0.090854 -0.091320 -0.097135 0.010578 0.031648 0.234045 0.149041 0.364013 0.445217 0.477841 0.714331 0.698528 0.707103 0.836257 0.820170 0.851619 0.919787 0.890447 0.937094 0.750311 0.834806 0.838947 0.621211 0.605659 0.456413 0.435174 0.385833 0.210471 0.121903 0.100726 0.206043 0.146394 0.195583 0.111940 0.312152 0.288047 0.457949 0.414379 0.579363 0.641228 0.761912 0.704146 0.653758 0.665424 0.530075 0.505071 0.368162 0.292993 0.118012 0.146304 0.003837 -0.011739 -0.037706 -0.027262 -0.000932 0.032331 0.275296 0.332362 0.388070 0.395979 0.467168 0.520461 0.469052 0.504545 0.400476 0.389425 0.155004 0.069809 0.074508 -0.000662 -0.123734 -0.042710 -0.108510 0.018313 0.136239 0.157178 0.253869 0.256350 0.381618 0.462739 0.354516 0.390616 0.283107 0.127061 0.051502 0.051967 0.013798 0.003646 0.009189 0.108459 0.127488 0.262640 0.236786 0.305744 0.367145 0.240454 0.243965 0.218831 0.131997 0.082414 0.051904 0.027566 0.039010 -0.013033 0.028023 0.185953 0.218256 0.250534 0.281598 0.229726 0.240100 0.146261 0.106824 -0.020670 -0.017816 -0.004322 0.016530 0.010393 0.028290 0.104120 0.189719 0.201476 0.219525 0.137040 0.145200 0.079548 0.057399 -0.060123 -0.015888 -0.006556 0.054849 0.066135 0.075805 0.153704 0.091090 0.162193 0.069140 0.053845 0.045697 0.027951 0.002906 0.008048 0.053666 0.084565 0.132061 0.140182 0.070679 0.131040 0.100671 0.018073 0.009154 0.007101 -0.003385 0.058159 0.061768 0.100844 0.099341 0.069526 0.071172 0.081998 0.036214 0.015552 -0.013335 0.013019 0.060579 0.025295 0.040835 0.074538 0.089269 0.054922 0.033756 0.009910 0.015490 -0.006414 -0.009903 0.014737 0.055197 0.102759 0.062618 0.057432 0.039389 -0.013839 -0.000542 0.015632 0.012031 0.028618 0.104842 0.061741 0.024481 0.043696 0.002632 0.027539 -0.011216 -0.001366 0.022993 0.065031 0.033561 0.045725 0.030333 0.055996 0.026880 -0.004424 0.031877 0.043188 0.042807 0.040497 0.026965 0.003983 -0.007587 0.029245 0.008715 0.047536 0.075686 0.045070 0.026386 0.015171 0.002808 -0.005148 0.009453 0.004346 0.014271 -0.004718 0.082416 0.054616 0.036513 0.046190 0.003232 0.010514 0.009553 -0.003474 0.049794 0.069089 0.086338 0.047940 0.051157 -0.022810 0.014097 0.038751 0.068983 0.043186 0.034181 0.007288 0.001890 0.055787 0.049254 0.039944 0.060975 0.073073 0.053989 -0.022870 0.020017 0.042260 0.023462 0.043032 0.075963 0.075133 0.069377 0.017138 0.006429 0.017884 0.001690 0.022668 -0.017699 -0.027476 -0.012672 -0.047926 0.001627 -0.006204 0.007946 -0.074982 0.005297 0.011508 -0.002141 -0.040737 0.023959 -0.093373 -0.022513 -0.043097 0.034942 0.069075 -0.107311 -0.021387 0.033839 0.013657 -0.038533 0.046313 0.031017 -0.003334 -0.042905 0.076236 0.238086 0.200482 0.092088 0.027828 -0.671047
0.072396 0.073046 0.074995 0.078243 0.082788 0.088630 0.095766 0.104192 0.113906 0.124902 0.137173 0.150712 0.165507 0.181546 0.198815 0.217294 0.236962 0.257792 0.279754 0.302812 0.326926 0.352050 0.378128 0.405101 0.432902 0.461452 0.490668 0.520456 0.550711 0.581320 0.612158 0.643090 0.673970 0.704640 0.734931 0.764662 0.793641 0.821666 0.848524 0.873990 0.897831 0.919807 0.939669 0.957162 0.972028 0.984004 0.992831 0.998246 0.999996 0.997832 0.991516 0.980824 0.965549 0.945504 0.920529 0.890490 0.855289 0.814862 0.769189 0.718295 0.662254 0.601194 0.535301 0.464818 0.390056 0.311386 0.229251 0.144158 0.056683 0.032533 0.122783 0.213300 0.303261 0.391790 0.477971 0.560851 0.639453 0.712785 0.779859 0.839695 0.891346 0.933909 0.966541 0.988482 0.999070 0.997758 0.984133 0.957933 0.919066 0.867619 0.803873 0.728317 0.641646 0.544774 0.438828 0.325145 0.205264 0.080910 0.046023 0.173498 0.299362 0.421383 0.537289 0.644808 0.741717 0.825894 0.895363 0.948355 0.983353 0.999145 0.994871 0.970064 0.924689 0.859165 0.774390 0.671746 0.553093 0.420756 0.277491 0.126443 0.028916 0.184856 0.337476 0.482796 0.616870 0.735888 0.836299 0.914924 0.969073 0.996646 0.996234 0.967196 0.909721 0.824870 0.714583 0.581670 0.429763 0.263239 0.087112 0.093100 0.271544 0.442210 0.599142 0.736647 0.849519 0.933247 0.984223 0.999915 0.979020 0.921571 0.829000 0.704149 0.551221 0.375677 0.184069 0.016180 0.217048 0.410226 0.587459 0.740916 0.863543 0.949418 0.994066 0.994727 0.950558 0.862754 0.734585 0.571319 0.380066 0.169498 0.050508 0.269316 0.476032 0.660058 0.811643 0.922428 0.985954 0.998068 0.957255 0.864815 0.724909 0.544438 0.332765 0.101271 0.137211 0.369099 0.580821 0.759625 0.894378 0.976300 0.999586 0.961888 0.864578 0.712807 0.515312 0.283985 0.033215 0.220969 0.461905 0.673383 0.840776 0.952077 0.998834 0.976859 0.886670 0.733625 0.527695 0.282908 0.016463 0.252440 0.503953 0.719054 0.881020 0.976783 0.998062 0.942167 0.812399 0.617975 0.373494 0.097921 0.186815 0.457533 0.691687 0.869272 0.974602 0.997780 0.935732 0.792689 0.580048 0.315577 0.022033 0.274714 0.547961 0.772559 0.927288 0.996948 0.973964 0.859330 0.662766 0.402049 0.101521 0.210085 0.502359 0.746169 0.916626 0.995710 0.974299 0.853369 0.644165 0.367343 0.051040 0.271862 0.567130 0.802821 0.952795 0.999733 0.937291 0.771102 0.518470 0.206747 0.129502 0.452250 0.724293 0.913591 0.997156 0.963986 0.816702 0.571585 0.256979 0.089826 0.426925 0.712839 0.911653 0.997658 0.958841 0.798762 0.536489 0.204550 0.154938 0.495521 0.772400 0.948380 0.999029 0.916260 0.709828 0.406450 0.046558 0.320938 0.645226 0.880644 0.993236 0.965839 0.800933 0.520757 0.164569 0.216663 0.567459 0.835885 0.981351 0.980950 0.833305 0.559285 0.199338 0.192255 0.555449 0.833634 0.982549 0.977557 0.817973 0.527722 0.152062 0.249254 0.611360 0.874766 0.995264 0.951596 0.749502 0.421342 0.021235 0.383654 0.724320 0.941698 0.997133 0.879521 0.607846 0.228503 0.192364 0.580209 0.865274 0.995291 0.945314 0.722859 0.367203 0.057196 0.472184 0.800185 0.978845 0.973119 0.782497 0.441813 0.015266 0.415407 0.766481 0.968618 0.980780 0.798957 0.457682 0.023914 0.415832 0.772606 0.973099 0.974970 0.776190 0.416244 0.031278 0.473424 0.817109 0.988783 0.950521 0.708808 0.313990 0.149753 0.582121
1.000000 1.000000 1.000000 1.000000 1.000000 1.000000 1.000000 1.000000 1.000000 1.000000 1.000000 1.000000 1.000000 1.000000 1.000000 1.000000 1.000000 1.000000 1.000000 1.000000 1.000000 1.000000 1.000000 1.000000 1.000000 1.000000 1.000000 1.000000 1.000000 1.000000 1.000000 1.000000 1.000000 1.000000 1.000000 1.000000 1.000000 1.000000 1.000000 1.000000 1.000000 1.000000 1.000000 1.000000 1.000000 1.000000 1.000000 1.000000 1.000000 1.000000 1.000000 1.000000 0.933185 0.933185 0.933185 0.933185 0.933185 0.933185 0.933185 0.933185 0.933185 0.933185 0.933185 0.933185 0.933185 0.933185 0.933185 0.933185 0.933185 0.933185 0.933185 0.933185 0.933185 0.933185 0.933185 0.933185 0.933185 0.933185 0.933185 0.933185 0.933185 0.933185 0.933185 0.933185 0.933185 0.922465 0.923951 0.926918 0.927987 0.927947 0.927491 0.927177 0.927398 0.929114 0.931433 0.948037 0.950218 0.950789 0.952075 0.952315 0.954829 0.953083 0.952938 0.963483 0.962314 0.963034 0.956121 0.957684 0.956786 0.955868 0.956363 0.956593 0.954678 0.952547 0.950873 0.950244 0.949874 0.951638 0.952112 0.952085 0.953550 0.953522 0.953251 0.949922 0.948476 0.949940 0.951960 0.951101 0.956807 0.956643 0.964688 0.965490 0.964098 0.963996 0.964194 0.964390 0.955099 0.949025 0.943801 0.932249 0.923183 0.921040 0.923885 0.925760 0.924609 0.919874 0.918844 0.916240 0.911269 0.910427 0.909989 0.911541 0.907288 0.903613 0.887287 0.886446 0.888940 0.888635 0.886477 0.877947 0.872964 0.873676 0.876811 0.874307 0.870921 0.886962 0.882071 0.887085 0.890232 0.893308 0.897222 0.893290 0.892168 0.888365 0.884824 0.879438 0.880892 0.871807 0.874566 0.870030 0.861362 0.854493 0.857553 0.866561 0.874452 0.882451 0.881513 0.881443 0.880668 0.872793 0.873507 0.865384 0.866365 0.871293 0.877090 0.873298 0.870813 0.875069 0.873314 0.875383 0.878040 0.874089 0.872130 0.863462 0.863861 0.865218 0.881935 0.881688 0.869866 0.861445 0.852554 0.859837 0.863212 0.861906 0.863407 0.855958 0.857765 0.846987 0.833783 0.835045 0.839842 0.835711 0.837413 0.835528 0.839339 0.840952 0.839329 0.835060 0.833705 0.837867 0.815619 0.822170 0.824826 0.819014 0.823124 0.815658 0.809213 0.803908 0.803837 0.799247 0.809717 0.808040 0.774443 0.764816 0.772716 0.753703 0.744664 0.741097 0.742282 0.721924 0.704286 0.676507 0.671734 0.658024 0.660636 0.658943 0.652817 0.641431 0.627951 0.617815 0.632209 0.635458 0.600646 0.602525 0.596495 0.592617 0.587862 0.581893 0.579957 0.588793 0.594876 0.558955 0.553016 0.559705 0.533239 0.532376 0.529724 0.521996 0.493732 0.500377 0.496912 0.515223 0.556577 0.508213 0.502090 0.517457 0.531404 0.542774 0.542413 0.527825 0.508115 0.522753 0.498366 0.484792 0.500332 0.506919 0.497292 0.512546 0.501447 0.534444 0.526786 0.504263 0.528807 0.541353 0.540134 0.535198 0.548066 0.534156 0.536906 0.525747 0.479193 0.488369 0.470518 0.416869 0.415537 0.435823 0.424255 0.424499 0.396498 0.398142 0.371883 0.337198 0.346247 0.342163 0.304995 0.266051 0.268958 0.270830 0.240988 0.210913 0.232025 0.181567 0.174093 0.194843 0.205331 0.186189 0.192981 0.213649 0.213649 0.213649 0.213649 0.213649 0.213649 0.213649 0.213649 0.213649 0.213649 0.213649 0.213649 0.213649 0.213649 0.239120 0.239120 0.239120 0.239120 0.239120 0.239120 0.239120 0.239120 0.239120 0.239120 0.239120 0.239120
0.000000 0.000000 0.000000 0.000000 0.000000 0.000000 0.000000 0.000000 0.000000 0.000000 0.000000 0.000000 0.000000 0.000000 0.000000 0.000000 0.000000 0.000000 0.000000 0.000000 0.000000 0.000000 0.000000 0.000000 0.000000 0.000000 0.000000 0.000000 0.000000 0.000000 0.000000 0.000000 0.000000 0.000000 0.000000 0.000000 0.000000 0.000000 0.000000 0.000000 0.000000 0.000000 0.000000 0.000000 0.000000 0.000000 0.000000 0.000000 0.000000 0.000000 0.000000 0.000000 0.209657 0.209657 0.209657 0.209657 0.209657 0.209657 0.209657 0.209657 0.209657 0.209657 0.209657 0.209657 0.209657 0.209657 0.209657 0.209657 0.209657 0.209657 0.209657 0.209657 0.209657 0.209657 0.209657 0.209657 0.209657 0.209657 0.209657 0.209657 0.209657 0.209657 0.209657 0.209657 0.209657 0.244339 0.244339 0.244339 0.244339 0.244339 0.244339 0.244339 0.244339 0.244339 0.244339 0.244339 0.244339 0.244339 0.244339 0.244339 0.244339 0.244339 0.244339 0.244339 0.244339 0.244339 0.244339 0.244339 0.244339 0.244339 0.260378 0.260378 0.260378 0.260378 0.260378 0.260378 0.260378 0.260378 0.260378 0.260378 0.260378 0.260378 0.260378 0.260378 0.260378 0.260378 0.260378 0.260378 0.260378 0.260378 0.269680 0.269680 0.269680 0.269680 0.269680 0.269680 0.269680 0.269680 0.269680 0.269680 0.269680 0.269680 0.269680 0.269680 0.269680 0.269680 0.269680 0.269680 0.269680 0.269680 0.269680 0.269680 0.269680 0.269680 0.269680 0.269680 0.269680 0.269680 0.269680 0.269680 0.269680 0.269680 0.269680 0.280056 0.280056 0.280056 0.280056 0.280056 0.280056 0.280056 0.280056 0.280056 0.280056 0.280056 0.280056 0.280056 0.280056 0.280056 0.280056 0.280056 0.280056 0.280056 0.280056 0.280056 0.280056 0.280056 0.280056 0.280056 0.280056 0.280056 0.274721 0.274721 0.274721 0.274721 0.274721 0.274721 0.274721 0.274721 0.274721 0.274721 0.274721 0.274721 0.274721 0.285714 0.285714 0.285714 0.285714 0.285714 0.285714 0.285714 0.285714 0.285714 0.285714 0.285714 0.280056 0.280056 0.280056 0.280056 0.280056 0.280056 0.280056 0.280056 0.280056 0.280056 0.280056 0.274721 0.274721 0.274721 0.274721 0.274721 0.274721 0.274721 0.274721 0.274721 0.274721 0.274721 0.280056 0.280056 0.280056 0.280056 0.280056 0.280056 0.280056 0.280056 0.280056 0.280056 0.285714 0.285714 0.285714 0.285714 0.285714 0.285714 0.285714 0.285714 0.285714 0.269680 0.269680 0.269680 0.269680 0.269680 0.269680 0.269680 0.269680 0.269680 0.269680 0.274721 0.274721 0.274721 0.274721 0.274721 0.274721 0.274721 0.274721 0.274721 0.285714 0.285714 0.285714 0.285714 0.285714 0.285714 0.285714 0.285714 0.264906 0.264906 0.264906 0.264906 0.264906 0.264906 0.264906 0.264906 0.264906 0.274721 0.274721 0.274721 0.274721 0.274721 0.274721 0.274721 0.274721 0.269680 0.269680 0.269680 0.269680 0.269680 0.269680 0.269680 0.269680 0.269680 0.269680 0.269680 0.269680 0.269680 0.269680 0.269680 0.269680 0.280056 0.280056 0.280056 0.280056 0.280056 0.280056 0.280056 0.260378 0.260378 0.260378 0.260378 0.260378 0.260378 0.260378 0.260378 0.269680 0.269680 0.269680 0.269680 0.269680 0.269680 0.269680 0.264906 0.264906 0.264906 0.264906 0.264906 0.264906 0.264906 0.264906 0.264906 0.264906 0.264906 0.264906 0.264906 0.264906 0.260378 0.260378 0.260378 0.260378 0.260378 0.260378 0.260378 0.260378 0.260378 0.260378 0.260378 0.260378
