# Output from CTFFind version 4.1.9, run on 2019-11-02 17:49:41
# Input file: stack16_bm3d_averaged_1_1.0_0_2500_half.mrc ; Number of micrographs: 1
# Pixel size: 3.000 Angstroms ; acceleration voltage: 300.0 keV ; spherical aberration: 0.00 mm ; amplitude contrast: 0.07
# Box size: 512 pixels ; min. res.: 30.0 Angstroms ; max. res.: 5.0 Angstroms ; min. def.: 5000.0 um; max. def. 50000.0 um; num. frames averaged: 1
# 6 lines per micrograph: #1 - spatial frequency (1/Angstroms); #2 - 1D rotational average of spectrum (assuming no astigmatism); #3 - 1D rotational average of spectrum; #4 - CTF fit; #5 - cross-correlation between spectrum and CTF fit; #6 - 2sigma of expected cross correlation of noise
0.000000 0.000651 0.001302 0.001953 0.002604 0.003255 0.003906 0.004557 0.005208 0.005859 0.006510 0.007161 0.007812 0.008464 0.009115 0.009766 0.010417 0.011068 0.011719 0.012370 0.013021 0.013672 0.014323 0.014974 0.015625 0.016276 0.016927 0.017578 0.018229 0.018880 0.019531 0.020182 0.020833 0.021484 0.022135 0.022786 0.023438 0.024089 0.024740 0.025391 0.026042 0.026693 0.027344 0.027995 0.028646 0.029297 0.029948 0.030599 0.031250 0.031901 0.032552 0.033203 0.033854 0.034505 0.035156 0.035807 0.036458 0.037109 0.037760 0.038411 0.039062 0.039714 0.040365 0.041016 0.041667 0.042318 0.042969 0.043620 0.044271 0.044922 0.045573 0.046224 0.046875 0.047526 0.048177 0.048828 0.049479 0.050130 0.050781 0.051432 0.052083 0.052734 0.053385 0.054036 0.054688 0.055339 0.055990 0.056641 0.057292 0.057943 0.058594 0.059245 0.059896 0.060547 0.061198 0.061849 0.062500 0.063151 0.063802 0.064453 0.065104 0.065755 0.066406 0.067057 0.067708 0.068359 0.069010 0.069661 0.070312 0.070964 0.071615 0.072266 0.072917 0.073568 0.074219 0.074870 0.075521 0.076172 0.076823 0.077474 0.078125 0.078776 0.079427 0.080078 0.080729 0.081380 0.082031 0.082682 0.083333 0.083984 0.084635 0.085286 0.085938 0.086589 0.087240 0.087891 0.088542 0.089193 0.089844 0.090495 0.091146 0.091797 0.092448 0.093099 0.093750 0.094401 0.095052 0.095703 0.096354 0.097005 0.097656 0.098307 0.098958 0.099609 0.100260 0.100911 0.101562 0.102214 0.102865 0.103516 0.104167 0.104818 0.105469 0.106120 0.106771 0.107422 0.108073 0.108724 0.109375 0.110026 0.110677 0.111328 0.111979 0.112630 0.113281 0.113932 0.114583 0.115234 0.115885 0.116536 0.117188 0.117839 0.118490 0.119141 0.119792 0.120443 0.121094 0.121745 0.122396 0.123047 0.123698 0.124349 0.125000 0.125651 0.126302 0.126953 0.127604 0.128255 0.128906 0.129557 0.130208 0.130859 0.131510 0.132161 0.132812 0.133464 0.134115 0.134766 0.135417 0.136068 0.136719 0.137370 0.138021 0.138672 0.139323 0.139974 0.140625 0.141276 0.141927 0.142578 0.143229 0.143880 0.144531 0.145182 0.145833 0.146484 0.147135 0.147786 0.148438 0.149089 0.149740 0.150391 0.151042 0.151693 0.152344 0.152995 0.153646 0.154297 0.154948 0.155599 0.156250 0.156901 0.157552 0.158203 0.158854 0.159505 0.160156 0.160807 0.161458 0.162109 0.162760 0.163411 0.164062 0.164714 0.165365 0.166016 0.166667 0.167318 0.167969 0.168620 0.169271 0.169922 0.170573 0.171224 0.171875 0.172526 0.173177 0.173828 0.174479 0.175130 0.175781 0.176432 0.177083 0.177734 0.178385 0.179036 0.179688 0.180339 0.180990 0.181641 0.182292 0.182943 0.183594 0.184245 0.184896 0.185547 0.186198 0.186849 0.187500 0.188151 0.188802 0.189453 0.190104 0.190755 0.191406 0.192057 0.192708 0.193359 0.194010 0.194661 0.195312 0.195964 0.196615 0.197266 0.197917 0.198568 0.199219 0.199870 0.200521 0.201172 0.201823 0.202474 0.203125 0.203776 0.204427 0.205078 0.205729 0.206380 0.207031 0.207682 0.208333 0.208984 0.209635 0.210286 0.210938 0.211589 0.212240 0.212891 0.213542 0.214193 0.214844 0.215495 0.216146 0.216797 0.217448 0.218099 0.218750 0.219401 0.220052 0.220703 0.221354 0.222005 0.222656 0.223307 0.223958 0.224609 0.225260 0.225911 0.226562 0.227214 0.227865 0.228516 0.229167 0.229818 0.230469 0.231120 0.231771 0.232422 0.233073 0.233724 0.234375 0.235026 0.235677
       0.34374        0.34374        0.34374        0.34374        0.34374        0.34374        0.34374        0.34374        0.34374        0.34374        0.34374        0.34374        0.34374        0.34374        0.34374        0.34374        0.34374        0.34374        0.34374        0.34374        0.34374        0.34374        0.34374        0.34374        0.34374        0.34374        0.34374        0.34374        0.34374        0.34374        0.34374        0.34374        0.34374        0.34374        0.34374        0.34374        0.34374        0.34374        0.34374        0.34374        0.34374        0.34374        0.34374        0.34374        0.34374        0.34374        0.34374        0.34374        0.34374        0.34374        0.34374        0.48977        0.70414        0.45667       -0.10869       -0.41424       -0.57059       -0.65974       -0.74495       -0.76074       -0.86936       -0.91370       -0.76101       -0.92497       -0.87168       -1.02492       -1.09509       -0.98890       -0.96055       -0.88383       -0.86151       -0.75053       -0.64127       -0.49959       -0.42219       -0.21855       -0.11892       -0.02440        0.20296        0.24370        0.30969        0.38634        0.43934        0.51696        0.58192        0.59834        0.59346        0.50203        0.54718        0.48566        0.39143        0.32644        0.20815        0.17445        0.10174       -0.06254       -0.11362       -0.09165        0.01008       -0.01751        0.00993        0.02948        0.21006        0.21907        0.38997        0.45838        0.56337        0.70387        0.76364        0.72902        0.70901        0.70691        0.58657        0.54392        0.40057        0.27539        0.19505        0.14441        0.06684        0.02346        0.02417        0.06208        0.08049        0.27548        0.41834        0.50415        0.58731        0.63968        0.70687        0.66129        0.65192        0.67346        0.61119        0.48083        0.28456        0.23393        0.20466        0.13105        0.04786        0.09350        0.12051        0.25048        0.34160        0.41589        0.50319        0.54211        0.66401        0.60972        0.55522        0.50758        0.36520        0.20855        0.21070        0.15381        0.11575        0.11958        0.21312        0.25608        0.36366        0.44492        0.44008        0.56699        0.51361        0.44741        0.45389        0.38556        0.32376        0.27695        0.21851        0.23663        0.21180        0.21212        0.32523        0.45073        0.48989        0.48126        0.55229        0.49723        0.45717        0.39734        0.29266        0.22510        0.23343        0.24615        0.26714        0.27048        0.32662        0.44259        0.49871        0.48845        0.45840        0.41950        0.38794        0.36256        0.25094        0.23033        0.24861        0.29506        0.35448        0.36524        0.39566        0.40866        0.44537        0.37273        0.34778        0.31391        0.30542        0.26694        0.26029        0.31358        0.34791        0.41706        0.41843        0.39868        0.39478        0.40702        0.34962        0.28733        0.29224        0.27650        0.31065        0.36031        0.36598        0.41573        0.36175        0.36591        0.38937        0.34426        0.31338        0.28214        0.29522        0.33985        0.33291        0.32608        0.37659        0.39604        0.33688        0.35361        0.29690        0.30880        0.29078        0.28145        0.30236        0.33051        0.38391        0.36770        0.34935        0.33058        0.28801        0.27766        0.29826        0.28332        0.31438        0.37103        0.39520        0.33734        0.31781        0.31304        0.29850        0.28596        0.27942        0.29972        0.34198        0.33599        0.34693        0.32031        0.34560        0.32414        0.29028        0.31350        0.32095        0.33175        0.33392        0.31742        0.31547        0.30692        0.33177        0.31775        0.33773        0.39256        0.34030        0.36143        0.32191        0.31282        0.28846        0.31152        0.28962        0.31082        0.32077        0.35375        0.36565        0.31582        0.31938        0.31198        0.29769        0.29419        0.28916        0.33455        0.33934        0.35931        0.34064        0.32621        0.25830        0.26813        0.31280        0.35349        0.31546        0.29918        0.28816        0.29058        0.32598        0.30751        0.30406        0.33308        0.34292        0.31703        0.24621        0.28688        0.28631        0.28813        0.31932        0.32441        0.35036        0.34066        0.28134        0.26634        0.29427        0.26491        0.29081        0.27470        0.24703        0.26563        0.24826        0.27742        0.27928        0.27613        0.26965        0.31452        0.32896        0.31771        0.29431        0.30952        0.24718        0.27509        0.25585        0.33181        0.34397        0.23488        0.26123        0.28393        0.24988        0.24521        0.30146        0.23019        0.14071        0.16884        0.24255        0.27293        0.23434        0.15125        0.03431       -0.40006       -0.75895
3.061143 3.023103 2.985306 2.947754 2.910446 2.873383 2.836564 2.799989 2.763659 2.727573 2.691732 2.656134 2.620782 2.585673 2.550809 2.516189 2.481814 2.447683 2.413796 2.380154 2.346756 2.313602 2.280693 2.248028 2.215608 2.183432 2.151500 2.119812 2.088369 2.057171 2.026216 1.995506 1.965041 1.934819 1.904842 1.875110 1.845622 1.816378 1.787379 1.758623 1.730113 1.701846 1.673824 1.646047 1.618513 1.591224 1.564180 1.537380 1.510824 1.484512 1.458445 1.514804 1.705179 1.616489 0.971204 0.682896 0.478663 0.434488 0.322275 0.267248 0.201137 0.022691 0.196784 0.081885 -0.005567 -0.059557 -0.196222 -0.150666 -0.089389 -0.091617 -0.096805 0.010737 0.032567 0.233928 0.152021 0.365748 0.446282 0.476411 0.716526 0.701331 0.711402 0.840433 0.823555 0.855125 0.924752 0.896252 0.942367 0.753622 0.838047 0.841797 0.621738 0.610836 0.459030 0.439882 0.386123 0.208694 0.119007 0.100356 0.206779 0.145825 0.193205 0.111805 0.313819 0.288347 0.457533 0.416572 0.581900 0.647422 0.769112 0.694677 0.663817 0.672692 0.535740 0.505733 0.370447 0.295138 0.118784 0.147158 0.001140 -0.012263 -0.038099 -0.028683 -0.000493 0.036693 0.275723 0.331320 0.386563 0.395684 0.470829 0.522543 0.468594 0.507324 0.401397 0.390242 0.154770 0.066117 0.071786 -0.001561 -0.122831 -0.042025 -0.111506 0.016613 0.136635 0.156735 0.253983 0.258974 0.387918 0.456971 0.355668 0.388017 0.283341 0.126395 0.047888 0.051958 0.014339 0.002722 0.004727 0.107694 0.132380 0.266620 0.237916 0.305299 0.372019 0.239480 0.243500 0.219717 0.132480 0.081322 0.053682 0.024912 0.040028 -0.013814 0.029324 0.186187 0.219999 0.255741 0.281913 0.231007 0.238793 0.150493 0.105444 -0.024865 -0.014488 -0.006992 0.017949 0.006359 0.027989 0.105888 0.185636 0.203667 0.218247 0.138494 0.146601 0.079729 0.056608 -0.056392 -0.012471 -0.006669 0.054164 0.065609 0.080750 0.156376 0.084472 0.165331 0.068167 0.052471 0.044896 0.027604 0.001705 0.010681 0.056080 0.084591 0.133317 0.141267 0.072377 0.130549 0.098837 0.016688 0.007100 0.004731 -0.005784 0.057027 0.059487 0.097793 0.098356 0.068919 0.068739 0.081109 0.031390 0.011097 -0.009908 0.009885 0.060214 0.025512 0.039523 0.074549 0.089298 0.055502 0.033070 0.006452 0.014180 -0.005640 -0.014802 0.014382 0.051032 0.095342 0.066374 0.059112 0.039840 -0.013861 -0.001113 0.013805 0.009705 0.025675 0.104059 0.062853 0.019798 0.043338 0.002596 0.024707 -0.010680 -0.006294 0.022262 0.063778 0.029805 0.045231 0.029270 0.050678 0.024771 -0.005745 0.023496 0.040916 0.033239 0.026433 0.036151 0.011144 0.002037 0.035683 0.018001 0.049463 0.082698 0.047892 0.018062 0.009850 -0.009742 -0.012765 -0.001365 -0.008966 0.002318 -0.011691 0.064743 0.038684 0.012141 0.021122 -0.019762 -0.006924 -0.009721 -0.025654 0.034802 0.041880 0.064665 0.030643 0.027746 -0.049651 -0.006797 0.012938 0.047572 0.017301 0.014218 -0.011343 -0.016590 0.033328 0.026053 0.014370 0.048965 0.059841 0.048734 -0.031834 0.005716 0.036377 0.013494 0.035993 0.075129 0.084924 0.074689 0.022577 0.011253 0.023628 0.005362 0.031906 -0.018718 -0.029218 -0.012601 -0.046174 -0.003691 -0.007777 0.003969 -0.071094 -0.001404 0.015593 0.002149 -0.032075 0.028925 -0.093145 -0.015377 -0.039393 0.032348 0.068022 -0.099785 -0.012544 0.046757 0.015605 -0.040558 0.047930 0.031118 -0.006671 -0.041093 0.066896 0.236513 0.211905 0.113868 0.032877 -0.666874
0.072396 0.073046 0.074995 0.078243 0.082789 0.088631 0.095768 0.104195 0.113910 0.124907 0.137179 0.150719 0.165516 0.181557 0.198827 0.217308 0.236977 0.257809 0.279773 0.302833 0.326950 0.352075 0.378156 0.405131 0.432933 0.461486 0.490705 0.520494 0.550751 0.581362 0.612202 0.643136 0.674017 0.704688 0.734979 0.764710 0.793690 0.821714 0.848571 0.874035 0.897875 0.919848 0.939706 0.957195 0.972056 0.984027 0.992846 0.998255 0.999996 0.997823 0.991496 0.980793 0.965506 0.945448 0.920459 0.890406 0.855189 0.814746 0.769057 0.718146 0.662088 0.601012 0.535101 0.464602 0.389823 0.311140 0.228990 0.143885 0.056399 0.032826 0.123082 0.213603 0.303565 0.392092 0.478267 0.561137 0.639726 0.713041 0.780093 0.839904 0.891525 0.934053 0.966647 0.988547 0.999089 0.997728 0.984052 0.957800 0.918878 0.867377 0.803577 0.727968 0.641246 0.544328 0.438339 0.324620 0.204709 0.080333 0.046613 0.174091 0.299948 0.421952 0.537828 0.645306 0.742163 0.826276 0.895671 0.948579 0.983483 0.999175 0.994796 0.969880 0.924395 0.858763 0.773884 0.671143 0.552403 0.419992 0.276669 0.125579 0.029802 0.185741 0.338337 0.483611 0.617614 0.736538 0.836833 0.915324 0.969321 0.996730 0.996144 0.966927 0.909276 0.824254 0.713810 0.580758 0.428737 0.262126 0.085945 0.094283 0.272704 0.443307 0.600135 0.737497 0.850191 0.933711 0.984454 0.999897 0.978745 0.921041 0.828226 0.703153 0.550035 0.374343 0.182636 0.017658 0.218509 0.411608 0.588701 0.741959 0.864336 0.949918 0.994240 0.994558 0.950043 0.861906 0.733433 0.569911 0.378460 0.167769 0.052281 0.271045 0.477632 0.661439 0.812729 0.923154 0.986270 0.997947 0.956690 0.863824 0.723535 0.542747 0.330843 0.099223 0.139274 0.371056 0.582551 0.761023 0.895349 0.976772 0.999520 0.961272 0.863437 0.711199 0.513328 0.281742 0.030853 0.223297 0.464042 0.675182 0.842106 0.952834 0.998952 0.976313 0.885485 0.731866 0.525477 0.280381 0.013803 0.255038 0.506294 0.720954 0.882324 0.977377 0.997882 0.941211 0.810722 0.615697 0.370782 0.094986 0.189737 0.460202 0.693874 0.870780 0.975289 0.997567 0.934619 0.790753 0.577441 0.312514 0.018784 0.277867 0.550727 0.774674 0.928542 0.997207 0.973182 0.857557 0.660154 0.398829 0.097998 0.213575 0.505470 0.748582 0.918084 0.996044 0.973455 0.851406 0.641269 0.363792 0.047203 0.275586 0.570343 0.805162 0.953992 0.999632 0.935880 0.768509 0.514965 0.202707 0.133624 0.455982 0.727195 0.915313 0.997470 0.962829 0.814183 0.567980 0.252708 0.094255 0.430978 0.715999 0.913514 0.997961 0.957520 0.795953 0.532530 0.199928 0.159632 0.499673 0.775454 0.949908 0.998802 0.914275 0.706326 0.401882 0.041531 0.325732 0.649114 0.883067 0.993824 0.964477 0.797781 0.516242 0.159325 0.221885 0.571889 0.838850 0.982387 0.979867 0.830233 0.554657 0.193840 0.197793 0.560167 0.836778 0.983604 0.976319 0.814602 0.522727 0.146219 0.255013 0.616089 0.877670 0.995834 0.949703 0.745422 0.415730 0.015018 0.389430 0.728645 0.943810 0.996630 0.876450 0.602709 0.222177 0.198769 0.585547 0.868571 0.995915 0.943108 0.718188 0.360893 0.064004 0.478219 0.804302 0.980242 0.971488 0.778103 0.435457 0.008156 0.421900 0.771082 0.970391 0.979335 0.794531 0.451123 0.016508 0.422599 0.777341 0.974808 0.973257 0.771362 0.409267 0.038979 0.480238 0.821575 0.989923 0.948043 0.703194 0.306411 0.157676 0.588659
1.000000 1.000000 1.000000 1.000000 1.000000 1.000000 1.000000 1.000000 1.000000 1.000000 1.000000 1.000000 1.000000 1.000000 1.000000 1.000000 1.000000 1.000000 1.000000 1.000000 1.000000 1.000000 1.000000 1.000000 1.000000 1.000000 1.000000 1.000000 1.000000 1.000000 1.000000 1.000000 1.000000 1.000000 1.000000 1.000000 1.000000 1.000000 1.000000 1.000000 1.000000 1.000000 1.000000 1.000000 1.000000 1.000000 1.000000 1.000000 1.000000 1.000000 1.000000 1.000000 0.934527 0.934527 0.934527 0.934527 0.934527 0.934527 0.934527 0.934527 0.934527 0.934527 0.934527 0.934527 0.934527 0.934527 0.934527 0.934527 0.934527 0.934527 0.934527 0.934527 0.934527 0.934527 0.934527 0.934527 0.934527 0.934527 0.934527 0.934527 0.934527 0.934527 0.934527 0.934527 0.934527 0.924222 0.925677 0.928573 0.929616 0.929579 0.929139 0.928839 0.929062 0.929964 0.932253 0.948793 0.950261 0.950832 0.952111 0.952348 0.954855 0.953111 0.953024 0.963550 0.962402 0.963137 0.956279 0.957817 0.956941 0.956040 0.956515 0.956725 0.954832 0.952724 0.951069 0.950452 0.950088 0.951849 0.952321 0.952305 0.953759 0.953742 0.953480 0.950192 0.948717 0.950175 0.952167 0.951297 0.956996 0.956838 0.964887 0.965708 0.964339 0.964229 0.964428 0.964622 0.954653 0.948129 0.942701 0.931115 0.921890 0.919976 0.922893 0.924738 0.923543 0.918984 0.917922 0.915247 0.910325 0.909484 0.909186 0.910719 0.907352 0.903827 0.887651 0.887461 0.889852 0.889106 0.886826 0.878552 0.873899 0.874491 0.877647 0.875129 0.871725 0.887563 0.882802 0.887782 0.890808 0.893941 0.897857 0.893816 0.893066 0.889491 0.885849 0.881071 0.882673 0.870027 0.872789 0.867735 0.858609 0.851502 0.854492 0.863628 0.871384 0.879258 0.878243 0.878285 0.877518 0.871114 0.872081 0.864375 0.865494 0.870645 0.876565 0.872846 0.869999 0.874279 0.872550 0.874375 0.876636 0.872841 0.871117 0.862079 0.862157 0.865088 0.881586 0.882039 0.871063 0.863020 0.852922 0.859790 0.862590 0.861662 0.863520 0.854091 0.855321 0.844128 0.832922 0.833692 0.838369 0.836754 0.839800 0.837512 0.841129 0.842314 0.840511 0.835782 0.834311 0.842067 0.816507 0.823554 0.826569 0.822109 0.826127 0.817516 0.811666 0.806044 0.805717 0.800460 0.809628 0.808319 0.774863 0.762507 0.770061 0.756225 0.747568 0.743016 0.742703 0.704014 0.684899 0.655471 0.651404 0.639984 0.639070 0.642611 0.636493 0.616569 0.603707 0.598541 0.615096 0.617522 0.588211 0.590101 0.585081 0.580582 0.575218 0.574260 0.575447 0.579918 0.584582 0.551432 0.545675 0.548177 0.520684 0.521678 0.520486 0.509448 0.478499 0.483089 0.477277 0.496665 0.536092 0.494540 0.488234 0.499388 0.514212 0.525490 0.523789 0.511057 0.494292 0.504423 0.480022 0.461081 0.477495 0.489697 0.479079 0.491468 0.482817 0.511286 0.505384 0.497031 0.522712 0.535422 0.532510 0.525899 0.539649 0.529474 0.532394 0.516131 0.474047 0.482420 0.467165 0.409680 0.400666 0.417778 0.402746 0.400227 0.373082 0.376959 0.349343 0.316437 0.323683 0.317767 0.280159 0.247914 0.251336 0.253037 0.221952 0.193217 0.215899 0.166545 0.160562 0.180493 0.188094 0.173535 0.175843 0.198641 0.198641 0.198641 0.198641 0.198641 0.198641 0.198641 0.198641 0.198641 0.198641 0.198641 0.198641 0.198641 0.198641 0.223704 0.223704 0.223704 0.223704 0.223704 0.223704 0.223704 0.223704 0.223704 0.223704 0.223704 0.223704
0.000000 0.000000 0.000000 0.000000 0.000000 0.000000 0.000000 0.000000 0.000000 0.000000 0.000000 0.000000 0.000000 0.000000 0.000000 0.000000 0.000000 0.000000 0.000000 0.000000 0.000000 0.000000 0.000000 0.000000 0.000000 0.000000 0.000000 0.000000 0.000000 0.000000 0.000000 0.000000 0.000000 0.000000 0.000000 0.000000 0.000000 0.000000 0.000000 0.000000 0.000000 0.000000 0.000000 0.000000 0.000000 0.000000 0.000000 0.000000 0.000000 0.000000 0.000000 0.000000 0.209657 0.209657 0.209657 0.209657 0.209657 0.209657 0.209657 0.209657 0.209657 0.209657 0.209657 0.209657 0.209657 0.209657 0.209657 0.209657 0.209657 0.209657 0.209657 0.209657 0.209657 0.209657 0.209657 0.209657 0.209657 0.209657 0.209657 0.209657 0.209657 0.209657 0.209657 0.209657 0.209657 0.244339 0.244339 0.244339 0.244339 0.244339 0.244339 0.244339 0.244339 0.244339 0.244339 0.244339 0.244339 0.244339 0.244339 0.244339 0.244339 0.244339 0.244339 0.244339 0.244339 0.244339 0.244339 0.244339 0.244339 0.244339 0.260378 0.260378 0.260378 0.260378 0.260378 0.260378 0.260378 0.260378 0.260378 0.260378 0.260378 0.260378 0.260378 0.260378 0.260378 0.260378 0.260378 0.260378 0.260378 0.260378 0.269680 0.269680 0.269680 0.269680 0.269680 0.269680 0.269680 0.269680 0.269680 0.269680 0.269680 0.269680 0.269680 0.269680 0.269680 0.269680 0.269680 0.269680 0.269680 0.269680 0.269680 0.269680 0.269680 0.269680 0.269680 0.269680 0.269680 0.269680 0.269680 0.269680 0.269680 0.269680 0.269680 0.280056 0.280056 0.280056 0.280056 0.280056 0.280056 0.280056 0.280056 0.280056 0.280056 0.280056 0.280056 0.280056 0.280056 0.280056 0.280056 0.280056 0.280056 0.280056 0.280056 0.280056 0.280056 0.280056 0.280056 0.280056 0.280056 0.280056 0.274721 0.274721 0.274721 0.274721 0.274721 0.274721 0.274721 0.274721 0.274721 0.274721 0.274721 0.274721 0.274721 0.285714 0.285714 0.285714 0.285714 0.285714 0.285714 0.285714 0.285714 0.285714 0.285714 0.285714 0.280056 0.280056 0.280056 0.280056 0.280056 0.280056 0.280056 0.280056 0.280056 0.280056 0.280056 0.274721 0.274721 0.274721 0.274721 0.274721 0.274721 0.274721 0.274721 0.274721 0.274721 0.274721 0.280056 0.280056 0.280056 0.280056 0.280056 0.280056 0.280056 0.280056 0.280056 0.280056 0.285714 0.285714 0.285714 0.285714 0.285714 0.285714 0.285714 0.285714 0.285714 0.269680 0.269680 0.269680 0.269680 0.269680 0.269680 0.269680 0.269680 0.269680 0.269680 0.274721 0.274721 0.274721 0.274721 0.274721 0.274721 0.274721 0.274721 0.274721 0.285714 0.285714 0.285714 0.285714 0.285714 0.285714 0.285714 0.285714 0.264906 0.264906 0.264906 0.264906 0.264906 0.264906 0.264906 0.264906 0.264906 0.274721 0.274721 0.274721 0.274721 0.274721 0.274721 0.274721 0.274721 0.269680 0.269680 0.269680 0.269680 0.269680 0.269680 0.269680 0.269680 0.269680 0.269680 0.269680 0.269680 0.269680 0.269680 0.269680 0.269680 0.280056 0.280056 0.280056 0.280056 0.280056 0.280056 0.280056 0.260378 0.260378 0.260378 0.260378 0.260378 0.260378 0.260378 0.260378 0.269680 0.269680 0.269680 0.269680 0.269680 0.269680 0.269680 0.264906 0.264906 0.264906 0.264906 0.264906 0.264906 0.264906 0.264906 0.264906 0.264906 0.264906 0.264906 0.264906 0.264906 0.260378 0.260378 0.260378 0.260378 0.260378 0.260378 0.260378 0.260378 0.260378 0.260378 0.260378 0.260378
