# Output from CTFFind version 4.1.9, run on 2019-11-03 20:03:53
# Input file: stack6_bm3d_averaged_1_6.5_0_250_half.mrc ; Number of micrographs: 1
# Pixel size: 3.000 Angstroms ; acceleration voltage: 300.0 keV ; spherical aberration: 0.00 mm ; amplitude contrast: 0.07
# Box size: 512 pixels ; min. res.: 30.0 Angstroms ; max. res.: 5.0 Angstroms ; min. def.: 5000.0 um; max. def. 50000.0 um; num. frames averaged: 1
# 6 lines per micrograph: #1 - spatial frequency (1/Angstroms); #2 - 1D rotational average of spectrum (assuming no astigmatism); #3 - 1D rotational average of spectrum; #4 - CTF fit; #5 - cross-correlation between spectrum and CTF fit; #6 - 2sigma of expected cross correlation of noise
0.000000 0.000651 0.001302 0.001953 0.002604 0.003255 0.003906 0.004557 0.005208 0.005859 0.006510 0.007161 0.007812 0.008464 0.009115 0.009766 0.010417 0.011068 0.011719 0.012370 0.013021 0.013672 0.014323 0.014974 0.015625 0.016276 0.016927 0.017578 0.018229 0.018880 0.019531 0.020182 0.020833 0.021484 0.022135 0.022786 0.023438 0.024089 0.024740 0.025391 0.026042 0.026693 0.027344 0.027995 0.028646 0.029297 0.029948 0.030599 0.031250 0.031901 0.032552 0.033203 0.033854 0.034505 0.035156 0.035807 0.036458 0.037109 0.037760 0.038411 0.039062 0.039714 0.040365 0.041016 0.041667 0.042318 0.042969 0.043620 0.044271 0.044922 0.045573 0.046224 0.046875 0.047526 0.048177 0.048828 0.049479 0.050130 0.050781 0.051432 0.052083 0.052734 0.053385 0.054036 0.054688 0.055339 0.055990 0.056641 0.057292 0.057943 0.058594 0.059245 0.059896 0.060547 0.061198 0.061849 0.062500 0.063151 0.063802 0.064453 0.065104 0.065755 0.066406 0.067057 0.067708 0.068359 0.069010 0.069661 0.070312 0.070964 0.071615 0.072266 0.072917 0.073568 0.074219 0.074870 0.075521 0.076172 0.076823 0.077474 0.078125 0.078776 0.079427 0.080078 0.080729 0.081380 0.082031 0.082682 0.083333 0.083984 0.084635 0.085286 0.085938 0.086589 0.087240 0.087891 0.088542 0.089193 0.089844 0.090495 0.091146 0.091797 0.092448 0.093099 0.093750 0.094401 0.095052 0.095703 0.096354 0.097005 0.097656 0.098307 0.098958 0.099609 0.100260 0.100911 0.101562 0.102214 0.102865 0.103516 0.104167 0.104818 0.105469 0.106120 0.106771 0.107422 0.108073 0.108724 0.109375 0.110026 0.110677 0.111328 0.111979 0.112630 0.113281 0.113932 0.114583 0.115234 0.115885 0.116536 0.117188 0.117839 0.118490 0.119141 0.119792 0.120443 0.121094 0.121745 0.122396 0.123047 0.123698 0.124349 0.125000 0.125651 0.126302 0.126953 0.127604 0.128255 0.128906 0.129557 0.130208 0.130859 0.131510 0.132161 0.132812 0.133464 0.134115 0.134766 0.135417 0.136068 0.136719 0.137370 0.138021 0.138672 0.139323 0.139974 0.140625 0.141276 0.141927 0.142578 0.143229 0.143880 0.144531 0.145182 0.145833 0.146484 0.147135 0.147786 0.148438 0.149089 0.149740 0.150391 0.151042 0.151693 0.152344 0.152995 0.153646 0.154297 0.154948 0.155599 0.156250 0.156901 0.157552 0.158203 0.158854 0.159505 0.160156 0.160807 0.161458 0.162109 0.162760 0.163411 0.164062 0.164714 0.165365 0.166016 0.166667 0.167318 0.167969 0.168620 0.169271 0.169922 0.170573 0.171224 0.171875 0.172526 0.173177 0.173828 0.174479 0.175130 0.175781 0.176432 0.177083 0.177734 0.178385 0.179036 0.179688 0.180339 0.180990 0.181641 0.182292 0.182943 0.183594 0.184245 0.184896 0.185547 0.186198 0.186849 0.187500 0.188151 0.188802 0.189453 0.190104 0.190755 0.191406 0.192057 0.192708 0.193359 0.194010 0.194661 0.195312 0.195964 0.196615 0.197266 0.197917 0.198568 0.199219 0.199870 0.200521 0.201172 0.201823 0.202474 0.203125 0.203776 0.204427 0.205078 0.205729 0.206380 0.207031 0.207682 0.208333 0.208984 0.209635 0.210286 0.210938 0.211589 0.212240 0.212891 0.213542 0.214193 0.214844 0.215495 0.216146 0.216797 0.217448 0.218099 0.218750 0.219401 0.220052 0.220703 0.221354 0.222005 0.222656 0.223307 0.223958 0.224609 0.225260 0.225911 0.226562 0.227214 0.227865 0.228516 0.229167 0.229818 0.230469 0.231120 0.231771 0.232422 0.233073 0.233724 0.234375 0.235026 0.235677
       0.32663        0.32663        0.32663        0.32663        0.32663        0.32663        0.32663        0.32663        0.32663        0.32663        0.32663        0.32663        0.32663        0.32663        0.32663        0.32663        0.32663        0.32663        0.32663        0.32663        0.32663        0.32663        0.32663        0.32663        0.32663        0.32663        0.32663        0.32663        0.32663        0.32663        0.32663        0.32663        0.32663        0.32663        0.32663        0.32663        0.32663        0.32663        0.32663        0.32663        0.32663        0.32663        0.32663        0.32663        0.32663        0.32663        0.32663        0.32663        0.32663        0.32663        0.32663        0.59734        0.71300        0.36285        0.17564        0.13622       -0.13427        0.11176        0.03813        0.04071        0.09309        0.30884        0.31204        0.23939        0.14318       -0.03797       -0.01103        0.04906       -0.10033       -0.10707       -0.07283       -0.08251       -0.18707       -0.12050       -0.23128       -0.25009       -0.24669       -0.30712       -0.38048       -0.31198       -0.21968       -0.18681       -0.29195       -0.21379       -0.25849       -0.19984       -0.13451       -0.07767       -0.04718        0.01235        0.05663        0.14415        0.18601        0.22749        0.34407        0.41012        0.35948        0.47672        0.54570        0.55423        0.63290        0.55971        0.58963        0.60186        0.60596        0.60172        0.55795        0.59014        0.54419        0.39485        0.34650        0.37461        0.34441        0.20697        0.19174        0.16332        0.10812        0.10852        0.03308        0.09516        0.07561        0.03855        0.12320        0.18034        0.27093        0.35203        0.36000        0.38825        0.44845        0.48398        0.42011        0.64258        0.54701        0.48221        0.57120        0.50133        0.55201        0.51348        0.38367        0.32107        0.30366        0.25602        0.24586        0.21002        0.19094        0.16441        0.25119        0.22981        0.25703        0.22587        0.27336        0.33251        0.33826        0.44903        0.44316        0.42528        0.41854        0.47725        0.43540        0.42125        0.40282        0.40014        0.33719        0.28479        0.26853        0.26413        0.26344        0.20944        0.19145        0.24418        0.25828        0.28495        0.35080        0.37919        0.42483        0.40927        0.42985        0.48044        0.46774        0.42960        0.38632        0.41708        0.37661        0.32840        0.33700        0.32542        0.26697        0.28147        0.27874        0.25033        0.31751        0.29357        0.31195        0.33265        0.39274        0.41811        0.41083        0.43920        0.38588        0.42734        0.39895        0.32312        0.29611        0.26363        0.27805        0.24608        0.21808        0.30823        0.36810        0.33232        0.30496        0.35999        0.28258        0.34134        0.39586        0.38372        0.36455        0.38188        0.34140        0.35940        0.33624        0.30051        0.28614        0.25941        0.31251        0.32508        0.34113        0.35837        0.38618        0.37248        0.37264        0.32587        0.35356        0.35725        0.33946        0.32806        0.29365        0.28870        0.26505        0.33698        0.33534        0.34004        0.31007        0.34458        0.35905        0.33677        0.35481        0.34258        0.30875        0.30387        0.30535        0.27634        0.26431        0.25480        0.25085        0.27075        0.26189        0.30183        0.28089        0.31984        0.34911        0.26312        0.29698        0.28138        0.23560        0.28949        0.27201        0.27235        0.29964        0.32221        0.32222        0.31217        0.31137        0.30790        0.34202        0.35201        0.29780        0.32558        0.31895        0.36876        0.28309        0.27579        0.28525        0.30851        0.32850        0.35370        0.35693        0.30099        0.23325        0.29685        0.26074        0.25545        0.25694        0.26441        0.29905        0.23060        0.30189        0.32537        0.36251        0.31478        0.30559        0.27134        0.29156        0.29064        0.25408        0.27678        0.27268        0.29541        0.34819        0.33929        0.28868        0.31083        0.33076        0.26352        0.23265        0.18652        0.32191        0.33341        0.35279        0.33425        0.29785        0.23205        0.21626        0.26344        0.26296        0.26544        0.28357        0.29012        0.24284        0.26885        0.26404        0.30653        0.27399        0.26912        0.26889        0.25140        0.20814        0.26675        0.24578        0.21937        0.27487        0.25141        0.26065        0.22018        0.20427        0.27156        0.27437        0.26146        0.18321        0.14902        0.30974        0.22544        0.23643        0.27576        0.17088        0.16490        0.18658        0.25202        0.25642        0.12162       -0.07967       -0.59336       -0.94854
2.384435 2.364195 2.344045 2.323985 2.304015 2.284134 2.264344 2.244644 2.225034 2.205514 2.186084 2.166743 2.147493 2.128333 2.109263 2.090283 2.071393 2.052592 2.033882 2.015262 1.996732 1.978292 1.959942 1.941681 1.923511 1.905431 1.887441 1.869541 1.851730 1.834010 1.816380 1.798840 1.781389 1.764029 1.746759 1.729579 1.712489 1.695488 1.678578 1.661758 1.645028 1.628387 1.611837 1.595377 1.579007 1.562726 1.546536 1.530436 1.514426 1.498505 1.482675 1.842315 2.179507 1.510788 1.329557 1.096110 0.521382 0.926149 0.811768 0.840871 0.702421 1.406007 1.197437 1.213048 0.982009 0.609352 0.476295 0.748327 0.591826 0.271609 0.281879 0.485560 0.240202 0.260262 0.110789 -0.001156 -0.015251 -0.008759 -0.313009 -0.154169 0.008053 -0.008136 -0.087310 -0.015582 -0.114006 -0.095848 0.067083 0.185854 0.251507 0.279152 0.375798 0.620461 0.557333 0.652542 0.825782 1.047638 0.801316 1.244372 1.181537 1.255211 1.357323 1.252769 1.167602 1.353869 1.225905 1.346937 1.191772 1.173829 1.210822 0.959194 0.693908 0.742211 0.789552 0.483918 0.430689 0.367198 0.227078 0.196853 0.038298 0.214630 0.167200 0.045490 0.127083 0.231101 0.352968 0.608113 0.606778 0.604767 0.696272 0.878910 0.588044 1.025196 1.041081 0.769126 0.923881 0.764187 0.867775 0.904647 0.636359 0.399302 0.422930 0.367962 0.219471 0.221066 0.167445 -0.012759 0.234442 0.205969 0.254513 0.143415 0.255403 0.331372 0.282156 0.499298 0.600509 0.539919 0.362866 0.658336 0.556004 0.440119 0.529244 0.439835 0.283519 0.323728 0.130144 0.207314 0.030680 0.213360 -0.060406 0.057103 0.058258 0.255752 0.063745 0.395562 0.342682 0.397638 0.387579 0.410875 0.578768 0.407359 0.361593 0.414508 0.207541 0.347907 0.124527 0.269063 0.070075 0.101504 0.089200 0.071910 0.049028 0.161177 0.065505 0.157088 0.242156 0.284206 0.334973 0.268199 0.347290 0.263586 0.295083 0.179540 0.103038 0.024360 -0.010762 0.020331 -0.074638 -0.064664 0.121614 0.214701 0.064102 0.111309 0.118711 0.012412 0.182398 0.250740 0.189648 0.199188 0.135359 0.158963 0.113604 0.104771 0.050432 -0.082505 -0.012605 0.139911 0.036513 0.147034 0.126228 0.224671 0.196054 0.172798 0.113847 0.190694 0.104915 0.136928 0.105933 0.032237 -0.009116 0.000167 0.134362 0.130285 0.122350 0.059697 0.153526 0.141420 0.055447 0.141751 0.049655 -0.007075 0.026457 0.005430 -0.055673 -0.065550 -0.111530 -0.043477 -0.056044 -0.088513 0.017995 -0.019674 0.062112 0.092262 -0.092103 0.041164 -0.047641 -0.106724 0.040678 -0.042825 -0.066729 0.038991 0.091042 0.031186 0.061442 -0.038626 0.037901 0.170585 0.003053 -0.029839 0.088901 0.043205 0.123087 -0.084409 -0.043106 -0.018691 0.066302 0.050775 0.086440 0.142499 -0.024473 -0.100281 0.009802 -0.061691 -0.064503 -0.049368 -0.056954 0.033341 -0.173131 0.113899 0.098138 0.181895 0.038502 0.021065 0.008776 0.026057 0.077623 -0.051941 0.029710 0.005078 0.075555 0.127044 0.172769 0.052059 0.133510 0.177762 -0.038864 -0.002801 -0.157291 0.209596 0.149128 0.200152 0.155665 0.048686 -0.053032 -0.085409 -0.008485 0.004394 -0.005683 0.036691 0.065187 -0.064607 0.002067 0.074701 0.084122 0.050063 0.029435 0.060163 -0.058235 -0.039342 0.040517 -0.000987 -0.074631 0.086152 0.010260 -0.018411 -0.006791 -0.062575 0.089710 0.127518 0.022824 -0.085550 -0.285288 0.286834 0.505939 0.408559 0.560421 0.268368 0.316992 0.344222 0.531016 0.486946 0.155742 0.109976 -0.878081
0.072396 0.072838 0.074163 0.076371 0.079462 0.083435 0.088289 0.094022 0.100634 0.108122 0.116484 0.125716 0.135815 0.146776 0.158594 0.171262 0.184772 0.199116 0.214282 0.230259 0.247032 0.264586 0.282903 0.301961 0.321739 0.342209 0.363344 0.385111 0.407474 0.430396 0.453833 0.477738 0.502061 0.526747 0.551735 0.576960 0.602354 0.627843 0.653346 0.678779 0.704051 0.729069 0.753731 0.777931 0.801559 0.824499 0.846629 0.867825 0.887956 0.906890 0.924488 0.940610 0.955112 0.967851 0.978680 0.987451 0.994019 0.998237 0.999964 0.999060 0.995388 0.988821 0.979236 0.966518 0.950564 0.931282 0.908590 0.882425 0.852736 0.819493 0.782682 0.742313 0.698416 0.651047 0.600285 0.546238 0.489041 0.428857 0.365881 0.300336 0.232478 0.162594 0.091002 0.018050 0.055883 0.130388 0.205031 0.279348 0.352856 0.425047 0.495396 0.563366 0.628407 0.689964 0.747479 0.800402 0.848190 0.890315 0.926273 0.955588 0.977820 0.992569 0.999485 0.998277 0.988713 0.970632 0.943948 0.908657 0.864842 0.812675 0.752424 0.684454 0.609231 0.527317 0.439375 0.346165 0.248540 0.147440 0.043885 0.061028 0.166143 0.270251 0.372106 0.470437 0.563965 0.651424 0.731572 0.803218 0.865233 0.916578 0.956321 0.983654 0.997916 0.998607 0.985407 0.958192 0.917039 0.862242 0.794319 0.714007 0.622269 0.520285 0.409446 0.291336 0.167716 0.040506 0.088250 0.216406 0.341757 0.462066 0.575119 0.678750 0.770902 0.849658 0.913296 0.960323 0.989521 0.999980 0.991137 0.962795 0.915150 0.848800 0.764752 0.664419 0.549605 0.422480 0.285552 0.141622 0.006269 0.154897 0.300927 0.440980 0.571721 0.689935 0.792613 0.877034 0.940842 0.982127 0.999484 0.992074 0.959665 0.902665 0.822136 0.719788 0.597962 0.459586 0.308120 0.147478 0.018066 0.183983 0.345614 0.498297 0.637510 0.759000 0.858929 0.934004 0.981593 0.999836 0.987727 0.945176 0.873050 0.773168 0.648289 0.502048 0.338864 0.163824 0.017463 0.199040 0.374797 0.538674 0.684877 0.808085 0.903659 0.967832 0.997874 0.992225 0.950588 0.873990 0.764777 0.626575 0.464192 0.283467 0.091080 0.105682 0.299199 0.481803 0.646095 0.785242 0.893285 0.965408 0.998170 0.989698 0.939809 0.850073 0.723801 0.565943 0.382939 0.182460 0.026882 0.235900 0.435226 0.615737 0.768976 0.887568 0.965597 0.998919 0.985421 0.925170 0.820481 0.675864 0.497862 0.294798 0.076395 0.146661 0.363236 0.562304 0.733521 0.867767 0.957665 0.998014 0.986118 0.922006 0.808499 0.651135 0.457938 0.239048 0.006209 0.227834 0.450029 0.647754 0.809529 0.925727 0.989163 0.995583 0.943987 0.836772 0.679681 0.481538 0.253798 0.009912 0.235431 0.467203 0.670938 0.833664 0.944749 0.996643 0.985427 0.911160 0.777971 0.593885 0.370404 0.121820 0.135662 0.384967 0.609279 0.793179 0.923751 0.991510 0.991152 0.922021 0.788260 0.598637 0.366026 0.106581 0.161341 0.418481 0.646035 0.827068 0.947796 0.998685 0.975268 0.878586 0.715243 0.497021 0.240102 0.036101 0.310362 0.561273 0.768927 0.916516 0.991754 0.987952 0.904681 0.747947 0.529842 0.267673 0.017345 0.301778 0.561874 0.775578 0.924413 0.995148 0.981031 0.882517 0.707374 0.470168 0.191118 0.105567 0.393759 0.647693 0.844311 0.965377 0.999256 0.942097 0.798357 0.580554 0.308267 0.006448 0.296823 0.572914 0.795383 0.942524 0.999570 0.960250 0.827572 0.613716 0.339009 0.030078 0.282680 0.568056 0.797160 0.946401 0.999962
1.000000 1.000000 1.000000 1.000000 1.000000 1.000000 1.000000 1.000000 1.000000 1.000000 1.000000 1.000000 1.000000 1.000000 1.000000 1.000000 1.000000 1.000000 1.000000 1.000000 1.000000 1.000000 1.000000 1.000000 1.000000 1.000000 1.000000 1.000000 1.000000 1.000000 1.000000 1.000000 1.000000 1.000000 1.000000 1.000000 1.000000 1.000000 1.000000 1.000000 1.000000 1.000000 1.000000 1.000000 1.000000 1.000000 1.000000 1.000000 1.000000 1.000000 1.000000 1.000000 0.777793 0.777793 0.777793 0.777793 0.777793 0.777793 0.777793 0.760579 0.760579 0.760579 0.760579 0.760579 0.760579 0.760579 0.760579 0.760579 0.760579 0.760579 0.760579 0.760579 0.760579 0.760579 0.760579 0.760579 0.760579 0.760579 0.760579 0.760579 0.760579 0.760579 0.760579 0.760579 0.760579 0.760579 0.760579 0.760579 0.760579 0.760579 0.760579 0.760579 0.760579 0.760579 0.760579 0.760579 0.760579 0.760579 0.760579 0.760579 0.760579 0.760579 0.760579 0.902420 0.903856 0.906847 0.902244 0.904157 0.902019 0.895580 0.898515 0.898330 0.898153 0.899205 0.900832 0.902808 0.910136 0.919037 0.920908 0.927917 0.931377 0.932512 0.932392 0.931044 0.938544 0.936099 0.934340 0.922443 0.925797 0.927668 0.928600 0.927413 0.927529 0.928792 0.929422 0.927321 0.925513 0.923341 0.921578 0.923169 0.922378 0.922563 0.922725 0.922901 0.922803 0.923383 0.919528 0.921784 0.920662 0.917086 0.913686 0.913211 0.914289 0.912637 0.909433 0.903747 0.910014 0.910429 0.910565 0.909456 0.909664 0.910016 0.910740 0.911347 0.908375 0.908419 0.905949 0.907781 0.904110 0.899605 0.894269 0.894504 0.896352 0.902945 0.904940 0.903781 0.901379 0.894400 0.884638 0.883625 0.870883 0.837792 0.839768 0.843299 0.845731 0.846656 0.846127 0.843000 0.838110 0.828458 0.818827 0.823252 0.824079 0.815909 0.810498 0.811370 0.811467 0.818752 0.823017 0.815344 0.812763 0.812232 0.808112 0.807389 0.808417 0.804384 0.799321 0.803069 0.811257 0.811681 0.796808 0.790879 0.788317 0.774280 0.779144 0.785730 0.788825 0.790228 0.787145 0.775299 0.773059 0.766331 0.776637 0.784853 0.783614 0.779045 0.760893 0.718713 0.707273 0.684336 0.686035 0.687519 0.658924 0.657708 0.659252 0.664201 0.611402 0.593370 0.580607 0.580675 0.588158 0.593128 0.586788 0.557648 0.576252 0.573761 0.559164 0.555140 0.531215 0.516224 0.490289 0.492828 0.491308 0.479833 0.453505 0.449417 0.466983 0.476248 0.472598 0.469658 0.441155 0.420686 0.422642 0.417137 0.418327 0.421756 0.430566 0.378435 0.354235 0.337722 0.365699 0.366630 0.365417 0.378558 0.374595 0.368998 0.345856 0.325193 0.304712 0.317106 0.337229 0.343175 0.347112 0.312727 0.300824 0.281426 0.286436 0.330446 0.317276 0.330820 0.331459 0.336275 0.363226 0.339344 0.315899 0.292443 0.334839 0.330974 0.311064 0.293136 0.306412 0.325468 0.327083 0.322665 0.314688 0.361346 0.380464 0.363263 0.365343 0.332151 0.358018 0.393940 0.386043 0.388120 0.400183 0.401674 0.379861 0.328256 0.307264 0.309174 0.284626 0.282373 0.266162 0.250966 0.242638 0.253206 0.275324 0.281396 0.314719 0.287263 0.250157 0.157455 0.226180 0.145196 0.152793 0.152793 0.152793 0.152793 0.152793 0.152793 0.152793 0.152793 0.179092 0.179092 0.179092 0.179092 0.179092 0.179092 0.179092 0.179092 0.179092 0.179092 0.179092 0.179092 0.179092 0.179092 0.179092 0.179092 0.179092 0.179092 0.179092 0.179092 0.179092
0.000000 0.000000 0.000000 0.000000 0.000000 0.000000 0.000000 0.000000 0.000000 0.000000 0.000000 0.000000 0.000000 0.000000 0.000000 0.000000 0.000000 0.000000 0.000000 0.000000 0.000000 0.000000 0.000000 0.000000 0.000000 0.000000 0.000000 0.000000 0.000000 0.000000 0.000000 0.000000 0.000000 0.000000 0.000000 0.000000 0.000000 0.000000 0.000000 0.000000 0.000000 0.000000 0.000000 0.000000 0.000000 0.000000 0.000000 0.000000 0.000000 0.000000 0.000000 0.000000 0.173422 0.173422 0.173422 0.173422 0.173422 0.173422 0.173422 0.191565 0.191565 0.191565 0.191565 0.191565 0.191565 0.191565 0.191565 0.191565 0.191565 0.191565 0.191565 0.191565 0.191565 0.191565 0.191565 0.191565 0.191565 0.191565 0.191565 0.191565 0.191565 0.191565 0.191565 0.191565 0.191565 0.191565 0.191565 0.191565 0.191565 0.191565 0.191565 0.191565 0.191565 0.191565 0.191565 0.191565 0.191565 0.191565 0.191565 0.191565 0.191565 0.191565 0.191565 0.222222 0.222222 0.222222 0.222222 0.222222 0.222222 0.222222 0.222222 0.222222 0.222222 0.222222 0.222222 0.222222 0.222222 0.222222 0.222222 0.222222 0.222222 0.222222 0.222222 0.222222 0.222222 0.222222 0.222222 0.222222 0.222222 0.222222 0.222222 0.222222 0.222222 0.234082 0.234082 0.234082 0.234082 0.234082 0.234082 0.234082 0.234082 0.234082 0.234082 0.234082 0.234082 0.234082 0.234082 0.234082 0.234082 0.234082 0.234082 0.234082 0.234082 0.234082 0.234082 0.234082 0.234082 0.234082 0.244339 0.244339 0.244339 0.244339 0.244339 0.244339 0.244339 0.244339 0.244339 0.244339 0.244339 0.244339 0.244339 0.244339 0.244339 0.244339 0.244339 0.244339 0.244339 0.244339 0.244339 0.248069 0.248069 0.248069 0.248069 0.248069 0.248069 0.248069 0.248069 0.248069 0.248069 0.248069 0.248069 0.248069 0.248069 0.248069 0.248069 0.248069 0.248069 0.248069 0.256074 0.256074 0.256074 0.256074 0.256074 0.256074 0.256074 0.256074 0.256074 0.256074 0.256074 0.256074 0.256074 0.256074 0.256074 0.256074 0.256074 0.256074 0.256074 0.256074 0.256074 0.256074 0.256074 0.256074 0.256074 0.256074 0.256074 0.256074 0.256074 0.256074 0.256074 0.256074 0.256074 0.256074 0.256074 0.256074 0.256074 0.256074 0.256074 0.256074 0.256074 0.256074 0.256074 0.256074 0.256074 0.256074 0.256074 0.256074 0.256074 0.256074 0.256074 0.256074 0.256074 0.256074 0.256074 0.256074 0.256074 0.256074 0.256074 0.256074 0.256074 0.256074 0.260378 0.260378 0.260378 0.260378 0.260378 0.260378 0.260378 0.260378 0.260378 0.260378 0.260378 0.260378 0.260378 0.256074 0.256074 0.256074 0.256074 0.256074 0.256074 0.256074 0.256074 0.256074 0.256074 0.256074 0.256074 0.256074 0.260378 0.260378 0.260378 0.260378 0.260378 0.260378 0.260378 0.260378 0.260378 0.260378 0.260378 0.260378 0.251976 0.251976 0.251976 0.251976 0.251976 0.251976 0.251976 0.251976 0.251976 0.251976 0.251976 0.251976 0.256074 0.256074 0.256074 0.256074 0.256074 0.256074 0.256074 0.256074 0.256074 0.256074 0.256074 0.251976 0.251976 0.251976 0.251976 0.251976 0.251976 0.251976 0.251976 0.251976 0.251976 0.251976 0.260378 0.260378 0.260378 0.260378 0.260378 0.260378 0.260378 0.260378 0.260378 0.260378 0.244339 0.244339 0.244339 0.244339 0.244339 0.244339 0.244339 0.244339 0.244339 0.244339 0.244339 0.244339 0.244339 0.244339 0.244339 0.244339 0.244339 0.244339 0.244339 0.244339 0.244339
