# Output from CTFFind version 4.1.9, run on 2019-11-02 17:49:02
# Input file: stack1_bm3d_averaged_1_1.25_0_2500_half.mrc ; Number of micrographs: 1
# Pixel size: 3.000 Angstroms ; acceleration voltage: 300.0 keV ; spherical aberration: 0.00 mm ; amplitude contrast: 0.07
# Box size: 512 pixels ; min. res.: 30.0 Angstroms ; max. res.: 5.0 Angstroms ; min. def.: 5000.0 um; max. def. 50000.0 um; num. frames averaged: 1
# 6 lines per micrograph: #1 - spatial frequency (1/Angstroms); #2 - 1D rotational average of spectrum (assuming no astigmatism); #3 - 1D rotational average of spectrum; #4 - CTF fit; #5 - cross-correlation between spectrum and CTF fit; #6 - 2sigma of expected cross correlation of noise
0.000000 0.000651 0.001302 0.001953 0.002604 0.003255 0.003906 0.004557 0.005208 0.005859 0.006510 0.007161 0.007812 0.008464 0.009115 0.009766 0.010417 0.011068 0.011719 0.012370 0.013021 0.013672 0.014323 0.014974 0.015625 0.016276 0.016927 0.017578 0.018229 0.018880 0.019531 0.020182 0.020833 0.021484 0.022135 0.022786 0.023438 0.024089 0.024740 0.025391 0.026042 0.026693 0.027344 0.027995 0.028646 0.029297 0.029948 0.030599 0.031250 0.031901 0.032552 0.033203 0.033854 0.034505 0.035156 0.035807 0.036458 0.037109 0.037760 0.038411 0.039062 0.039714 0.040365 0.041016 0.041667 0.042318 0.042969 0.043620 0.044271 0.044922 0.045573 0.046224 0.046875 0.047526 0.048177 0.048828 0.049479 0.050130 0.050781 0.051432 0.052083 0.052734 0.053385 0.054036 0.054688 0.055339 0.055990 0.056641 0.057292 0.057943 0.058594 0.059245 0.059896 0.060547 0.061198 0.061849 0.062500 0.063151 0.063802 0.064453 0.065104 0.065755 0.066406 0.067057 0.067708 0.068359 0.069010 0.069661 0.070312 0.070964 0.071615 0.072266 0.072917 0.073568 0.074219 0.074870 0.075521 0.076172 0.076823 0.077474 0.078125 0.078776 0.079427 0.080078 0.080729 0.081380 0.082031 0.082682 0.083333 0.083984 0.084635 0.085286 0.085938 0.086589 0.087240 0.087891 0.088542 0.089193 0.089844 0.090495 0.091146 0.091797 0.092448 0.093099 0.093750 0.094401 0.095052 0.095703 0.096354 0.097005 0.097656 0.098307 0.098958 0.099609 0.100260 0.100911 0.101562 0.102214 0.102865 0.103516 0.104167 0.104818 0.105469 0.106120 0.106771 0.107422 0.108073 0.108724 0.109375 0.110026 0.110677 0.111328 0.111979 0.112630 0.113281 0.113932 0.114583 0.115234 0.115885 0.116536 0.117188 0.117839 0.118490 0.119141 0.119792 0.120443 0.121094 0.121745 0.122396 0.123047 0.123698 0.124349 0.125000 0.125651 0.126302 0.126953 0.127604 0.128255 0.128906 0.129557 0.130208 0.130859 0.131510 0.132161 0.132812 0.133464 0.134115 0.134766 0.135417 0.136068 0.136719 0.137370 0.138021 0.138672 0.139323 0.139974 0.140625 0.141276 0.141927 0.142578 0.143229 0.143880 0.144531 0.145182 0.145833 0.146484 0.147135 0.147786 0.148438 0.149089 0.149740 0.150391 0.151042 0.151693 0.152344 0.152995 0.153646 0.154297 0.154948 0.155599 0.156250 0.156901 0.157552 0.158203 0.158854 0.159505 0.160156 0.160807 0.161458 0.162109 0.162760 0.163411 0.164062 0.164714 0.165365 0.166016 0.166667 0.167318 0.167969 0.168620 0.169271 0.169922 0.170573 0.171224 0.171875 0.172526 0.173177 0.173828 0.174479 0.175130 0.175781 0.176432 0.177083 0.177734 0.178385 0.179036 0.179688 0.180339 0.180990 0.181641 0.182292 0.182943 0.183594 0.184245 0.184896 0.185547 0.186198 0.186849 0.187500 0.188151 0.188802 0.189453 0.190104 0.190755 0.191406 0.192057 0.192708 0.193359 0.194010 0.194661 0.195312 0.195964 0.196615 0.197266 0.197917 0.198568 0.199219 0.199870 0.200521 0.201172 0.201823 0.202474 0.203125 0.203776 0.204427 0.205078 0.205729 0.206380 0.207031 0.207682 0.208333 0.208984 0.209635 0.210286 0.210938 0.211589 0.212240 0.212891 0.213542 0.214193 0.214844 0.215495 0.216146 0.216797 0.217448 0.218099 0.218750 0.219401 0.220052 0.220703 0.221354 0.222005 0.222656 0.223307 0.223958 0.224609 0.225260 0.225911 0.226562 0.227214 0.227865 0.228516 0.229167 0.229818 0.230469 0.231120 0.231771 0.232422 0.233073 0.233724 0.234375 0.235026 0.235677
       0.33453        0.33453        0.33453        0.33453        0.33453        0.33453        0.33453        0.33453        0.33453        0.33453        0.33453        0.33453        0.33453        0.33453        0.33453        0.33453        0.33453        0.33452        0.33453        0.33453        0.33453        0.33453        0.33453        0.33453        0.33453        0.33453        0.33453        0.33453        0.33453        0.33453        0.33452        0.33452        0.33453        0.33453        0.33453        0.33453        0.33453        0.33453        0.33453        0.33453        0.33453        0.33453        0.33453        0.33453        0.33453        0.33453        0.33453        0.33453        0.33453        0.33453        0.33452        0.50244        0.71788        0.42912        0.19149       -0.07916       -0.26144       -0.06807       -0.13054       -0.05493       -0.00042       -0.14478       -0.09289       -0.04566        0.00164       -0.14988       -0.21819       -0.34203       -0.46229       -0.56097       -0.51827       -0.45014       -0.37045       -0.54732       -0.44677       -0.61982       -0.50060       -0.47256       -0.39033       -0.38034       -0.33840       -0.24536       -0.15943       -0.13756        0.03336       -0.01117        0.12012        0.17116        0.30608        0.41079        0.46510        0.49481        0.54057        0.54992        0.69599        0.64784        0.68028        0.58951        0.55604        0.65514        0.52852        0.42980        0.38857        0.32111        0.23116        0.26719        0.25425        0.10625        0.08660        0.00160       -0.00557        0.03620       -0.00359        0.07630        0.09518        0.23260        0.28379        0.30796        0.38659        0.56027        0.53951        0.58005        0.67171        0.69664        0.63113        0.63640        0.63518        0.54916        0.57424        0.39388        0.34949        0.26847        0.18738        0.07416        0.14658        0.12063        0.09534        0.10896        0.20914        0.20850        0.31720        0.35852        0.41469        0.49589        0.58277        0.54643        0.55858        0.60872        0.54439        0.46695        0.48135        0.32559        0.25272        0.25642        0.24425        0.14430        0.14784        0.15434        0.22503        0.25198        0.33182        0.36753        0.39304        0.46796        0.44893        0.47757        0.44970        0.47257        0.44619        0.40557        0.37962        0.35713        0.31497        0.28818        0.20713        0.20490        0.22613        0.27154        0.26676        0.34763        0.37675        0.35894        0.41219        0.45883        0.45134        0.42506        0.43966        0.36534        0.33827        0.28414        0.26347        0.28961        0.26763        0.29675        0.30246        0.34986        0.33892        0.40437        0.40484        0.42609        0.41248        0.43295        0.40639        0.36886        0.28690        0.29403        0.30853        0.28146        0.25916        0.33505        0.37456        0.33942        0.35559        0.36303        0.35366        0.40586        0.40140        0.36126        0.34280        0.31238        0.31320        0.31842        0.31319        0.29969        0.28845        0.33987        0.35885        0.37677        0.33651        0.32937        0.33711        0.34612        0.30801        0.28108        0.30822        0.32066        0.33462        0.32408        0.33567        0.35631        0.33407        0.31841        0.33208        0.30333        0.26255        0.25277        0.26567        0.30577        0.32444        0.35291        0.30128        0.31527        0.33757        0.29594        0.32236        0.29529        0.28496        0.29288        0.30005        0.31105        0.34629        0.32194        0.32857        0.33256        0.32272        0.33696        0.31877        0.32218        0.31504        0.28093        0.29507        0.31419        0.29273        0.32886        0.33484        0.33503        0.31729        0.34445        0.32324        0.27621        0.25194        0.27463        0.33137        0.36339        0.35241        0.31859        0.29536        0.29807        0.31674        0.25235        0.29521        0.30037        0.32361        0.29732        0.31425        0.27963        0.33650        0.34572        0.34394        0.32899        0.29735        0.31536        0.39612        0.33331        0.31578        0.30892        0.30000        0.28455        0.29775        0.27432        0.30994        0.23559        0.27710        0.29800        0.31200        0.29903        0.28225        0.29684        0.24230        0.23320        0.26720        0.31350        0.30741        0.30245        0.28536        0.33735        0.25422        0.22067        0.30976        0.26849        0.26428        0.27613        0.38662        0.29070        0.28727        0.25872        0.24551        0.26226        0.24267        0.23135        0.16167        0.23951        0.23508        0.25131        0.31673        0.28512        0.34136        0.29323        0.27240        0.25740        0.22948        0.24292        0.27948        0.21753        0.12398        0.16309        0.24657        0.23338        0.33311        0.29652        0.05133       -0.41652       -0.93626
2.726205 2.697302 2.668555 2.639965 2.611530 2.583252 2.555129 2.527162 2.499352 2.471697 2.444198 2.416856 2.389669 2.362639 2.335764 2.309045 2.282483 2.256076 2.229825 2.203731 2.177792 2.152009 2.126383 2.100912 2.075597 2.050439 2.025436 2.000590 1.975899 1.951364 1.926985 1.902763 1.878696 1.854785 1.831031 1.807432 1.783989 1.760703 1.737572 1.714597 1.691779 1.669116 1.646609 1.624258 1.602064 1.580025 1.558142 1.536416 1.514845 1.493430 1.472171 1.541335 1.842427 1.535427 1.200766 0.949632 0.548831 0.920657 0.642668 0.878946 0.934835 0.599182 0.713575 0.792926 0.832295 0.633745 0.545945 0.353836 0.104986 0.077069 0.044340 0.076352 0.304038 -0.034248 0.083783 -0.135206 -0.013496 -0.015923 0.079104 0.068911 0.099770 0.181235 0.286130 0.251395 0.484182 0.400226 0.551394 0.531706 0.774208 0.793902 0.883944 0.925196 0.942216 0.951505 1.127970 0.943923 1.151505 0.951442 0.853503 1.023004 0.852069 0.764513 0.624590 0.597726 0.457322 0.423964 0.512235 0.265170 0.202805 0.157983 0.009976 0.205744 -0.006741 0.121859 0.176496 0.255554 0.334557 0.351700 0.434751 0.539608 0.669416 0.539308 0.745599 0.858786 0.641585 0.702205 0.671011 0.589253 0.541749 0.459240 0.302340 0.217117 0.118946 -0.043682 -0.016398 0.055103 -0.094272 -0.059140 0.048680 0.048733 0.112295 0.217158 0.240586 0.313272 0.446214 0.453144 0.438503 0.474912 0.459110 0.338596 0.334835 0.244701 0.054433 0.060794 0.016004 -0.043419 -0.096827 -0.095319 -0.012956 -0.044866 0.077557 0.125333 0.122036 0.264385 0.232750 0.244562 0.278311 0.242482 0.236254 0.211939 0.160415 0.111084 0.104493 0.022575 0.006048 -0.116157 -0.049470 0.005049 -0.003550 0.021984 0.094351 0.081506 0.124909 0.210541 0.269897 0.180452 0.187035 0.111156 0.143185 0.027554 -0.034755 0.026970 -0.022853 0.013539 -0.002577 0.041583 0.086746 0.056568 0.169642 0.104144 0.185812 0.079121 0.163830 0.104870 0.009696 -0.046103 -0.003336 -0.017675 -0.051741 -0.055347 0.079568 0.074114 -0.000725 0.095546 0.079340 0.075793 0.155755 0.083140 0.078620 0.069829 -0.007258 0.040463 0.011691 0.023427 0.013070 0.011024 0.058139 0.077887 0.082839 0.044444 0.056470 0.036565 0.072680 0.000040 -0.006250 0.034777 0.030440 0.066869 0.049617 0.069055 0.070752 0.057776 0.026745 0.039800 0.004433 -0.044742 -0.027075 -0.018304 0.028120 0.044108 0.103726 0.003653 0.062724 0.056092 -0.006393 0.069878 0.018671 0.004594 0.034227 0.049180 0.035419 0.090039 0.040954 0.066572 0.073461 0.083177 0.068839 0.071346 0.089924 0.042297 -0.009654 0.056601 0.045804 0.044592 0.079966 0.084430 0.022391 0.059916 0.087089 0.013659 0.001013 -0.062231 -0.012754 0.113276 0.088012 0.071273 0.026905 -0.002763 0.059104 0.027362 -0.060902 0.049962 0.029048 0.059627 0.042675 0.007398 0.042787 0.009592 0.060468 0.030429 0.044790 -0.047093 0.070439 0.113970 0.008514 -0.004160 0.007521 -0.006497 -0.040359 -0.023165 -0.044200 -0.019027 -0.100353 -0.025896 -0.035172 0.009142 -0.026233 -0.063952 0.020285 -0.062469 -0.044922 -0.080562 0.057934 0.013108 0.028165 -0.015195 0.085085 -0.055158 -0.074901 0.047633 -0.029265 0.003133 -0.015294 0.183113 -0.041147 0.018545 0.004082 -0.034295 -0.009012 -0.036875 -0.023085 -0.178064 0.003453 -0.031128 -0.016715 0.050589 0.026681 0.128312 0.032037 0.035368 0.013340 0.025060 -0.029288 0.322172 0.264687 0.155494 0.210587 0.254866 0.316034 0.362114 0.348059 0.062756 -1.105870
0.072396 0.072910 0.074453 0.077024 0.080623 0.085248 0.090899 0.097573 0.105268 0.113982 0.123710 0.134449 0.146192 0.158933 0.172664 0.187374 0.203053 0.219686 0.237257 0.255748 0.275138 0.295402 0.316512 0.338438 0.361143 0.384589 0.408730 0.433518 0.458899 0.484814 0.511196 0.537974 0.565072 0.592404 0.619881 0.647403 0.674868 0.702163 0.729169 0.755761 0.781804 0.807160 0.831680 0.855212 0.877596 0.898667 0.918254 0.936182 0.952272 0.966344 0.978213 0.987694 0.994604 0.998761 0.999985 0.998103 0.992946 0.984355 0.972182 0.956289 0.936555 0.912875 0.885163 0.853353 0.817404 0.777303 0.733062 0.684725 0.632371 0.576109 0.516091 0.452502 0.385571 0.315565 0.242796 0.167615 0.090418 0.011641 0.068236 0.148698 0.229190 0.309123 0.387877 0.464806 0.539240 0.610495 0.677874 0.740679 0.798215 0.849798 0.894767 0.932490 0.962377 0.983884 0.996529 0.999900 0.993666 0.977582 0.951506 0.915402 0.869349 0.813550 0.748334 0.674164 0.591635 0.501479 0.404561 0.301874 0.194537 0.083784 0.029049 0.142532 0.255163 0.365384 0.471601 0.572209 0.665617 0.750273 0.824694 0.887494 0.937414 0.973349 0.994379 0.999795 0.989121 0.962141 0.918913 0.859785 0.785404 0.696722 0.594992 0.481761 0.358851 0.228348 0.092561 0.046010 0.184709 0.320785 0.451434 0.573863 0.685355 0.783326 0.865395 0.929446 0.973692 0.996733 0.997606 0.975831 0.931445 0.865028 0.777711 0.671177 0.547642 0.409823 0.260891 0.104408 0.055750 0.215485 0.370575 0.516793 0.650015 0.766349 0.862255 0.934660 0.981074 0.999682 0.989436 0.950110 0.882350 0.787688 0.668530 0.528118 0.370458 0.200229 0.022647 0.156676 0.331912 0.497197 0.646841 0.775517 0.878476 0.951731 0.992225 0.997988 0.968240 0.903474 0.805481 0.677337 0.523330 0.348849 0.160205 0.035570 0.230981 0.418346 0.590108 0.739141 0.859058 0.944507 0.991431 0.997284 0.961200 0.884085 0.768639 0.619306 0.442134 0.244556 0.035108 0.176925 0.381919 0.570334 0.733178 0.862448 0.951545 0.995640 0.991973 0.940051 0.841752 0.701307 0.525164 0.321726 0.100994 0.125915 0.347306 0.551514 0.727512 0.865541 0.957672 0.998296 0.984509 0.916355 0.796922 0.632247 0.431079 0.204445 0.034922 0.273264 0.496596 0.691519 0.846055 0.950401 0.997602 0.984061 0.909857 0.778851 0.598553 0.379747 0.135901 0.117637 0.364571 0.588715 0.775049 0.910772 0.986212 0.995570 0.937432 0.814980 0.635904 0.411988 0.158389 0.107343 0.366449 0.600289 0.791687 0.926235 0.993426 0.987534 0.908174 0.760475 0.554823 0.306229 0.033269 0.243244 0.501841 0.722059 0.886095 0.980298 0.996363 0.932152 0.792018 0.586614 0.332173 0.049287 0.238698 0.507589 0.734397 0.899316 0.987522 0.990582 0.907347 0.744229 0.514821 0.238854 0.059423 0.353334 0.616146 0.823514 0.955794 0.999973 0.951048 0.812687 0.597079 0.323976 0.018969 0.288843 0.569615 0.795656 0.944205 0.999810 0.956032 0.816303 0.593798 0.310322 0.005739 0.322191 0.606281 0.828117 0.963862 0.998389 0.927087 0.756588 0.504285 0.196712 0.133185 0.449496 0.717248 0.906335 0.994948 0.972238 0.839760 0.611563 0.312856 0.022665 0.356545 0.649933 0.868147 0.984840 0.985300 0.868449 0.647255 0.347460 0.004710 0.339581 0.643209 0.868380 0.986485 0.981869 0.854063 0.618141 0.303131 0.051433 0.400367 0.698582 0.906930 0.997459 0.957298 0.790659 0.518622 0.176623 0.189996 0.531956 0.802625 0.964487 0.994436
1.000000 1.000000 1.000000 1.000000 1.000000 1.000000 1.000000 1.000000 1.000000 1.000000 1.000000 1.000000 1.000000 1.000000 1.000000 1.000000 1.000000 1.000000 1.000000 1.000000 1.000000 1.000000 1.000000 1.000000 1.000000 1.000000 1.000000 1.000000 1.000000 1.000000 1.000000 1.000000 1.000000 1.000000 1.000000 1.000000 1.000000 1.000000 1.000000 1.000000 1.000000 1.000000 1.000000 1.000000 1.000000 1.000000 1.000000 1.000000 1.000000 1.000000 1.000000 1.000000 0.919698 0.919698 0.906150 0.906150 0.906150 0.906150 0.906150 0.906150 0.906150 0.906150 0.906150 0.906150 0.906150 0.906150 0.906150 0.906150 0.906150 0.906150 0.906150 0.906150 0.906150 0.906150 0.906150 0.906150 0.906150 0.906150 0.906150 0.906150 0.906150 0.906150 0.906150 0.906150 0.906150 0.906150 0.906150 0.906150 0.906150 0.906150 0.906150 0.906150 0.906150 0.906150 0.906150 0.902420 0.907435 0.909404 0.907976 0.911459 0.911508 0.910880 0.911260 0.910951 0.911307 0.912689 0.923123 0.934058 0.945212 0.945706 0.950878 0.955215 0.957750 0.958581 0.960267 0.970572 0.968003 0.967585 0.968229 0.969543 0.971562 0.970414 0.969796 0.973020 0.973606 0.972137 0.969736 0.969141 0.968562 0.968683 0.968346 0.968224 0.968073 0.968589 0.968771 0.968870 0.969015 0.969078 0.970081 0.971224 0.973702 0.974696 0.974601 0.973616 0.968672 0.972226 0.973364 0.972798 0.972796 0.972417 0.972672 0.956919 0.953953 0.953849 0.950288 0.949100 0.946118 0.944527 0.943550 0.944216 0.942927 0.942700 0.939912 0.926398 0.912781 0.900903 0.921348 0.906123 0.894085 0.868538 0.869281 0.862140 0.862558 0.854231 0.848065 0.843603 0.841038 0.843009 0.841659 0.845898 0.842803 0.826807 0.830551 0.826490 0.792878 0.778359 0.763803 0.761440 0.758339 0.759477 0.758350 0.751497 0.760456 0.753149 0.750984 0.740814 0.717752 0.684654 0.672462 0.683914 0.694375 0.694295 0.690238 0.674167 0.637949 0.651678 0.679913 0.673455 0.674149 0.668079 0.661766 0.670448 0.670616 0.668301 0.662435 0.661643 0.661486 0.671449 0.675566 0.668127 0.660550 0.646876 0.636951 0.625847 0.639922 0.647020 0.616731 0.610182 0.605335 0.600140 0.589581 0.562531 0.562760 0.542224 0.528012 0.528120 0.530387 0.533157 0.544074 0.543949 0.521531 0.546866 0.547384 0.579423 0.552537 0.549787 0.551117 0.561845 0.542927 0.524775 0.515958 0.517435 0.534361 0.569374 0.609710 0.603381 0.592765 0.584752 0.594827 0.578127 0.586367 0.606832 0.584531 0.512126 0.473123 0.470405 0.437840 0.427114 0.417752 0.394278 0.374232 0.374430 0.369176 0.354614 0.344635 0.284857 0.251156 0.233953 0.216580 0.224771 0.238987 0.231604 0.230313 0.265294 0.312253 0.309852 0.299670 0.291609 0.293497 0.296155 0.258409 0.258909 0.224215 0.212616 0.242528 0.189034 0.193772 0.135069 0.127100 0.140784 0.169196 0.181401 0.135068 0.124977 0.148487 0.166143 0.158970 0.149979 0.106618 0.076716 0.064239 0.076882 0.063362 0.027255 0.039392 0.046509 0.031501 0.018293 0.030718 0.022038 0.027270 0.015939 0.014431 0.053406 0.079084 0.068303 0.070888 0.089905 0.083213 0.062945 0.055085 0.042722 0.037460 -0.016010 -0.041345 -0.041345 -0.037983 -0.037983 -0.037983 -0.037983 -0.037983 -0.037983 -0.037983 -0.037983 -0.037983 -0.038844 -0.038844 -0.038844 -0.038844 -0.038844 -0.038844 -0.038844 -0.038844 -0.038844 -0.016755 -0.016755 -0.016755 -0.016755 -0.016755 -0.016755 -0.016755 -0.016755 -0.016755
0.000000 0.000000 0.000000 0.000000 0.000000 0.000000 0.000000 0.000000 0.000000 0.000000 0.000000 0.000000 0.000000 0.000000 0.000000 0.000000 0.000000 0.000000 0.000000 0.000000 0.000000 0.000000 0.000000 0.000000 0.000000 0.000000 0.000000 0.000000 0.000000 0.000000 0.000000 0.000000 0.000000 0.000000 0.000000 0.000000 0.000000 0.000000 0.000000 0.000000 0.000000 0.000000 0.000000 0.000000 0.000000 0.000000 0.000000 0.000000 0.000000 0.000000 0.000000 0.000000 0.181818 0.181818 0.199007 0.199007 0.199007 0.199007 0.199007 0.199007 0.199007 0.199007 0.199007 0.199007 0.199007 0.199007 0.199007 0.199007 0.199007 0.199007 0.199007 0.199007 0.199007 0.199007 0.199007 0.199007 0.199007 0.199007 0.199007 0.199007 0.199007 0.199007 0.199007 0.199007 0.199007 0.199007 0.199007 0.199007 0.199007 0.199007 0.199007 0.199007 0.199007 0.199007 0.199007 0.230940 0.230940 0.230940 0.230940 0.230940 0.230940 0.230940 0.230940 0.230940 0.230940 0.230940 0.230940 0.230940 0.230940 0.230940 0.230940 0.230940 0.230940 0.230940 0.230940 0.230940 0.230940 0.230940 0.230940 0.230940 0.230940 0.230940 0.230940 0.244339 0.244339 0.244339 0.244339 0.244339 0.244339 0.244339 0.244339 0.244339 0.244339 0.244339 0.244339 0.244339 0.244339 0.244339 0.244339 0.244339 0.244339 0.244339 0.244339 0.244339 0.244339 0.244339 0.251976 0.251976 0.251976 0.251976 0.251976 0.251976 0.251976 0.251976 0.251976 0.251976 0.251976 0.251976 0.251976 0.251976 0.251976 0.251976 0.251976 0.251976 0.251976 0.251976 0.264906 0.264906 0.264906 0.264906 0.264906 0.264906 0.264906 0.264906 0.264906 0.264906 0.264906 0.264906 0.264906 0.264906 0.264906 0.264906 0.264906 0.264906 0.264906 0.264906 0.264906 0.264906 0.264906 0.264906 0.264906 0.264906 0.264906 0.264906 0.264906 0.264906 0.264906 0.264906 0.264906 0.264906 0.264906 0.264906 0.264906 0.264906 0.264906 0.264906 0.264906 0.264906 0.264906 0.264906 0.264906 0.264906 0.264906 0.264906 0.264906 0.264906 0.264906 0.264906 0.264906 0.264906 0.264906 0.264906 0.264906 0.264906 0.264906 0.264906 0.264906 0.264906 0.264906 0.264906 0.264906 0.264906 0.264906 0.264906 0.264906 0.264906 0.264906 0.264906 0.264906 0.264906 0.264906 0.269680 0.269680 0.269680 0.269680 0.269680 0.269680 0.269680 0.269680 0.269680 0.269680 0.269680 0.269680 0.264906 0.264906 0.264906 0.264906 0.264906 0.264906 0.264906 0.264906 0.264906 0.264906 0.264906 0.264906 0.269680 0.269680 0.269680 0.269680 0.269680 0.269680 0.269680 0.269680 0.269680 0.269680 0.269680 0.264906 0.264906 0.264906 0.264906 0.264906 0.264906 0.264906 0.264906 0.264906 0.264906 0.264906 0.269680 0.269680 0.269680 0.269680 0.269680 0.269680 0.269680 0.269680 0.269680 0.269680 0.251976 0.251976 0.251976 0.251976 0.251976 0.251976 0.251976 0.251976 0.251976 0.251976 0.251976 0.269680 0.269680 0.269680 0.269680 0.269680 0.269680 0.269680 0.269680 0.269680 0.256074 0.256074 0.256074 0.256074 0.256074 0.256074 0.256074 0.256074 0.256074 0.256074 0.260378 0.260378 0.260378 0.260378 0.260378 0.260378 0.260378 0.260378 0.260378 0.256074 0.256074 0.256074 0.256074 0.256074 0.256074 0.256074 0.256074 0.256074 0.251976 0.251976 0.251976 0.251976 0.251976 0.251976 0.251976 0.251976 0.251976 0.264906 0.264906 0.264906 0.264906 0.264906 0.264906 0.264906 0.264906 0.264906
