# Output from CTFFind version 4.1.9, run on 2019-11-03 19:39:01
# Input file: stack16_bm3d_averaged_1_4.75_0_250_half.mrc ; Number of micrographs: 1
# Pixel size: 3.000 Angstroms ; acceleration voltage: 300.0 keV ; spherical aberration: 0.00 mm ; amplitude contrast: 0.07
# Box size: 512 pixels ; min. res.: 30.0 Angstroms ; max. res.: 5.0 Angstroms ; min. def.: 5000.0 um; max. def. 50000.0 um; num. frames averaged: 1
# 6 lines per micrograph: #1 - spatial frequency (1/Angstroms); #2 - 1D rotational average of spectrum (assuming no astigmatism); #3 - 1D rotational average of spectrum; #4 - CTF fit; #5 - cross-correlation between spectrum and CTF fit; #6 - 2sigma of expected cross correlation of noise
0.000000 0.000651 0.001302 0.001953 0.002604 0.003255 0.003906 0.004557 0.005208 0.005859 0.006510 0.007161 0.007812 0.008464 0.009115 0.009766 0.010417 0.011068 0.011719 0.012370 0.013021 0.013672 0.014323 0.014974 0.015625 0.016276 0.016927 0.017578 0.018229 0.018880 0.019531 0.020182 0.020833 0.021484 0.022135 0.022786 0.023438 0.024089 0.024740 0.025391 0.026042 0.026693 0.027344 0.027995 0.028646 0.029297 0.029948 0.030599 0.031250 0.031901 0.032552 0.033203 0.033854 0.034505 0.035156 0.035807 0.036458 0.037109 0.037760 0.038411 0.039062 0.039714 0.040365 0.041016 0.041667 0.042318 0.042969 0.043620 0.044271 0.044922 0.045573 0.046224 0.046875 0.047526 0.048177 0.048828 0.049479 0.050130 0.050781 0.051432 0.052083 0.052734 0.053385 0.054036 0.054688 0.055339 0.055990 0.056641 0.057292 0.057943 0.058594 0.059245 0.059896 0.060547 0.061198 0.061849 0.062500 0.063151 0.063802 0.064453 0.065104 0.065755 0.066406 0.067057 0.067708 0.068359 0.069010 0.069661 0.070312 0.070964 0.071615 0.072266 0.072917 0.073568 0.074219 0.074870 0.075521 0.076172 0.076823 0.077474 0.078125 0.078776 0.079427 0.080078 0.080729 0.081380 0.082031 0.082682 0.083333 0.083984 0.084635 0.085286 0.085938 0.086589 0.087240 0.087891 0.088542 0.089193 0.089844 0.090495 0.091146 0.091797 0.092448 0.093099 0.093750 0.094401 0.095052 0.095703 0.096354 0.097005 0.097656 0.098307 0.098958 0.099609 0.100260 0.100911 0.101562 0.102214 0.102865 0.103516 0.104167 0.104818 0.105469 0.106120 0.106771 0.107422 0.108073 0.108724 0.109375 0.110026 0.110677 0.111328 0.111979 0.112630 0.113281 0.113932 0.114583 0.115234 0.115885 0.116536 0.117188 0.117839 0.118490 0.119141 0.119792 0.120443 0.121094 0.121745 0.122396 0.123047 0.123698 0.124349 0.125000 0.125651 0.126302 0.126953 0.127604 0.128255 0.128906 0.129557 0.130208 0.130859 0.131510 0.132161 0.132812 0.133464 0.134115 0.134766 0.135417 0.136068 0.136719 0.137370 0.138021 0.138672 0.139323 0.139974 0.140625 0.141276 0.141927 0.142578 0.143229 0.143880 0.144531 0.145182 0.145833 0.146484 0.147135 0.147786 0.148438 0.149089 0.149740 0.150391 0.151042 0.151693 0.152344 0.152995 0.153646 0.154297 0.154948 0.155599 0.156250 0.156901 0.157552 0.158203 0.158854 0.159505 0.160156 0.160807 0.161458 0.162109 0.162760 0.163411 0.164062 0.164714 0.165365 0.166016 0.166667 0.167318 0.167969 0.168620 0.169271 0.169922 0.170573 0.171224 0.171875 0.172526 0.173177 0.173828 0.174479 0.175130 0.175781 0.176432 0.177083 0.177734 0.178385 0.179036 0.179688 0.180339 0.180990 0.181641 0.182292 0.182943 0.183594 0.184245 0.184896 0.185547 0.186198 0.186849 0.187500 0.188151 0.188802 0.189453 0.190104 0.190755 0.191406 0.192057 0.192708 0.193359 0.194010 0.194661 0.195312 0.195964 0.196615 0.197266 0.197917 0.198568 0.199219 0.199870 0.200521 0.201172 0.201823 0.202474 0.203125 0.203776 0.204427 0.205078 0.205729 0.206380 0.207031 0.207682 0.208333 0.208984 0.209635 0.210286 0.210938 0.211589 0.212240 0.212891 0.213542 0.214193 0.214844 0.215495 0.216146 0.216797 0.217448 0.218099 0.218750 0.219401 0.220052 0.220703 0.221354 0.222005 0.222656 0.223307 0.223958 0.224609 0.225260 0.225911 0.226562 0.227214 0.227865 0.228516 0.229167 0.229818 0.230469 0.231120 0.231771 0.232422 0.233073 0.233724 0.234375 0.235026 0.235677
       0.33832        0.33832        0.33832        0.33832        0.33832        0.33832        0.33832        0.33832        0.33832        0.33832        0.33832        0.33832        0.33832        0.33832        0.33832        0.33832        0.33832        0.33832        0.33832        0.33832        0.33832        0.33832        0.33832        0.33832        0.33832        0.33832        0.33832        0.33832        0.33832        0.33832        0.33832        0.33832        0.33832        0.33832        0.33832        0.33832        0.33832        0.33832        0.33832        0.33832        0.33832        0.33832        0.33832        0.33832        0.33832        0.33832        0.33832        0.33832        0.33832        0.33832        0.33832        0.42199        0.55911        0.34549       -0.20592       -0.45578       -0.55300       -0.65216       -0.72328       -0.73681       -0.83707       -0.90310       -0.69833       -0.85695       -0.83587       -0.98270       -1.01906       -0.90195       -0.86035       -0.81089       -0.73259       -0.66097       -0.57330       -0.47888       -0.41162       -0.18311       -0.07804        0.01773        0.24428        0.24857        0.30507        0.36785        0.39577        0.50695        0.53502        0.57072        0.53160        0.47212        0.50727        0.51251        0.43440        0.32383        0.20105        0.17185        0.10298       -0.01076       -0.02522       -0.03325        0.04167        0.00498        0.06095        0.03576        0.15085        0.18834        0.40209        0.45682        0.55118        0.65705        0.68899        0.71374        0.63537        0.61152        0.53181        0.43655        0.38088        0.26444        0.20821        0.19976        0.08689        0.09072        0.08052        0.07274        0.08688        0.29978        0.40893        0.51307        0.53319        0.57344        0.60912        0.58751        0.57664        0.58283        0.56352        0.46363        0.29328        0.25320        0.23652        0.13248        0.07995        0.14865        0.18061        0.27385        0.34793        0.41543        0.46892        0.52915        0.59992        0.54723        0.50652        0.49214        0.35255        0.25446        0.24238        0.16535        0.16934        0.21307        0.25770        0.27136        0.31393        0.41868        0.44790        0.49822        0.45215        0.44359        0.47522        0.38037        0.32168        0.27761        0.24509        0.22070        0.22072        0.23183        0.32891        0.43369        0.42237        0.48747        0.55042        0.44120        0.40857        0.35258        0.30155        0.25379        0.26700        0.26633        0.28290        0.32909        0.34112        0.42197        0.46820        0.43425        0.45170        0.36250        0.37295        0.35085        0.25689        0.23696        0.23496        0.30909        0.36783        0.36419        0.38559        0.42959        0.43204        0.36440        0.33383        0.31429        0.34301        0.30160        0.27067        0.27260        0.33958        0.36185        0.37671        0.39044        0.37792        0.40684        0.38961        0.30495        0.27887        0.31072        0.33843        0.36150        0.35679        0.40342        0.33581        0.36868        0.38687        0.32659        0.34731        0.30885        0.29109        0.33328        0.33048        0.31849        0.33854        0.36045        0.32039        0.33862        0.30714        0.30833        0.28174        0.30768        0.30227        0.32575        0.36339        0.36133        0.34228        0.29782        0.28583        0.28113        0.32206        0.29864        0.30841        0.36070        0.35892        0.33500        0.30532        0.30106        0.30713        0.26829        0.29566        0.30687        0.32200        0.35710        0.33468        0.29180        0.32546        0.32142        0.31238        0.35299        0.33895        0.30517        0.32831        0.28810        0.31934        0.28532        0.30515        0.28954        0.31629        0.36068        0.32783        0.34562        0.30153        0.31486        0.33469        0.32828        0.29770        0.29784        0.33540        0.32456        0.31838        0.31076        0.30948        0.29800        0.30359        0.31777        0.31859        0.33493        0.33384        0.33024        0.28570        0.27441        0.26490        0.26380        0.35889        0.30918        0.35463        0.29326        0.25936        0.27954        0.35561        0.30193        0.28046        0.28402        0.30896        0.28663        0.26652        0.30880        0.27069        0.26970        0.29790        0.31504        0.33307        0.32215        0.29787        0.26535        0.25944        0.25333        0.26235        0.28916        0.35013        0.28183        0.19552        0.29702        0.27328        0.30720        0.23480        0.30645        0.30519        0.32531        0.28283        0.26637        0.26761        0.22921        0.28899        0.33799        0.35481        0.23920        0.26996        0.21254        0.21729        0.20444        0.33814        0.24333        0.20977        0.13587        0.22788        0.27715        0.20853        0.16706        0.06717       -0.57580       -0.75403
3.110830 3.071671 3.032764 2.994112 2.955712 2.917565 2.879672 2.842032 2.804645 2.767511 2.730630 2.694003 2.657629 2.621508 2.585640 2.550026 2.514664 2.479556 2.444701 2.410100 2.375751 2.341656 2.307814 2.274225 2.240889 2.207806 2.174977 2.142401 2.110078 2.078008 2.046192 2.014629 1.983319 1.952262 1.921458 1.890908 1.860610 1.830566 1.800776 1.771238 1.741953 1.712922 1.684144 1.655619 1.627348 1.599329 1.571564 1.544052 1.516793 1.489788 1.463035 1.498189 1.588354 1.528482 0.846563 0.587762 0.447311 0.378785 0.285969 0.206036 0.167349 -0.056585 0.194299 0.058864 -0.040224 -0.120303 -0.242912 -0.153210 -0.067124 -0.094440 -0.084143 0.029846 0.024161 0.217939 0.100973 0.348350 0.457092 0.478796 0.756314 0.684392 0.684706 0.826706 0.795938 0.831722 0.918139 0.859117 0.892074 0.727649 0.800230 0.842848 0.676391 0.603371 0.438182 0.423493 0.346933 0.182760 0.180962 0.115678 0.210899 0.117505 0.212122 0.105697 0.223139 0.233259 0.452681 0.410890 0.587040 0.625145 0.660346 0.726431 0.620456 0.598707 0.467291 0.418925 0.301949 0.269883 0.103087 0.164321 -0.022819 0.036251 -0.034079 -0.039240 -0.041390 0.037512 0.284107 0.301122 0.377749 0.321763 0.402570 0.440316 0.416571 0.421409 0.367984 0.350154 0.136849 0.085646 0.067006 -0.007812 -0.149347 -0.039592 -0.069022 0.043792 0.092466 0.164728 0.234012 0.242403 0.334304 0.420699 0.308580 0.371710 0.254959 0.142553 0.066317 0.049143 0.005417 0.043067 0.073209 0.106230 0.118328 0.189035 0.247398 0.304251 0.295976 0.229160 0.260253 0.232408 0.111467 0.081299 0.046751 0.036551 0.007378 -0.002340 0.040475 0.174467 0.193056 0.197380 0.316718 0.191649 0.206990 0.086991 0.076792 -0.002462 -0.005990 0.006342 0.002327 0.043635 0.056572 0.095513 0.159647 0.151464 0.216286 0.128255 0.079846 0.104010 0.048088 -0.062039 -0.026465 0.015004 0.056927 0.072727 0.078727 0.153472 0.130382 0.150832 0.036949 0.052659 0.053406 0.049941 0.024306 -0.021340 0.037177 0.043133 0.086480 0.109316 0.095986 0.107276 0.125946 0.072865 0.008916 -0.001045 0.032837 0.082213 0.061432 0.104785 0.097473 0.049615 0.115290 0.066904 0.040576 0.080402 -0.022148 0.022210 0.059294 0.037533 0.038745 0.051991 0.069598 0.051060 0.056994 0.010071 0.020675 -0.007784 0.040998 0.001344 0.049082 0.074561 0.067617 0.036614 -0.013643 -0.010596 -0.015491 0.031344 -0.002283 0.012920 0.068456 0.059183 -0.010162 0.009417 -0.010966 0.009332 -0.044369 -0.011530 -0.003518 0.028167 0.038669 0.017868 -0.020311 0.006371 0.000721 0.001513 0.044158 0.013274 -0.011205 0.043368 -0.039040 -0.014778 -0.046460 -0.012908 -0.035211 0.018351 0.048492 0.002738 -0.000391 -0.000853 0.008084 0.020676 0.026111 -0.015530 -0.003326 0.022727 0.039952 0.015483 0.009643 0.044289 -0.011106 0.002623 0.026543 0.005121 0.063671 0.061315 0.027520 0.002240 -0.006874 -0.033283 0.002480 0.080438 -0.006831 0.079642 -0.017136 -0.024314 -0.018793 0.091912 -0.004800 -0.009011 0.014152 0.040374 0.005569 0.007393 0.030427 0.006091 0.007516 0.021476 0.068897 0.084337 0.053097 0.033727 0.006780 -0.006853 -0.001168 -0.022666 0.006353 0.106021 -0.024741 -0.096613 0.058725 -0.012307 0.046107 -0.059170 0.020681 0.013176 0.020575 -0.004573 -0.022773 -0.030047 -0.063452 0.022194 0.048426 0.072327 -0.119114 0.001204 -0.044474 -0.015107 -0.108766 0.125365 0.019202 0.025713 -0.065967 0.119970 0.260386 0.153976 0.118418 0.071421 -0.712509
0.072396 0.073047 0.074999 0.078251 0.082803 0.088652 0.095798 0.104236 0.113963 0.124974 0.137262 0.150819 0.165634 0.181695 0.198987 0.217491 0.237184 0.258042 0.280032 0.303120 0.327265 0.352419 0.378529 0.405534 0.433366 0.461949 0.491196 0.521013 0.551297 0.581932 0.612795 0.643749 0.674647 0.705332 0.735632 0.765368 0.794347 0.822364 0.849207 0.874651 0.898461 0.920397 0.940208 0.957640 0.972433 0.984326 0.993055 0.998362 0.999989 0.997689 0.991223 0.980368 0.964916 0.944682 0.919506 0.889255 0.853831 0.813172 0.767261 0.716124 0.659836 0.598529 0.532390 0.461669 0.386676 0.307790 0.225454 0.140180 0.052549 0.036793 0.127136 0.217708 0.307680 0.396176 0.482272 0.565013 0.643420 0.716498 0.783257 0.842716 0.893929 0.935992 0.968068 0.989397 0.999323 0.997304 0.982936 0.955967 0.916312 0.864071 0.799539 0.723216 0.635815 0.538264 0.431705 0.317493 0.197181 0.072511 0.054610 0.182132 0.307892 0.429648 0.545121 0.652038 0.748177 0.831419 0.899798 0.951557 0.985197 0.999528 0.993717 0.967327 0.920355 0.853259 0.766976 0.662928 0.543016 0.409607 0.265494 0.113857 0.041801 0.197722 0.349990 0.494614 0.627646 0.745288 0.844007 0.920657 0.972588 0.997755 0.994808 0.963179 0.903134 0.815814 0.703245 0.568321 0.414754 0.246991 0.070115 0.110309 0.288390 0.458104 0.613497 0.748904 0.859166 0.939844 0.987420 0.999476 0.974837 0.913674 0.817567 0.689508 0.533846 0.356173 0.163159 0.037682 0.238263 0.430250 0.605398 0.755926 0.874873 0.956449 0.996347 0.992007 0.942805 0.850175 0.717623 0.550650 0.356575 0.144246 0.076328 0.294432 0.499155 0.679948 0.827176 0.932669 0.990206 0.995933 0.948666 0.850058 0.704624 0.519606 0.304657 0.071402 0.167168 0.397400 0.605752 0.779611 0.908083 0.982721 0.998135 0.952446 0.847526 0.689026 0.486148 0.251184 0.001172 0.254716 0.492744 0.699167 0.859621 0.962515 0.999931 0.968304 0.868831 0.707544 0.495050 0.245914 0.022268 0.290079 0.537654 0.746177 0.899337 0.984677 0.994672 0.927494 0.787340 0.584292 0.333700 0.055112 0.229196 0.495966 0.722870 0.890413 0.983676 0.993737 0.918629 0.763731 0.541523 0.270694 0.025322 0.320320 0.587621 0.802497 0.944518 0.999588 0.961453 0.832536 0.623955 0.354719 0.050108 0.260616 0.546985 0.780307 0.936622 0.999242 0.960671 0.823635 0.601094 0.315173 0.004892 0.325680 0.613015 0.835653 0.968732 0.996694 0.915240 0.732127 0.466622 0.147649 0.189242 0.505768 0.765271 0.937006 0.999915 0.945371 0.778531 0.518084 0.194346 0.154115 0.484997 0.757380 0.936856 0.999999 0.937605 0.756227 0.477729 0.136878 0.222868 0.554805 0.815042 0.968412 0.993364 0.885207 0.657158 0.338992 0.026657 0.389847 0.700130 0.913577 0.999156 0.943436 0.752939 0.453669 0.087823 0.291994 0.630240 0.876583 0.993518 0.962277 0.786105 0.490277 0.118748 0.272178 0.622274 0.876690 0.994673 0.956323 0.766225 0.453273 0.066568 0.332080 0.677923 0.913849 0.999959 0.920576 0.687403 0.338158 0.069246 0.466084 0.784396 0.968688 0.985825 0.831303 0.530649 0.135555 0.284722 0.655400 0.909475 1.000000 0.909073 0.651712 0.273774 0.155870 0.557726 0.856306 0.994495 0.944718 0.714829 0.347336 0.088120 0.507683 0.829418 0.989382 0.954648 0.730457 0.359944 0.083788 0.511807 0.837117 0.992469 0.944572 0.701620 0.312426 0.142982 0.569589 0.877125 0.999359 0.908702 0.622881 0.201966 0.263834 0.673297
1.000000 1.000000 1.000000 1.000000 1.000000 1.000000 1.000000 1.000000 1.000000 1.000000 1.000000 1.000000 1.000000 1.000000 1.000000 1.000000 1.000000 1.000000 1.000000 1.000000 1.000000 1.000000 1.000000 1.000000 1.000000 1.000000 1.000000 1.000000 1.000000 1.000000 1.000000 1.000000 1.000000 1.000000 1.000000 1.000000 1.000000 1.000000 1.000000 1.000000 1.000000 1.000000 1.000000 1.000000 1.000000 1.000000 1.000000 1.000000 1.000000 1.000000 1.000000 1.000000 0.927790 0.927790 0.927790 0.927790 0.927790 0.927790 0.927790 0.927790 0.927790 0.927790 0.927790 0.927790 0.927790 0.927790 0.927790 0.927790 0.927790 0.927790 0.927790 0.927790 0.927790 0.927790 0.927790 0.927790 0.927790 0.927790 0.927790 0.927790 0.927790 0.927790 0.927790 0.927790 0.927790 0.915198 0.913237 0.914379 0.915531 0.915438 0.914899 0.914549 0.915584 0.917121 0.919102 0.940683 0.944159 0.944849 0.946118 0.947553 0.950037 0.948096 0.955936 0.962624 0.961707 0.962681 0.956580 0.957800 0.957214 0.956514 0.958165 0.958170 0.956617 0.954790 0.953374 0.952907 0.952632 0.954344 0.954786 0.955054 0.955546 0.955487 0.956207 0.956840 0.957129 0.959343 0.958457 0.957537 0.963201 0.961749 0.963657 0.963626 0.964338 0.965058 0.965273 0.965459 0.961887 0.961601 0.960995 0.950141 0.943588 0.941692 0.943857 0.946792 0.943891 0.939917 0.941501 0.944277 0.943506 0.943006 0.932481 0.928645 0.906660 0.895581 0.883942 0.884336 0.886820 0.888408 0.886348 0.878225 0.868260 0.864084 0.865541 0.860582 0.855202 0.871721 0.867001 0.866986 0.871003 0.873820 0.879147 0.874951 0.870914 0.866437 0.862418 0.857405 0.859631 0.864374 0.867895 0.855138 0.847084 0.849397 0.838536 0.830018 0.837261 0.839236 0.835726 0.834558 0.835362 0.834562 0.827607 0.822171 0.824847 0.834430 0.833664 0.821892 0.817954 0.812511 0.812335 0.804214 0.806791 0.806484 0.802997 0.797055 0.812361 0.782131 0.805775 0.804122 0.791332 0.775525 0.760727 0.770006 0.782056 0.785561 0.779731 0.768063 0.766911 0.761888 0.737887 0.742406 0.749994 0.748264 0.734961 0.711589 0.719536 0.729293 0.722548 0.714827 0.717353 0.718404 0.689261 0.702642 0.706830 0.692365 0.707504 0.709842 0.700715 0.700521 0.702333 0.702929 0.695914 0.656983 0.659771 0.660888 0.651958 0.599637 0.600256 0.600254 0.557272 0.560784 0.527247 0.509960 0.510250 0.507777 0.552993 0.518894 0.514293 0.543358 0.479881 0.390434 0.403897 0.401307 0.416003 0.424092 0.405452 0.404858 0.394527 0.367675 0.377209 0.391093 0.403935 0.379246 0.374684 0.372354 0.342825 0.315881 0.323844 0.328761 0.353817 0.356076 0.332105 0.364888 0.398091 0.342889 0.317202 0.303215 0.286707 0.300430 0.302088 0.292128 0.258581 0.262670 0.226616 0.251096 0.234997 0.226011 0.238587 0.270477 0.264648 0.273411 0.287319 0.243370 0.257728 0.261171 0.249701 0.250378 0.260158 0.258227 0.246042 0.260880 0.234337 0.238450 0.219289 0.201755 0.264932 0.243625 0.215542 0.207131 0.207411 0.225883 0.194712 0.154274 0.124724 0.136894 0.071037 0.055645 0.055827 0.047124 0.005263 -0.022952 -0.039523 -0.075536 -0.074440 -0.073044 -0.037565 -0.072239 -0.041473 -0.029741 -0.029741 -0.029741 -0.029741 -0.029741 -0.029741 -0.029741 -0.029741 -0.029741 -0.029741 -0.029741 -0.029741 -0.029741 -0.029741 -0.007841 -0.007841 -0.007841 -0.007841 -0.007841 -0.007841 -0.007841 -0.007841 -0.007841 -0.007841 -0.007841 -0.007841
0.000000 0.000000 0.000000 0.000000 0.000000 0.000000 0.000000 0.000000 0.000000 0.000000 0.000000 0.000000 0.000000 0.000000 0.000000 0.000000 0.000000 0.000000 0.000000 0.000000 0.000000 0.000000 0.000000 0.000000 0.000000 0.000000 0.000000 0.000000 0.000000 0.000000 0.000000 0.000000 0.000000 0.000000 0.000000 0.000000 0.000000 0.000000 0.000000 0.000000 0.000000 0.000000 0.000000 0.000000 0.000000 0.000000 0.000000 0.000000 0.000000 0.000000 0.000000 0.000000 0.209657 0.209657 0.209657 0.209657 0.209657 0.209657 0.209657 0.209657 0.209657 0.209657 0.209657 0.209657 0.209657 0.209657 0.209657 0.209657 0.209657 0.209657 0.209657 0.209657 0.209657 0.209657 0.209657 0.209657 0.209657 0.209657 0.209657 0.209657 0.209657 0.209657 0.209657 0.209657 0.209657 0.244339 0.244339 0.244339 0.244339 0.244339 0.244339 0.244339 0.244339 0.244339 0.244339 0.244339 0.244339 0.244339 0.244339 0.244339 0.244339 0.244339 0.244339 0.244339 0.244339 0.244339 0.244339 0.244339 0.244339 0.244339 0.260378 0.260378 0.260378 0.260378 0.260378 0.260378 0.260378 0.260378 0.260378 0.260378 0.260378 0.260378 0.260378 0.260378 0.260378 0.260378 0.260378 0.260378 0.260378 0.260378 0.269680 0.269680 0.269680 0.269680 0.269680 0.269680 0.269680 0.269680 0.269680 0.269680 0.269680 0.269680 0.269680 0.269680 0.269680 0.269680 0.269680 0.269680 0.269680 0.269680 0.269680 0.269680 0.269680 0.269680 0.269680 0.269680 0.269680 0.269680 0.269680 0.269680 0.269680 0.269680 0.269680 0.280056 0.280056 0.280056 0.280056 0.280056 0.280056 0.280056 0.280056 0.280056 0.280056 0.280056 0.280056 0.280056 0.280056 0.280056 0.280056 0.280056 0.280056 0.280056 0.280056 0.280056 0.280056 0.280056 0.280056 0.280056 0.280056 0.280056 0.274721 0.274721 0.274721 0.274721 0.274721 0.274721 0.274721 0.274721 0.274721 0.274721 0.274721 0.274721 0.274721 0.285714 0.285714 0.285714 0.285714 0.285714 0.285714 0.285714 0.285714 0.285714 0.285714 0.285714 0.280056 0.280056 0.280056 0.280056 0.280056 0.280056 0.280056 0.280056 0.280056 0.280056 0.280056 0.274721 0.274721 0.274721 0.274721 0.274721 0.274721 0.274721 0.274721 0.274721 0.274721 0.274721 0.280056 0.280056 0.280056 0.280056 0.280056 0.280056 0.280056 0.280056 0.280056 0.280056 0.285714 0.285714 0.285714 0.285714 0.285714 0.285714 0.285714 0.285714 0.285714 0.269680 0.269680 0.269680 0.269680 0.269680 0.269680 0.269680 0.269680 0.269680 0.269680 0.274721 0.274721 0.274721 0.274721 0.274721 0.274721 0.274721 0.274721 0.274721 0.285714 0.285714 0.285714 0.285714 0.285714 0.285714 0.285714 0.285714 0.264906 0.264906 0.264906 0.264906 0.264906 0.264906 0.264906 0.264906 0.264906 0.274721 0.274721 0.274721 0.274721 0.274721 0.274721 0.274721 0.274721 0.269680 0.269680 0.269680 0.269680 0.269680 0.269680 0.269680 0.269680 0.269680 0.269680 0.269680 0.269680 0.269680 0.269680 0.269680 0.269680 0.280056 0.280056 0.280056 0.280056 0.280056 0.280056 0.280056 0.260378 0.260378 0.260378 0.260378 0.260378 0.260378 0.260378 0.260378 0.269680 0.269680 0.269680 0.269680 0.269680 0.269680 0.269680 0.264906 0.264906 0.264906 0.264906 0.264906 0.264906 0.264906 0.264906 0.264906 0.264906 0.264906 0.264906 0.264906 0.264906 0.260378 0.260378 0.260378 0.260378 0.260378 0.260378 0.260378 0.260378 0.260378 0.260378 0.260378 0.260378
