# Output from CTFFind version 4.1.9, run on 2019-11-03 19:40:37
# Input file: stack1_bm3d_averaged_1_4.75_0_1250_half.mrc ; Number of micrographs: 1
# Pixel size: 3.000 Angstroms ; acceleration voltage: 300.0 keV ; spherical aberration: 0.00 mm ; amplitude contrast: 0.07
# Box size: 512 pixels ; min. res.: 30.0 Angstroms ; max. res.: 5.0 Angstroms ; min. def.: 5000.0 um; max. def. 50000.0 um; num. frames averaged: 1
# 6 lines per micrograph: #1 - spatial frequency (1/Angstroms); #2 - 1D rotational average of spectrum (assuming no astigmatism); #3 - 1D rotational average of spectrum; #4 - CTF fit; #5 - cross-correlation between spectrum and CTF fit; #6 - 2sigma of expected cross correlation of noise
0.000000 0.000651 0.001302 0.001953 0.002604 0.003255 0.003906 0.004557 0.005208 0.005859 0.006510 0.007161 0.007812 0.008464 0.009115 0.009766 0.010417 0.011068 0.011719 0.012370 0.013021 0.013672 0.014323 0.014974 0.015625 0.016276 0.016927 0.017578 0.018229 0.018880 0.019531 0.020182 0.020833 0.021484 0.022135 0.022786 0.023438 0.024089 0.024740 0.025391 0.026042 0.026693 0.027344 0.027995 0.028646 0.029297 0.029948 0.030599 0.031250 0.031901 0.032552 0.033203 0.033854 0.034505 0.035156 0.035807 0.036458 0.037109 0.037760 0.038411 0.039062 0.039714 0.040365 0.041016 0.041667 0.042318 0.042969 0.043620 0.044271 0.044922 0.045573 0.046224 0.046875 0.047526 0.048177 0.048828 0.049479 0.050130 0.050781 0.051432 0.052083 0.052734 0.053385 0.054036 0.054688 0.055339 0.055990 0.056641 0.057292 0.057943 0.058594 0.059245 0.059896 0.060547 0.061198 0.061849 0.062500 0.063151 0.063802 0.064453 0.065104 0.065755 0.066406 0.067057 0.067708 0.068359 0.069010 0.069661 0.070312 0.070964 0.071615 0.072266 0.072917 0.073568 0.074219 0.074870 0.075521 0.076172 0.076823 0.077474 0.078125 0.078776 0.079427 0.080078 0.080729 0.081380 0.082031 0.082682 0.083333 0.083984 0.084635 0.085286 0.085938 0.086589 0.087240 0.087891 0.088542 0.089193 0.089844 0.090495 0.091146 0.091797 0.092448 0.093099 0.093750 0.094401 0.095052 0.095703 0.096354 0.097005 0.097656 0.098307 0.098958 0.099609 0.100260 0.100911 0.101562 0.102214 0.102865 0.103516 0.104167 0.104818 0.105469 0.106120 0.106771 0.107422 0.108073 0.108724 0.109375 0.110026 0.110677 0.111328 0.111979 0.112630 0.113281 0.113932 0.114583 0.115234 0.115885 0.116536 0.117188 0.117839 0.118490 0.119141 0.119792 0.120443 0.121094 0.121745 0.122396 0.123047 0.123698 0.124349 0.125000 0.125651 0.126302 0.126953 0.127604 0.128255 0.128906 0.129557 0.130208 0.130859 0.131510 0.132161 0.132812 0.133464 0.134115 0.134766 0.135417 0.136068 0.136719 0.137370 0.138021 0.138672 0.139323 0.139974 0.140625 0.141276 0.141927 0.142578 0.143229 0.143880 0.144531 0.145182 0.145833 0.146484 0.147135 0.147786 0.148438 0.149089 0.149740 0.150391 0.151042 0.151693 0.152344 0.152995 0.153646 0.154297 0.154948 0.155599 0.156250 0.156901 0.157552 0.158203 0.158854 0.159505 0.160156 0.160807 0.161458 0.162109 0.162760 0.163411 0.164062 0.164714 0.165365 0.166016 0.166667 0.167318 0.167969 0.168620 0.169271 0.169922 0.170573 0.171224 0.171875 0.172526 0.173177 0.173828 0.174479 0.175130 0.175781 0.176432 0.177083 0.177734 0.178385 0.179036 0.179688 0.180339 0.180990 0.181641 0.182292 0.182943 0.183594 0.184245 0.184896 0.185547 0.186198 0.186849 0.187500 0.188151 0.188802 0.189453 0.190104 0.190755 0.191406 0.192057 0.192708 0.193359 0.194010 0.194661 0.195312 0.195964 0.196615 0.197266 0.197917 0.198568 0.199219 0.199870 0.200521 0.201172 0.201823 0.202474 0.203125 0.203776 0.204427 0.205078 0.205729 0.206380 0.207031 0.207682 0.208333 0.208984 0.209635 0.210286 0.210938 0.211589 0.212240 0.212891 0.213542 0.214193 0.214844 0.215495 0.216146 0.216797 0.217448 0.218099 0.218750 0.219401 0.220052 0.220703 0.221354 0.222005 0.222656 0.223307 0.223958 0.224609 0.225260 0.225911 0.226562 0.227214 0.227865 0.228516 0.229167 0.229818 0.230469 0.231120 0.231771 0.232422 0.233073 0.233724 0.234375 0.235026 0.235677
       0.35680        0.35680        0.35680        0.35680        0.35680        0.35680        0.35680        0.35680        0.35680        0.35680        0.35680        0.35680        0.35680        0.35680        0.35680        0.35680        0.35680        0.35680        0.35680        0.35680        0.35680        0.35680        0.35680        0.35680        0.35680        0.35680        0.35680        0.35680        0.35680        0.35680        0.35680        0.35680        0.35680        0.35680        0.35680        0.35680        0.35680        0.35680        0.35680        0.35680        0.35680        0.35680        0.35680        0.35680        0.35680        0.35680        0.35680        0.35680        0.35680        0.35680        0.35680        0.43614        0.63603        0.31560        0.15592       -0.01467       -0.25757       -0.07603       -0.15821       -0.17212        0.02320       -0.11295       -0.11080       -0.04641       -0.02576       -0.11976       -0.15142       -0.29705       -0.42136       -0.51239       -0.46475       -0.37129       -0.28066       -0.41759       -0.32618       -0.43683       -0.35395       -0.40328       -0.23255       -0.22124       -0.26177       -0.11358       -0.06763       -0.04687        0.08484        0.03806        0.20518        0.20662        0.33114        0.37793        0.48284        0.51252        0.56000        0.61149        0.70320        0.59985        0.56018        0.51480        0.50770        0.59328        0.49865        0.45882        0.41619        0.32872        0.28925        0.30816        0.30122        0.20551        0.18880        0.07463        0.13080        0.12607        0.13278        0.11794        0.16863        0.23162        0.30134        0.29891        0.32756        0.46943        0.45911        0.49770        0.64211        0.63979        0.57463        0.57656        0.58593        0.45109        0.48410        0.37768        0.33424        0.29661        0.23685        0.24171        0.20512        0.16893        0.18260        0.23905        0.24580        0.27805        0.33846        0.35521        0.39949        0.47855        0.49114        0.47126        0.47738        0.57067        0.49983        0.50133        0.45086        0.37684        0.34930        0.26736        0.29872        0.23470        0.22883        0.27996        0.22667        0.24739        0.32371        0.39534        0.42147        0.46810        0.44739        0.51229        0.49453        0.46708        0.42473        0.40831        0.38170        0.38386        0.40380        0.38015        0.28346        0.32371        0.29290        0.29512        0.30132        0.35536        0.38783        0.41447        0.46405        0.49784        0.44456        0.43426        0.45258        0.40360        0.35659        0.37829        0.33116        0.33821        0.31930        0.32949        0.30134        0.34234        0.35591        0.39534        0.43732        0.43820        0.41876        0.39911        0.38573        0.38734        0.30442        0.32391        0.35408        0.28491        0.33550        0.32236        0.34178        0.35511        0.35260        0.37998        0.38882        0.46208        0.39216        0.35927        0.37250        0.32674        0.33072        0.34151        0.33002        0.36145        0.33587        0.36160        0.35058        0.40450        0.37788        0.38881        0.41393        0.39741        0.35931        0.34320        0.34566        0.31845        0.36499        0.33148        0.34075        0.35373        0.37766        0.34401        0.35389        0.34124        0.30121        0.29712        0.28511        0.31513        0.35279        0.35386        0.34381        0.31551        0.36410        0.34718        0.34431        0.31911        0.33188        0.34881        0.33038        0.30904        0.35730        0.33959        0.33857        0.31600        0.33245        0.35758        0.33359        0.31268        0.33420        0.30252        0.30688        0.36063        0.33193        0.32681        0.36480        0.32676        0.33032        0.37092        0.34587        0.29202        0.29752        0.27647        0.33651        0.34498        0.35458        0.32184        0.30235        0.34264        0.32418        0.28722        0.32477        0.33453        0.33521        0.35227        0.31742        0.28749        0.32805        0.31758        0.35331        0.32771        0.29817        0.35653        0.38489        0.39302        0.31799        0.34759        0.31775        0.33180        0.29420        0.34986        0.33594        0.25552        0.28643        0.36181        0.33382        0.32522        0.30495        0.34233        0.31837        0.29888        0.29429        0.31931        0.30672        0.26469        0.26392        0.29870        0.33233        0.28729        0.28751        0.31123        0.32744        0.28462        0.35079        0.31386        0.30788        0.30257        0.25285        0.31394        0.28659        0.24954        0.21605        0.21094        0.22084        0.24038        0.30223        0.26779        0.34741        0.28749        0.30370        0.28495        0.23078        0.27274        0.29223        0.23806        0.17192        0.22990        0.31728        0.44903        0.35863       -0.04359        0.03566       -0.41856       -0.73376
3.103567 3.069514 3.035650 3.001975 2.968488 2.935190 2.902081 2.869161 2.836429 2.803886 2.771531 2.739366 2.707388 2.675600 2.644000 2.612589 2.581367 2.550333 2.519488 2.488832 2.458364 2.428085 2.397995 2.368094 2.338381 2.308857 2.279521 2.250374 2.221416 2.192647 2.164066 2.135674 2.107471 2.079456 2.051630 2.023993 1.996544 1.969284 1.942213 1.915330 1.888636 1.862131 1.835815 1.809687 1.783748 1.757997 1.732435 1.707062 1.681878 1.656882 1.632075 1.615009 1.990254 1.487791 1.308415 1.041031 0.494536 0.958026 0.576269 0.731833 0.926043 0.727529 0.614390 0.801921 0.752059 0.645550 0.570488 0.351766 0.089928 -0.002687 -0.011950 -0.015147 0.393510 -0.038693 0.106030 -0.031194 0.040994 -0.054659 0.170283 0.164657 0.085621 0.250257 0.351361 0.295442 0.489821 0.404990 0.679429 0.557077 0.812359 0.765845 0.922526 1.064391 0.966228 1.130524 1.215008 1.026640 0.974593 0.896902 0.898996 0.961451 0.862059 0.791019 0.679145 0.585687 0.498413 0.480741 0.489383 0.313756 0.320850 0.147394 0.116409 0.169154 0.143236 0.089598 0.147801 0.205581 0.330713 0.322018 0.375562 0.390227 0.588480 0.383911 0.758216 0.754706 0.601931 0.632050 0.663469 0.460888 0.410863 0.384794 0.210165 0.228001 0.036598 0.122990 -0.014861 -0.005472 -0.072911 -0.021400 0.077164 0.024715 0.091123 0.176455 0.215547 0.257334 0.353101 0.329644 0.304817 0.408910 0.368981 0.343382 0.293335 0.217699 0.121002 0.047922 -0.029309 -0.018767 -0.133568 -0.006028 -0.028552 -0.108129 -0.074518 0.069515 0.208452 0.194820 0.253885 0.187800 0.336314 0.224448 0.222029 0.239616 0.113552 0.080248 0.226392 0.082128 0.048079 -0.003748 0.050809 -0.047558 0.034514 -0.022059 0.152719 0.071855 0.164521 0.277977 0.260142 0.104081 0.194102 0.151621 0.111543 0.053895 0.057994 0.027255 -0.003392 0.018278 -0.029806 -0.056490 0.084123 0.022688 0.147883 0.121461 0.138423 0.060317 0.070234 0.081895 0.005640 -0.078886 -0.012037 -0.010508 -0.076915 -0.015280 -0.035461 0.028156 -0.022053 0.051773 0.094117 0.115132 0.207414 0.024729 0.095872 0.060938 -0.029491 0.039760 0.021520 0.020787 0.090276 0.020244 0.046611 0.004205 0.115372 0.083301 0.097508 0.158226 0.051927 0.060276 0.026368 0.026369 0.001312 0.076786 0.017705 0.047462 0.017486 0.088587 0.017953 0.052838 0.020975 -0.032629 -0.037784 -0.044918 0.010110 0.066531 0.066708 0.040099 0.019128 0.105453 -0.000172 0.072437 0.016353 0.025904 0.064237 0.010185 0.033284 0.075994 0.035181 0.020681 0.063301 0.067347 0.065338 0.061484 0.031677 0.053544 -0.031898 0.033340 0.101350 0.046885 0.033034 0.109251 -0.000784 -0.002570 0.083753 0.011802 -0.011203 -0.054905 -0.069438 0.056472 0.050294 0.028719 0.003609 -0.046953 0.088956 -0.048381 -0.024634 0.011433 0.036560 0.048610 0.038747 -0.011424 -0.012955 0.020031 0.030274 0.014545 0.033976 -0.009650 0.093667 0.119640 0.087922 -0.016326 0.022498 0.040802 -0.010999 -0.034751 0.031900 0.032020 -0.097855 -0.024768 0.083331 0.003778 0.028296 -0.060545 0.163426 -0.015201 0.040503 -0.040408 0.078783 -0.014534 -0.023129 -0.054892 0.007800 0.084558 0.001957 0.046653 0.009526 0.134685 -0.046057 0.134959 0.047414 0.005609 0.043462 -0.067423 0.104562 -0.046680 -0.062127 -0.113716 -0.110320 -0.105790 -0.220569 0.023492 -0.068739 0.069511 -0.139183 0.000350 -0.096560 -0.256895 -0.064414 0.365890 0.305620 0.162487 0.317862 0.557494 0.695676 0.544552 -0.326078 0.056581 -1.040436
0.072396 0.072911 0.074456 0.077030 0.080632 0.085263 0.090920 0.097601 0.105305 0.114029 0.123768 0.134519 0.146276 0.159031 0.172777 0.187504 0.203200 0.219851 0.237442 0.255953 0.275364 0.295649 0.316782 0.338730 0.361458 0.384927 0.409092 0.433904 0.459308 0.485245 0.511649 0.538449 0.565567 0.592919 0.620412 0.647951 0.675429 0.702735 0.729749 0.756345 0.782389 0.807741 0.832254 0.855773 0.878140 0.899187 0.918744 0.936636 0.952684 0.966705 0.978516 0.987932 0.994768 0.998842 0.999975 0.997992 0.992726 0.984017 0.971718 0.955690 0.935813 0.911982 0.884111 0.852137 0.816018 0.775742 0.731322 0.682804 0.630267 0.573825 0.513627 0.449863 0.382763 0.312597 0.239678 0.164361 0.087043 0.008164 0.071796 0.152317 0.232843 0.312781 0.391509 0.468380 0.542721 0.613846 0.681057 0.743654 0.800942 0.852237 0.896878 0.934234 0.963714 0.984778 0.996947 0.999812 0.993044 0.976405 0.949758 0.913073 0.866436 0.810056 0.744273 0.669555 0.586509 0.495874 0.398525 0.295465 0.187822 0.076837 0.036142 0.149681 0.262271 0.372346 0.478309 0.578554 0.671486 0.755557 0.829285 0.891291 0.940321 0.975282 0.995265 0.999576 0.987754 0.959603 0.915200 0.854915 0.779419 0.689687 0.586996 0.472915 0.349294 0.218235 0.082069 0.056685 0.195360 0.331192 0.461372 0.583107 0.693681 0.790522 0.871260 0.933804 0.976391 0.997653 0.996663 0.972983 0.926693 0.858422 0.769348 0.661204 0.536253 0.397261 0.247438 0.090384 0.069996 0.229580 0.384135 0.529431 0.661352 0.776027 0.869949 0.940087 0.984006 0.999957 0.986963 0.944881 0.874439 0.777258 0.655829 0.513477 0.354286 0.183000 0.004892 0.174391 0.348994 0.513056 0.660900 0.787244 0.887397 0.957452 0.994456 0.996550 0.963085 0.894687 0.793291 0.662106 0.505554 0.329138 0.139269 0.056946 0.251962 0.438089 0.607785 0.753978 0.870373 0.951739 0.994172 0.995305 0.954465 0.872764 0.753111 0.600150 0.420111 0.220584 0.010224 0.201603 0.405245 0.591188 0.750521 0.875370 0.959319 0.997770 0.988219 0.930461 0.826665 0.681354 0.501240 0.294968 0.072714 0.154278 0.374266 0.575606 0.747386 0.880029 0.965865 0.999603 0.978706 0.903609 0.777797 0.607693 0.402384 0.173176 0.066995 0.304273 0.524680 0.714938 0.863297 0.960286 0.999371 0.977433 0.895070 0.756665 0.570220 0.346950 0.100658 0.153089 0.397919 0.617715 0.797688 0.925405 0.991690 0.991339 0.923589 0.792292 0.605778 0.376389 0.119727 0.146367 0.403043 0.631757 0.815637 0.940762 0.997274 0.980214 0.890025 0.732664 0.519294 0.265562 0.009483 0.284787 0.538893 0.751602 0.905641 0.988092 0.991563 0.914920 0.763540 0.549042 0.288462 0.002993 0.283717 0.547490 0.765673 0.919122 0.993938 0.982814 0.885829 0.710629 0.471924 0.190349 0.109251 0.399972 0.655268 0.851386 0.969636 0.998255 0.933669 0.781029 0.553921 0.273266 0.034516 0.339953 0.613310 0.827508 0.960862 0.999360 0.938243 0.782691 0.547526 0.255924 0.062792 0.376025 0.651232 0.859321 0.977803 0.993313 0.903238 0.716234 0.451544 0.137129 0.193178 0.503282 0.758767 0.930757 0.999270 0.955661 0.803849 0.560134 0.251593 0.086820 0.416157 0.697955 0.898741 0.994117 0.971836 0.833522 0.594762 0.283513 0.063051 0.402892 0.694187 0.900507 0.995473 0.966254 0.815462 0.561133 0.234733 0.122588 0.465121 0.748419 0.935126 0.999998 0.933483 0.743287 0.453686 0.102621 0.263193 0.594386 0.845607 0.981841 0.983412
1.000000 1.000000 1.000000 1.000000 1.000000 1.000000 1.000000 1.000000 1.000000 1.000000 1.000000 1.000000 1.000000 1.000000 1.000000 1.000000 1.000000 1.000000 1.000000 1.000000 1.000000 1.000000 1.000000 1.000000 1.000000 1.000000 1.000000 1.000000 1.000000 1.000000 1.000000 1.000000 1.000000 1.000000 1.000000 1.000000 1.000000 1.000000 1.000000 1.000000 1.000000 1.000000 1.000000 1.000000 1.000000 1.000000 1.000000 1.000000 1.000000 1.000000 1.000000 1.000000 0.845137 0.845137 0.873825 0.873825 0.873825 0.873825 0.873825 0.873825 0.873825 0.873825 0.873825 0.873825 0.873825 0.873825 0.873825 0.873825 0.873825 0.873825 0.873825 0.873825 0.873825 0.873825 0.873825 0.873825 0.873825 0.873825 0.873825 0.873825 0.873825 0.873825 0.873825 0.873825 0.873825 0.873825 0.873825 0.873825 0.873825 0.873825 0.873825 0.873825 0.873825 0.873825 0.873825 0.862615 0.869791 0.875567 0.878014 0.879823 0.881511 0.879467 0.877685 0.877684 0.878156 0.879947 0.890653 0.913700 0.928155 0.932166 0.939356 0.940469 0.945412 0.945148 0.951606 0.959674 0.959205 0.959744 0.958216 0.959742 0.949023 0.948321 0.940962 0.963037 0.950315 0.949141 0.939390 0.930892 0.929593 0.928489 0.927661 0.929835 0.919609 0.920434 0.918235 0.918708 0.915924 0.914387 0.908282 0.882897 0.884661 0.889269 0.878670 0.857373 0.843163 0.843815 0.839965 0.839836 0.827156 0.828523 0.829812 0.818705 0.819610 0.819345 0.802045 0.798290 0.795717 0.792779 0.792769 0.792559 0.796110 0.800396 0.800329 0.784148 0.746354 0.734828 0.744021 0.706770 0.695453 0.663789 0.669370 0.672151 0.673150 0.664716 0.658752 0.654349 0.648469 0.655239 0.651580 0.653389 0.652914 0.650527 0.634451 0.620373 0.589997 0.545269 0.556982 0.559034 0.558678 0.554801 0.552538 0.549965 0.566719 0.559790 0.564101 0.547632 0.539238 0.509721 0.490986 0.448143 0.456969 0.497118 0.499153 0.450889 0.473066 0.503712 0.514452 0.526521 0.528282 0.520730 0.483069 0.460515 0.439826 0.441726 0.442965 0.440983 0.440389 0.453599 0.471550 0.495626 0.492877 0.474762 0.474686 0.482165 0.476004 0.493465 0.474117 0.460644 0.441998 0.429088 0.387906 0.400761 0.408675 0.406557 0.383676 0.369790 0.384019 0.385437 0.392568 0.399098 0.395654 0.421716 0.396567 0.421410 0.403855 0.384540 0.390877 0.393667 0.385494 0.375242 0.363248 0.360598 0.358079 0.386279 0.419945 0.422385 0.467729 0.462168 0.449979 0.404235 0.429656 0.412043 0.419029 0.399074 0.363395 0.361332 0.373050 0.392386 0.380477 0.314245 0.291466 0.274843 0.265745 0.252643 0.244769 0.158832 0.121011 0.098113 0.109670 0.120688 0.116565 0.134076 0.097975 0.106983 0.144969 0.148194 0.139255 0.123334 0.118101 0.120541 0.090479 0.128978 0.113665 0.102338 0.125944 0.110092 0.114682 0.077131 0.076125 0.040554 0.036890 0.049598 0.057614 -0.000631 -0.016954 -0.009858 -0.005040 0.012236 -0.010550 -0.012723 -0.006828 -0.023582 -0.032866 -0.030590 -0.053093 -0.087458 -0.063697 -0.066565 -0.038598 -0.094918 -0.091953 -0.106511 -0.092932 -0.066492 -0.048620 -0.048079 -0.046950 -0.009047 -0.036695 -0.059455 -0.061798 -0.106776 -0.102102 -0.130242 -0.151399 -0.151399 -0.149478 -0.149478 -0.149478 -0.149478 -0.149478 -0.149478 -0.149478 -0.149478 -0.149478 -0.129303 -0.129303 -0.129303 -0.129303 -0.129303 -0.129303 -0.129303 -0.129303 -0.166428 -0.166428 -0.166428 -0.166428 -0.166428 -0.166428 -0.166428 -0.166428 -0.166428 -0.166428
0.000000 0.000000 0.000000 0.000000 0.000000 0.000000 0.000000 0.000000 0.000000 0.000000 0.000000 0.000000 0.000000 0.000000 0.000000 0.000000 0.000000 0.000000 0.000000 0.000000 0.000000 0.000000 0.000000 0.000000 0.000000 0.000000 0.000000 0.000000 0.000000 0.000000 0.000000 0.000000 0.000000 0.000000 0.000000 0.000000 0.000000 0.000000 0.000000 0.000000 0.000000 0.000000 0.000000 0.000000 0.000000 0.000000 0.000000 0.000000 0.000000 0.000000 0.000000 0.000000 0.181818 0.181818 0.199007 0.199007 0.199007 0.199007 0.199007 0.199007 0.199007 0.199007 0.199007 0.199007 0.199007 0.199007 0.199007 0.199007 0.199007 0.199007 0.199007 0.199007 0.199007 0.199007 0.199007 0.199007 0.199007 0.199007 0.199007 0.199007 0.199007 0.199007 0.199007 0.199007 0.199007 0.199007 0.199007 0.199007 0.199007 0.199007 0.199007 0.199007 0.199007 0.199007 0.199007 0.230940 0.230940 0.230940 0.230940 0.230940 0.230940 0.230940 0.230940 0.230940 0.230940 0.230940 0.230940 0.230940 0.230940 0.230940 0.230940 0.230940 0.230940 0.230940 0.230940 0.230940 0.230940 0.230940 0.230940 0.230940 0.230940 0.230940 0.230940 0.244339 0.244339 0.244339 0.244339 0.244339 0.244339 0.244339 0.244339 0.244339 0.244339 0.244339 0.244339 0.244339 0.244339 0.244339 0.244339 0.244339 0.244339 0.244339 0.244339 0.244339 0.244339 0.244339 0.251976 0.251976 0.251976 0.251976 0.251976 0.251976 0.251976 0.251976 0.251976 0.251976 0.251976 0.251976 0.251976 0.251976 0.251976 0.251976 0.251976 0.251976 0.251976 0.251976 0.264906 0.264906 0.264906 0.264906 0.264906 0.264906 0.264906 0.264906 0.264906 0.264906 0.264906 0.264906 0.264906 0.264906 0.264906 0.264906 0.264906 0.264906 0.264906 0.264906 0.264906 0.264906 0.264906 0.264906 0.264906 0.264906 0.264906 0.264906 0.264906 0.264906 0.264906 0.264906 0.264906 0.264906 0.264906 0.264906 0.264906 0.264906 0.264906 0.264906 0.264906 0.264906 0.264906 0.264906 0.264906 0.264906 0.264906 0.264906 0.264906 0.264906 0.264906 0.264906 0.264906 0.264906 0.264906 0.264906 0.264906 0.264906 0.264906 0.264906 0.264906 0.264906 0.264906 0.264906 0.264906 0.264906 0.264906 0.264906 0.264906 0.264906 0.264906 0.264906 0.264906 0.264906 0.264906 0.269680 0.269680 0.269680 0.269680 0.269680 0.269680 0.269680 0.269680 0.269680 0.269680 0.269680 0.269680 0.264906 0.264906 0.264906 0.264906 0.264906 0.264906 0.264906 0.264906 0.264906 0.264906 0.264906 0.264906 0.269680 0.269680 0.269680 0.269680 0.269680 0.269680 0.269680 0.269680 0.269680 0.269680 0.269680 0.264906 0.264906 0.264906 0.264906 0.264906 0.264906 0.264906 0.264906 0.264906 0.264906 0.264906 0.269680 0.269680 0.269680 0.269680 0.269680 0.269680 0.269680 0.269680 0.269680 0.269680 0.264906 0.264906 0.264906 0.264906 0.264906 0.264906 0.264906 0.264906 0.264906 0.264906 0.260378 0.260378 0.260378 0.260378 0.260378 0.260378 0.260378 0.260378 0.260378 0.260378 0.256074 0.256074 0.256074 0.256074 0.256074 0.256074 0.256074 0.256074 0.256074 0.256074 0.260378 0.260378 0.260378 0.260378 0.260378 0.260378 0.260378 0.260378 0.260378 0.256074 0.256074 0.256074 0.256074 0.256074 0.256074 0.256074 0.256074 0.256074 0.269680 0.269680 0.269680 0.269680 0.269680 0.269680 0.269680 0.269680 0.248069 0.248069 0.248069 0.248069 0.248069 0.248069 0.248069 0.248069 0.248069 0.248069
