# Output from CTFFind version 4.1.9, run on 2019-11-03 19:00:57
# Input file: stack6_bm3d_averaged_1_2.25_0_50_half.mrc ; Number of micrographs: 1
# Pixel size: 3.000 Angstroms ; acceleration voltage: 300.0 keV ; spherical aberration: 0.00 mm ; amplitude contrast: 0.07
# Box size: 512 pixels ; min. res.: 30.0 Angstroms ; max. res.: 5.0 Angstroms ; min. def.: 5000.0 um; max. def. 50000.0 um; num. frames averaged: 1
# 6 lines per micrograph: #1 - spatial frequency (1/Angstroms); #2 - 1D rotational average of spectrum (assuming no astigmatism); #3 - 1D rotational average of spectrum; #4 - CTF fit; #5 - cross-correlation between spectrum and CTF fit; #6 - 2sigma of expected cross correlation of noise
0.000000 0.000651 0.001302 0.001953 0.002604 0.003255 0.003906 0.004557 0.005208 0.005859 0.006510 0.007161 0.007812 0.008464 0.009115 0.009766 0.010417 0.011068 0.011719 0.012370 0.013021 0.013672 0.014323 0.014974 0.015625 0.016276 0.016927 0.017578 0.018229 0.018880 0.019531 0.020182 0.020833 0.021484 0.022135 0.022786 0.023438 0.024089 0.024740 0.025391 0.026042 0.026693 0.027344 0.027995 0.028646 0.029297 0.029948 0.030599 0.031250 0.031901 0.032552 0.033203 0.033854 0.034505 0.035156 0.035807 0.036458 0.037109 0.037760 0.038411 0.039062 0.039714 0.040365 0.041016 0.041667 0.042318 0.042969 0.043620 0.044271 0.044922 0.045573 0.046224 0.046875 0.047526 0.048177 0.048828 0.049479 0.050130 0.050781 0.051432 0.052083 0.052734 0.053385 0.054036 0.054688 0.055339 0.055990 0.056641 0.057292 0.057943 0.058594 0.059245 0.059896 0.060547 0.061198 0.061849 0.062500 0.063151 0.063802 0.064453 0.065104 0.065755 0.066406 0.067057 0.067708 0.068359 0.069010 0.069661 0.070312 0.070964 0.071615 0.072266 0.072917 0.073568 0.074219 0.074870 0.075521 0.076172 0.076823 0.077474 0.078125 0.078776 0.079427 0.080078 0.080729 0.081380 0.082031 0.082682 0.083333 0.083984 0.084635 0.085286 0.085938 0.086589 0.087240 0.087891 0.088542 0.089193 0.089844 0.090495 0.091146 0.091797 0.092448 0.093099 0.093750 0.094401 0.095052 0.095703 0.096354 0.097005 0.097656 0.098307 0.098958 0.099609 0.100260 0.100911 0.101562 0.102214 0.102865 0.103516 0.104167 0.104818 0.105469 0.106120 0.106771 0.107422 0.108073 0.108724 0.109375 0.110026 0.110677 0.111328 0.111979 0.112630 0.113281 0.113932 0.114583 0.115234 0.115885 0.116536 0.117188 0.117839 0.118490 0.119141 0.119792 0.120443 0.121094 0.121745 0.122396 0.123047 0.123698 0.124349 0.125000 0.125651 0.126302 0.126953 0.127604 0.128255 0.128906 0.129557 0.130208 0.130859 0.131510 0.132161 0.132812 0.133464 0.134115 0.134766 0.135417 0.136068 0.136719 0.137370 0.138021 0.138672 0.139323 0.139974 0.140625 0.141276 0.141927 0.142578 0.143229 0.143880 0.144531 0.145182 0.145833 0.146484 0.147135 0.147786 0.148438 0.149089 0.149740 0.150391 0.151042 0.151693 0.152344 0.152995 0.153646 0.154297 0.154948 0.155599 0.156250 0.156901 0.157552 0.158203 0.158854 0.159505 0.160156 0.160807 0.161458 0.162109 0.162760 0.163411 0.164062 0.164714 0.165365 0.166016 0.166667 0.167318 0.167969 0.168620 0.169271 0.169922 0.170573 0.171224 0.171875 0.172526 0.173177 0.173828 0.174479 0.175130 0.175781 0.176432 0.177083 0.177734 0.178385 0.179036 0.179688 0.180339 0.180990 0.181641 0.182292 0.182943 0.183594 0.184245 0.184896 0.185547 0.186198 0.186849 0.187500 0.188151 0.188802 0.189453 0.190104 0.190755 0.191406 0.192057 0.192708 0.193359 0.194010 0.194661 0.195312 0.195964 0.196615 0.197266 0.197917 0.198568 0.199219 0.199870 0.200521 0.201172 0.201823 0.202474 0.203125 0.203776 0.204427 0.205078 0.205729 0.206380 0.207031 0.207682 0.208333 0.208984 0.209635 0.210286 0.210938 0.211589 0.212240 0.212891 0.213542 0.214193 0.214844 0.215495 0.216146 0.216797 0.217448 0.218099 0.218750 0.219401 0.220052 0.220703 0.221354 0.222005 0.222656 0.223307 0.223958 0.224609 0.225260 0.225911 0.226562 0.227214 0.227865 0.228516 0.229167 0.229818 0.230469 0.231120 0.231771 0.232422 0.233073 0.233724 0.234375 0.235026 0.235677
       0.30595        0.30595        0.30595        0.30595        0.30595        0.30595        0.30595        0.30595        0.30595        0.30595        0.30595        0.30595        0.30595        0.30595        0.30595        0.30595        0.30595        0.30595        0.30595        0.30595        0.30595        0.30595        0.30595        0.30595        0.30595        0.30595        0.30595        0.30595        0.30595        0.30595        0.30595        0.30595        0.30595        0.30595        0.30595        0.30595        0.30595        0.30595        0.30595        0.30595        0.30595        0.30595        0.30595        0.30595        0.30595        0.30595        0.30595        0.30595        0.30595        0.30595        0.30595        0.62216        0.79015        0.39838        0.28019        0.16428       -0.11477        0.12215        0.02698        0.03344        0.11667        0.35572        0.41263        0.37719        0.21811       -0.02005        0.03548        0.06695       -0.17681       -0.17984       -0.08753       -0.11469       -0.29112       -0.18724       -0.30391       -0.25495       -0.29100       -0.39175       -0.45778       -0.46717       -0.41185       -0.33815       -0.42019       -0.32791       -0.39810       -0.34540       -0.27915       -0.20631       -0.18144       -0.10868       -0.06154        0.03551        0.06877        0.23630        0.30284        0.36683        0.39757        0.52357        0.58234        0.61571        0.70005        0.68199        0.74838        0.64274        0.65973        0.67179        0.62411        0.61626        0.61910        0.40309        0.39261        0.36426        0.31945        0.19986        0.12025        0.05003        0.07414        0.01178       -0.08075       -0.00657       -0.04371       -0.08282        0.05440        0.16504        0.26409        0.31604        0.32114        0.40883        0.52054        0.55517        0.53043        0.66013        0.55480        0.53629        0.58738        0.62032        0.54424        0.48129        0.42090        0.37023        0.22305        0.19176        0.11741        0.12791        0.08909        0.03962        0.08229        0.16240        0.12224        0.16245        0.21344        0.23958        0.33017        0.45604        0.47260        0.46678        0.49996        0.57152        0.54499        0.52489        0.42582        0.40214        0.36569        0.28234        0.24497        0.20305        0.17205        0.18181        0.18103        0.16278        0.13372        0.20333        0.24800        0.34363        0.38426        0.40874        0.46609        0.51275        0.44341        0.47106        0.42077        0.40142        0.39877        0.35893        0.28268        0.26531        0.17551        0.20729        0.21419        0.18527        0.20857        0.21500        0.24335        0.31446        0.40336        0.39863        0.37387        0.39116        0.44618        0.44733        0.41606        0.34543        0.32012        0.27410        0.28796        0.26119        0.22718        0.28145        0.28515        0.28521        0.29466        0.32501        0.33422        0.37524        0.35501        0.34690        0.36517        0.32871        0.32291        0.31047        0.28543        0.29094        0.26637        0.21585        0.27011        0.25162        0.29537        0.30996        0.34089        0.37228        0.33247        0.30598        0.35396        0.35315        0.25379        0.28556        0.30040        0.24447        0.21445        0.27604        0.28106        0.26992        0.29971        0.30053        0.32615        0.33019        0.34660        0.29464        0.30933        0.31143        0.27864        0.25767        0.24868        0.24330        0.24710        0.28682        0.29431        0.29290        0.29177        0.32023        0.33351        0.26878        0.29868        0.27245        0.24434        0.24623        0.25121        0.25165        0.24947        0.30320        0.25780        0.30001        0.28101        0.27169        0.31624        0.28749        0.31331        0.31822        0.28713        0.25732        0.26720        0.24888        0.24797        0.31058        0.30601        0.33432        0.31976        0.31270        0.26642        0.30028        0.22472        0.19841        0.26380        0.26763        0.26211        0.26201        0.30115        0.29598        0.37367        0.29823        0.21936        0.21349        0.24423        0.28224        0.30461        0.29597        0.27109        0.29237        0.28112        0.30928        0.27880        0.24871        0.26655        0.24028        0.28145        0.23807        0.26173        0.32354        0.28491        0.24126        0.27079        0.29655        0.28711        0.21848        0.26363        0.27083        0.28695        0.27931        0.33666        0.26142        0.25024        0.25693        0.22486        0.19024        0.18443        0.23338        0.20772        0.18399        0.15484        0.22141        0.28498        0.24034        0.22581        0.19693        0.23131        0.21993        0.24205        0.18169        0.14711        0.18352        0.25145        0.15220        0.07737        0.21139        0.20109        0.10088        0.17515        0.13872        0.09147        0.15851       -0.08321       -0.49307       -0.92114
2.717044 2.690610 2.664310 2.638146 2.612116 2.586221 2.560460 2.534835 2.509344 2.483988 2.458767 2.433680 2.408729 2.383912 2.359230 2.334683 2.310271 2.285993 2.261851 2.237843 2.213970 2.190231 2.166628 2.143159 2.119825 2.096626 2.073562 2.050633 2.027838 2.005178 1.982653 1.960263 1.938008 1.915887 1.893901 1.872050 1.850334 1.828752 1.807306 1.785994 1.764817 1.743775 1.722868 1.702095 1.681457 1.660955 1.640586 1.620353 1.600255 1.580291 1.560462 1.858943 2.177723 1.627668 1.633472 1.302186 0.863329 1.148315 1.023300 1.046224 0.964939 1.486298 1.461466 1.461418 1.221035 0.894129 0.760083 0.977913 0.671400 0.438127 0.566017 0.631269 0.389862 0.449740 0.294440 0.333494 0.204403 0.165331 -0.053398 -0.015381 0.007105 0.051462 0.031015 0.127065 -0.051026 0.009125 0.094391 0.195911 0.244792 0.255348 0.319466 0.564813 0.405067 0.671952 0.827309 0.856852 0.877384 1.120725 1.119692 1.183234 1.276081 1.171340 1.375779 1.167175 1.108681 1.273158 1.106395 1.049475 1.158076 0.821785 0.723866 0.673316 0.675465 0.428414 0.382473 0.232014 0.227090 0.130231 -0.017322 0.127605 -0.002994 -0.060576 0.096275 0.242565 0.341264 0.448969 0.482408 0.528847 0.702387 0.757270 0.638951 0.959988 0.777581 0.702407 0.737701 0.791665 0.723159 0.693254 0.452087 0.538736 0.241856 0.183336 0.117440 -0.002908 0.038587 -0.087839 -0.054987 0.037766 0.050009 -0.049765 0.230513 0.122058 0.202651 0.399081 0.439608 0.499361 0.387462 0.581493 0.606943 0.493762 0.414745 0.343546 0.331970 0.172025 0.133295 0.023235 0.054919 -0.019192 0.004124 -0.024311 -0.106613 0.010263 0.015410 0.136837 0.282669 0.222910 0.370941 0.361937 0.404803 0.364810 0.420761 0.343388 0.249266 0.327072 0.157127 0.194505 -0.002126 0.032549 0.037939 0.002418 -0.019612 0.018440 0.063794 0.108198 0.231188 0.333384 0.230882 0.236449 0.334073 0.366303 0.329187 0.217354 0.162008 0.131444 0.098446 0.091489 0.039277 0.020206 0.136207 0.039597 0.127832 0.094745 0.131037 0.227580 0.203753 0.210731 0.177987 0.219447 0.134681 0.142116 0.113013 0.090592 0.129555 -0.030108 0.050778 0.083759 0.016388 0.153962 0.117245 0.193766 0.217022 0.151134 0.121105 0.228060 0.118856 0.051577 0.097417 0.069392 0.006686 0.000895 0.092350 0.064194 0.047213 0.136090 0.101131 0.131598 0.120233 0.154080 0.096789 0.085026 0.108447 0.054016 0.031043 0.004594 0.021921 0.003940 0.081778 0.097003 0.078363 0.070017 0.109644 0.132484 0.006994 0.115108 0.037169 -0.009768 0.015574 0.004905 -0.001887 0.044790 0.082043 -0.033538 0.102216 0.052884 0.014816 0.113679 0.036693 0.084044 0.098570 0.001222 0.010450 -0.011358 0.018655 -0.032589 0.087786 0.064164 0.119637 0.056982 0.128945 -0.012428 0.068127 -0.081959 -0.048596 0.004896 0.015395 0.015835 -0.033769 0.111856 0.023260 0.133422 -0.020036 -0.105474 -0.085614 -0.066884 0.054575 0.043462 0.022867 -0.000821 0.004019 -0.002831 0.066185 -0.016870 -0.037455 0.005785 -0.106583 0.035982 -0.056009 0.006712 0.073194 -0.022762 -0.027210 0.037682 0.058372 -0.004396 -0.067207 0.017983 -0.002417 0.085638 0.056632 0.128244 0.001541 0.010197 0.021165 0.024266 -0.087181 -0.001484 0.042525 0.011437 -0.051549 -0.069568 0.024930 0.156738 0.058777 0.117209 -0.027241 0.144663 0.026045 0.130802 -0.029139 -0.023964 -0.023996 0.192082 0.012465 0.028382 0.292742 0.323255 0.147641 0.244574 0.215693 0.122935 0.332734 -0.114265 -1.289726
0.072396 0.072835 0.074151 0.076344 0.079413 0.083359 0.088179 0.093873 0.100439 0.107876 0.116180 0.125349 0.135379 0.146265 0.158002 0.170584 0.184003 0.198249 0.213314 0.229184 0.245847 0.263285 0.281483 0.300419 0.320070 0.340413 0.361417 0.383052 0.405284 0.428073 0.451379 0.475155 0.499351 0.523913 0.548783 0.573896 0.599186 0.624579 0.649996 0.675356 0.700568 0.725541 0.750175 0.774366 0.798005 0.820979 0.843168 0.864449 0.884694 0.903771 0.921546 0.937880 0.952630 0.965655 0.976809 0.985948 0.992926 0.997599 0.999824 0.999465 0.996384 0.990454 0.981551 0.969561 0.954379 0.935911 0.914073 0.888800 0.860037 0.827749 0.791920 0.752553 0.709674 0.663329 0.613593 0.560565 0.504371 0.445165 0.383132 0.318485 0.251468 0.182357 0.111459 0.039108 0.034328 0.108452 0.182843 0.257050 0.330601 0.402998 0.473729 0.542265 0.608064 0.670579 0.729259 0.783555 0.832927 0.876847 0.914807 0.946328 0.970958 0.988290 0.997959 0.999655 0.993127 0.978189 0.954731 0.922716 0.882195 0.833306 0.776276 0.711432 0.639195 0.560085 0.474720 0.383814 0.288176 0.188702 0.086372 0.017760 0.122572 0.226888 0.329488 0.429121 0.524527 0.614441 0.697624 0.772871 0.839037 0.895052 0.939944 0.972855 0.993063 0.999999 0.993264 0.972643 0.938117 0.889878 0.828332 0.754105 0.668043 0.571213 0.464890 0.350549 0.229851 0.104621 0.023177 0.151465 0.278086 0.400838 0.517513 0.625937 0.724013 0.809765 0.881382 0.937261 0.976046 0.996668 0.998382 0.980790 0.943873 0.888001 0.813946 0.722884 0.616383 0.496390 0.365203 0.225432 0.079956 0.068130 0.215580 0.359068 0.495259 0.620888 0.732847 0.828262 0.904575 0.959618 0.991689 0.999608 0.982769 0.941181 0.875490 0.786987 0.677597 0.549856 0.406859 0.252202 0.089896 0.075727 0.240127 0.398676 0.546794 0.680076 0.794438 0.886246 0.952442 0.990659 0.999318 0.977705 0.926026 0.845431 0.738011 0.606766 0.455535 0.288903 0.112073 0.069286 0.249218 0.421668 0.580688 0.720654 0.836461 0.923736 0.979007 0.999863 0.985074 0.934679 0.850022 0.733747 0.589736 0.423012 0.239566 0.046178 0.149845 0.340922 0.519497 0.678345 0.810866 0.911384 0.975398 0.999810 0.983096 0.925420 0.828678 0.696465 0.533978 0.347831 0.145813 0.063423 0.270725 0.466832 0.642798 0.790402 0.902554 0.973654 0.999901 0.979518 0.912901 0.802658 0.653547 0.472306 0.267375 0.048534 0.173559 0.387870 0.583534 0.750428 0.879696 0.964255 0.999204 0.982146 0.913382 0.795967 0.635620 0.440485 0.220753 0.011844 0.244647 0.464745 0.659699 0.818254 0.931020 0.991050 0.994313 0.939999 0.830653 0.672107 0.473221 0.245423 0.002088 0.242225 0.472641 0.674871 0.836123 0.945927 0.996865 0.985105 0.910742 0.777885 0.594490 0.371927 0.124342 0.132252 0.380950 0.605094 0.789396 0.921003 0.990432 0.992305 0.925821 0.794913 0.608083 0.377917 0.120274 0.146762 0.404134 0.633177 0.816976 0.941659 0.997480 0.979642 0.888770 0.730982 0.517550 0.264155 0.010207 0.284632 0.537876 0.750018 0.904047 0.987272 0.992434 0.918397 0.770380 0.559669 0.302821 0.020441 0.264467 0.528321 0.748946 0.907460 0.989937 0.988696 0.903096 0.739734 0.512030 0.239196 0.055321 0.345824 0.606591 0.814166 0.949519 0.999841 0.959843 0.832384 0.628382 0.365961 0.068928 0.235353 0.518438 0.753487 0.917819 0.995186 0.977443 0.865503 0.669424 0.407605 0.105156 0.208470 0.502297 0.746890 0.917351
1.000000 1.000000 1.000000 1.000000 1.000000 1.000000 1.000000 1.000000 1.000000 1.000000 1.000000 1.000000 1.000000 1.000000 1.000000 1.000000 1.000000 1.000000 1.000000 1.000000 1.000000 1.000000 1.000000 1.000000 1.000000 1.000000 1.000000 1.000000 1.000000 1.000000 1.000000 1.000000 1.000000 1.000000 1.000000 1.000000 1.000000 1.000000 1.000000 1.000000 1.000000 1.000000 1.000000 1.000000 1.000000 1.000000 1.000000 1.000000 1.000000 1.000000 1.000000 1.000000 0.829880 0.829880 0.829880 0.829880 0.829880 0.829880 0.829880 0.808729 0.808729 0.808729 0.808729 0.808729 0.808729 0.808729 0.808729 0.808729 0.808729 0.808729 0.808729 0.808729 0.808729 0.808729 0.808729 0.808729 0.808729 0.808729 0.808729 0.808729 0.808729 0.808729 0.808729 0.808729 0.808729 0.808729 0.808729 0.808729 0.808729 0.808729 0.808729 0.808729 0.808729 0.808729 0.808729 0.808729 0.808729 0.808729 0.808729 0.808729 0.808729 0.808729 0.808729 0.947844 0.948731 0.949127 0.948204 0.946756 0.943109 0.939081 0.938534 0.940938 0.941185 0.941668 0.942637 0.943252 0.944875 0.945913 0.947103 0.947894 0.955874 0.959463 0.959922 0.959612 0.958387 0.967929 0.966160 0.963560 0.963681 0.963826 0.963778 0.963648 0.963541 0.963171 0.962180 0.962675 0.962503 0.961891 0.961047 0.959248 0.959230 0.958626 0.958659 0.959537 0.960257 0.960919 0.961363 0.961365 0.961447 0.960181 0.959291 0.949583 0.950222 0.942387 0.942067 0.942889 0.942382 0.941412 0.939906 0.939986 0.939932 0.939944 0.939888 0.940060 0.927193 0.926272 0.926258 0.926908 0.919751 0.910115 0.903372 0.900186 0.901926 0.906132 0.910390 0.910248 0.904597 0.900985 0.888571 0.880537 0.866179 0.864466 0.855362 0.864602 0.864552 0.866110 0.864343 0.864081 0.862605 0.859916 0.841449 0.846440 0.842035 0.837579 0.831171 0.829100 0.827636 0.830735 0.834289 0.832196 0.817032 0.817891 0.806864 0.789361 0.787826 0.791115 0.801940 0.814751 0.811281 0.810682 0.800239 0.795797 0.783433 0.776117 0.775080 0.777633 0.777009 0.784214 0.781242 0.791658 0.782753 0.778862 0.784064 0.797831 0.805958 0.806513 0.806282 0.803265 0.804026 0.789932 0.791437 0.792280 0.765336 0.764853 0.765544 0.764518 0.761603 0.751913 0.744707 0.743981 0.738813 0.703236 0.716358 0.718307 0.694415 0.700905 0.690033 0.679533 0.647817 0.652051 0.648831 0.656972 0.659559 0.660380 0.647629 0.652591 0.665634 0.666045 0.672245 0.665606 0.655384 0.645897 0.656475 0.656874 0.646851 0.651048 0.650865 0.637831 0.631241 0.608767 0.622688 0.607984 0.585030 0.579140 0.553481 0.534157 0.528616 0.520108 0.502170 0.490821 0.506687 0.505753 0.498044 0.489744 0.464629 0.417730 0.415960 0.415065 0.404767 0.395531 0.378657 0.348495 0.375298 0.378700 0.369122 0.341045 0.331653 0.319279 0.253655 0.237706 0.208927 0.216192 0.217349 0.210178 0.192817 0.191578 0.210438 0.219704 0.237675 0.236630 0.263284 0.239682 0.221271 0.235610 0.217821 0.218708 0.210887 0.167251 0.197569 0.201298 0.209639 0.219066 0.165670 0.133511 0.102421 0.100523 0.113349 0.136258 0.162403 0.145325 0.126895 0.024385 0.056296 0.083568 0.083568 0.083568 0.083568 0.083568 0.083568 0.083568 0.083568 0.083568 0.083568 0.083568 0.026329 0.026329 0.026329 0.026329 0.026329 0.026329 0.026329 0.026329 0.026329 0.026329 0.026329 0.026329 0.026329 0.026329 0.026329 0.026329 0.026329 0.026329 0.026329
0.000000 0.000000 0.000000 0.000000 0.000000 0.000000 0.000000 0.000000 0.000000 0.000000 0.000000 0.000000 0.000000 0.000000 0.000000 0.000000 0.000000 0.000000 0.000000 0.000000 0.000000 0.000000 0.000000 0.000000 0.000000 0.000000 0.000000 0.000000 0.000000 0.000000 0.000000 0.000000 0.000000 0.000000 0.000000 0.000000 0.000000 0.000000 0.000000 0.000000 0.000000 0.000000 0.000000 0.000000 0.000000 0.000000 0.000000 0.000000 0.000000 0.000000 0.000000 0.000000 0.173422 0.173422 0.173422 0.173422 0.173422 0.173422 0.173422 0.191565 0.191565 0.191565 0.191565 0.191565 0.191565 0.191565 0.191565 0.191565 0.191565 0.191565 0.191565 0.191565 0.191565 0.191565 0.191565 0.191565 0.191565 0.191565 0.191565 0.191565 0.191565 0.191565 0.191565 0.191565 0.191565 0.191565 0.191565 0.191565 0.191565 0.191565 0.191565 0.191565 0.191565 0.191565 0.191565 0.191565 0.191565 0.191565 0.191565 0.191565 0.191565 0.191565 0.191565 0.219529 0.219529 0.219529 0.219529 0.219529 0.219529 0.219529 0.219529 0.219529 0.219529 0.219529 0.219529 0.219529 0.219529 0.219529 0.219529 0.219529 0.219529 0.219529 0.219529 0.219529 0.219529 0.219529 0.219529 0.219529 0.219529 0.219529 0.219529 0.219529 0.219529 0.219529 0.237356 0.237356 0.237356 0.237356 0.237356 0.237356 0.237356 0.237356 0.237356 0.237356 0.237356 0.237356 0.237356 0.237356 0.237356 0.237356 0.237356 0.237356 0.237356 0.237356 0.237356 0.237356 0.237356 0.237356 0.244339 0.244339 0.244339 0.244339 0.244339 0.244339 0.244339 0.244339 0.244339 0.244339 0.244339 0.244339 0.244339 0.244339 0.244339 0.244339 0.244339 0.244339 0.244339 0.244339 0.244339 0.248069 0.248069 0.248069 0.248069 0.248069 0.248069 0.248069 0.248069 0.248069 0.248069 0.248069 0.248069 0.248069 0.248069 0.248069 0.248069 0.248069 0.248069 0.248069 0.248069 0.248069 0.248069 0.248069 0.248069 0.248069 0.248069 0.248069 0.248069 0.248069 0.248069 0.248069 0.248069 0.248069 0.248069 0.248069 0.248069 0.248069 0.256074 0.256074 0.256074 0.256074 0.256074 0.256074 0.256074 0.256074 0.256074 0.256074 0.256074 0.256074 0.256074 0.256074 0.256074 0.256074 0.256074 0.256074 0.256074 0.256074 0.256074 0.256074 0.256074 0.256074 0.256074 0.256074 0.256074 0.256074 0.256074 0.256074 0.256074 0.256074 0.256074 0.256074 0.256074 0.256074 0.256074 0.256074 0.256074 0.256074 0.256074 0.256074 0.256074 0.256074 0.256074 0.260378 0.260378 0.260378 0.260378 0.260378 0.260378 0.260378 0.260378 0.260378 0.260378 0.260378 0.260378 0.260378 0.256074 0.256074 0.256074 0.256074 0.256074 0.256074 0.256074 0.256074 0.256074 0.256074 0.256074 0.256074 0.256074 0.260378 0.260378 0.260378 0.260378 0.260378 0.260378 0.260378 0.260378 0.260378 0.260378 0.260378 0.260378 0.251976 0.251976 0.251976 0.251976 0.251976 0.251976 0.251976 0.251976 0.251976 0.251976 0.251976 0.251976 0.256074 0.256074 0.256074 0.256074 0.256074 0.256074 0.256074 0.256074 0.256074 0.256074 0.256074 0.251976 0.251976 0.251976 0.251976 0.251976 0.251976 0.251976 0.251976 0.251976 0.251976 0.251976 0.248069 0.248069 0.248069 0.248069 0.248069 0.248069 0.248069 0.248069 0.248069 0.248069 0.248069 0.256074 0.256074 0.256074 0.256074 0.256074 0.256074 0.256074 0.256074 0.256074 0.256074 0.256074 0.256074 0.256074 0.256074 0.256074 0.256074 0.256074 0.256074 0.256074
