# Output from CTFFind version 4.1.9, run on 2019-11-03 19:30:10
# Input file: stack6_bm3d_averaged_1_3.75_0_2500_half.mrc ; Number of micrographs: 1
# Pixel size: 3.000 Angstroms ; acceleration voltage: 300.0 keV ; spherical aberration: 0.00 mm ; amplitude contrast: 0.07
# Box size: 512 pixels ; min. res.: 30.0 Angstroms ; max. res.: 5.0 Angstroms ; min. def.: 5000.0 um; max. def. 50000.0 um; num. frames averaged: 1
# 6 lines per micrograph: #1 - spatial frequency (1/Angstroms); #2 - 1D rotational average of spectrum (assuming no astigmatism); #3 - 1D rotational average of spectrum; #4 - CTF fit; #5 - cross-correlation between spectrum and CTF fit; #6 - 2sigma of expected cross correlation of noise
0.000000 0.000651 0.001302 0.001953 0.002604 0.003255 0.003906 0.004557 0.005208 0.005859 0.006510 0.007161 0.007812 0.008464 0.009115 0.009766 0.010417 0.011068 0.011719 0.012370 0.013021 0.013672 0.014323 0.014974 0.015625 0.016276 0.016927 0.017578 0.018229 0.018880 0.019531 0.020182 0.020833 0.021484 0.022135 0.022786 0.023438 0.024089 0.024740 0.025391 0.026042 0.026693 0.027344 0.027995 0.028646 0.029297 0.029948 0.030599 0.031250 0.031901 0.032552 0.033203 0.033854 0.034505 0.035156 0.035807 0.036458 0.037109 0.037760 0.038411 0.039062 0.039714 0.040365 0.041016 0.041667 0.042318 0.042969 0.043620 0.044271 0.044922 0.045573 0.046224 0.046875 0.047526 0.048177 0.048828 0.049479 0.050130 0.050781 0.051432 0.052083 0.052734 0.053385 0.054036 0.054688 0.055339 0.055990 0.056641 0.057292 0.057943 0.058594 0.059245 0.059896 0.060547 0.061198 0.061849 0.062500 0.063151 0.063802 0.064453 0.065104 0.065755 0.066406 0.067057 0.067708 0.068359 0.069010 0.069661 0.070312 0.070964 0.071615 0.072266 0.072917 0.073568 0.074219 0.074870 0.075521 0.076172 0.076823 0.077474 0.078125 0.078776 0.079427 0.080078 0.080729 0.081380 0.082031 0.082682 0.083333 0.083984 0.084635 0.085286 0.085938 0.086589 0.087240 0.087891 0.088542 0.089193 0.089844 0.090495 0.091146 0.091797 0.092448 0.093099 0.093750 0.094401 0.095052 0.095703 0.096354 0.097005 0.097656 0.098307 0.098958 0.099609 0.100260 0.100911 0.101562 0.102214 0.102865 0.103516 0.104167 0.104818 0.105469 0.106120 0.106771 0.107422 0.108073 0.108724 0.109375 0.110026 0.110677 0.111328 0.111979 0.112630 0.113281 0.113932 0.114583 0.115234 0.115885 0.116536 0.117188 0.117839 0.118490 0.119141 0.119792 0.120443 0.121094 0.121745 0.122396 0.123047 0.123698 0.124349 0.125000 0.125651 0.126302 0.126953 0.127604 0.128255 0.128906 0.129557 0.130208 0.130859 0.131510 0.132161 0.132812 0.133464 0.134115 0.134766 0.135417 0.136068 0.136719 0.137370 0.138021 0.138672 0.139323 0.139974 0.140625 0.141276 0.141927 0.142578 0.143229 0.143880 0.144531 0.145182 0.145833 0.146484 0.147135 0.147786 0.148438 0.149089 0.149740 0.150391 0.151042 0.151693 0.152344 0.152995 0.153646 0.154297 0.154948 0.155599 0.156250 0.156901 0.157552 0.158203 0.158854 0.159505 0.160156 0.160807 0.161458 0.162109 0.162760 0.163411 0.164062 0.164714 0.165365 0.166016 0.166667 0.167318 0.167969 0.168620 0.169271 0.169922 0.170573 0.171224 0.171875 0.172526 0.173177 0.173828 0.174479 0.175130 0.175781 0.176432 0.177083 0.177734 0.178385 0.179036 0.179688 0.180339 0.180990 0.181641 0.182292 0.182943 0.183594 0.184245 0.184896 0.185547 0.186198 0.186849 0.187500 0.188151 0.188802 0.189453 0.190104 0.190755 0.191406 0.192057 0.192708 0.193359 0.194010 0.194661 0.195312 0.195964 0.196615 0.197266 0.197917 0.198568 0.199219 0.199870 0.200521 0.201172 0.201823 0.202474 0.203125 0.203776 0.204427 0.205078 0.205729 0.206380 0.207031 0.207682 0.208333 0.208984 0.209635 0.210286 0.210938 0.211589 0.212240 0.212891 0.213542 0.214193 0.214844 0.215495 0.216146 0.216797 0.217448 0.218099 0.218750 0.219401 0.220052 0.220703 0.221354 0.222005 0.222656 0.223307 0.223958 0.224609 0.225260 0.225911 0.226562 0.227214 0.227865 0.228516 0.229167 0.229818 0.230469 0.231120 0.231771 0.232422 0.233073 0.233724 0.234375 0.235026 0.235677
       0.30046        0.30046        0.30046        0.30046        0.30046        0.30046        0.30046        0.30046        0.30046        0.30046        0.30046        0.30046        0.30046        0.30046        0.30046        0.30046        0.30046        0.30046        0.30046        0.30046        0.30046        0.30046        0.30046        0.30046        0.30046        0.30046        0.30046        0.30046        0.30046        0.30046        0.30046        0.30046        0.30046        0.30046        0.30046        0.30046        0.30046        0.30046        0.30046        0.30046        0.30046        0.30046        0.30046        0.30046        0.30046        0.30046        0.30046        0.30046        0.30046        0.30046        0.30046        0.61285        0.76195        0.36666        0.23075        0.13967       -0.14410        0.11776        0.02399        0.03784        0.09877        0.33074        0.37507        0.31445        0.18670       -0.02570        0.01223        0.05269       -0.16575       -0.17526       -0.09250       -0.12116       -0.27881       -0.17148       -0.30957       -0.29345       -0.30339       -0.38063       -0.45499       -0.43200       -0.35119       -0.31127       -0.40284       -0.30547       -0.37189       -0.30734       -0.24163       -0.18675       -0.15064       -0.06284       -0.03617        0.08254        0.11756        0.21975        0.32511        0.38882        0.37394        0.47766        0.56557        0.58524        0.66874        0.63534        0.69108        0.60793        0.64051        0.64416        0.57895        0.58067        0.58906        0.39947        0.34142        0.35619        0.34078        0.18335        0.12622        0.07549        0.07110        0.05382       -0.04456        0.01978       -0.02023       -0.06552        0.06471        0.16111        0.26125        0.33213        0.32599        0.38094        0.49809        0.52711        0.47263        0.64780        0.52295        0.50450        0.55645        0.53037        0.51229        0.45890        0.38291        0.34589        0.24492        0.19639        0.15122        0.15403        0.12245        0.07117        0.11205        0.14915        0.18099        0.17076        0.22893        0.26549        0.33589        0.44717        0.42946        0.43088        0.49063        0.54090        0.52816        0.48441        0.37637        0.40489        0.35774        0.27822        0.22803        0.22783        0.18481        0.17096        0.16072        0.18084        0.15865        0.21128        0.26067        0.33330        0.37807        0.39522        0.45343        0.48095        0.44494        0.43299        0.40107        0.40400        0.39900        0.34661        0.28494        0.27280        0.21980        0.24350        0.23385        0.19479        0.22604        0.23259        0.24756        0.31857        0.35419        0.37491        0.38549        0.39405        0.42251        0.41183        0.40696        0.30345        0.29669        0.26218        0.27775        0.23711        0.19631        0.25306        0.31138        0.29664        0.28213        0.33154        0.29426        0.37475        0.34007        0.35282        0.36114        0.35419        0.31625        0.30336        0.28386        0.27646        0.25295        0.24396        0.25080        0.28009        0.28556        0.30960        0.34304        0.36422        0.33033        0.32427        0.34207        0.31027        0.27590        0.28392        0.26367        0.26276        0.26449        0.29298        0.27557        0.26743        0.29941        0.30204        0.32087        0.32477        0.33092        0.27151        0.26721        0.28414        0.27917        0.26437        0.25660        0.22624        0.24433        0.25562        0.25710        0.27441        0.27766        0.31454        0.32975        0.30729        0.30119        0.23052        0.23576        0.26736        0.23041        0.21022        0.26148        0.30987        0.24623        0.29464        0.29768        0.29214        0.31134        0.26548        0.28179        0.28560        0.27417        0.26479        0.22708        0.24802        0.24403        0.28764        0.29630        0.30350        0.29685        0.32150        0.24884        0.29902        0.28944        0.22325        0.29228        0.27147        0.28514        0.29114        0.30308        0.30165        0.34386        0.28897        0.24736        0.24571        0.21681        0.24589        0.27613        0.29726        0.27518        0.27684        0.26666        0.26759        0.26080        0.27105        0.22733        0.27354        0.25217        0.23851        0.23659        0.29528        0.30257        0.27180        0.27325        0.22777        0.29163        0.22978        0.19642        0.22800        0.27272        0.27039        0.31079        0.24746        0.21538        0.26065        0.22830        0.23417        0.18920        0.20684        0.20641        0.26272        0.25769        0.19355        0.25758        0.23373        0.29114        0.23583        0.22090        0.23583        0.20893        0.13404        0.17970        0.13784        0.16727        0.18011        0.09809        0.29343        0.13148        0.06484        0.11439        0.11638        0.21941        0.23196       -0.01185       -0.68570       -0.97561
3.014175 2.984306 2.954591 2.925029 2.895620 2.866364 2.837262 2.808313 2.779516 2.750874 2.722384 2.694048 2.665865 2.637836 2.609959 2.582236 2.554666 2.527249 2.499985 2.472875 2.445918 2.419114 2.392464 2.365966 2.339623 2.313432 2.287394 2.261510 2.235779 2.210201 2.184776 2.159505 2.134387 2.109422 2.084610 2.059952 2.035447 2.011095 1.986897 1.962851 1.938959 1.915220 1.891635 1.868202 1.844923 1.821797 1.798824 1.776005 1.753339 1.730826 1.708466 2.050762 2.387217 1.745293 1.706813 1.388546 0.863124 1.246095 1.102007 1.143571 1.001957 1.601898 1.531091 1.529624 1.271898 0.943116 0.780421 1.022126 0.752233 0.432324 0.571620 0.669471 0.394278 0.461946 0.281044 0.242110 0.165590 0.159183 -0.098665 -0.043257 0.057553 0.039172 0.010730 0.109134 -0.055878 -0.004971 0.128773 0.204480 0.248968 0.326810 0.355721 0.635505 0.534749 0.679923 0.914325 0.959836 0.923610 1.178452 1.188027 1.265023 1.352121 1.220296 1.439394 1.193529 1.193215 1.358393 1.145377 1.085085 1.198741 0.934228 0.674979 0.700601 0.746663 0.449847 0.378566 0.257380 0.188993 0.150414 0.008901 0.128095 0.030249 -0.087746 0.075204 0.211971 0.336994 0.499323 0.516580 0.516875 0.718931 0.806913 0.596517 0.979493 0.870380 0.633597 0.781072 0.692952 0.730296 0.697434 0.442756 0.467869 0.267739 0.196764 0.125637 -0.003741 0.052257 -0.089045 -0.034099 -0.031303 0.099390 -0.041043 0.209089 0.152194 0.200766 0.393186 0.474422 0.409302 0.383897 0.615032 0.609525 0.487902 0.345161 0.344478 0.324641 0.174522 0.064891 0.045674 0.019770 -0.028285 -0.083364 -0.045973 -0.110562 0.007825 0.014547 0.123214 0.238473 0.235584 0.359972 0.349873 0.402859 0.361048 0.432893 0.367615 0.268201 0.345138 0.138682 0.185155 0.050561 0.087717 0.041736 0.040186 -0.050311 0.058435 0.036157 0.111657 0.230203 0.243297 0.255200 0.272897 0.323439 0.325887 0.324690 0.205368 0.095895 0.138740 0.049040 0.063833 -0.035369 -0.038278 0.078582 0.125116 0.097868 0.092329 0.123851 0.183098 0.204881 0.157195 0.191030 0.215837 0.137997 0.119365 0.077747 0.059836 0.063167 -0.032150 0.026629 0.064949 0.010919 0.104999 0.113972 0.192918 0.209015 0.150274 0.129727 0.168277 0.090967 0.056871 0.087909 0.022562 0.018879 0.071024 0.072317 0.061106 0.030105 0.122048 0.093550 0.133390 0.140030 0.114665 0.063394 0.017742 0.076091 0.044084 0.045527 -0.008571 -0.040121 0.009154 0.000165 0.013283 0.072338 0.013470 0.109652 0.147363 0.046904 0.064108 -0.055264 0.008666 0.016035 -0.065069 -0.066580 0.054759 0.076524 -0.043675 0.068785 0.052939 0.080007 0.054134 -0.001421 0.013424 0.096698 -0.043872 0.020030 -0.045733 -0.011595 -0.043785 0.061573 0.053375 0.064644 0.017203 0.112019 -0.048399 0.071054 -0.009731 -0.067941 0.043048 -0.009263 0.025222 0.008539 0.103590 0.045442 0.070806 0.041719 -0.108026 -0.023860 -0.111458 -0.013975 0.006339 0.018097 0.006508 -0.027458 -0.006164 -0.013561 -0.052929 -0.014118 -0.128332 0.004623 -0.047212 -0.085192 -0.040394 0.025312 0.006539 -0.005260 0.025294 -0.050140 0.061578 -0.036644 -0.113867 -0.031319 0.048548 0.068700 0.082859 0.006690 -0.027531 0.051238 0.009333 -0.062013 -0.014329 -0.104107 0.023252 0.090845 0.069263 -0.037350 0.109128 0.040838 0.225162 0.017579 0.090355 0.099569 0.070915 -0.124379 0.047972 -0.089867 0.091172 0.040493 -0.010900 0.475124 0.158160 0.098991 0.243644 0.214258 0.308517 0.314023 -0.006663 -1.560499
0.072396 0.072835 0.074150 0.076341 0.079409 0.083352 0.088169 0.093860 0.100422 0.107854 0.116153 0.125317 0.135341 0.146220 0.157950 0.170525 0.183935 0.198174 0.213229 0.229090 0.245743 0.263172 0.281359 0.300284 0.319925 0.340256 0.361249 0.382872 0.405092 0.427870 0.451164 0.474929 0.499114 0.523665 0.548525 0.573629 0.598909 0.624293 0.649703 0.675056 0.700263 0.725232 0.749863 0.774053 0.797693 0.820670 0.842864 0.864152 0.884407 0.903497 0.921287 0.937638 0.952410 0.965460 0.976642 0.985813 0.992826 0.997538 0.999807 0.999495 0.996465 0.990590 0.981747 0.969820 0.954705 0.936307 0.914544 0.889348 0.860666 0.828462 0.792719 0.753439 0.710648 0.664393 0.614747 0.561808 0.505702 0.446582 0.384632 0.320064 0.253122 0.184080 0.113243 0.040946 0.032444 0.106534 0.180901 0.255097 0.328648 0.401061 0.471823 0.540406 0.606269 0.668864 0.727642 0.782055 0.831562 0.875636 0.913769 0.945478 0.970316 0.987871 0.997778 0.999725 0.993461 0.978797 0.955619 0.923890 0.883658 0.835055 0.778309 0.713740 0.641767 0.562906 0.477771 0.387073 0.291616 0.192291 0.090076 0.013979 0.118755 0.223079 0.325732 0.425469 0.521026 0.611144 0.694580 0.770131 0.836649 0.893062 0.938394 0.971784 0.992505 0.999982 0.993808 0.973762 0.939816 0.892153 0.831170 0.757483 0.671929 0.575562 0.469650 0.355658 0.235237 0.110203 0.017486 0.145759 0.272463 0.395400 0.512363 0.621177 0.719743 0.806081 0.878373 0.935005 0.974611 0.996110 0.998739 0.982085 0.946109 0.891162 0.817997 0.727768 0.622023 0.502688 0.372043 0.232681 0.087467 0.060519 0.208038 0.351770 0.488380 0.614603 0.727323 0.823652 0.901017 0.957231 0.990565 0.999811 0.984331 0.944101 0.879730 0.792473 0.684218 0.557466 0.415281 0.261227 0.099292 0.066213 0.230758 0.389724 0.538526 0.672750 0.788294 0.881496 0.949266 0.989193 0.999650 0.979871 0.930005 0.851143 0.745319 0.615475 0.465399 0.299627 0.123325 0.057867 0.238014 0.411063 0.571061 0.712361 0.829824 0.919029 0.976442 0.999582 0.987142 0.939075 0.856638 0.742387 0.600126 0.434793 0.252323 0.059439 0.136586 0.328182 0.507794 0.668171 0.802665 0.905532 0.972187 0.999430 0.985626 0.930817 0.836773 0.706972 0.546492 0.361854 0.160761 0.048194 0.255887 0.453061 0.630741 0.780645 0.895594 0.969874 0.999542 0.982668 0.919481 0.812423 0.666087 0.487067 0.283677 0.065598 0.156568 0.371807 0.569234 0.738654 0.871105 0.959354 0.998321 0.985405 0.920691 0.807011 0.649876 0.457241 0.239140 0.007191 0.226008 0.447551 0.644946 0.806824 0.923629 0.988197 0.996248 0.946697 0.841807 0.687136 0.491300 0.265520 0.023025 0.221713 0.453821 0.658937 0.824115 0.938670 0.994899 0.988648 0.919664 0.791706 0.612396 0.392822 0.146897 0.109495 0.359508 0.586430 0.774819 0.911573 0.986881 0.994978 0.934637 0.809357 0.627234 0.400496 0.144733 0.122147 0.381142 0.613497 0.802109 0.932773 0.995331 0.984500 0.900383 0.748583 0.539896 0.289615 0.016457 0.258806 0.514918 0.731772 0.892021 0.982523 0.995452 0.929061 0.787949 0.582815 0.329744 0.048976 0.236656 0.503563 0.729363 0.894783 0.985343 0.992701 0.915486 0.759564 0.537689 0.268528 0.024840 0.316873 0.581765 0.795747 0.939259 0.998789 0.968228 0.849575 0.652924 0.395690 0.101146 0.203624 0.490194 0.731452 0.904184 0.991375 0.983962 0.881867 0.694175 0.438439 0.139119 0.174697 0.472078 0.723304 0.902862
1.000000 1.000000 1.000000 1.000000 1.000000 1.000000 1.000000 1.000000 1.000000 1.000000 1.000000 1.000000 1.000000 1.000000 1.000000 1.000000 1.000000 1.000000 1.000000 1.000000 1.000000 1.000000 1.000000 1.000000 1.000000 1.000000 1.000000 1.000000 1.000000 1.000000 1.000000 1.000000 1.000000 1.000000 1.000000 1.000000 1.000000 1.000000 1.000000 1.000000 1.000000 1.000000 1.000000 1.000000 1.000000 1.000000 1.000000 1.000000 1.000000 1.000000 1.000000 1.000000 0.829421 0.829421 0.829421 0.829421 0.829421 0.829421 0.829421 0.803023 0.803023 0.803023 0.803023 0.803023 0.803023 0.803023 0.803023 0.803023 0.803023 0.803023 0.803023 0.803023 0.803023 0.803023 0.803023 0.803023 0.803023 0.803023 0.803023 0.803023 0.803023 0.803023 0.803023 0.803023 0.803023 0.803023 0.803023 0.803023 0.803023 0.803023 0.803023 0.803023 0.803023 0.803023 0.803023 0.803023 0.803023 0.803023 0.803023 0.803023 0.803023 0.803023 0.803023 0.946116 0.946969 0.947337 0.947972 0.946376 0.946073 0.944365 0.943467 0.946154 0.946363 0.946309 0.947242 0.947792 0.948948 0.950383 0.952281 0.952249 0.960534 0.964321 0.963774 0.962983 0.962017 0.975774 0.975695 0.975438 0.975371 0.975479 0.975464 0.975384 0.975303 0.975916 0.975211 0.975632 0.975560 0.975197 0.974606 0.974395 0.974033 0.973431 0.973763 0.974495 0.974564 0.975030 0.977644 0.976724 0.977334 0.975953 0.975247 0.974121 0.972274 0.972678 0.972666 0.974140 0.972220 0.970465 0.971509 0.969758 0.969677 0.969604 0.969853 0.970097 0.968549 0.968597 0.968616 0.969416 0.966107 0.954194 0.952502 0.949280 0.950361 0.952185 0.954403 0.953937 0.953509 0.952007 0.946302 0.943115 0.932717 0.930288 0.926137 0.925627 0.926489 0.927356 0.926188 0.926460 0.924968 0.924487 0.921346 0.924010 0.922720 0.921116 0.914742 0.913910 0.912390 0.913592 0.915368 0.916182 0.912995 0.908936 0.898525 0.882792 0.881771 0.880667 0.887012 0.878635 0.877355 0.877531 0.860980 0.858395 0.850035 0.848841 0.850036 0.851507 0.851853 0.853642 0.852750 0.831892 0.826448 0.821559 0.820579 0.823733 0.833093 0.835447 0.832119 0.823346 0.821090 0.798119 0.798369 0.801157 0.795467 0.801228 0.783370 0.783280 0.777346 0.779086 0.774849 0.769254 0.768938 0.745717 0.749919 0.753207 0.757597 0.757000 0.742089 0.734795 0.696314 0.702410 0.681684 0.691038 0.691957 0.679276 0.667874 0.668885 0.672680 0.663415 0.667679 0.648665 0.636820 0.619137 0.614711 0.622244 0.590604 0.597982 0.597590 0.590191 0.582125 0.598230 0.610905 0.614617 0.594307 0.593023 0.580588 0.551583 0.527163 0.510246 0.496703 0.498126 0.515547 0.516074 0.524342 0.509669 0.479555 0.447472 0.452043 0.455619 0.443156 0.437594 0.428716 0.416657 0.433758 0.420065 0.443850 0.437073 0.428782 0.396193 0.323865 0.301090 0.260462 0.277664 0.284179 0.285518 0.281499 0.281569 0.256736 0.196323 0.190646 0.192670 0.213463 0.184057 0.148035 0.159966 0.155479 0.151648 0.147748 0.147963 0.203857 0.195301 0.220627 0.219092 0.162078 0.136995 0.075777 0.079488 0.082995 0.113885 0.138469 0.128879 0.102796 0.008021 0.034353 0.066578 0.066578 0.066578 0.066578 0.066578 0.066578 0.066578 0.066578 0.066578 0.066578 0.066578 -0.007423 -0.007423 -0.007423 -0.007423 -0.007423 -0.007423 -0.007423 -0.007423 -0.007423 -0.007423 -0.007423 -0.007423 -0.007423 -0.007423 -0.007423 -0.007423 -0.007423 -0.007423 -0.007423
0.000000 0.000000 0.000000 0.000000 0.000000 0.000000 0.000000 0.000000 0.000000 0.000000 0.000000 0.000000 0.000000 0.000000 0.000000 0.000000 0.000000 0.000000 0.000000 0.000000 0.000000 0.000000 0.000000 0.000000 0.000000 0.000000 0.000000 0.000000 0.000000 0.000000 0.000000 0.000000 0.000000 0.000000 0.000000 0.000000 0.000000 0.000000 0.000000 0.000000 0.000000 0.000000 0.000000 0.000000 0.000000 0.000000 0.000000 0.000000 0.000000 0.000000 0.000000 0.000000 0.173422 0.173422 0.173422 0.173422 0.173422 0.173422 0.173422 0.191565 0.191565 0.191565 0.191565 0.191565 0.191565 0.191565 0.191565 0.191565 0.191565 0.191565 0.191565 0.191565 0.191565 0.191565 0.191565 0.191565 0.191565 0.191565 0.191565 0.191565 0.191565 0.191565 0.191565 0.191565 0.191565 0.191565 0.191565 0.191565 0.191565 0.191565 0.191565 0.191565 0.191565 0.191565 0.191565 0.191565 0.191565 0.191565 0.191565 0.191565 0.191565 0.191565 0.191565 0.219529 0.219529 0.219529 0.219529 0.219529 0.219529 0.219529 0.219529 0.219529 0.219529 0.219529 0.219529 0.219529 0.219529 0.219529 0.219529 0.219529 0.219529 0.219529 0.219529 0.219529 0.219529 0.219529 0.219529 0.219529 0.219529 0.219529 0.219529 0.219529 0.219529 0.219529 0.237356 0.237356 0.237356 0.237356 0.237356 0.237356 0.237356 0.237356 0.237356 0.237356 0.237356 0.237356 0.237356 0.237356 0.237356 0.237356 0.237356 0.237356 0.237356 0.237356 0.237356 0.237356 0.237356 0.237356 0.244339 0.244339 0.244339 0.244339 0.244339 0.244339 0.244339 0.244339 0.244339 0.244339 0.244339 0.244339 0.244339 0.244339 0.244339 0.244339 0.244339 0.244339 0.244339 0.244339 0.244339 0.248069 0.248069 0.248069 0.248069 0.248069 0.248069 0.248069 0.248069 0.248069 0.248069 0.248069 0.248069 0.248069 0.248069 0.248069 0.248069 0.248069 0.248069 0.248069 0.248069 0.248069 0.248069 0.248069 0.248069 0.248069 0.248069 0.248069 0.248069 0.248069 0.248069 0.248069 0.248069 0.248069 0.248069 0.248069 0.248069 0.248069 0.256074 0.256074 0.256074 0.256074 0.256074 0.256074 0.256074 0.256074 0.256074 0.256074 0.256074 0.256074 0.256074 0.256074 0.256074 0.256074 0.256074 0.256074 0.256074 0.256074 0.256074 0.256074 0.256074 0.256074 0.256074 0.256074 0.256074 0.256074 0.256074 0.256074 0.256074 0.256074 0.256074 0.256074 0.256074 0.256074 0.256074 0.256074 0.256074 0.256074 0.256074 0.256074 0.256074 0.256074 0.256074 0.260378 0.260378 0.260378 0.260378 0.260378 0.260378 0.260378 0.260378 0.260378 0.260378 0.260378 0.260378 0.260378 0.256074 0.256074 0.256074 0.256074 0.256074 0.256074 0.256074 0.256074 0.256074 0.256074 0.256074 0.256074 0.256074 0.260378 0.260378 0.260378 0.260378 0.260378 0.260378 0.260378 0.260378 0.260378 0.260378 0.260378 0.260378 0.251976 0.251976 0.251976 0.251976 0.251976 0.251976 0.251976 0.251976 0.251976 0.251976 0.251976 0.251976 0.256074 0.256074 0.256074 0.256074 0.256074 0.256074 0.256074 0.256074 0.256074 0.256074 0.256074 0.251976 0.251976 0.251976 0.251976 0.251976 0.251976 0.251976 0.251976 0.251976 0.251976 0.251976 0.248069 0.248069 0.248069 0.248069 0.248069 0.248069 0.248069 0.248069 0.248069 0.248069 0.248069 0.256074 0.256074 0.256074 0.256074 0.256074 0.256074 0.256074 0.256074 0.256074 0.256074 0.256074 0.256074 0.256074 0.256074 0.256074 0.256074 0.256074 0.256074 0.256074
