# Output from CTFFind version 4.1.9, run on 2019-11-03 20:10:20
# Input file: stack1_bm3d_averaged_1_10_0_3000_half.mrc ; Number of micrographs: 1
# Pixel size: 3.000 Angstroms ; acceleration voltage: 300.0 keV ; spherical aberration: 0.00 mm ; amplitude contrast: 0.07
# Box size: 512 pixels ; min. res.: 30.0 Angstroms ; max. res.: 5.0 Angstroms ; min. def.: 5000.0 um; max. def. 50000.0 um; num. frames averaged: 1
# 6 lines per micrograph: #1 - spatial frequency (1/Angstroms); #2 - 1D rotational average of spectrum (assuming no astigmatism); #3 - 1D rotational average of spectrum; #4 - CTF fit; #5 - cross-correlation between spectrum and CTF fit; #6 - 2sigma of expected cross correlation of noise
0.000000 0.000651 0.001302 0.001953 0.002604 0.003255 0.003906 0.004557 0.005208 0.005859 0.006510 0.007161 0.007812 0.008464 0.009115 0.009766 0.010417 0.011068 0.011719 0.012370 0.013021 0.013672 0.014323 0.014974 0.015625 0.016276 0.016927 0.017578 0.018229 0.018880 0.019531 0.020182 0.020833 0.021484 0.022135 0.022786 0.023438 0.024089 0.024740 0.025391 0.026042 0.026693 0.027344 0.027995 0.028646 0.029297 0.029948 0.030599 0.031250 0.031901 0.032552 0.033203 0.033854 0.034505 0.035156 0.035807 0.036458 0.037109 0.037760 0.038411 0.039062 0.039714 0.040365 0.041016 0.041667 0.042318 0.042969 0.043620 0.044271 0.044922 0.045573 0.046224 0.046875 0.047526 0.048177 0.048828 0.049479 0.050130 0.050781 0.051432 0.052083 0.052734 0.053385 0.054036 0.054688 0.055339 0.055990 0.056641 0.057292 0.057943 0.058594 0.059245 0.059896 0.060547 0.061198 0.061849 0.062500 0.063151 0.063802 0.064453 0.065104 0.065755 0.066406 0.067057 0.067708 0.068359 0.069010 0.069661 0.070312 0.070964 0.071615 0.072266 0.072917 0.073568 0.074219 0.074870 0.075521 0.076172 0.076823 0.077474 0.078125 0.078776 0.079427 0.080078 0.080729 0.081380 0.082031 0.082682 0.083333 0.083984 0.084635 0.085286 0.085938 0.086589 0.087240 0.087891 0.088542 0.089193 0.089844 0.090495 0.091146 0.091797 0.092448 0.093099 0.093750 0.094401 0.095052 0.095703 0.096354 0.097005 0.097656 0.098307 0.098958 0.099609 0.100260 0.100911 0.101562 0.102214 0.102865 0.103516 0.104167 0.104818 0.105469 0.106120 0.106771 0.107422 0.108073 0.108724 0.109375 0.110026 0.110677 0.111328 0.111979 0.112630 0.113281 0.113932 0.114583 0.115234 0.115885 0.116536 0.117188 0.117839 0.118490 0.119141 0.119792 0.120443 0.121094 0.121745 0.122396 0.123047 0.123698 0.124349 0.125000 0.125651 0.126302 0.126953 0.127604 0.128255 0.128906 0.129557 0.130208 0.130859 0.131510 0.132161 0.132812 0.133464 0.134115 0.134766 0.135417 0.136068 0.136719 0.137370 0.138021 0.138672 0.139323 0.139974 0.140625 0.141276 0.141927 0.142578 0.143229 0.143880 0.144531 0.145182 0.145833 0.146484 0.147135 0.147786 0.148438 0.149089 0.149740 0.150391 0.151042 0.151693 0.152344 0.152995 0.153646 0.154297 0.154948 0.155599 0.156250 0.156901 0.157552 0.158203 0.158854 0.159505 0.160156 0.160807 0.161458 0.162109 0.162760 0.163411 0.164062 0.164714 0.165365 0.166016 0.166667 0.167318 0.167969 0.168620 0.169271 0.169922 0.170573 0.171224 0.171875 0.172526 0.173177 0.173828 0.174479 0.175130 0.175781 0.176432 0.177083 0.177734 0.178385 0.179036 0.179688 0.180339 0.180990 0.181641 0.182292 0.182943 0.183594 0.184245 0.184896 0.185547 0.186198 0.186849 0.187500 0.188151 0.188802 0.189453 0.190104 0.190755 0.191406 0.192057 0.192708 0.193359 0.194010 0.194661 0.195312 0.195964 0.196615 0.197266 0.197917 0.198568 0.199219 0.199870 0.200521 0.201172 0.201823 0.202474 0.203125 0.203776 0.204427 0.205078 0.205729 0.206380 0.207031 0.207682 0.208333 0.208984 0.209635 0.210286 0.210938 0.211589 0.212240 0.212891 0.213542 0.214193 0.214844 0.215495 0.216146 0.216797 0.217448 0.218099 0.218750 0.219401 0.220052 0.220703 0.221354 0.222005 0.222656 0.223307 0.223958 0.224609 0.225260 0.225911 0.226562 0.227214 0.227865 0.228516 0.229167 0.229818 0.230469 0.231120 0.231771 0.232422 0.233073 0.233724 0.234375 0.235026 0.235677
       0.34962        0.34962        0.34962        0.34962        0.34962        0.34962        0.34962        0.34962        0.34962        0.34962        0.34962        0.34962        0.34962        0.34962        0.34962        0.34962        0.34962        0.34962        0.34962        0.34962        0.34962        0.34962        0.34962        0.34962        0.34962        0.34962        0.34962        0.34962        0.34962        0.34962        0.34962        0.34962        0.34962        0.34962        0.34962        0.34962        0.34962        0.34962        0.34962        0.34962        0.34962        0.34962        0.34962        0.34962        0.34962        0.34962        0.34962        0.34962        0.34962        0.34962        0.34962        0.31547        0.42034        0.21549        0.06874        0.01435       -0.24447       -0.10807       -0.11935       -0.20438        0.01106       -0.13006       -0.01251       -0.04653       -0.03033       -0.09669       -0.15507       -0.20942       -0.23703       -0.33999       -0.27191       -0.18370       -0.17939       -0.27755       -0.19449       -0.23152       -0.20202       -0.22763       -0.08783       -0.11138       -0.14776        0.00003        0.07201        0.01113        0.06721        0.07398        0.27947        0.26468        0.34572        0.36592        0.36648        0.40079        0.47694        0.52020        0.51855        0.49133        0.49955        0.52017        0.48920        0.49509        0.41661        0.41798        0.41138        0.37210        0.31318        0.32449        0.32335        0.21271        0.21173        0.15850        0.18144        0.17309        0.16638        0.17310        0.26989        0.34400        0.33387        0.28345        0.41596        0.48502        0.40282        0.49627        0.57680        0.51173        0.50408        0.58433        0.59201        0.43271        0.48467        0.42410        0.35812        0.32786        0.28902        0.26675        0.20798        0.21068        0.19575        0.22491        0.25520        0.28310        0.34496        0.32584        0.40913        0.40749        0.45561        0.51121        0.46061        0.47720        0.42811        0.43671        0.41028        0.35183        0.31237        0.32207        0.31996        0.25666        0.25863        0.26207        0.27007        0.28429        0.32291        0.42935        0.48557        0.42930        0.46295        0.46410        0.42029        0.45949        0.44783        0.41433        0.36706        0.37756        0.35471        0.32735        0.31036        0.29870        0.28104        0.30253        0.32002        0.34125        0.40296        0.37863        0.38344        0.39404        0.37021        0.42769        0.40600        0.36138        0.33325        0.34280        0.32222        0.29333        0.32364        0.33507        0.34210        0.34446        0.32770        0.41179        0.40117        0.40770        0.42636        0.45368        0.39931        0.37272        0.35190        0.34812        0.29679        0.28540        0.33150        0.39655        0.39936        0.35559        0.36580        0.40597        0.39482        0.45813        0.37227        0.39317        0.34833        0.31551        0.30868        0.30937        0.34906        0.35686        0.37462        0.37828        0.33206        0.42489        0.34067        0.34864        0.35876        0.39949        0.37379        0.30072        0.32171        0.27763        0.34370        0.32899        0.34244        0.34799        0.32503        0.36136        0.32864        0.35735        0.34927        0.31734        0.29108        0.31500        0.36038        0.30962        0.30339        0.33327        0.32344        0.33518        0.33648        0.31147        0.30323        0.28413        0.32319        0.33332        0.34335        0.29073        0.30926        0.34614        0.32530        0.30612        0.38788        0.34896        0.29902        0.32585        0.33882        0.32794        0.34171        0.30557        0.33625        0.27560        0.32683        0.38676        0.36357        0.30101        0.33632        0.33006        0.32858        0.34568        0.33928        0.30497        0.28524        0.29458        0.29834        0.36118        0.37099        0.32100        0.35926        0.31623        0.29061        0.27803        0.32810        0.36957        0.30940        0.27384        0.31654        0.35608        0.28452        0.31092        0.31832        0.28965        0.31741        0.33090        0.30333        0.33744        0.31541        0.31573        0.33690        0.35337        0.26529        0.30899        0.37821        0.32327        0.24414        0.29974        0.29542        0.31800        0.27744        0.21688        0.23995        0.32617        0.39636        0.32941        0.27158        0.21044        0.28999        0.29356        0.27087        0.32948        0.31319        0.27359        0.27038        0.26856        0.25873        0.34703        0.23409        0.31217        0.28413        0.26927        0.27022        0.34375        0.22915        0.27701        0.18609        0.30703        0.22417        0.26996        0.22997        0.31882        0.24459        0.28276        0.33976        0.33221        0.21175       -0.13795       -0.20809       -0.59501       -0.65466
2.758963 2.731460 2.704102 2.676890 2.649824 2.622902 2.596127 2.569496 2.543011 2.516672 2.490478 2.464429 2.438526 2.412768 2.387156 2.361689 2.336367 2.311191 2.286160 2.261275 2.236535 2.211941 2.187492 2.163189 2.139030 2.115018 2.091150 2.067428 2.043852 2.020421 1.997135 1.973995 1.951000 1.928151 1.905447 1.882889 1.860476 1.838208 1.816086 1.794109 1.772278 1.750592 1.729051 1.707656 1.686406 1.665302 1.644343 1.623530 1.602862 1.582339 1.561962 1.391104 1.758273 1.363289 0.843527 0.669187 -0.274018 0.432522 0.026803 0.146620 0.529603 0.180102 0.353462 0.347046 0.303192 0.280944 -0.049472 -0.106932 -0.240684 -0.478823 -0.457254 -0.241654 0.037905 -0.513240 -0.238034 -0.383871 -0.124228 -0.479644 -0.052447 -0.186147 -0.205010 0.039695 0.359931 0.094993 0.189203 0.174661 0.840764 0.595553 0.843947 0.980472 0.756543 1.068751 0.972372 1.367844 1.217769 1.092959 1.171080 1.216879 1.160220 1.009757 1.022376 0.878615 0.825101 0.735436 0.770538 0.485267 0.628365 0.426086 0.232639 0.221969 0.120136 0.152084 0.157345 0.072331 0.259745 0.556547 0.460037 0.454049 0.592291 0.759305 0.741459 0.544790 1.112637 0.946172 0.869970 0.958222 1.065292 0.815391 0.563130 0.796848 0.346585 0.454800 0.196357 0.232831 0.055215 0.017790 -0.035060 0.009198 0.160633 0.036265 0.208185 0.413070 0.302094 0.479174 0.482958 0.620397 0.674408 0.582068 0.520889 0.403551 0.448463 0.351315 0.188945 0.178756 0.143490 0.105003 0.084737 -0.073018 -0.024970 0.093600 0.017604 0.299917 0.539572 0.520971 0.364492 0.550202 0.497444 0.440213 0.508921 0.471047 0.314569 0.284102 0.351313 0.101873 0.160894 0.037912 0.162845 0.022397 0.193651 0.102520 0.340492 0.171348 0.277356 0.344495 0.185257 0.449599 0.216957 0.262360 0.156804 0.141895 0.114781 0.069326 0.028199 0.096844 0.159341 0.087754 0.100367 0.156782 0.368462 0.219470 0.293314 0.489520 0.205632 0.339030 0.088137 0.154017 0.099791 -0.080343 0.017109 0.101562 0.322861 0.184461 0.106179 0.228257 0.192540 0.375669 0.305728 0.201710 0.253539 0.031418 0.010725 0.034706 0.074002 0.123431 0.209370 0.184138 0.119500 0.081869 0.299802 0.014969 0.153907 0.148123 0.251337 0.073912 0.039878 -0.021841 -0.034597 0.124166 0.059209 0.124324 0.045003 0.075805 0.106212 0.000682 0.118779 0.079192 -0.077398 -0.016138 -0.037597 0.162673 -0.091112 0.001403 0.042768 -0.034539 0.034265 0.033118 -0.057291 -0.059482 -0.110024 0.040939 0.025011 0.075051 -0.103522 -0.037120 0.041119 0.006679 -0.065089 0.118540 -0.000787 -0.100253 -0.042695 0.079086 0.001793 -0.060396 -0.078888 0.070439 -0.238395 0.044591 0.167728 0.040305 -0.047999 0.040388 -0.041891 0.038852 0.064390 0.029335 -0.037495 -0.206355 0.016970 -0.092314 0.121824 0.055027 -0.015571 0.129428 -0.060210 -0.083710 -0.104744 -0.013688 0.085871 -0.036500 -0.139856 0.069873 0.123384 -0.005608 -0.026047 0.032019 -0.049165 0.010426 0.032008 0.143730 0.070686 0.129725 0.083984 0.191083 0.162716 -0.043353 0.093640 0.194867 0.092788 -0.116983 0.130192 -0.068883 0.175737 -0.090276 -0.165867 -0.140275 0.219497 0.253610 0.086668 -0.251509 -0.307228 -0.036773 -0.210254 -0.160325 0.113152 0.047628 -0.131818 -0.071076 -0.135239 -0.054479 0.209519 -0.207271 0.205763 0.119127 0.174784 0.100400 0.417266 0.124091 0.520470 0.232911 0.507648 0.481710 0.433441 0.447816 0.809985 0.564312 0.708000 0.913519 0.686969 0.987391 -0.841238 -0.502493 -1.628765
0.072396 0.072904 0.074428 0.076967 0.080520 0.085088 0.090668 0.097259 0.104859 0.113464 0.123072 0.133678 0.145276 0.157860 0.171423 0.185953 0.201441 0.217873 0.235233 0.253504 0.272665 0.292692 0.313559 0.335236 0.357687 0.380876 0.404759 0.429290 0.454415 0.480077 0.506214 0.532756 0.559628 0.586749 0.614031 0.641381 0.668696 0.695869 0.722785 0.749321 0.775349 0.800732 0.825329 0.848990 0.871561 0.892880 0.912781 0.931095 0.947646 0.962258 0.974750 0.984941 0.992651 0.997700 0.999911 0.999111 0.995134 0.987821 0.977020 0.962594 0.944417 0.922380 0.896390 0.866377 0.832290 0.794104 0.751821 0.705472 0.655118 0.600856 0.542815 0.481162 0.416104 0.347885 0.276792 0.203151 0.127331 0.049741 0.029169 0.108909 0.188954 0.268742 0.347680 0.425146 0.500493 0.573058 0.642162 0.707119 0.767246 0.821863 0.870309 0.911947 0.946173 0.972425 0.990194 0.999036 0.998577 0.988523 0.968676 0.938934 0.899305 0.849912 0.790998 0.722936 0.646224 0.561496 0.469513 0.371169 0.267482 0.159585 0.048724 0.063759 0.176437 0.287818 0.396360 0.500493 0.598643 0.689257 0.770826 0.841920 0.901205 0.947483 0.979713 0.997036 0.998811 0.984625 0.954324 0.908027 0.846134 0.769342 0.678643 0.575322 0.460949 0.337360 0.206641 0.071091 0.066808 0.204433 0.339071 0.467970 0.588397 0.697695 0.793351 0.873055 0.934762 0.976755 0.997700 0.996691 0.973300 0.927604 0.860209 0.772262 0.665444 0.541959 0.404494 0.256177 0.100518 0.058676 0.217375 0.371439 0.516715 0.649161 0.764954 0.860616 0.933123 0.980018 0.999498 0.990507 0.952791 0.886940 0.794414 0.677520 0.539389 0.383902 0.215601 0.039566 0.138722 0.313558 0.479183 0.629980 0.760674 0.866522 0.943504 0.988490 0.999387 0.975251 0.916371 0.824302 0.701853 0.553039 0.382961 0.197664 0.003929 0.190953 0.379463 0.554128 0.707839 0.834139 0.927522 0.983683 0.999751 0.974457 0.908240 0.803297 0.663541 0.494499 0.303111 0.097477 0.113463 0.320321 0.513660 0.684444 0.824465 0.926758 0.985979 0.998709 0.963690 0.881950 0.756836 0.593914 0.400766 0.186669 0.037820 0.261375 0.472465 0.659941 0.813656 0.925027 0.987547 0.997208 0.952791 0.856026 0.711581 0.526895 0.311833 0.078201 0.160875 0.391680 0.600681 0.775348 0.904923 0.981116 0.998683 0.955833 0.854442 0.700038 0.501565 0.270916 0.022261 0.228792 0.466168 0.674355 0.839438 0.950057 0.998249 0.980061 0.895939 0.750814 0.553887 0.318117 0.059403 0.204430 0.454868 0.673978 0.845745 0.957254 0.999735 0.969306 0.867392 0.700766 0.481162 0.224544 0.050032 0.321767 0.569712 0.774382 0.919315 0.992465 0.987260 0.903276 0.746424 0.528627 0.266992 0.017457 0.301444 0.561313 0.775027 0.924056 0.995062 0.981159 0.882670 0.707276 0.469514 0.189672 0.107897 0.396827 0.651094 0.847372 0.967214 0.998884 0.938583 0.791000 0.569060 0.292902 0.011856 0.316456 0.591686 0.810685 0.951634 0.999998 0.950127 0.806019 0.581139 0.297282 0.017457 0.331391 0.612421 0.831319 0.964845 0.998292 0.927223 0.758167 0.508161 0.203152 0.124587 0.439836 0.708196 0.899877 0.993076 0.976584 0.851253 0.630151 0.337361 0.005459 0.328026 0.624822 0.850333 0.977727 0.991262 0.888349 0.680137 0.390476 0.053303 0.291229 0.601493 0.839436 0.975315 0.991528 0.885052 0.668103 0.366912 0.018700 0.332835 0.642942 0.871560 0.988567 0.977880 0.839833 0.591455 0.264540 0.098272 0.448962 0.740484
1.000000 1.000000 1.000000 1.000000 1.000000 1.000000 1.000000 1.000000 1.000000 1.000000 1.000000 1.000000 1.000000 1.000000 1.000000 1.000000 1.000000 1.000000 1.000000 1.000000 1.000000 1.000000 1.000000 1.000000 1.000000 1.000000 1.000000 1.000000 1.000000 1.000000 1.000000 1.000000 1.000000 1.000000 1.000000 1.000000 1.000000 1.000000 1.000000 1.000000 1.000000 1.000000 1.000000 1.000000 1.000000 1.000000 1.000000 1.000000 1.000000 1.000000 1.000000 1.000000 0.792624 0.792624 0.792624 0.752905 0.752905 0.752905 0.752905 0.752905 0.752905 0.752905 0.752905 0.752905 0.752905 0.752905 0.752905 0.752905 0.752905 0.752905 0.752905 0.752905 0.752905 0.752905 0.752905 0.752905 0.752905 0.752905 0.752905 0.752905 0.752905 0.752905 0.752905 0.752905 0.752905 0.752905 0.752905 0.752905 0.752905 0.752905 0.752905 0.752905 0.752905 0.752905 0.752905 0.752905 0.803649 0.812626 0.817352 0.825626 0.827447 0.825892 0.823429 0.822274 0.822737 0.823423 0.830784 0.852349 0.863673 0.866391 0.878371 0.882190 0.885525 0.884477 0.907639 0.906603 0.955547 0.954633 0.954387 0.955242 0.962139 0.963065 0.962113 0.960399 0.965661 0.966376 0.964856 0.962290 0.961533 0.958948 0.958502 0.955697 0.955750 0.956559 0.955487 0.955997 0.956389 0.956073 0.953860 0.951484 0.949239 0.948437 0.951487 0.938428 0.935367 0.926053 0.922194 0.931341 0.926592 0.923568 0.922195 0.923653 0.916325 0.882768 0.882723 0.863182 0.855857 0.841799 0.835008 0.834208 0.839093 0.847504 0.851557 0.853825 0.846166 0.833752 0.818284 0.827180 0.811059 0.797063 0.801831 0.788729 0.782221 0.783290 0.770563 0.765851 0.754319 0.749190 0.747195 0.757266 0.761464 0.762890 0.755975 0.755285 0.741919 0.731126 0.708892 0.708899 0.717348 0.711923 0.713606 0.709453 0.710852 0.717834 0.714789 0.706460 0.693483 0.685667 0.671367 0.644858 0.656088 0.629204 0.624793 0.627380 0.601168 0.629497 0.628614 0.670495 0.684271 0.687291 0.683255 0.677599 0.655965 0.671758 0.672393 0.662246 0.663556 0.665595 0.662954 0.660211 0.652521 0.553093 0.545805 0.544179 0.545849 0.533424 0.549865 0.550662 0.539422 0.527496 0.509628 0.469050 0.410050 0.346699 0.351945 0.348485 0.329490 0.320146 0.314677 0.346042 0.351372 0.355587 0.304855 0.269691 0.264313 0.237380 0.227631 0.193730 0.204152 0.232292 0.225174 0.196154 0.163186 0.154834 0.132872 0.139251 0.140794 0.109255 0.139954 0.103084 0.101323 0.069672 0.088445 0.074647 0.027359 -0.067825 -0.033930 -0.035305 -0.000582 -0.004693 -0.026915 0.015450 -0.003918 -0.034985 -0.038852 -0.062161 -0.101628 -0.046118 -0.047626 -0.068206 -0.066737 -0.045877 -0.030521 -0.039619 -0.055198 -0.070084 -0.096499 -0.072371 -0.059330 -0.005618 -0.007647 -0.004917 -0.044999 -0.040511 -0.042597 -0.080736 -0.053690 0.001607 0.017220 0.046250 0.078366 0.074294 0.053057 0.050651 0.061927 0.113283 0.074250 0.045339 0.022867 0.010435 0.011525 0.017835 0.034010 0.018720 0.028991 0.030251 0.024514 0.075796 0.049554 0.064554 0.079640 0.067651 0.080272 0.075046 0.122395 0.083412 0.057143 0.053885 0.060746 0.043062 0.075814 0.131363 0.150659 0.121582 0.119140 0.119140 0.119140 0.119140 0.120754 0.120754 0.120754 0.120754 0.120754 0.120754 0.120754 0.120754 0.120754 0.095747 0.095747 0.095747 0.095747 0.095747 0.095747 0.095747 0.095747 0.095747 0.095747 0.095747 0.095747 0.095747 0.095747 0.095747 0.095747
0.000000 0.000000 0.000000 0.000000 0.000000 0.000000 0.000000 0.000000 0.000000 0.000000 0.000000 0.000000 0.000000 0.000000 0.000000 0.000000 0.000000 0.000000 0.000000 0.000000 0.000000 0.000000 0.000000 0.000000 0.000000 0.000000 0.000000 0.000000 0.000000 0.000000 0.000000 0.000000 0.000000 0.000000 0.000000 0.000000 0.000000 0.000000 0.000000 0.000000 0.000000 0.000000 0.000000 0.000000 0.000000 0.000000 0.000000 0.000000 0.000000 0.000000 0.000000 0.000000 0.180334 0.180334 0.180334 0.199007 0.199007 0.199007 0.199007 0.199007 0.199007 0.199007 0.199007 0.199007 0.199007 0.199007 0.199007 0.199007 0.199007 0.199007 0.199007 0.199007 0.199007 0.199007 0.199007 0.199007 0.199007 0.199007 0.199007 0.199007 0.199007 0.199007 0.199007 0.199007 0.199007 0.199007 0.199007 0.199007 0.199007 0.199007 0.199007 0.199007 0.199007 0.199007 0.199007 0.199007 0.230940 0.230940 0.230940 0.230940 0.230940 0.230940 0.230940 0.230940 0.230940 0.230940 0.230940 0.230940 0.230940 0.230940 0.230940 0.230940 0.230940 0.230940 0.230940 0.230940 0.230940 0.230940 0.230940 0.230940 0.230940 0.230940 0.230940 0.230940 0.244339 0.244339 0.244339 0.244339 0.244339 0.244339 0.244339 0.244339 0.244339 0.244339 0.244339 0.244339 0.244339 0.244339 0.244339 0.244339 0.244339 0.244339 0.244339 0.244339 0.244339 0.244339 0.244339 0.251976 0.251976 0.251976 0.251976 0.251976 0.251976 0.251976 0.251976 0.251976 0.251976 0.251976 0.251976 0.251976 0.251976 0.251976 0.251976 0.251976 0.251976 0.251976 0.251976 0.264906 0.264906 0.264906 0.264906 0.264906 0.264906 0.264906 0.264906 0.264906 0.264906 0.264906 0.264906 0.264906 0.264906 0.264906 0.264906 0.264906 0.264906 0.264906 0.264906 0.264906 0.264906 0.264906 0.264906 0.264906 0.264906 0.264906 0.264906 0.264906 0.264906 0.264906 0.264906 0.264906 0.264906 0.264906 0.264906 0.264906 0.264906 0.264906 0.264906 0.264906 0.264906 0.264906 0.264906 0.264906 0.264906 0.264906 0.264906 0.264906 0.264906 0.264906 0.264906 0.264906 0.264906 0.264906 0.264906 0.264906 0.264906 0.264906 0.264906 0.264906 0.264906 0.264906 0.264906 0.264906 0.264906 0.264906 0.264906 0.264906 0.264906 0.264906 0.264906 0.264906 0.264906 0.264906 0.260378 0.260378 0.260378 0.260378 0.260378 0.260378 0.260378 0.260378 0.260378 0.260378 0.260378 0.260378 0.260378 0.264906 0.264906 0.264906 0.264906 0.264906 0.264906 0.264906 0.264906 0.264906 0.264906 0.264906 0.264906 0.269680 0.269680 0.269680 0.269680 0.269680 0.269680 0.269680 0.269680 0.269680 0.269680 0.269680 0.264906 0.264906 0.264906 0.264906 0.264906 0.264906 0.264906 0.264906 0.264906 0.264906 0.264906 0.269680 0.269680 0.269680 0.269680 0.269680 0.269680 0.269680 0.269680 0.269680 0.269680 0.264906 0.264906 0.264906 0.264906 0.264906 0.264906 0.264906 0.264906 0.264906 0.264906 0.260378 0.260378 0.260378 0.260378 0.260378 0.260378 0.260378 0.260378 0.260378 0.260378 0.256074 0.256074 0.256074 0.256074 0.256074 0.256074 0.256074 0.256074 0.256074 0.256074 0.260378 0.260378 0.260378 0.260378 0.260378 0.260378 0.260378 0.260378 0.260378 0.256074 0.256074 0.256074 0.256074 0.256074 0.256074 0.256074 0.256074 0.256074 0.251976 0.251976 0.251976 0.251976 0.251976 0.251976 0.251976 0.251976 0.251976 0.251976 0.251976 0.251976 0.251976 0.251976 0.251976 0.251976
