# Output from CTFFind version 4.1.9, run on 2019-11-02 17:48:35
# Input file: stack11_bm3d_averaged_1_1.0_0_2000_half.mrc ; Number of micrographs: 1
# Pixel size: 3.000 Angstroms ; acceleration voltage: 300.0 keV ; spherical aberration: 0.00 mm ; amplitude contrast: 0.07
# Box size: 512 pixels ; min. res.: 30.0 Angstroms ; max. res.: 5.0 Angstroms ; min. def.: 5000.0 um; max. def. 50000.0 um; num. frames averaged: 1
# 6 lines per micrograph: #1 - spatial frequency (1/Angstroms); #2 - 1D rotational average of spectrum (assuming no astigmatism); #3 - 1D rotational average of spectrum; #4 - CTF fit; #5 - cross-correlation between spectrum and CTF fit; #6 - 2sigma of expected cross correlation of noise
0.000000 0.000651 0.001302 0.001953 0.002604 0.003255 0.003906 0.004557 0.005208 0.005859 0.006510 0.007161 0.007812 0.008464 0.009115 0.009766 0.010417 0.011068 0.011719 0.012370 0.013021 0.013672 0.014323 0.014974 0.015625 0.016276 0.016927 0.017578 0.018229 0.018880 0.019531 0.020182 0.020833 0.021484 0.022135 0.022786 0.023438 0.024089 0.024740 0.025391 0.026042 0.026693 0.027344 0.027995 0.028646 0.029297 0.029948 0.030599 0.031250 0.031901 0.032552 0.033203 0.033854 0.034505 0.035156 0.035807 0.036458 0.037109 0.037760 0.038411 0.039062 0.039714 0.040365 0.041016 0.041667 0.042318 0.042969 0.043620 0.044271 0.044922 0.045573 0.046224 0.046875 0.047526 0.048177 0.048828 0.049479 0.050130 0.050781 0.051432 0.052083 0.052734 0.053385 0.054036 0.054688 0.055339 0.055990 0.056641 0.057292 0.057943 0.058594 0.059245 0.059896 0.060547 0.061198 0.061849 0.062500 0.063151 0.063802 0.064453 0.065104 0.065755 0.066406 0.067057 0.067708 0.068359 0.069010 0.069661 0.070312 0.070964 0.071615 0.072266 0.072917 0.073568 0.074219 0.074870 0.075521 0.076172 0.076823 0.077474 0.078125 0.078776 0.079427 0.080078 0.080729 0.081380 0.082031 0.082682 0.083333 0.083984 0.084635 0.085286 0.085938 0.086589 0.087240 0.087891 0.088542 0.089193 0.089844 0.090495 0.091146 0.091797 0.092448 0.093099 0.093750 0.094401 0.095052 0.095703 0.096354 0.097005 0.097656 0.098307 0.098958 0.099609 0.100260 0.100911 0.101562 0.102214 0.102865 0.103516 0.104167 0.104818 0.105469 0.106120 0.106771 0.107422 0.108073 0.108724 0.109375 0.110026 0.110677 0.111328 0.111979 0.112630 0.113281 0.113932 0.114583 0.115234 0.115885 0.116536 0.117188 0.117839 0.118490 0.119141 0.119792 0.120443 0.121094 0.121745 0.122396 0.123047 0.123698 0.124349 0.125000 0.125651 0.126302 0.126953 0.127604 0.128255 0.128906 0.129557 0.130208 0.130859 0.131510 0.132161 0.132812 0.133464 0.134115 0.134766 0.135417 0.136068 0.136719 0.137370 0.138021 0.138672 0.139323 0.139974 0.140625 0.141276 0.141927 0.142578 0.143229 0.143880 0.144531 0.145182 0.145833 0.146484 0.147135 0.147786 0.148438 0.149089 0.149740 0.150391 0.151042 0.151693 0.152344 0.152995 0.153646 0.154297 0.154948 0.155599 0.156250 0.156901 0.157552 0.158203 0.158854 0.159505 0.160156 0.160807 0.161458 0.162109 0.162760 0.163411 0.164062 0.164714 0.165365 0.166016 0.166667 0.167318 0.167969 0.168620 0.169271 0.169922 0.170573 0.171224 0.171875 0.172526 0.173177 0.173828 0.174479 0.175130 0.175781 0.176432 0.177083 0.177734 0.178385 0.179036 0.179688 0.180339 0.180990 0.181641 0.182292 0.182943 0.183594 0.184245 0.184896 0.185547 0.186198 0.186849 0.187500 0.188151 0.188802 0.189453 0.190104 0.190755 0.191406 0.192057 0.192708 0.193359 0.194010 0.194661 0.195312 0.195964 0.196615 0.197266 0.197917 0.198568 0.199219 0.199870 0.200521 0.201172 0.201823 0.202474 0.203125 0.203776 0.204427 0.205078 0.205729 0.206380 0.207031 0.207682 0.208333 0.208984 0.209635 0.210286 0.210938 0.211589 0.212240 0.212891 0.213542 0.214193 0.214844 0.215495 0.216146 0.216797 0.217448 0.218099 0.218750 0.219401 0.220052 0.220703 0.221354 0.222005 0.222656 0.223307 0.223958 0.224609 0.225260 0.225911 0.226562 0.227214 0.227865 0.228516 0.229167 0.229818 0.230469 0.231120 0.231771 0.232422 0.233073 0.233724 0.234375 0.235026 0.235677
       0.31683        0.31683        0.31683        0.31683        0.31683        0.31683        0.31683        0.31683        0.31683        0.31683        0.31683        0.31683        0.31683        0.31683        0.31683        0.31683        0.31683        0.31683        0.31683        0.31683        0.31683        0.31683        0.31683        0.31683        0.31683        0.31683        0.31683        0.31683        0.31683        0.31683        0.31683        0.31683        0.31683        0.31683        0.31683        0.31683        0.31683        0.31683        0.31683        0.31683        0.31683        0.31683        0.31683        0.31683        0.31683        0.31683        0.31683        0.31683        0.31683        0.31683        0.31683        0.68487        0.87213        0.52199        0.08607       -0.06691       -0.42689       -0.20771       -0.29620       -0.11803       -0.07847       -0.11858       -0.06928       -0.20988       -0.23788       -0.26028       -0.33107       -0.33815       -0.49333       -0.38462       -0.46777       -0.45156       -0.42223       -0.47141       -0.54859       -0.56501       -0.58954       -0.62837       -0.58042       -0.41754       -0.37890       -0.33081       -0.31744       -0.21425       -0.20001        0.01890        0.06769        0.10252        0.22364        0.37166        0.44257        0.51754        0.55955        0.55395        0.57263        0.69889        0.81506        0.74657        0.73448        0.67434        0.58294        0.48647        0.40648        0.49323        0.37265        0.20007        0.07677        0.04479        0.00704       -0.06060       -0.04093       -0.02736       -0.07513       -0.00699       -0.02212        0.21052        0.24898        0.29156        0.42992        0.46605        0.40350        0.53268        0.63138        0.70367        0.76823        0.69170        0.66149        0.70103        0.58813        0.50601        0.41856        0.28908        0.18572        0.15749        0.10894        0.03631        0.01268       -0.00164        0.07535        0.13242        0.20223        0.28318        0.40278        0.41611        0.51189        0.60237        0.63606        0.61317        0.63180        0.55282        0.44534        0.44293        0.35060        0.22854        0.18509        0.14969        0.10427        0.11955        0.06535        0.09898        0.22056        0.26330        0.33967        0.34695        0.45304        0.51306        0.53777        0.55074        0.46830        0.42731        0.39283        0.37572        0.30830        0.25003        0.20073        0.18474        0.16112        0.19142        0.17688        0.26820        0.33310        0.36425        0.42271        0.46281        0.47836        0.44616        0.39308        0.41280        0.37571        0.29121        0.27558        0.22793        0.21288        0.19357        0.21100        0.22972        0.32916        0.37316        0.36663        0.45858        0.43919        0.44020        0.43009        0.39531        0.34261        0.32895        0.27825        0.23442        0.23624        0.26878        0.27006        0.29922        0.29868        0.33989        0.32993        0.40980        0.41635        0.37462        0.34327        0.36325        0.28102        0.28015        0.26345        0.27690        0.25954        0.28115        0.29318        0.31589        0.35168        0.35806        0.35929        0.33228        0.35123        0.28682        0.32438        0.26845        0.24904        0.28254        0.28149        0.30648        0.31490        0.33124        0.32527        0.31233        0.31704        0.28711        0.28562        0.25882        0.28197        0.27015        0.31137        0.28304        0.26118        0.30830        0.31066        0.31490        0.29101        0.29898        0.29231        0.24387        0.23987        0.22092        0.27744        0.27186        0.30863        0.31629        0.32125        0.31495        0.30357        0.27779        0.28378        0.33144        0.27243        0.26628        0.29435        0.29497        0.34164        0.33929        0.36221        0.33177        0.31227        0.28085        0.26541        0.26295        0.22597        0.26533        0.30060        0.29664        0.27742        0.29489        0.27046        0.32355        0.33374        0.25074        0.21779        0.26942        0.33918        0.27888        0.31456        0.32732        0.32740        0.29756        0.32174        0.34310        0.29617        0.29402        0.26160        0.27598        0.35029        0.35159        0.25830        0.26902        0.25438        0.27801        0.22550        0.29123        0.22168        0.25131        0.32885        0.31753        0.34734        0.29903        0.23692        0.23864        0.24320        0.24374        0.18089        0.21954        0.25914        0.29256        0.27991        0.30369        0.29150        0.27742        0.28348        0.21010        0.18015        0.18848        0.23255        0.19790        0.22072        0.23354        0.20855        0.24920        0.33425        0.29436        0.30615        0.21950        0.26476        0.23423        0.28562        0.30281        0.14591        0.21663        0.21926        0.13300        0.23399        0.11457        0.16939        0.19714        0.14755       -0.12173       -0.64425
2.581251 2.554329 2.527554 2.500924 2.474440 2.448102 2.421910 2.395863 2.369963 2.344208 2.318599 2.293135 2.267818 2.242646 2.217621 2.192741 2.168006 2.143418 2.118976 2.094679 2.070528 2.046523 2.022664 1.998950 1.975382 1.951961 1.928685 1.905554 1.882570 1.859731 1.837039 1.814492 1.792090 1.769835 1.747725 1.725762 1.703944 1.682272 1.660745 1.639365 1.618130 1.597041 1.576098 1.555301 1.534650 1.514144 1.493784 1.473570 1.453502 1.433580 1.413803 1.635946 2.041412 1.613388 1.126578 0.985653 0.420922 0.810490 0.562074 0.833969 0.771136 0.786056 0.751879 0.709036 0.560123 0.510810 0.484832 0.445140 0.203505 0.378464 0.203196 0.304699 0.237779 0.180016 0.128922 0.002950 0.042682 -0.016311 -0.055204 0.103301 0.207085 0.196531 0.153253 0.330123 0.197859 0.497758 0.573058 0.546328 0.590817 0.877005 0.808028 0.946028 0.888534 0.973036 0.940427 1.079875 1.140735 1.079576 1.125123 0.955127 0.943621 0.785184 0.651508 0.768618 0.703181 0.459600 0.306667 0.253323 0.211156 0.148666 0.089360 0.125526 0.065305 0.154678 0.050599 0.261649 0.377846 0.360342 0.477924 0.584124 0.468080 0.541820 0.699136 0.748544 0.781468 0.734410 0.735089 0.717702 0.627435 0.572598 0.429842 0.284884 0.207067 0.077941 0.133918 -0.043670 -0.027841 -0.081216 -0.037279 0.006829 0.143019 0.091665 0.303733 0.276639 0.366045 0.453932 0.524156 0.510768 0.517426 0.504860 0.332363 0.307369 0.275911 0.100799 0.046999 0.000167 -0.036445 -0.042525 -0.091744 -0.102499 -0.017147 0.054184 0.137105 0.134901 0.227419 0.332735 0.307188 0.411560 0.396235 0.281604 0.232219 0.250803 0.210280 0.100188 0.072803 0.017671 0.002162 0.005798 -0.017383 0.057436 0.146878 0.142692 0.225338 0.252859 0.305894 0.259647 0.219042 0.186096 0.209457 0.150258 0.046453 0.049188 -0.011384 -0.010638 -0.032402 0.014008 0.015544 0.171543 0.123994 0.182109 0.236009 0.199862 0.193027 0.196526 0.134974 0.103324 0.064239 0.044691 -0.041675 0.007375 0.020199 0.051987 0.046888 0.076232 0.097601 0.118728 0.136293 0.183519 0.075493 0.094437 0.069445 -0.001146 0.003465 0.009057 -0.012420 0.016749 0.003357 0.030127 0.069949 0.084942 0.104172 0.049591 0.095022 0.053427 0.011543 0.062338 -0.036494 -0.015229 0.019620 -0.001126 0.049722 0.054126 0.044987 0.060629 0.046350 0.045522 0.018505 -0.002802 0.003293 0.016514 -0.011717 0.068156 -0.016906 0.006402 0.054095 0.046505 0.030383 0.043370 0.036891 0.016425 -0.026163 -0.043528 -0.018025 0.015468 0.018190 0.058779 0.059433 0.052999 0.083731 0.059914 0.022418 0.062265 0.084914 0.017698 0.022181 0.057419 0.054329 0.101462 0.111026 0.113456 0.111077 0.063387 0.043324 0.031165 0.006504 -0.005134 0.045404 0.077377 0.045879 0.027996 0.031608 0.026134 0.086896 0.066189 -0.047823 -0.053672 0.029973 0.094808 0.009191 0.032809 0.063890 0.084701 0.019901 0.056045 0.083851 0.030278 0.039236 -0.031156 0.008580 0.107744 0.066253 -0.056894 -0.018560 -0.050966 0.012406 -0.104089 0.035089 -0.110758 -0.034323 0.051920 0.024261 0.032255 -0.046804 -0.068893 -0.093278 -0.081495 -0.068055 -0.134240 -0.096366 -0.041263 0.011178 -0.030451 0.034619 -0.023746 -0.045220 0.053080 -0.111981 -0.094313 -0.096693 -0.007160 -0.062668 -0.021398 -0.011710 0.011065 0.014368 0.176777 -0.009935 0.142585 0.000875 0.271702 0.246012 0.326697 0.277077 0.109795 0.219626 0.259149 0.053419 0.258563 0.121266 0.144560 0.252629 0.150667 -0.664455
0.072396 0.072899 0.074406 0.076917 0.080432 0.084950 0.090469 0.096988 0.104505 0.113017 0.122521 0.133012 0.144485 0.156933 0.170350 0.184725 0.200048 0.216305 0.233483 0.251563 0.270526 0.290348 0.311005 0.332465 0.354697 0.377663 0.401322 0.425628 0.450531 0.475973 0.501895 0.528230 0.554904 0.581839 0.608950 0.636145 0.663325 0.690387 0.717218 0.743699 0.769705 0.795103 0.819756 0.843518 0.866237 0.887758 0.907917 0.926548 0.943482 0.958542 0.971554 0.982340 0.990721 0.996520 0.999563 0.999679 0.996700 0.990468 0.980832 0.967653 0.950802 0.930167 0.905651 0.877177 0.844688 0.808150 0.767556 0.722925 0.674308 0.621786 0.565473 0.505521 0.442116 0.375485 0.305893 0.233645 0.159088 0.082606 0.004627 0.074385 0.153928 0.233463 0.312421 0.390202 0.466181 0.539711 0.610131 0.676770 0.738952 0.796006 0.847273 0.892113 0.929913 0.960101 0.982147 0.995581 0.999998 0.995066 0.980541 0.956269 0.922201 0.878393 0.825021 0.762379 0.690887 0.611094 0.523677 0.429441 0.329315 0.224349 0.115705 0.004648 0.107469 0.219215 0.329099 0.435593 0.537147 0.632218 0.719292 0.796908 0.863689 0.918367 0.959813 0.987058 0.999329 0.996062 0.976932 0.941870 0.891076 0.825032 0.744511 0.650571 0.544559 0.428094 0.303053 0.171547 0.035890 0.101437 0.237828 0.370599 0.497042 0.614479 0.720326 0.812150 0.887729 0.945119 0.982703 0.999252 0.993966 0.966515 0.917074 0.846334 0.755518 0.646369 0.521135 0.382533 0.233705 0.078149 0.080349 0.237808 0.390146 0.533283 0.663264 0.776362 0.869201 0.938859 0.982978 0.999855 0.988516 0.948779 0.881295 0.787557 0.669894 0.531432 0.376028 0.208181 0.032910 0.144383 0.318079 0.482515 0.632171 0.761865 0.866940 0.943448 0.988309 0.999462 0.975968 0.918092 0.827337 0.706440 0.559310 0.390934 0.207216 0.014802 0.179156 0.367264 0.542167 0.696829 0.824845 0.920710 0.980082 0.999998 0.979051 0.917500 0.817319 0.682172 0.517314 0.329412 0.126306 0.083300 0.290210 0.485123 0.659061 0.803791 0.912241 0.978859 0.999938 0.973847 0.901178 0.784793 0.629756 0.443148 0.233785 0.011823 0.211716 0.425480 0.618365 0.780106 0.901844 0.976636 0.999893 0.969695 0.886981 0.755585 0.582108 0.375637 0.147304 0.090285 0.323725 0.539572 0.725115 0.869150 0.962689 0.999558 0.976855 0.895219 0.758889 0.575553 0.355968 0.113368 0.137300 0.380270 0.599958 0.781968 0.914063 0.987032 0.995379 0.937797 0.817365 0.641470 0.421402 0.171708 0.090744 0.347882 0.581654 0.775317 0.914668 0.989121 0.992587 0.924022 0.787646 0.592755 0.353181 0.086345 0.187947 0.448962 0.676604 0.852990 0.963889 0.999940 0.957505 0.839113 0.653401 0.414577 0.141403 0.144219 0.418993 0.660103 0.847142 0.963883 0.999757 0.950885 0.820581 0.619232 0.363564 0.075342 0.220448 0.497720 0.731603 0.900700 0.989112 0.988008 0.896606 0.722429 0.480797 0.193579 0.112709 0.409329 0.667983 0.863553 0.976606 0.995389 0.917172 0.748710 0.505788 0.211848 0.104178 0.410687 0.676543 0.874262 0.982933 0.990513 0.895282 0.706243 0.442409 0.131005 0.195262 0.501593 0.754808 0.926985 0.998619 0.960950 0.817158 0.582260 0.281673 0.051415 0.379652 0.665683 0.876434 0.987006 0.983731 0.866003 0.646604 0.350488 0.012049 0.328770 0.631167 0.858389 0.982267 0.986830 0.870510 0.646620 0.342001 0.006064 0.354311 0.658860 0.880745 0.991005 0.974588 0.832565 0.582306 0.255530 0.105581
1.000000 1.000000 1.000000 1.000000 1.000000 1.000000 1.000000 1.000000 1.000000 1.000000 1.000000 1.000000 1.000000 1.000000 1.000000 1.000000 1.000000 1.000000 1.000000 1.000000 1.000000 1.000000 1.000000 1.000000 1.000000 1.000000 1.000000 1.000000 1.000000 1.000000 1.000000 1.000000 1.000000 1.000000 1.000000 1.000000 1.000000 1.000000 1.000000 1.000000 1.000000 1.000000 1.000000 1.000000 1.000000 1.000000 1.000000 1.000000 1.000000 1.000000 1.000000 1.000000 0.932949 0.932949 0.932949 0.923822 0.923822 0.923822 0.923822 0.923822 0.923822 0.923822 0.923822 0.923822 0.923822 0.923822 0.923822 0.923822 0.923822 0.923822 0.923822 0.923822 0.923822 0.923822 0.923822 0.923822 0.923822 0.923822 0.923822 0.923822 0.923822 0.923822 0.923822 0.923822 0.923822 0.923822 0.923822 0.923822 0.923822 0.923822 0.923822 0.923822 0.923822 0.923822 0.923822 0.923822 0.949726 0.950950 0.958805 0.958631 0.958119 0.955992 0.955085 0.953946 0.953498 0.953770 0.954378 0.955215 0.966976 0.967996 0.969539 0.970338 0.971040 0.971685 0.971527 0.972308 0.971541 0.970989 0.970473 0.966482 0.967129 0.967710 0.967858 0.968903 0.968781 0.971021 0.971166 0.970578 0.969727 0.969019 0.968340 0.967940 0.967661 0.968155 0.968426 0.969699 0.972854 0.972256 0.971956 0.972114 0.972215 0.972382 0.972776 0.973551 0.969606 0.968112 0.966414 0.964198 0.968422 0.965517 0.965309 0.966674 0.967057 0.967460 0.966253 0.962122 0.956249 0.955509 0.953026 0.944144 0.943074 0.943679 0.945966 0.946443 0.944968 0.937795 0.938343 0.931663 0.933193 0.936488 0.930867 0.930860 0.932006 0.931481 0.930537 0.929954 0.927088 0.924492 0.922960 0.922585 0.925533 0.925214 0.926375 0.926291 0.920810 0.912679 0.900857 0.899198 0.894374 0.897407 0.886498 0.886198 0.886179 0.882008 0.885409 0.884660 0.885634 0.882477 0.866902 0.850215 0.844129 0.849048 0.853847 0.851834 0.849268 0.842409 0.853770 0.829066 0.841417 0.851829 0.847895 0.848117 0.846899 0.845409 0.839617 0.840747 0.842611 0.843849 0.841757 0.839778 0.839689 0.819456 0.820101 0.758916 0.741358 0.732708 0.738046 0.745257 0.746934 0.745750 0.753076 0.757812 0.750764 0.734160 0.727132 0.720929 0.725401 0.721950 0.725552 0.708936 0.681028 0.675958 0.647935 0.665864 0.677157 0.640700 0.665332 0.676397 0.675478 0.674324 0.668096 0.665773 0.660416 0.662571 0.668341 0.680979 0.698368 0.721534 0.716671 0.707457 0.703328 0.682121 0.674497 0.668697 0.685941 0.664891 0.661002 0.679899 0.679032 0.663274 0.641160 0.628224 0.621993 0.617891 0.626706 0.613381 0.608047 0.600007 0.579001 0.573593 0.606794 0.622409 0.643374 0.612984 0.599432 0.587534 0.569451 0.581670 0.525021 0.525022 0.544974 0.552724 0.530841 0.518785 0.530398 0.535566 0.536243 0.526437 0.516794 0.503891 0.519773 0.553137 0.541674 0.523128 0.525713 0.524750 0.517931 0.425579 0.420353 0.394525 0.362030 0.304585 0.289126 0.281350 0.265085 0.250682 0.213649 0.210527 0.220414 0.226481 0.239447 0.241248 0.223725 0.234332 0.229382 0.215996 0.153817 0.143841 0.137064 0.126277 0.124335 0.099630 0.124527 0.194797 0.197119 0.197119 0.197119 0.197119 0.197119 0.197119 0.204555 0.204555 0.204555 0.204555 0.204555 0.204555 0.204555 0.204555 0.204555 0.216607 0.216607 0.216607 0.216607 0.216607 0.216607 0.216607 0.216607 0.216607 0.216607 0.216607 0.216607 0.216607 0.216607
0.000000 0.000000 0.000000 0.000000 0.000000 0.000000 0.000000 0.000000 0.000000 0.000000 0.000000 0.000000 0.000000 0.000000 0.000000 0.000000 0.000000 0.000000 0.000000 0.000000 0.000000 0.000000 0.000000 0.000000 0.000000 0.000000 0.000000 0.000000 0.000000 0.000000 0.000000 0.000000 0.000000 0.000000 0.000000 0.000000 0.000000 0.000000 0.000000 0.000000 0.000000 0.000000 0.000000 0.000000 0.000000 0.000000 0.000000 0.000000 0.000000 0.000000 0.000000 0.000000 0.180334 0.180334 0.180334 0.199007 0.199007 0.199007 0.199007 0.199007 0.199007 0.199007 0.199007 0.199007 0.199007 0.199007 0.199007 0.199007 0.199007 0.199007 0.199007 0.199007 0.199007 0.199007 0.199007 0.199007 0.199007 0.199007 0.199007 0.199007 0.199007 0.199007 0.199007 0.199007 0.199007 0.199007 0.199007 0.199007 0.199007 0.199007 0.199007 0.199007 0.199007 0.199007 0.199007 0.199007 0.225018 0.225018 0.225018 0.225018 0.225018 0.225018 0.225018 0.225018 0.225018 0.225018 0.225018 0.225018 0.225018 0.225018 0.225018 0.225018 0.225018 0.225018 0.225018 0.225018 0.225018 0.225018 0.225018 0.225018 0.225018 0.225018 0.225018 0.225018 0.225018 0.244339 0.244339 0.244339 0.244339 0.244339 0.244339 0.244339 0.244339 0.244339 0.244339 0.244339 0.244339 0.244339 0.244339 0.244339 0.244339 0.244339 0.244339 0.244339 0.244339 0.244339 0.244339 0.244339 0.251976 0.251976 0.251976 0.251976 0.251976 0.251976 0.251976 0.251976 0.251976 0.251976 0.251976 0.251976 0.251976 0.251976 0.251976 0.251976 0.251976 0.251976 0.251976 0.251976 0.264906 0.264906 0.264906 0.264906 0.264906 0.264906 0.264906 0.264906 0.264906 0.264906 0.264906 0.264906 0.264906 0.264906 0.264906 0.264906 0.264906 0.264906 0.264906 0.264906 0.264906 0.264906 0.264906 0.264906 0.264906 0.264906 0.264906 0.264906 0.264906 0.264906 0.264906 0.264906 0.264906 0.264906 0.264906 0.264906 0.264906 0.264906 0.264906 0.264906 0.264906 0.264906 0.264906 0.264906 0.264906 0.264906 0.264906 0.264906 0.264906 0.264906 0.264906 0.264906 0.264906 0.264906 0.264906 0.264906 0.264906 0.264906 0.264906 0.264906 0.264906 0.264906 0.256074 0.256074 0.256074 0.256074 0.256074 0.256074 0.256074 0.256074 0.256074 0.256074 0.256074 0.256074 0.256074 0.256074 0.269680 0.269680 0.269680 0.269680 0.269680 0.269680 0.269680 0.269680 0.269680 0.269680 0.269680 0.269680 0.264906 0.264906 0.264906 0.264906 0.264906 0.264906 0.264906 0.264906 0.264906 0.264906 0.264906 0.264906 0.269680 0.269680 0.269680 0.269680 0.269680 0.269680 0.269680 0.269680 0.269680 0.269680 0.269680 0.264906 0.264906 0.264906 0.264906 0.264906 0.264906 0.264906 0.264906 0.264906 0.264906 0.264906 0.256074 0.256074 0.256074 0.256074 0.256074 0.256074 0.256074 0.256074 0.256074 0.256074 0.256074 0.264906 0.264906 0.264906 0.264906 0.264906 0.264906 0.264906 0.264906 0.264906 0.264906 0.260378 0.260378 0.260378 0.260378 0.260378 0.260378 0.260378 0.260378 0.260378 0.260378 0.256074 0.256074 0.256074 0.256074 0.256074 0.256074 0.256074 0.256074 0.256074 0.256074 0.260378 0.260378 0.260378 0.260378 0.260378 0.260378 0.260378 0.260378 0.260378 0.256074 0.256074 0.256074 0.256074 0.256074 0.256074 0.256074 0.256074 0.256074 0.251976 0.251976 0.251976 0.251976 0.251976 0.251976 0.251976 0.251976 0.251976 0.251976 0.251976 0.251976 0.251976 0.251976
