# Output from CTFFind version 4.1.9, run on 2019-11-02 17:48:49
# Input file: stack16_bm3d_averaged_1_0.75_0_2000_half.mrc ; Number of micrographs: 1
# Pixel size: 3.000 Angstroms ; acceleration voltage: 300.0 keV ; spherical aberration: 0.00 mm ; amplitude contrast: 0.07
# Box size: 512 pixels ; min. res.: 30.0 Angstroms ; max. res.: 5.0 Angstroms ; min. def.: 5000.0 um; max. def. 50000.0 um; num. frames averaged: 1
# 6 lines per micrograph: #1 - spatial frequency (1/Angstroms); #2 - 1D rotational average of spectrum (assuming no astigmatism); #3 - 1D rotational average of spectrum; #4 - CTF fit; #5 - cross-correlation between spectrum and CTF fit; #6 - 2sigma of expected cross correlation of noise
0.000000 0.000651 0.001302 0.001953 0.002604 0.003255 0.003906 0.004557 0.005208 0.005859 0.006510 0.007161 0.007812 0.008464 0.009115 0.009766 0.010417 0.011068 0.011719 0.012370 0.013021 0.013672 0.014323 0.014974 0.015625 0.016276 0.016927 0.017578 0.018229 0.018880 0.019531 0.020182 0.020833 0.021484 0.022135 0.022786 0.023438 0.024089 0.024740 0.025391 0.026042 0.026693 0.027344 0.027995 0.028646 0.029297 0.029948 0.030599 0.031250 0.031901 0.032552 0.033203 0.033854 0.034505 0.035156 0.035807 0.036458 0.037109 0.037760 0.038411 0.039062 0.039714 0.040365 0.041016 0.041667 0.042318 0.042969 0.043620 0.044271 0.044922 0.045573 0.046224 0.046875 0.047526 0.048177 0.048828 0.049479 0.050130 0.050781 0.051432 0.052083 0.052734 0.053385 0.054036 0.054688 0.055339 0.055990 0.056641 0.057292 0.057943 0.058594 0.059245 0.059896 0.060547 0.061198 0.061849 0.062500 0.063151 0.063802 0.064453 0.065104 0.065755 0.066406 0.067057 0.067708 0.068359 0.069010 0.069661 0.070312 0.070964 0.071615 0.072266 0.072917 0.073568 0.074219 0.074870 0.075521 0.076172 0.076823 0.077474 0.078125 0.078776 0.079427 0.080078 0.080729 0.081380 0.082031 0.082682 0.083333 0.083984 0.084635 0.085286 0.085938 0.086589 0.087240 0.087891 0.088542 0.089193 0.089844 0.090495 0.091146 0.091797 0.092448 0.093099 0.093750 0.094401 0.095052 0.095703 0.096354 0.097005 0.097656 0.098307 0.098958 0.099609 0.100260 0.100911 0.101562 0.102214 0.102865 0.103516 0.104167 0.104818 0.105469 0.106120 0.106771 0.107422 0.108073 0.108724 0.109375 0.110026 0.110677 0.111328 0.111979 0.112630 0.113281 0.113932 0.114583 0.115234 0.115885 0.116536 0.117188 0.117839 0.118490 0.119141 0.119792 0.120443 0.121094 0.121745 0.122396 0.123047 0.123698 0.124349 0.125000 0.125651 0.126302 0.126953 0.127604 0.128255 0.128906 0.129557 0.130208 0.130859 0.131510 0.132161 0.132812 0.133464 0.134115 0.134766 0.135417 0.136068 0.136719 0.137370 0.138021 0.138672 0.139323 0.139974 0.140625 0.141276 0.141927 0.142578 0.143229 0.143880 0.144531 0.145182 0.145833 0.146484 0.147135 0.147786 0.148438 0.149089 0.149740 0.150391 0.151042 0.151693 0.152344 0.152995 0.153646 0.154297 0.154948 0.155599 0.156250 0.156901 0.157552 0.158203 0.158854 0.159505 0.160156 0.160807 0.161458 0.162109 0.162760 0.163411 0.164062 0.164714 0.165365 0.166016 0.166667 0.167318 0.167969 0.168620 0.169271 0.169922 0.170573 0.171224 0.171875 0.172526 0.173177 0.173828 0.174479 0.175130 0.175781 0.176432 0.177083 0.177734 0.178385 0.179036 0.179688 0.180339 0.180990 0.181641 0.182292 0.182943 0.183594 0.184245 0.184896 0.185547 0.186198 0.186849 0.187500 0.188151 0.188802 0.189453 0.190104 0.190755 0.191406 0.192057 0.192708 0.193359 0.194010 0.194661 0.195312 0.195964 0.196615 0.197266 0.197917 0.198568 0.199219 0.199870 0.200521 0.201172 0.201823 0.202474 0.203125 0.203776 0.204427 0.205078 0.205729 0.206380 0.207031 0.207682 0.208333 0.208984 0.209635 0.210286 0.210938 0.211589 0.212240 0.212891 0.213542 0.214193 0.214844 0.215495 0.216146 0.216797 0.217448 0.218099 0.218750 0.219401 0.220052 0.220703 0.221354 0.222005 0.222656 0.223307 0.223958 0.224609 0.225260 0.225911 0.226562 0.227214 0.227865 0.228516 0.229167 0.229818 0.230469 0.231120 0.231771 0.232422 0.233073 0.233724 0.234375 0.235026 0.235677
       0.34372        0.34372        0.34372        0.34372        0.34372        0.34372        0.34372        0.34372        0.34372        0.34372        0.34372        0.34372        0.34372        0.34372        0.34372        0.34372        0.34372        0.34372        0.34372        0.34372        0.34372        0.34372        0.34372        0.34372        0.34372        0.34372        0.34372        0.34372        0.34372        0.34372        0.34372        0.34372        0.34372        0.34372        0.34372        0.34372        0.34372        0.34372        0.34372        0.34372        0.34372        0.34372        0.34372        0.34372        0.34372        0.34372        0.34372        0.34372        0.34372        0.34372        0.34372        0.48967        0.70416        0.45628       -0.10953       -0.41359       -0.57049       -0.65991       -0.74537       -0.76153       -0.86890       -0.91324       -0.76016       -0.92463       -0.87160       -1.02433       -1.09525       -0.98863       -0.96059       -0.88331       -0.86243       -0.75121       -0.64075       -0.49943       -0.42215       -0.21783       -0.11854       -0.02341        0.20337        0.24415        0.30958        0.38695        0.43989        0.51694        0.58203        0.59729        0.59381        0.50290        0.54702        0.48664        0.39097        0.32524        0.20830        0.17470        0.10318       -0.06221       -0.11233       -0.09214        0.00963       -0.01740        0.01013        0.03021        0.21148        0.21979        0.39044        0.45796        0.56291        0.70259        0.76217        0.72891        0.70862        0.70581        0.58628        0.54450        0.40072        0.27414        0.19430        0.14446        0.06686        0.02257        0.02384        0.06203        0.07981        0.27287        0.41839        0.50487        0.58777        0.63984        0.70691        0.66187        0.65209        0.67307        0.61103        0.48054        0.28471        0.23343        0.20547        0.13126        0.04812        0.09386        0.12245        0.25034        0.34091        0.41567        0.50208        0.54096        0.66387        0.61087        0.55621        0.50812        0.36654        0.21003        0.21169        0.15292        0.11344        0.11966        0.21473        0.25514        0.36282        0.44447        0.44066        0.56850        0.51334        0.44687        0.45341        0.38566        0.32412        0.27745        0.21994        0.23794        0.21102        0.21333        0.32621        0.44941        0.48865        0.48070        0.55174        0.49680        0.45674        0.39601        0.29264        0.22469        0.23300        0.24748        0.26808        0.27137        0.32577        0.44279        0.49882        0.48780        0.45947        0.41937        0.38698        0.36285        0.24983        0.22979        0.24825        0.29462        0.35431        0.36481        0.39472        0.40859        0.44550        0.37177        0.34831        0.31389        0.30409        0.26615        0.26065        0.31328        0.34676        0.41750        0.41803        0.39919        0.39504        0.40856        0.35075        0.28785        0.29104        0.27557        0.31099        0.36066        0.36564        0.41550        0.36169        0.36745        0.39039        0.34559        0.31507        0.28102        0.29648        0.34094        0.33378        0.32738        0.37770        0.39653        0.33639        0.35324        0.29524        0.30865        0.29040        0.28254        0.30202        0.33111        0.38338        0.36771        0.34870        0.32995        0.28735        0.27783        0.29762        0.28235        0.31402        0.36975        0.39470        0.33819        0.31768        0.31283        0.29826        0.28300        0.27861        0.29923        0.34222        0.33588        0.34639        0.31886        0.34615        0.32520        0.28920        0.31543        0.32234        0.33219        0.33477        0.31929        0.31760        0.30788        0.32950        0.31594        0.33640        0.39123        0.33906        0.36183        0.32288        0.31513        0.28873        0.31077        0.29035        0.31076        0.31908        0.35354        0.36537        0.31831        0.32181        0.31397        0.29556        0.29432        0.28981        0.33603        0.34086        0.35933        0.33819        0.32640        0.25840        0.26939        0.31311        0.35212        0.31547        0.29924        0.28919        0.28987        0.32490        0.30695        0.30571        0.33404        0.34484        0.31630        0.24497        0.28694        0.28302        0.28817        0.32089        0.32274        0.34764        0.34174        0.28010        0.26570        0.29357        0.26546        0.28827        0.27499        0.24592        0.26605        0.24746        0.27812        0.27793        0.27640        0.26982        0.31545        0.32926        0.31678        0.29405        0.31264        0.24743        0.27335        0.25515        0.33605        0.34331        0.23569        0.26256        0.27802        0.25035        0.25060        0.30164        0.23053        0.14139        0.16901        0.25091        0.27962        0.23374        0.15051        0.02964       -0.40645       -0.75011
3.055249 3.017304 2.979604 2.942146 2.904933 2.867963 2.831237 2.794754 2.758515 2.722520 2.686768 2.651260 2.615996 2.580975 2.546198 2.511664 2.477375 2.443328 2.409526 2.375967 2.342652 2.309580 2.276752 2.244168 2.211827 2.179730 2.147876 2.116266 2.084900 2.053777 2.022899 1.992263 1.961872 1.931724 1.901819 1.872158 1.842741 1.813568 1.784638 1.755952 1.727509 1.699310 1.671355 1.643643 1.616175 1.588951 1.561970 1.535233 1.508740 1.482490 1.456484 1.512641 1.703647 1.614219 0.968475 0.682217 0.477451 0.433255 0.320864 0.265498 0.200271 0.022061 0.196883 0.081277 -0.006158 -0.059236 -0.197107 -0.150966 -0.090391 -0.091307 -0.098410 0.010131 0.031856 0.234691 0.150973 0.366023 0.446092 0.477125 0.716571 0.701018 0.710568 0.840444 0.824022 0.855312 0.924384 0.894745 0.942402 0.754088 0.838072 0.842241 0.621331 0.609739 0.459213 0.438961 0.388602 0.209052 0.120231 0.100978 0.205958 0.146869 0.193044 0.112298 0.315680 0.289407 0.456830 0.417963 0.581620 0.646603 0.768299 0.692945 0.664189 0.672055 0.535454 0.506935 0.371503 0.294434 0.118670 0.147026 0.002438 -0.013094 -0.037639 -0.027913 0.000015 0.035301 0.275009 0.333136 0.383467 0.400450 0.470929 0.533272 0.458571 0.507377 0.402450 0.389893 0.156140 0.066378 0.072361 0.000413 -0.122385 -0.041278 -0.108911 0.017594 0.136711 0.157126 0.254129 0.258464 0.384935 0.463029 0.357074 0.388643 0.283947 0.127864 0.049527 0.052381 0.012263 0.002313 0.006216 0.107923 0.131985 0.265466 0.237637 0.307146 0.374166 0.235622 0.242857 0.219690 0.133334 0.081329 0.054936 0.026625 0.039363 -0.012841 0.030055 0.186601 0.223029 0.250142 0.278881 0.233842 0.238878 0.148963 0.104799 -0.024083 -0.015996 -0.005646 0.018111 0.007667 0.027747 0.105654 0.186371 0.202541 0.219292 0.139109 0.145736 0.079515 0.055651 -0.057380 -0.012924 -0.007476 0.053848 0.066063 0.080070 0.151051 0.085212 0.171125 0.067987 0.053529 0.044728 0.026959 0.001535 0.011118 0.056369 0.083789 0.135315 0.143049 0.066484 0.132532 0.101456 0.018996 0.007165 0.005115 -0.005324 0.058841 0.061181 0.098327 0.099174 0.076868 0.064700 0.082303 0.033948 0.012839 -0.011040 0.012796 0.058312 0.030842 0.041237 0.084186 0.084553 0.056673 0.032932 0.006641 0.015039 -0.005073 -0.012810 0.015516 0.052464 0.103144 0.060765 0.059020 0.040827 -0.013783 -0.000462 0.014216 0.009829 0.026948 0.106807 0.053673 0.022456 0.043168 0.002927 0.025248 -0.012057 -0.005679 0.022569 0.064394 0.032961 0.046010 0.030436 0.054070 0.027441 -0.004399 0.027897 0.043491 0.036431 0.032053 0.027820 0.006135 -0.005705 0.027916 0.011281 0.044475 0.079257 0.048524 0.024730 0.015730 0.001568 -0.002457 0.006335 0.002780 0.012266 -0.000841 0.086346 0.054835 0.033984 0.038305 0.004499 0.011615 0.011401 -0.005520 0.055707 0.062102 0.088017 0.050956 0.050724 -0.025710 0.017984 0.036239 0.079078 0.026446 0.036596 0.011309 0.007583 0.049214 0.045061 0.035559 0.060227 0.076841 0.061103 -0.020507 0.017668 0.042956 0.024874 0.045220 0.075521 0.076780 0.071719 0.016258 0.003636 0.016348 -0.002242 0.018074 -0.015844 -0.031111 -0.008609 -0.046834 -0.000563 -0.007300 0.003388 -0.068926 0.000260 0.016106 0.001620 -0.031694 0.032875 -0.092146 -0.023493 -0.035965 0.034676 0.066854 -0.101027 -0.013279 0.041085 0.018543 -0.038837 0.047463 0.032058 -0.002686 -0.046583 0.077252 0.241983 0.207131 0.113888 0.028930 -0.658861
0.072396 0.073046 0.074994 0.078242 0.082786 0.088627 0.095761 0.104186 0.113897 0.124891 0.137159 0.150695 0.165487 0.181523 0.198788 0.217264 0.236927 0.257753 0.279710 0.302764 0.326874 0.351992 0.378066 0.405034 0.432829 0.461375 0.490586 0.520369 0.550620 0.581225 0.612059 0.642988 0.673865 0.704533 0.734822 0.764552 0.793532 0.821558 0.848418 0.873887 0.897733 0.919716 0.939585 0.957088 0.971964 0.983954 0.992795 0.998228 0.999997 0.997854 0.991561 0.980895 0.965647 0.945631 0.920687 0.890681 0.855514 0.815124 0.769488 0.718632 0.662629 0.601608 0.535752 0.465306 0.390579 0.311944 0.229840 0.144775 0.057324 0.031872 0.122108 0.212616 0.302574 0.391109 0.477303 0.560204 0.638835 0.712207 0.779329 0.839224 0.890943 0.933582 0.966301 0.988337 0.999028 0.997825 0.984315 0.958235 0.919490 0.868166 0.804542 0.729105 0.642547 0.545781 0.439931 0.326330 0.206517 0.082213 0.044690 0.172156 0.298035 0.420097 0.536069 0.643680 0.740708 0.825029 0.894667 0.947850 0.983057 0.999076 0.995040 0.970479 0.925351 0.860072 0.775531 0.673106 0.554650 0.422481 0.279349 0.128394 0.026916 0.182857 0.335528 0.480955 0.615187 0.734416 0.835087 0.914017 0.968509 0.996454 0.996435 0.967799 0.910724 0.826257 0.716326 0.583729 0.432083 0.265754 0.089748 0.090427 0.268922 0.439731 0.596896 0.734723 0.847995 0.932194 0.983695 0.999950 0.979636 0.922765 0.830745 0.706395 0.553898 0.378690 0.187308 0.012842 0.213746 0.407099 0.584649 0.738552 0.861744 0.948281 0.993663 0.995099 0.951712 0.864661 0.737177 0.574496 0.383692 0.173409 0.046496 0.265399 0.472412 0.656929 0.809178 0.920777 0.985225 0.998329 0.958520 0.867041 0.728002 0.548251 0.337101 0.105900 0.132550 0.364674 0.576900 0.756456 0.892171 0.975213 0.999718 0.963262 0.867141 0.716428 0.519787 0.289049 0.038551 0.215707 0.457065 0.669305 0.837753 0.950345 0.998544 0.978067 0.889330 0.737581 0.532696 0.288615 0.022474 0.246561 0.498651 0.714741 0.878048 0.975413 0.998437 0.944301 0.816162 0.623107 0.379613 0.104553 0.180202 0.451488 0.686725 0.865836 0.973017 0.998223 0.938211 0.797034 0.585918 0.322483 0.029385 0.267576 0.541691 0.767748 0.924412 0.996319 0.975690 0.863295 0.668641 0.409305 0.109483 0.202187 0.495304 0.740681 0.913287 0.994903 0.976159 0.857757 0.650680 0.375341 0.059713 0.263426 0.559841 0.797486 0.950033 0.999901 0.940428 0.776914 0.526358 0.215860 0.120180 0.443786 0.717682 0.909640 0.996379 0.966536 0.822336 0.579686 0.266614 0.079806 0.417745 0.705645 0.907380 0.996896 0.961751 0.805041 0.545392 0.214975 0.144317 0.486098 0.765435 0.944843 0.999455 0.920661 0.717678 0.416737 0.057906 0.310079 0.636376 0.875087 0.991812 0.968822 0.807971 0.530906 0.176406 0.204842 0.557394 0.829094 0.978904 0.983288 0.840153 0.569676 0.211743 0.179718 0.544726 0.826424 0.980046 0.980232 0.825484 0.538945 0.165248 0.236217 0.600600 0.868088 0.993838 0.955743 0.758616 0.433963 0.035282 0.370560 0.714431 0.936783 0.998120 0.886326 0.619365 0.242769 0.177849 0.568041 0.857682 0.993721 0.950140 0.733292 0.381409 0.041811 0.458462 0.790731 0.975515 0.976633 0.792284 0.456081 0.031321 0.400655 0.755943 0.964425 0.983856 0.808794 0.472412 0.040637 0.400474 0.761753 0.969036 0.978635 0.786931 0.431928 0.013865 0.457930 0.806827 0.985982 0.955904 0.721325 0.331040 0.131821 0.567217
1.000000 1.000000 1.000000 1.000000 1.000000 1.000000 1.000000 1.000000 1.000000 1.000000 1.000000 1.000000 1.000000 1.000000 1.000000 1.000000 1.000000 1.000000 1.000000 1.000000 1.000000 1.000000 1.000000 1.000000 1.000000 1.000000 1.000000 1.000000 1.000000 1.000000 1.000000 1.000000 1.000000 1.000000 1.000000 1.000000 1.000000 1.000000 1.000000 1.000000 1.000000 1.000000 1.000000 1.000000 1.000000 1.000000 1.000000 1.000000 1.000000 1.000000 1.000000 1.000000 0.932692 0.932692 0.932692 0.932692 0.932692 0.932692 0.932692 0.932692 0.932692 0.932692 0.932692 0.932692 0.932692 0.932692 0.932692 0.932692 0.932692 0.932692 0.932692 0.932692 0.932692 0.932692 0.932692 0.932692 0.932692 0.932692 0.932692 0.932692 0.932692 0.932692 0.932692 0.932692 0.932692 0.922158 0.923646 0.926643 0.927725 0.927685 0.927222 0.926899 0.927111 0.928827 0.931153 0.947793 0.949970 0.950544 0.951847 0.952092 0.954618 0.952858 0.952580 0.963161 0.961941 0.962631 0.955595 0.957216 0.956265 0.955311 0.955842 0.956120 0.954150 0.951964 0.950243 0.949584 0.949199 0.950974 0.951455 0.951401 0.952892 0.952840 0.952549 0.949127 0.947746 0.949226 0.951312 0.950473 0.956189 0.956003 0.964029 0.964791 0.963347 0.963261 0.963459 0.963660 0.952655 0.945703 0.939925 0.927973 0.918277 0.916219 0.919192 0.921244 0.920474 0.916150 0.915037 0.912355 0.906900 0.906028 0.906185 0.907867 0.904458 0.900867 0.884381 0.883882 0.886310 0.885453 0.883397 0.875327 0.870848 0.871533 0.874715 0.872081 0.868604 0.884670 0.879855 0.884912 0.887952 0.891234 0.895088 0.891417 0.890585 0.886845 0.883241 0.878380 0.879684 0.866229 0.869229 0.862938 0.853244 0.845630 0.848954 0.858679 0.866905 0.875111 0.874011 0.874242 0.873388 0.864279 0.865650 0.858277 0.859286 0.864831 0.871142 0.866958 0.864093 0.868257 0.866253 0.869432 0.871208 0.867452 0.865676 0.856169 0.856120 0.858631 0.875737 0.875424 0.864537 0.859542 0.850546 0.856815 0.859910 0.859365 0.861098 0.851543 0.852842 0.842754 0.832434 0.834212 0.838882 0.834037 0.835939 0.833668 0.837051 0.839233 0.837467 0.832417 0.831161 0.835278 0.811311 0.819070 0.822400 0.818326 0.822390 0.814598 0.808432 0.803481 0.802847 0.798707 0.811666 0.809763 0.777818 0.766257 0.774228 0.757958 0.749295 0.744350 0.744367 0.711575 0.690677 0.664408 0.658770 0.649493 0.650005 0.647356 0.636862 0.618771 0.604936 0.606751 0.623154 0.623301 0.591630 0.591368 0.584751 0.579379 0.574571 0.575837 0.573599 0.578522 0.583028 0.549330 0.544953 0.550501 0.524442 0.524777 0.523526 0.514040 0.484610 0.490435 0.489844 0.507687 0.524999 0.492815 0.491031 0.499012 0.512530 0.524862 0.525010 0.511111 0.493833 0.500137 0.476200 0.459346 0.476210 0.491579 0.484422 0.500472 0.489639 0.517900 0.512317 0.500433 0.525007 0.540748 0.538116 0.523432 0.537058 0.518293 0.521650 0.502969 0.464077 0.476378 0.464335 0.414910 0.403289 0.419336 0.405379 0.404055 0.377815 0.379017 0.356786 0.323199 0.334080 0.328717 0.295081 0.256157 0.258180 0.260329 0.228797 0.201597 0.221588 0.171912 0.164769 0.182816 0.192425 0.195893 0.184575 0.206691 0.206691 0.206691 0.206691 0.206691 0.206691 0.206691 0.206691 0.206691 0.206691 0.206691 0.206691 0.206691 0.206691 0.232203 0.232203 0.232203 0.232203 0.232203 0.232203 0.232203 0.232203 0.232203 0.232203 0.232203 0.232203
0.000000 0.000000 0.000000 0.000000 0.000000 0.000000 0.000000 0.000000 0.000000 0.000000 0.000000 0.000000 0.000000 0.000000 0.000000 0.000000 0.000000 0.000000 0.000000 0.000000 0.000000 0.000000 0.000000 0.000000 0.000000 7.000000 4.000000 0.000000 0.000000 0.000000 0.000000 0.000000 0.000000 0.000000 0.000000 0.000000 0.000000 0.000000 0.000000 0.000000 0.000000 0.000000 0.000000 0.000000 0.000000 0.000000 0.000000 0.000000 0.000000 0.000000 0.000000 0.000000 0.209657 0.209657 0.209657 0.209657 0.209657 0.209657 0.209657 0.209657 0.209657 0.209657 0.209657 0.209657 0.209657 0.209657 0.209657 0.209657 0.209657 0.209657 0.209657 0.209657 0.209657 0.209657 0.209657 0.209657 0.209657 0.209657 0.209657 0.209657 0.209657 0.209657 0.209657 0.209657 0.209657 0.244339 0.244339 0.244339 0.244339 0.244339 0.244339 0.244339 0.244339 0.244339 0.244339 0.244339 0.244339 0.244339 0.244339 0.244339 0.244339 0.244339 0.244339 0.244339 0.244339 0.244339 0.244339 0.244339 0.244339 0.244339 0.260378 0.260378 0.260378 0.260378 0.260378 0.260378 0.260378 0.260378 0.260378 0.260378 0.260378 0.260378 0.260378 0.260378 0.260378 0.260378 0.260378 0.260378 0.260378 0.260378 0.269680 0.269680 0.269680 0.269680 0.269680 0.269680 0.269680 0.269680 0.269680 0.269680 0.269680 0.269680 0.269680 0.269680 0.269680 0.269680 0.269680 0.269680 0.269680 0.269680 0.269680 0.269680 0.269680 0.269680 0.269680 0.269680 0.269680 0.269680 0.269680 0.269680 0.269680 0.269680 0.269680 0.280056 0.280056 0.280056 0.280056 0.280056 0.280056 0.280056 0.280056 0.280056 0.280056 0.280056 0.280056 0.280056 0.280056 0.280056 0.280056 0.280056 0.280056 0.280056 0.280056 0.280056 0.280056 0.280056 0.280056 0.280056 0.280056 0.280056 0.274721 0.274721 0.274721 0.274721 0.274721 0.274721 0.274721 0.274721 0.274721 0.274721 0.274721 0.274721 0.274721 0.285714 0.285714 0.285714 0.285714 0.285714 0.285714 0.285714 0.285714 0.285714 0.285714 0.285714 0.280056 0.280056 0.280056 0.280056 0.280056 0.280056 0.280056 0.280056 0.280056 0.280056 0.280056 0.274721 0.274721 0.274721 0.274721 0.274721 0.274721 0.274721 0.274721 0.274721 0.274721 0.274721 0.280056 0.280056 0.280056 0.280056 0.280056 0.280056 0.280056 0.280056 0.280056 0.280056 0.285714 0.285714 0.285714 0.285714 0.285714 0.285714 0.285714 0.285714 0.285714 0.269680 0.269680 0.269680 0.269680 0.269680 0.269680 0.269680 0.269680 0.269680 0.269680 0.274721 0.274721 0.274721 0.274721 0.274721 0.274721 0.274721 0.274721 0.274721 0.285714 0.285714 0.285714 0.285714 0.285714 0.285714 0.285714 0.285714 0.264906 0.264906 0.264906 0.264906 0.264906 0.264906 0.264906 0.264906 0.264906 0.274721 0.274721 0.274721 0.274721 0.274721 0.274721 0.274721 0.274721 0.269680 0.269680 0.269680 0.269680 0.269680 0.269680 0.269680 0.269680 0.269680 0.269680 0.269680 0.269680 0.269680 0.269680 0.269680 0.269680 0.280056 0.280056 0.280056 0.280056 0.280056 0.280056 0.280056 0.260378 0.260378 0.260378 0.260378 0.260378 0.260378 0.260378 0.260378 0.269680 0.269680 0.269680 0.269680 0.269680 0.269680 0.269680 0.264906 0.264906 0.264906 0.264906 0.264906 0.264906 0.264906 0.264906 0.264906 0.264906 0.264906 0.264906 0.264906 0.264906 0.260378 0.260378 0.260378 0.260378 0.260378 0.260378 0.260378 0.260378 0.260378 0.260378 0.260378 0.260378
