# Output from CTFFind version 4.1.9, run on 2019-11-03 19:38:29
# Input file: stack1_bm3d_averaged_1_4.75_0_250_half.mrc ; Number of micrographs: 1
# Pixel size: 3.000 Angstroms ; acceleration voltage: 300.0 keV ; spherical aberration: 0.00 mm ; amplitude contrast: 0.07
# Box size: 512 pixels ; min. res.: 30.0 Angstroms ; max. res.: 5.0 Angstroms ; min. def.: 5000.0 um; max. def. 50000.0 um; num. frames averaged: 1
# 6 lines per micrograph: #1 - spatial frequency (1/Angstroms); #2 - 1D rotational average of spectrum (assuming no astigmatism); #3 - 1D rotational average of spectrum; #4 - CTF fit; #5 - cross-correlation between spectrum and CTF fit; #6 - 2sigma of expected cross correlation of noise
0.000000 0.000651 0.001302 0.001953 0.002604 0.003255 0.003906 0.004557 0.005208 0.005859 0.006510 0.007161 0.007812 0.008464 0.009115 0.009766 0.010417 0.011068 0.011719 0.012370 0.013021 0.013672 0.014323 0.014974 0.015625 0.016276 0.016927 0.017578 0.018229 0.018880 0.019531 0.020182 0.020833 0.021484 0.022135 0.022786 0.023438 0.024089 0.024740 0.025391 0.026042 0.026693 0.027344 0.027995 0.028646 0.029297 0.029948 0.030599 0.031250 0.031901 0.032552 0.033203 0.033854 0.034505 0.035156 0.035807 0.036458 0.037109 0.037760 0.038411 0.039062 0.039714 0.040365 0.041016 0.041667 0.042318 0.042969 0.043620 0.044271 0.044922 0.045573 0.046224 0.046875 0.047526 0.048177 0.048828 0.049479 0.050130 0.050781 0.051432 0.052083 0.052734 0.053385 0.054036 0.054688 0.055339 0.055990 0.056641 0.057292 0.057943 0.058594 0.059245 0.059896 0.060547 0.061198 0.061849 0.062500 0.063151 0.063802 0.064453 0.065104 0.065755 0.066406 0.067057 0.067708 0.068359 0.069010 0.069661 0.070312 0.070964 0.071615 0.072266 0.072917 0.073568 0.074219 0.074870 0.075521 0.076172 0.076823 0.077474 0.078125 0.078776 0.079427 0.080078 0.080729 0.081380 0.082031 0.082682 0.083333 0.083984 0.084635 0.085286 0.085938 0.086589 0.087240 0.087891 0.088542 0.089193 0.089844 0.090495 0.091146 0.091797 0.092448 0.093099 0.093750 0.094401 0.095052 0.095703 0.096354 0.097005 0.097656 0.098307 0.098958 0.099609 0.100260 0.100911 0.101562 0.102214 0.102865 0.103516 0.104167 0.104818 0.105469 0.106120 0.106771 0.107422 0.108073 0.108724 0.109375 0.110026 0.110677 0.111328 0.111979 0.112630 0.113281 0.113932 0.114583 0.115234 0.115885 0.116536 0.117188 0.117839 0.118490 0.119141 0.119792 0.120443 0.121094 0.121745 0.122396 0.123047 0.123698 0.124349 0.125000 0.125651 0.126302 0.126953 0.127604 0.128255 0.128906 0.129557 0.130208 0.130859 0.131510 0.132161 0.132812 0.133464 0.134115 0.134766 0.135417 0.136068 0.136719 0.137370 0.138021 0.138672 0.139323 0.139974 0.140625 0.141276 0.141927 0.142578 0.143229 0.143880 0.144531 0.145182 0.145833 0.146484 0.147135 0.147786 0.148438 0.149089 0.149740 0.150391 0.151042 0.151693 0.152344 0.152995 0.153646 0.154297 0.154948 0.155599 0.156250 0.156901 0.157552 0.158203 0.158854 0.159505 0.160156 0.160807 0.161458 0.162109 0.162760 0.163411 0.164062 0.164714 0.165365 0.166016 0.166667 0.167318 0.167969 0.168620 0.169271 0.169922 0.170573 0.171224 0.171875 0.172526 0.173177 0.173828 0.174479 0.175130 0.175781 0.176432 0.177083 0.177734 0.178385 0.179036 0.179688 0.180339 0.180990 0.181641 0.182292 0.182943 0.183594 0.184245 0.184896 0.185547 0.186198 0.186849 0.187500 0.188151 0.188802 0.189453 0.190104 0.190755 0.191406 0.192057 0.192708 0.193359 0.194010 0.194661 0.195312 0.195964 0.196615 0.197266 0.197917 0.198568 0.199219 0.199870 0.200521 0.201172 0.201823 0.202474 0.203125 0.203776 0.204427 0.205078 0.205729 0.206380 0.207031 0.207682 0.208333 0.208984 0.209635 0.210286 0.210938 0.211589 0.212240 0.212891 0.213542 0.214193 0.214844 0.215495 0.216146 0.216797 0.217448 0.218099 0.218750 0.219401 0.220052 0.220703 0.221354 0.222005 0.222656 0.223307 0.223958 0.224609 0.225260 0.225911 0.226562 0.227214 0.227865 0.228516 0.229167 0.229818 0.230469 0.231120 0.231771 0.232422 0.233073 0.233724 0.234375 0.235026 0.235677
       0.35135        0.35135        0.35135        0.35135        0.35135        0.35135        0.35135        0.35135        0.35135        0.35135        0.35135        0.35135        0.35135        0.35135        0.35135        0.35135        0.35135        0.35135        0.35135        0.35135        0.35135        0.35135        0.35135        0.35135        0.35135        0.35135        0.35135        0.35135        0.35135        0.35135        0.35135        0.35135        0.35135        0.35135        0.35135        0.35135        0.35135        0.35135        0.35135        0.35135        0.35135        0.35135        0.35135        0.35135        0.35135        0.35135        0.35135        0.35135        0.35135        0.35135        0.35135        0.43605        0.63907        0.31712        0.15501       -0.01998       -0.25769       -0.07419       -0.16115       -0.17167        0.01616       -0.11755       -0.11494       -0.05209       -0.03513       -0.12599       -0.15672       -0.30285       -0.43145       -0.52132       -0.47562       -0.38267       -0.28994       -0.43182       -0.33826       -0.44938       -0.36535       -0.41313       -0.24494       -0.23511       -0.27136       -0.12579       -0.07811       -0.05664        0.07762        0.03126        0.19953        0.19835        0.32702        0.37658        0.48256        0.51329        0.56090        0.60596        0.69987        0.59778        0.56302        0.51494        0.50916        0.59206        0.49586        0.45822        0.40865        0.32122        0.28431        0.30065        0.29221        0.19177        0.17350        0.06333        0.12098        0.11534        0.11861        0.11100        0.15634        0.22248        0.30104        0.28976        0.32263        0.46809        0.46107        0.49162        0.63443        0.63660        0.57320        0.57569        0.58372        0.44964        0.48062        0.38031        0.33062        0.29007        0.23176        0.23119        0.19915        0.16032        0.18040        0.23044        0.23958        0.26705        0.33280        0.35602        0.39626        0.47692        0.49513        0.47476        0.47303        0.56783        0.49458        0.49596        0.45293        0.37699        0.34307        0.26473        0.29113        0.22541        0.22663        0.26766        0.21945        0.23704        0.31663        0.38762        0.41331        0.45876        0.44548        0.50695        0.48904        0.46713        0.41908        0.40541        0.37333        0.37476        0.39343        0.37367        0.27687        0.31620        0.28618        0.29117        0.29514        0.35093        0.38505        0.40675        0.45275        0.48566        0.44008        0.42899        0.45145        0.40489        0.35251        0.37230        0.32494        0.33684        0.30873        0.32577        0.29858        0.33569        0.35125        0.38942        0.43380        0.43296        0.41196        0.39319        0.38007        0.38696        0.30108        0.32019        0.34388        0.27644        0.32989        0.31331        0.33561        0.35211        0.34642        0.37554        0.38710        0.46021        0.38888        0.35862        0.36409        0.31956        0.32538        0.33582        0.32468        0.35181        0.33243        0.35411        0.34307        0.39740        0.37030        0.38248        0.40934        0.39325        0.35030        0.33707        0.34130        0.31115        0.36021        0.32793        0.33978        0.35372        0.37141        0.33602        0.34698        0.33781        0.30081        0.28981        0.28178        0.31518        0.34786        0.34654        0.33519        0.31326        0.35465        0.34158        0.33194        0.31217        0.32935        0.34005        0.32326        0.30125        0.35220        0.33699        0.33653        0.31534        0.32537        0.35076        0.33116        0.30922        0.32011        0.28891        0.29674        0.35443        0.33296        0.32367        0.36532        0.31966        0.31689        0.36031        0.33811        0.28751        0.29348        0.27074        0.32900        0.34090        0.35071        0.31276        0.29987        0.33666        0.31293        0.28055        0.32073        0.33235        0.33394        0.34376        0.31032        0.28124        0.33166        0.31596        0.34678        0.32119        0.29076        0.35159        0.37530        0.38902        0.30686        0.34111        0.32371        0.33295        0.29132        0.34085        0.32342        0.25181        0.29650        0.36303        0.32903        0.32520        0.30712        0.33786        0.30401        0.29919        0.29101        0.31057        0.30445        0.25525        0.24897        0.29696        0.32857        0.28537        0.27968        0.30443        0.32121        0.27178        0.33371        0.29507        0.29832        0.29709        0.23883        0.30902        0.29584        0.24572        0.21467        0.20785        0.20740        0.22514        0.29595        0.26545        0.35171        0.26987        0.29915        0.28023        0.20424        0.27328        0.30880        0.22494        0.16495        0.24241        0.31640        0.42778        0.37505       -0.04630        0.01436       -0.40700       -0.60335
2.892922 2.861510 2.830271 2.799204 2.768310 2.737588 2.707039 2.676662 2.646458 2.616427 2.586567 2.556881 2.527367 2.498025 2.468856 2.439860 2.411036 2.382384 2.353905 2.325599 2.297465 2.269503 2.241715 2.214098 2.186655 2.159383 2.132285 2.105358 2.078605 2.052024 2.025615 1.999379 1.973315 1.947424 1.921705 1.896159 1.870786 1.845585 1.820557 1.795701 1.771017 1.746506 1.722168 1.698002 1.674009 1.650188 1.626540 1.603064 1.579761 1.556630 1.533672 1.522308 1.884980 1.656745 1.069932 1.072374 0.441314 0.908251 0.538929 0.694055 0.868932 0.679046 0.578721 0.753764 0.704016 0.601904 0.537569 0.330131 0.070652 -0.010647 -0.020553 -0.026156 0.364812 -0.049125 0.087927 -0.040328 0.027993 -0.055524 0.151528 0.143040 0.077945 0.228627 0.325126 0.276641 0.464272 0.382340 0.644608 0.530298 0.772804 0.733762 0.888228 1.018981 0.941402 1.066686 1.098271 1.130975 0.955967 0.860550 0.867642 0.926392 0.824252 0.780066 0.634728 0.558416 0.480069 0.461271 0.467500 0.296454 0.301829 0.130681 0.113136 0.163354 0.132078 0.088245 0.144559 0.194465 0.328418 0.312662 0.364619 0.383968 0.578357 0.388457 0.678676 0.793361 0.603260 0.622843 0.646030 0.452003 0.400448 0.385209 0.215138 0.228223 0.046038 0.123154 -0.009206 0.003726 -0.059431 -0.008773 0.082072 0.030407 0.090437 0.185661 0.216572 0.250273 0.363692 0.319953 0.290462 0.415583 0.369507 0.337275 0.293699 0.229080 0.122162 0.060646 -0.018043 -0.015426 -0.106584 0.000286 -0.028023 -0.092112 -0.066357 0.084070 0.208029 0.169571 0.239122 0.213710 0.341534 0.245524 0.238728 0.244000 0.136269 0.082535 0.224736 0.092652 0.062065 0.006643 0.064584 -0.028652 0.049169 -0.007962 0.159959 0.086718 0.151076 0.256371 0.255282 0.107346 0.181984 0.166494 0.115190 0.060966 0.060652 0.038189 0.002945 0.015701 -0.015009 -0.046703 0.081125 0.015611 0.121045 0.143130 0.127056 0.054311 0.050946 0.078269 0.006663 -0.090943 -0.006938 -0.024185 -0.081433 -0.028704 -0.043514 0.022309 -0.021642 0.010787 0.042626 0.123490 0.160496 0.001145 0.048321 0.028046 -0.063326 0.005467 -0.003599 -0.017816 0.051507 -0.002605 0.002400 0.051323 0.069433 0.065366 0.082448 0.147110 0.034129 0.044472 0.020905 0.009986 -0.008079 0.072348 0.005214 0.034452 0.059568 0.032511 0.003811 0.057415 0.014277 -0.032525 -0.045153 -0.041131 0.000847 0.064002 0.056939 0.014342 -0.006161 0.089795 0.055715 0.055805 0.031068 0.041576 0.061438 0.021324 0.037891 0.084473 0.051756 0.041206 0.066479 0.007812 0.092663 0.047980 0.030717 0.039780 -0.034254 0.023785 0.096014 0.058001 0.040213 0.117541 0.012550 0.010275 0.062894 0.009356 -0.009464 -0.056714 -0.067930 0.046240 0.039527 0.011523 -0.006692 -0.038010 0.020210 -0.065677 -0.038526 -0.014543 0.023000 0.026854 0.004577 -0.052568 -0.043635 -0.029938 -0.000050 -0.060831 -0.023213 -0.067817 0.035054 0.049344 0.024667 -0.065967 -0.040826 -0.012409 -0.024024 -0.096869 -0.039505 -0.025623 -0.145883 -0.051970 0.059191 -0.054116 -0.015220 -0.093947 0.116897 -0.044806 -0.001302 -0.043415 0.047973 -0.034826 -0.039484 -0.061281 0.000297 0.162603 0.058192 0.078153 0.066552 0.185697 0.007086 0.179757 0.081806 0.060173 0.117938 -0.035445 0.169861 0.028351 -0.008436 -0.061239 -0.047815 -0.054428 -0.081339 0.035281 -0.036469 0.103353 -0.120418 0.045829 -0.108329 -0.149695 -0.116714 0.037482 0.315075 0.216744 0.321136 0.507142 0.624260 0.532786 -0.335717 0.026132 -0.810949
0.072396 0.072908 0.074442 0.077000 0.080579 0.085180 0.090800 0.097439 0.105094 0.113761 0.123438 0.134120 0.145802 0.158476 0.172135 0.186769 0.202366 0.218913 0.236394 0.254792 0.274084 0.294247 0.315254 0.337074 0.359671 0.383007 0.407039 0.431717 0.456990 0.482797 0.509075 0.535753 0.562755 0.589997 0.617392 0.644842 0.672244 0.699487 0.726456 0.753025 0.779063 0.804432 0.828986 0.852575 0.875040 0.896219 0.915942 0.934037 0.950326 0.964631 0.976768 0.986555 0.993809 0.998349 0.999997 0.998579 0.993928 0.985885 0.974299 0.959035 0.939967 0.916990 0.890014 0.858972 0.823818 0.784534 0.741128 0.693638 0.642135 0.586723 0.527544 0.464776 0.398638 0.329387 0.257323 0.182789 0.106168 0.027884 0.051596 0.131767 0.212086 0.291977 0.370831 0.448011 0.522858 0.594697 0.662837 0.726587 0.785254 0.838158 0.884637 0.924055 0.955817 0.979370 0.994222 0.999944 0.996186 0.982685 0.959271 0.925881 0.882562 0.829484 0.766938 0.695346 0.615265 0.527383 0.432520 0.331628 0.225782 0.116174 0.004102 0.109042 0.221786 0.332599 0.439908 0.542122 0.637655 0.724953 0.802521 0.868950 0.922948 0.963368 0.989235 0.999775 0.994439 0.972925 0.935198 0.881506 0.812392 0.728696 0.631560 0.522418 0.402988 0.275250 0.141418 0.003912 0.134685 0.271671 0.404278 0.529724 0.645278 0.748319 0.836402 0.907325 0.959181 0.990429 0.999942 0.987052 0.951595 0.893930 0.814965 0.716151 0.599479 0.467448 0.323029 0.169605 0.010903 0.149091 0.306226 0.456297 0.595155 0.718827 0.823637 0.906323 0.964153 0.995024 0.997552 0.971150 0.916070 0.833442 0.725265 0.594388 0.444454 0.279813 0.105411 0.073344 0.250748 0.420978 0.578279 0.717174 0.832655 0.920383 0.976861 0.999599 0.987237 0.939643 0.857958 0.744613 0.603274 0.438761 0.256900 0.064338 0.131693 0.323626 0.503866 0.665082 0.800522 0.904306 0.971710 0.999395 0.985606 0.930301 0.835211 0.703831 0.541321 0.354343 0.150815 0.060416 0.269936 0.468175 0.645858 0.794447 0.906565 0.976392 0.999999 0.975600 0.903711 0.787200 0.631220 0.443024 0.231663 0.007577 0.217895 0.433089 0.626616 0.787976 0.908153 0.980150 0.999429 0.964243 0.875819 0.738379 0.558992 0.347263 0.114852 0.125137 0.358874 0.572608 0.753476 0.890302 0.974326 0.999807 0.964464 0.869717 0.720710 0.526089 0.297564 0.049240 0.203223 0.443572 0.656025 0.826310 0.942667 0.996703 0.984051 0.904782 0.763524 0.569268 0.334851 0.076179 0.188823 0.441442 0.663493 0.838635 0.953636 0.999410 0.971807 0.872052 0.706793 0.487743 0.230921 0.044461 0.317418 0.566752 0.772736 0.918688 0.992394 0.987189 0.902643 0.744752 0.525606 0.262552 0.023120 0.307854 0.567755 0.780611 0.927822 0.996100 0.978735 0.876350 0.697023 0.455753 0.173290 0.125571 0.414143 0.666217 0.858468 0.972667 0.997491 0.929743 0.774838 0.546499 0.265647 0.041446 0.345540 0.617213 0.829721 0.961673 0.999289 0.937927 0.782762 0.548487 0.258036 0.059563 0.372049 0.647164 0.856022 0.976207 0.994266 0.907339 0.723692 0.462081 0.149950 0.179355 0.490101 0.748042 0.924238 0.998387 0.961285 0.816097 0.578258 0.273989 0.062505 0.392780 0.678549 0.886140 0.990539 0.978539 0.850540 0.620789 0.315951 0.027853 0.369243 0.666543 0.882878 0.990844 0.976110 0.839469 0.597043 0.278551 0.076188 0.422168 0.714868 0.916027 0.998746 0.951232 0.778642 0.502742 0.159333 0.206276 0.545154 0.811321 0.968033
1.000000 1.000000 1.000000 1.000000 1.000000 1.000000 1.000000 1.000000 1.000000 1.000000 1.000000 1.000000 1.000000 1.000000 1.000000 1.000000 1.000000 1.000000 1.000000 1.000000 1.000000 1.000000 1.000000 1.000000 1.000000 1.000000 1.000000 1.000000 1.000000 1.000000 1.000000 1.000000 1.000000 1.000000 1.000000 1.000000 1.000000 1.000000 1.000000 1.000000 1.000000 1.000000 1.000000 1.000000 1.000000 1.000000 1.000000 1.000000 1.000000 1.000000 1.000000 1.000000 0.859605 0.859605 0.859605 0.859454 0.859454 0.859454 0.859454 0.859454 0.859454 0.859454 0.859454 0.859454 0.859454 0.859454 0.859454 0.859454 0.859454 0.859454 0.859454 0.859454 0.859454 0.859454 0.859454 0.859454 0.859454 0.859454 0.859454 0.859454 0.859454 0.859454 0.859454 0.859454 0.859454 0.859454 0.859454 0.859454 0.859454 0.859454 0.859454 0.859454 0.859454 0.859454 0.859454 0.859454 0.868910 0.873044 0.875095 0.877269 0.878812 0.875741 0.874721 0.874433 0.874555 0.875968 0.886829 0.911253 0.926846 0.931385 0.938894 0.940657 0.946107 0.946106 0.951944 0.959069 0.958181 0.956772 0.956429 0.958586 0.942720 0.940611 0.936423 0.932200 0.960571 0.942044 0.938910 0.932093 0.925789 0.924147 0.923967 0.923281 0.923706 0.924526 0.925849 0.926314 0.926138 0.926939 0.926329 0.922323 0.916659 0.914100 0.913688 0.912622 0.899334 0.894383 0.894294 0.894227 0.886283 0.886156 0.885976 0.886484 0.887264 0.887836 0.869512 0.866642 0.864759 0.861997 0.860534 0.860561 0.860597 0.865044 0.867601 0.858898 0.830075 0.822766 0.808420 0.769892 0.759604 0.768811 0.772092 0.768600 0.767054 0.765579 0.763646 0.761928 0.755550 0.755280 0.754860 0.749888 0.737154 0.731891 0.712383 0.695641 0.703551 0.666962 0.681113 0.692598 0.692925 0.682093 0.683426 0.684628 0.693177 0.682364 0.677461 0.669638 0.660480 0.640860 0.619122 0.613103 0.628595 0.631987 0.617942 0.597607 0.621453 0.616972 0.620899 0.631311 0.645497 0.645064 0.633370 0.599427 0.569138 0.584164 0.594549 0.592130 0.592533 0.593980 0.603989 0.623069 0.617523 0.567084 0.550672 0.548979 0.547355 0.561880 0.576197 0.571990 0.545870 0.532607 0.513608 0.531835 0.537381 0.509504 0.500927 0.496419 0.504352 0.467898 0.476181 0.478107 0.476683 0.493976 0.495099 0.468190 0.469070 0.455497 0.456751 0.454736 0.457644 0.468471 0.451189 0.449236 0.458151 0.480869 0.489313 0.462267 0.454815 0.460685 0.463221 0.436145 0.451449 0.418288 0.412219 0.394166 0.316873 0.238115 0.251595 0.253974 0.226151 0.200324 0.171910 0.158412 0.130191 0.121983 0.100054 0.019434 -0.045889 -0.056764 -0.050688 -0.042856 -0.032934 -0.034030 -0.067379 -0.072219 -0.038005 -0.026787 -0.049727 -0.046875 -0.126223 -0.109280 -0.128629 -0.085283 -0.106689 -0.092777 -0.099428 -0.106702 -0.076726 -0.068534 -0.087684 -0.093880 -0.118476 -0.101273 -0.097023 -0.129174 -0.104268 -0.118583 -0.126740 -0.163050 -0.164451 -0.143493 -0.143651 -0.155873 -0.156319 -0.116062 -0.113224 -0.134264 -0.128564 -0.124874 -0.099219 -0.146103 -0.103296 -0.087635 -0.087493 -0.024688 0.012060 0.014346 0.011456 0.015699 0.021657 0.033772 0.034860 0.037237 0.054088 0.059240 -0.000033 -0.000033 -0.000033 -0.022438 -0.022438 -0.022438 -0.022438 -0.022438 -0.022438 -0.022438 -0.022438 -0.022438 -0.034853 -0.034853 -0.034853 -0.034853 -0.034853 -0.034853 -0.034853 -0.034853 -0.034853 -0.034853 -0.034853 -0.034853 -0.034853 -0.034853 -0.034853 -0.034853 -0.034853
0.000000 0.000000 0.000000 0.000000 0.000000 0.000000 0.000000 0.000000 0.000000 0.000000 0.000000 0.000000 0.000000 0.000000 0.000000 0.000000 0.000000 0.000000 0.000000 0.000000 0.000000 0.000000 0.000000 0.000000 0.000000 0.000000 0.000000 0.000000 0.000000 0.000000 0.000000 0.000000 0.000000 0.000000 0.000000 0.000000 0.000000 0.000000 0.000000 0.000000 0.000000 0.000000 0.000000 0.000000 0.000000 0.000000 0.000000 0.000000 0.000000 0.000000 0.000000 0.000000 0.180334 0.180334 0.180334 0.199007 0.199007 0.199007 0.199007 0.199007 0.199007 0.199007 0.199007 0.199007 0.199007 0.199007 0.199007 0.199007 0.199007 0.199007 0.199007 0.199007 0.199007 0.199007 0.199007 0.199007 0.199007 0.199007 0.199007 0.199007 0.199007 0.199007 0.199007 0.199007 0.199007 0.199007 0.199007 0.199007 0.199007 0.199007 0.199007 0.199007 0.199007 0.199007 0.199007 0.199007 0.230940 0.230940 0.230940 0.230940 0.230940 0.230940 0.230940 0.230940 0.230940 0.230940 0.230940 0.230940 0.230940 0.230940 0.230940 0.230940 0.230940 0.230940 0.230940 0.230940 0.230940 0.230940 0.230940 0.230940 0.230940 0.230940 0.230940 0.230940 0.248069 0.248069 0.248069 0.248069 0.248069 0.248069 0.248069 0.248069 0.248069 0.248069 0.248069 0.248069 0.248069 0.248069 0.248069 0.248069 0.248069 0.248069 0.248069 0.248069 0.248069 0.248069 0.251976 0.251976 0.251976 0.251976 0.251976 0.251976 0.251976 0.251976 0.251976 0.251976 0.251976 0.251976 0.251976 0.251976 0.251976 0.251976 0.251976 0.251976 0.251976 0.251976 0.256074 0.256074 0.256074 0.256074 0.256074 0.256074 0.256074 0.256074 0.256074 0.256074 0.256074 0.256074 0.256074 0.256074 0.256074 0.256074 0.256074 0.256074 0.264906 0.264906 0.264906 0.264906 0.264906 0.264906 0.264906 0.264906 0.264906 0.264906 0.264906 0.264906 0.264906 0.264906 0.264906 0.264906 0.269680 0.269680 0.269680 0.269680 0.269680 0.269680 0.269680 0.269680 0.269680 0.269680 0.269680 0.269680 0.269680 0.269680 0.264906 0.264906 0.264906 0.264906 0.264906 0.264906 0.264906 0.264906 0.264906 0.264906 0.264906 0.264906 0.264906 0.264906 0.264906 0.264906 0.264906 0.264906 0.264906 0.264906 0.264906 0.264906 0.264906 0.264906 0.264906 0.264906 0.264906 0.260378 0.260378 0.260378 0.260378 0.260378 0.260378 0.260378 0.260378 0.260378 0.260378 0.260378 0.260378 0.260378 0.264906 0.264906 0.264906 0.264906 0.264906 0.264906 0.264906 0.264906 0.264906 0.264906 0.264906 0.264906 0.269680 0.269680 0.269680 0.269680 0.269680 0.269680 0.269680 0.269680 0.269680 0.269680 0.269680 0.264906 0.264906 0.264906 0.264906 0.264906 0.264906 0.264906 0.264906 0.264906 0.264906 0.264906 0.269680 0.269680 0.269680 0.269680 0.269680 0.269680 0.269680 0.269680 0.269680 0.269680 0.264906 0.264906 0.264906 0.264906 0.264906 0.264906 0.264906 0.264906 0.264906 0.264906 0.260378 0.260378 0.260378 0.260378 0.260378 0.260378 0.260378 0.260378 0.260378 0.260378 0.256074 0.256074 0.256074 0.256074 0.256074 0.256074 0.256074 0.256074 0.256074 0.256074 0.260378 0.260378 0.260378 0.260378 0.260378 0.260378 0.260378 0.260378 0.260378 0.256074 0.256074 0.256074 0.256074 0.256074 0.256074 0.256074 0.256074 0.256074 0.251976 0.251976 0.251976 0.251976 0.251976 0.251976 0.251976 0.251976 0.251976 0.251976 0.251976 0.251976 0.251976 0.251976 0.251976 0.251976 0.251976
