# Output from CTFFind version 4.1.9, run on 2019-11-03 20:05:07
# Input file: stack6_bm3d_averaged_1_6.0_0_750_half.mrc ; Number of micrographs: 1
# Pixel size: 3.000 Angstroms ; acceleration voltage: 300.0 keV ; spherical aberration: 0.00 mm ; amplitude contrast: 0.07
# Box size: 512 pixels ; min. res.: 30.0 Angstroms ; max. res.: 5.0 Angstroms ; min. def.: 5000.0 um; max. def. 50000.0 um; num. frames averaged: 1
# 6 lines per micrograph: #1 - spatial frequency (1/Angstroms); #2 - 1D rotational average of spectrum (assuming no astigmatism); #3 - 1D rotational average of spectrum; #4 - CTF fit; #5 - cross-correlation between spectrum and CTF fit; #6 - 2sigma of expected cross correlation of noise
0.000000 0.000651 0.001302 0.001953 0.002604 0.003255 0.003906 0.004557 0.005208 0.005859 0.006510 0.007161 0.007812 0.008464 0.009115 0.009766 0.010417 0.011068 0.011719 0.012370 0.013021 0.013672 0.014323 0.014974 0.015625 0.016276 0.016927 0.017578 0.018229 0.018880 0.019531 0.020182 0.020833 0.021484 0.022135 0.022786 0.023438 0.024089 0.024740 0.025391 0.026042 0.026693 0.027344 0.027995 0.028646 0.029297 0.029948 0.030599 0.031250 0.031901 0.032552 0.033203 0.033854 0.034505 0.035156 0.035807 0.036458 0.037109 0.037760 0.038411 0.039062 0.039714 0.040365 0.041016 0.041667 0.042318 0.042969 0.043620 0.044271 0.044922 0.045573 0.046224 0.046875 0.047526 0.048177 0.048828 0.049479 0.050130 0.050781 0.051432 0.052083 0.052734 0.053385 0.054036 0.054688 0.055339 0.055990 0.056641 0.057292 0.057943 0.058594 0.059245 0.059896 0.060547 0.061198 0.061849 0.062500 0.063151 0.063802 0.064453 0.065104 0.065755 0.066406 0.067057 0.067708 0.068359 0.069010 0.069661 0.070312 0.070964 0.071615 0.072266 0.072917 0.073568 0.074219 0.074870 0.075521 0.076172 0.076823 0.077474 0.078125 0.078776 0.079427 0.080078 0.080729 0.081380 0.082031 0.082682 0.083333 0.083984 0.084635 0.085286 0.085938 0.086589 0.087240 0.087891 0.088542 0.089193 0.089844 0.090495 0.091146 0.091797 0.092448 0.093099 0.093750 0.094401 0.095052 0.095703 0.096354 0.097005 0.097656 0.098307 0.098958 0.099609 0.100260 0.100911 0.101562 0.102214 0.102865 0.103516 0.104167 0.104818 0.105469 0.106120 0.106771 0.107422 0.108073 0.108724 0.109375 0.110026 0.110677 0.111328 0.111979 0.112630 0.113281 0.113932 0.114583 0.115234 0.115885 0.116536 0.117188 0.117839 0.118490 0.119141 0.119792 0.120443 0.121094 0.121745 0.122396 0.123047 0.123698 0.124349 0.125000 0.125651 0.126302 0.126953 0.127604 0.128255 0.128906 0.129557 0.130208 0.130859 0.131510 0.132161 0.132812 0.133464 0.134115 0.134766 0.135417 0.136068 0.136719 0.137370 0.138021 0.138672 0.139323 0.139974 0.140625 0.141276 0.141927 0.142578 0.143229 0.143880 0.144531 0.145182 0.145833 0.146484 0.147135 0.147786 0.148438 0.149089 0.149740 0.150391 0.151042 0.151693 0.152344 0.152995 0.153646 0.154297 0.154948 0.155599 0.156250 0.156901 0.157552 0.158203 0.158854 0.159505 0.160156 0.160807 0.161458 0.162109 0.162760 0.163411 0.164062 0.164714 0.165365 0.166016 0.166667 0.167318 0.167969 0.168620 0.169271 0.169922 0.170573 0.171224 0.171875 0.172526 0.173177 0.173828 0.174479 0.175130 0.175781 0.176432 0.177083 0.177734 0.178385 0.179036 0.179688 0.180339 0.180990 0.181641 0.182292 0.182943 0.183594 0.184245 0.184896 0.185547 0.186198 0.186849 0.187500 0.188151 0.188802 0.189453 0.190104 0.190755 0.191406 0.192057 0.192708 0.193359 0.194010 0.194661 0.195312 0.195964 0.196615 0.197266 0.197917 0.198568 0.199219 0.199870 0.200521 0.201172 0.201823 0.202474 0.203125 0.203776 0.204427 0.205078 0.205729 0.206380 0.207031 0.207682 0.208333 0.208984 0.209635 0.210286 0.210938 0.211589 0.212240 0.212891 0.213542 0.214193 0.214844 0.215495 0.216146 0.216797 0.217448 0.218099 0.218750 0.219401 0.220052 0.220703 0.221354 0.222005 0.222656 0.223307 0.223958 0.224609 0.225260 0.225911 0.226562 0.227214 0.227865 0.228516 0.229167 0.229818 0.230469 0.231120 0.231771 0.232422 0.233073 0.233724 0.234375 0.235026 0.235677
       0.31918        0.31918        0.31918        0.31918        0.31918        0.31918        0.31918        0.31918        0.31918        0.31918        0.31918        0.31918        0.31918        0.31918        0.31918        0.31918        0.31918        0.31918        0.31918        0.31918        0.31918        0.31918        0.31918        0.31918        0.31918        0.31918        0.31918        0.31918        0.31918        0.31918        0.31918        0.31918        0.31918        0.31918        0.31918        0.31918        0.31918        0.31918        0.31918        0.31918        0.31918        0.31918        0.31918        0.31918        0.31918        0.31918        0.31918        0.31918        0.31918        0.31918        0.31918        0.59789        0.71754        0.35948        0.17881        0.13112       -0.14125        0.10922        0.03390        0.03663        0.09089        0.30741        0.31786        0.24453        0.14421       -0.03885       -0.01279        0.04456       -0.11403       -0.12104       -0.07841       -0.09204       -0.20361       -0.13244       -0.24581       -0.26309       -0.25995       -0.32225       -0.39786       -0.33328       -0.24063       -0.20940       -0.31222       -0.23013       -0.28065       -0.22163       -0.15041       -0.09539       -0.06180        0.00233        0.04206        0.13498        0.17757        0.21869        0.33949        0.40658        0.35702        0.46932        0.54575        0.55440        0.63528        0.56598        0.59767        0.60026        0.60824        0.60748        0.55495        0.58149        0.54604        0.39198        0.33665        0.36918        0.34413        0.19986        0.17704        0.14984        0.09672        0.10028        0.01981        0.07910        0.05925        0.01847        0.11010        0.17069        0.26510        0.35232        0.35113        0.37870        0.45144        0.48673        0.41802        0.64582        0.54106        0.48217        0.57199        0.49930        0.54295        0.50537        0.37440        0.31164        0.28907        0.23975        0.22987        0.20255        0.18212        0.14869        0.23023        0.21074        0.24523        0.21380        0.26851        0.32249        0.33556        0.44484        0.43795        0.41671        0.42237        0.47231        0.43775        0.42637        0.39575        0.40039        0.33630        0.28486        0.25350        0.25579        0.25307        0.19933        0.17586        0.23200        0.24225        0.27698        0.34685        0.36728        0.41792        0.40040        0.43026        0.46882        0.45985        0.42738        0.38801        0.41409        0.37187        0.32626        0.33408        0.31785        0.25999        0.27789        0.27559        0.24136        0.30817        0.28426        0.29962        0.32448        0.38295        0.41364        0.40629        0.43175        0.37787        0.41869        0.39321        0.31267        0.28948        0.25235        0.26793        0.23210        0.20691        0.29797        0.35620        0.32333        0.29554        0.35019        0.27361        0.33246        0.38570        0.37506        0.36088        0.38250        0.33245        0.35015        0.33169        0.29240        0.28287        0.24825        0.30012        0.31297        0.32755        0.34443        0.38158        0.37361        0.37311        0.32632        0.35081        0.34619        0.32954        0.32297        0.29150        0.28661        0.25833        0.32789        0.33164        0.32912        0.29963        0.33639        0.34303        0.33260        0.34894        0.32938        0.29652        0.29387        0.29699        0.26959        0.25328        0.24441        0.24737        0.26546        0.25340        0.29392        0.28226        0.32114        0.33486        0.26464        0.29847        0.27712        0.22189        0.27313        0.25477        0.25244        0.28603        0.31137        0.30991        0.30302        0.30403        0.30112        0.32198        0.33992        0.28710        0.31840        0.31350        0.36266        0.28409        0.27084        0.27057        0.31132        0.32259        0.33616        0.35072        0.30883        0.23086        0.29127        0.25500        0.25042        0.25008        0.25428        0.29010        0.22733        0.29795        0.31858        0.35533        0.31405        0.29520        0.25936        0.28001        0.28422        0.24135        0.26504        0.27652        0.30677        0.33864        0.32285        0.29329        0.28792        0.32005        0.26460        0.23272        0.18982        0.30537        0.33714        0.33606        0.31804        0.29688        0.23528        0.21201        0.25168        0.25083        0.25031        0.27317        0.28354        0.24783        0.25508        0.24048        0.29154        0.25674        0.25549        0.26460        0.25555        0.19000        0.24378        0.24538        0.23100        0.28958        0.25003        0.25298        0.21255        0.21380        0.26670        0.23313        0.23903        0.16028        0.15227        0.31717        0.20595        0.21405        0.28379        0.17073        0.16470        0.15091        0.25223        0.19795        0.15361       -0.05339       -0.59262       -0.92998
2.331155 2.311343 2.291620 2.271986 2.252440 2.232982 2.213612 2.194331 2.175138 2.156034 2.137017 2.118090 2.099250 2.080499 2.061836 2.043261 2.024775 2.006377 1.988067 1.969846 1.951713 1.933668 1.915712 1.897844 1.880064 1.862373 1.844770 1.827255 1.809828 1.792490 1.775241 1.758079 1.741006 1.724021 1.707125 1.690316 1.673597 1.656965 1.640422 1.623967 1.607601 1.591322 1.575132 1.559031 1.543018 1.527093 1.511256 1.495508 1.479848 1.464276 1.448793 1.808243 2.140890 1.482074 1.324715 1.080234 0.521554 0.912423 0.816611 0.831358 0.700040 1.379487 1.197553 1.212306 0.974194 0.621770 0.482017 0.745046 0.575886 0.256303 0.292652 0.479286 0.231144 0.254983 0.109667 0.001969 -0.016209 -0.010779 -0.303887 -0.166284 -0.001975 -0.028489 -0.094866 -0.017448 -0.127341 -0.108461 0.063748 0.170747 0.238781 0.273804 0.361118 0.603694 0.549344 0.630010 0.819288 1.022233 0.796867 1.211834 1.163579 1.231490 1.336241 1.235814 1.174692 1.327806 1.210177 1.337642 1.169437 1.133483 1.191786 0.951824 0.669795 0.728486 0.778657 0.480916 0.411469 0.357858 0.210672 0.193937 0.041443 0.193489 0.156112 0.026241 0.115212 0.227983 0.345247 0.604053 0.597060 0.577402 0.700968 0.874452 0.582570 1.018149 1.017111 0.758977 0.913849 0.755917 0.843299 0.879635 0.609824 0.392954 0.401561 0.341662 0.213871 0.195724 0.170852 -0.011364 0.207528 0.175330 0.239758 0.128263 0.259639 0.322262 0.283228 0.489045 0.592076 0.519021 0.361910 0.669559 0.552157 0.462179 0.511084 0.440434 0.297847 0.329605 0.123917 0.194085 0.039941 0.198889 -0.064631 0.052441 0.042720 0.244301 0.082109 0.380322 0.325555 0.382916 0.396277 0.399821 0.565309 0.401757 0.373045 0.423994 0.220213 0.331752 0.145857 0.265416 0.076740 0.115123 0.095563 0.080810 0.046310 0.159340 0.065868 0.149260 0.237744 0.278335 0.342302 0.269770 0.338664 0.258093 0.295666 0.180438 0.099473 0.034111 -0.010419 0.020370 -0.083355 -0.059950 0.111248 0.206795 0.067643 0.109200 0.108651 0.020709 0.176058 0.235582 0.183210 0.215946 0.138500 0.140628 0.112122 0.105067 0.052829 -0.075454 -0.022348 0.139929 0.014555 0.136891 0.109871 0.228778 0.210288 0.183646 0.128227 0.188591 0.101756 0.122239 0.112401 0.045463 -0.007827 0.013612 0.127715 0.133536 0.113424 0.054137 0.148002 0.120822 0.064392 0.133493 0.036122 -0.011704 0.024754 -0.001874 -0.045900 -0.072934 -0.102357 -0.036533 -0.058136 -0.080265 0.016537 0.001929 0.079144 0.079391 -0.065143 0.056447 -0.046693 -0.111351 0.027803 -0.062821 -0.076656 0.039961 0.074335 0.027054 0.057946 -0.031639 0.048069 0.138615 -0.010774 -0.017192 0.090473 0.040357 0.127821 -0.057930 -0.032643 -0.038566 0.097000 0.038130 0.072878 0.146575 0.009198 -0.094333 0.007624 -0.050914 -0.058012 -0.054004 -0.054967 0.022135 -0.145928 0.107026 0.079119 0.177980 0.041486 0.001848 -0.005794 0.017413 0.061319 -0.068591 0.029897 0.016443 0.107881 0.113900 0.144184 0.076046 0.087825 0.172982 -0.028432 0.004337 -0.132555 0.176261 0.168513 0.168183 0.141039 0.061490 -0.036896 -0.075923 -0.020685 -0.000198 -0.007827 0.034708 0.081050 -0.027353 0.003066 0.038383 0.078437 0.054937 0.048169 0.071399 -0.002456 -0.038933 0.029617 0.047765 0.001596 0.145187 0.046451 0.008287 0.040770 0.020996 0.101697 0.131601 0.068813 -0.063568 -0.185947 0.393724 0.449839 0.359503 0.551185 0.257216 0.302831 0.234185 0.537393 0.371965 0.283009 0.190981 -0.858580
0.072396 0.072838 0.074163 0.076371 0.079462 0.083435 0.088289 0.094022 0.100634 0.108122 0.116484 0.125716 0.135815 0.146776 0.158594 0.171262 0.184772 0.199116 0.214282 0.230259 0.247032 0.264586 0.282903 0.301961 0.321739 0.342209 0.363344 0.385111 0.407474 0.430396 0.453833 0.477738 0.502061 0.526747 0.551735 0.576960 0.602354 0.627843 0.653346 0.678779 0.704051 0.729069 0.753731 0.777931 0.801559 0.824499 0.846629 0.867825 0.887956 0.906890 0.924488 0.940610 0.955112 0.967851 0.978680 0.987451 0.994019 0.998237 0.999964 0.999060 0.995388 0.988821 0.979236 0.966518 0.950564 0.931282 0.908590 0.882425 0.852736 0.819493 0.782682 0.742313 0.698416 0.651047 0.600285 0.546238 0.489041 0.428857 0.365881 0.300336 0.232478 0.162594 0.091002 0.018050 0.055883 0.130388 0.205031 0.279348 0.352856 0.425047 0.495396 0.563366 0.628407 0.689964 0.747479 0.800402 0.848190 0.890315 0.926273 0.955588 0.977820 0.992569 0.999485 0.998277 0.988713 0.970632 0.943948 0.908657 0.864842 0.812675 0.752424 0.684454 0.609231 0.527317 0.439375 0.346165 0.248540 0.147440 0.043885 0.061028 0.166143 0.270251 0.372106 0.470437 0.563965 0.651424 0.731572 0.803218 0.865233 0.916578 0.956321 0.983654 0.997916 0.998607 0.985407 0.958192 0.917039 0.862242 0.794319 0.714007 0.622269 0.520285 0.409446 0.291336 0.167716 0.040506 0.088250 0.216406 0.341757 0.462066 0.575119 0.678750 0.770902 0.849658 0.913296 0.960323 0.989521 0.999980 0.991137 0.962795 0.915150 0.848800 0.764752 0.664419 0.549605 0.422480 0.285552 0.141622 0.006269 0.154897 0.300927 0.440980 0.571721 0.689935 0.792613 0.877034 0.940842 0.982127 0.999484 0.992074 0.959665 0.902665 0.822136 0.719788 0.597962 0.459586 0.308120 0.147478 0.018066 0.183983 0.345614 0.498297 0.637510 0.759000 0.858929 0.934004 0.981593 0.999836 0.987727 0.945176 0.873050 0.773168 0.648289 0.502048 0.338864 0.163824 0.017463 0.199040 0.374797 0.538674 0.684877 0.808085 0.903659 0.967832 0.997874 0.992225 0.950588 0.873990 0.764777 0.626575 0.464192 0.283467 0.091080 0.105682 0.299199 0.481803 0.646095 0.785242 0.893285 0.965408 0.998170 0.989698 0.939809 0.850073 0.723801 0.565943 0.382939 0.182460 0.026882 0.235900 0.435226 0.615737 0.768976 0.887568 0.965597 0.998919 0.985421 0.925170 0.820481 0.675864 0.497862 0.294798 0.076395 0.146661 0.363236 0.562304 0.733521 0.867767 0.957665 0.998014 0.986118 0.922006 0.808499 0.651135 0.457938 0.239048 0.006209 0.227834 0.450029 0.647754 0.809529 0.925727 0.989163 0.995583 0.943987 0.836772 0.679681 0.481538 0.253798 0.009912 0.235431 0.467203 0.670938 0.833664 0.944749 0.996643 0.985427 0.911160 0.777971 0.593885 0.370404 0.121820 0.135662 0.384967 0.609279 0.793179 0.923751 0.991510 0.991152 0.922021 0.788260 0.598637 0.366026 0.106581 0.161341 0.418481 0.646035 0.827068 0.947796 0.998685 0.975268 0.878586 0.715243 0.497021 0.240102 0.036101 0.310362 0.561273 0.768927 0.916516 0.991754 0.987952 0.904681 0.747947 0.529842 0.267673 0.017345 0.301778 0.561874 0.775578 0.924413 0.995148 0.981031 0.882517 0.707374 0.470168 0.191118 0.105567 0.393759 0.647693 0.844311 0.965377 0.999256 0.942097 0.798357 0.580554 0.308267 0.006448 0.296823 0.572914 0.795383 0.942524 0.999570 0.960250 0.827572 0.613716 0.339009 0.030078 0.282680 0.568056 0.797160 0.946401 0.999962
1.000000 1.000000 1.000000 1.000000 1.000000 1.000000 1.000000 1.000000 1.000000 1.000000 1.000000 1.000000 1.000000 1.000000 1.000000 1.000000 1.000000 1.000000 1.000000 1.000000 1.000000 1.000000 1.000000 1.000000 1.000000 1.000000 1.000000 1.000000 1.000000 1.000000 1.000000 1.000000 1.000000 1.000000 1.000000 1.000000 1.000000 1.000000 1.000000 1.000000 1.000000 1.000000 1.000000 1.000000 1.000000 1.000000 1.000000 1.000000 1.000000 1.000000 1.000000 1.000000 0.781117 0.781117 0.781117 0.781117 0.781117 0.781117 0.781117 0.766268 0.766268 0.766268 0.766268 0.766268 0.766268 0.766268 0.766268 0.766268 0.766268 0.766268 0.766268 0.766268 0.766268 0.766268 0.766268 0.766268 0.766268 0.766268 0.766268 0.766268 0.766268 0.766268 0.766268 0.766268 0.766268 0.766268 0.766268 0.766268 0.766268 0.766268 0.766268 0.766268 0.766268 0.766268 0.766268 0.766268 0.766268 0.766268 0.766268 0.766268 0.766268 0.766268 0.766268 0.910777 0.912091 0.914831 0.909756 0.911581 0.909517 0.903069 0.906031 0.905844 0.905680 0.906649 0.908159 0.910008 0.915043 0.921487 0.923284 0.931010 0.934346 0.935624 0.935678 0.932770 0.940302 0.937928 0.936185 0.924301 0.927577 0.927205 0.927357 0.926171 0.926290 0.927567 0.927486 0.925370 0.923538 0.921335 0.919538 0.921280 0.920877 0.921064 0.921228 0.921409 0.921315 0.921898 0.918041 0.920300 0.919180 0.915606 0.912253 0.911800 0.912915 0.906046 0.902675 0.893359 0.894569 0.893502 0.898736 0.893687 0.893427 0.894656 0.895419 0.896080 0.893888 0.893941 0.891488 0.893283 0.889804 0.885536 0.881562 0.881896 0.883647 0.890998 0.893661 0.892702 0.889122 0.882180 0.872608 0.870163 0.856639 0.827088 0.828117 0.831470 0.833320 0.834312 0.833631 0.831622 0.827160 0.818270 0.809503 0.814201 0.813908 0.805948 0.796949 0.797455 0.795389 0.802993 0.806199 0.797741 0.800420 0.798355 0.795800 0.796400 0.796345 0.795357 0.790172 0.792481 0.801196 0.801836 0.790695 0.785045 0.781207 0.762228 0.765788 0.772369 0.779315 0.780530 0.776173 0.762743 0.771246 0.765757 0.781702 0.794510 0.792916 0.788967 0.769079 0.727256 0.715061 0.703896 0.706645 0.707907 0.691338 0.684611 0.685540 0.690169 0.637912 0.623420 0.611949 0.610493 0.618146 0.623444 0.616348 0.581951 0.600259 0.598116 0.581720 0.578342 0.546689 0.530393 0.490331 0.492640 0.489565 0.468563 0.450959 0.441673 0.456278 0.466722 0.464616 0.463106 0.434388 0.417034 0.419374 0.417008 0.421165 0.421307 0.427689 0.380739 0.358063 0.343014 0.365670 0.367265 0.366938 0.377689 0.378712 0.376763 0.357383 0.340376 0.329300 0.343364 0.362234 0.370546 0.372479 0.338004 0.321880 0.301245 0.307447 0.349758 0.339254 0.343366 0.338037 0.342434 0.364095 0.346861 0.325096 0.303545 0.344858 0.340749 0.330036 0.305619 0.309415 0.328773 0.330437 0.325162 0.316205 0.357144 0.387565 0.379189 0.384745 0.364421 0.396234 0.442387 0.430205 0.427874 0.448054 0.441829 0.433498 0.403050 0.388532 0.387206 0.362213 0.355259 0.335163 0.320014 0.309694 0.316688 0.340761 0.346754 0.381071 0.357331 0.325104 0.227562 0.302669 0.217609 0.222008 0.222008 0.222008 0.222008 0.222008 0.222008 0.222008 0.222008 0.240731 0.240731 0.240731 0.240731 0.240731 0.240731 0.240731 0.240731 0.240731 0.240731 0.240731 0.240731 0.240731 0.240731 0.240731 0.240731 0.240731 0.240731 0.240731 0.240731 0.240731
0.000000 0.000000 0.000000 0.000000 0.000000 0.000000 0.000000 0.000000 0.000000 0.000000 0.000000 0.000000 0.000000 0.000000 0.000000 0.000000 0.000000 0.000000 0.000000 0.000000 0.000000 0.000000 0.000000 0.000000 0.000000 0.000000 0.000000 0.000000 0.000000 0.000000 0.000000 0.000000 0.000000 0.000000 0.000000 0.000000 0.000000 0.000000 0.000000 0.000000 0.000000 0.000000 0.000000 0.000000 0.000000 0.000000 0.000000 0.000000 0.000000 0.000000 0.000000 0.000000 0.173422 0.173422 0.173422 0.173422 0.173422 0.173422 0.173422 0.191565 0.191565 0.191565 0.191565 0.191565 0.191565 0.191565 0.191565 0.191565 0.191565 0.191565 0.191565 0.191565 0.191565 0.191565 0.191565 0.191565 0.191565 0.191565 0.191565 0.191565 0.191565 0.191565 0.191565 0.191565 0.191565 0.191565 0.191565 0.191565 0.191565 0.191565 0.191565 0.191565 0.191565 0.191565 0.191565 0.191565 0.191565 0.191565 0.191565 0.191565 0.191565 0.191565 0.191565 0.222222 0.222222 0.222222 0.222222 0.222222 0.222222 0.222222 0.222222 0.222222 0.222222 0.222222 0.222222 0.222222 0.222222 0.222222 0.222222 0.222222 0.222222 0.222222 0.222222 0.222222 0.222222 0.222222 0.222222 0.222222 0.222222 0.222222 0.222222 0.222222 0.222222 0.234082 0.234082 0.234082 0.234082 0.234082 0.234082 0.234082 0.234082 0.234082 0.234082 0.234082 0.234082 0.234082 0.234082 0.234082 0.234082 0.234082 0.234082 0.234082 0.234082 0.234082 0.234082 0.234082 0.234082 0.234082 0.244339 0.244339 0.244339 0.244339 0.244339 0.244339 0.244339 0.244339 0.244339 0.244339 0.244339 0.244339 0.244339 0.244339 0.244339 0.244339 0.244339 0.244339 0.244339 0.244339 0.244339 0.248069 0.248069 0.248069 0.248069 0.248069 0.248069 0.248069 0.248069 0.248069 0.248069 0.248069 0.248069 0.248069 0.248069 0.248069 0.248069 0.248069 0.248069 0.248069 0.256074 0.256074 0.256074 0.256074 0.256074 0.256074 0.256074 0.256074 0.256074 0.256074 0.256074 0.256074 0.256074 0.256074 0.256074 0.256074 0.256074 0.256074 0.256074 0.256074 0.256074 0.256074 0.256074 0.256074 0.256074 0.256074 0.256074 0.256074 0.256074 0.256074 0.256074 0.256074 0.256074 0.256074 0.256074 0.256074 0.256074 0.256074 0.256074 0.256074 0.256074 0.256074 0.256074 0.256074 0.256074 0.256074 0.256074 0.256074 0.256074 0.256074 0.256074 0.256074 0.256074 0.256074 0.256074 0.256074 0.256074 0.256074 0.256074 0.256074 0.256074 0.256074 0.260378 0.260378 0.260378 0.260378 0.260378 0.260378 0.260378 0.260378 0.260378 0.260378 0.260378 0.260378 0.260378 0.256074 0.256074 0.256074 0.256074 0.256074 0.256074 0.256074 0.256074 0.256074 0.256074 0.256074 0.256074 0.256074 0.260378 0.260378 0.260378 0.260378 0.260378 0.260378 0.260378 0.260378 0.260378 0.260378 0.260378 0.260378 0.251976 0.251976 0.251976 0.251976 0.251976 0.251976 0.251976 0.251976 0.251976 0.251976 0.251976 0.251976 0.256074 0.256074 0.256074 0.256074 0.256074 0.256074 0.256074 0.256074 0.256074 0.256074 0.256074 0.251976 0.251976 0.251976 0.251976 0.251976 0.251976 0.251976 0.251976 0.251976 0.251976 0.251976 0.260378 0.260378 0.260378 0.260378 0.260378 0.260378 0.260378 0.260378 0.260378 0.260378 0.244339 0.244339 0.244339 0.244339 0.244339 0.244339 0.244339 0.244339 0.244339 0.244339 0.244339 0.244339 0.244339 0.244339 0.244339 0.244339 0.244339 0.244339 0.244339 0.244339 0.244339
