# Output from CTFFind version 4.1.9, run on 2019-11-03 20:09:27
# Input file: stack1_bm3d_averaged_1_5.5_0_2500_half.mrc ; Number of micrographs: 1
# Pixel size: 3.000 Angstroms ; acceleration voltage: 300.0 keV ; spherical aberration: 0.00 mm ; amplitude contrast: 0.07
# Box size: 512 pixels ; min. res.: 30.0 Angstroms ; max. res.: 5.0 Angstroms ; min. def.: 5000.0 um; max. def. 50000.0 um; num. frames averaged: 1
# 6 lines per micrograph: #1 - spatial frequency (1/Angstroms); #2 - 1D rotational average of spectrum (assuming no astigmatism); #3 - 1D rotational average of spectrum; #4 - CTF fit; #5 - cross-correlation between spectrum and CTF fit; #6 - 2sigma of expected cross correlation of noise
0.000000 0.000651 0.001302 0.001953 0.002604 0.003255 0.003906 0.004557 0.005208 0.005859 0.006510 0.007161 0.007812 0.008464 0.009115 0.009766 0.010417 0.011068 0.011719 0.012370 0.013021 0.013672 0.014323 0.014974 0.015625 0.016276 0.016927 0.017578 0.018229 0.018880 0.019531 0.020182 0.020833 0.021484 0.022135 0.022786 0.023438 0.024089 0.024740 0.025391 0.026042 0.026693 0.027344 0.027995 0.028646 0.029297 0.029948 0.030599 0.031250 0.031901 0.032552 0.033203 0.033854 0.034505 0.035156 0.035807 0.036458 0.037109 0.037760 0.038411 0.039062 0.039714 0.040365 0.041016 0.041667 0.042318 0.042969 0.043620 0.044271 0.044922 0.045573 0.046224 0.046875 0.047526 0.048177 0.048828 0.049479 0.050130 0.050781 0.051432 0.052083 0.052734 0.053385 0.054036 0.054688 0.055339 0.055990 0.056641 0.057292 0.057943 0.058594 0.059245 0.059896 0.060547 0.061198 0.061849 0.062500 0.063151 0.063802 0.064453 0.065104 0.065755 0.066406 0.067057 0.067708 0.068359 0.069010 0.069661 0.070312 0.070964 0.071615 0.072266 0.072917 0.073568 0.074219 0.074870 0.075521 0.076172 0.076823 0.077474 0.078125 0.078776 0.079427 0.080078 0.080729 0.081380 0.082031 0.082682 0.083333 0.083984 0.084635 0.085286 0.085938 0.086589 0.087240 0.087891 0.088542 0.089193 0.089844 0.090495 0.091146 0.091797 0.092448 0.093099 0.093750 0.094401 0.095052 0.095703 0.096354 0.097005 0.097656 0.098307 0.098958 0.099609 0.100260 0.100911 0.101562 0.102214 0.102865 0.103516 0.104167 0.104818 0.105469 0.106120 0.106771 0.107422 0.108073 0.108724 0.109375 0.110026 0.110677 0.111328 0.111979 0.112630 0.113281 0.113932 0.114583 0.115234 0.115885 0.116536 0.117188 0.117839 0.118490 0.119141 0.119792 0.120443 0.121094 0.121745 0.122396 0.123047 0.123698 0.124349 0.125000 0.125651 0.126302 0.126953 0.127604 0.128255 0.128906 0.129557 0.130208 0.130859 0.131510 0.132161 0.132812 0.133464 0.134115 0.134766 0.135417 0.136068 0.136719 0.137370 0.138021 0.138672 0.139323 0.139974 0.140625 0.141276 0.141927 0.142578 0.143229 0.143880 0.144531 0.145182 0.145833 0.146484 0.147135 0.147786 0.148438 0.149089 0.149740 0.150391 0.151042 0.151693 0.152344 0.152995 0.153646 0.154297 0.154948 0.155599 0.156250 0.156901 0.157552 0.158203 0.158854 0.159505 0.160156 0.160807 0.161458 0.162109 0.162760 0.163411 0.164062 0.164714 0.165365 0.166016 0.166667 0.167318 0.167969 0.168620 0.169271 0.169922 0.170573 0.171224 0.171875 0.172526 0.173177 0.173828 0.174479 0.175130 0.175781 0.176432 0.177083 0.177734 0.178385 0.179036 0.179688 0.180339 0.180990 0.181641 0.182292 0.182943 0.183594 0.184245 0.184896 0.185547 0.186198 0.186849 0.187500 0.188151 0.188802 0.189453 0.190104 0.190755 0.191406 0.192057 0.192708 0.193359 0.194010 0.194661 0.195312 0.195964 0.196615 0.197266 0.197917 0.198568 0.199219 0.199870 0.200521 0.201172 0.201823 0.202474 0.203125 0.203776 0.204427 0.205078 0.205729 0.206380 0.207031 0.207682 0.208333 0.208984 0.209635 0.210286 0.210938 0.211589 0.212240 0.212891 0.213542 0.214193 0.214844 0.215495 0.216146 0.216797 0.217448 0.218099 0.218750 0.219401 0.220052 0.220703 0.221354 0.222005 0.222656 0.223307 0.223958 0.224609 0.225260 0.225911 0.226562 0.227214 0.227865 0.228516 0.229167 0.229818 0.230469 0.231120 0.231771 0.232422 0.233073 0.233724 0.234375 0.235026 0.235677
       0.34970        0.34970        0.34970        0.34970        0.34970        0.34970        0.34970        0.34970        0.34970        0.34970        0.34970        0.34970        0.34970        0.34970        0.34970        0.34970        0.34970        0.34970        0.34970        0.34970        0.34970        0.34970        0.34970        0.34970        0.34970        0.34970        0.34970        0.34970        0.34970        0.34970        0.34970        0.34970        0.34970        0.34970        0.34970        0.34970        0.34970        0.34970        0.34970        0.34970        0.34970        0.34970        0.34970        0.34970        0.34970        0.34970        0.34970        0.34970        0.34970        0.34970        0.34970        0.39553        0.57711        0.26884        0.11567       -0.01475       -0.27321       -0.10280       -0.17639       -0.21076        0.01650       -0.13453       -0.10846       -0.05823       -0.03818       -0.13044       -0.15739       -0.29191       -0.38712       -0.49544       -0.43491       -0.33393       -0.26570       -0.38151       -0.29445       -0.38786       -0.32919       -0.37325       -0.19249       -0.18916       -0.24959       -0.08127       -0.03282       -0.04364        0.08340        0.02937        0.20366        0.22562        0.33608        0.36451        0.44092        0.47606        0.53379        0.59809        0.65629        0.55996        0.51910        0.50616        0.47864        0.56413        0.47519        0.41911        0.40648        0.33374        0.28665        0.31053        0.32753        0.22623        0.19678        0.09715        0.13150        0.13824        0.16414        0.12965        0.19878        0.24692        0.30027        0.29915        0.33652        0.46305        0.41431        0.48478        0.63244        0.61945        0.55111        0.55007        0.58020        0.42561        0.48280        0.37008        0.31567        0.29160        0.25253        0.25451        0.18905        0.17266        0.14567        0.21923        0.25225        0.28010        0.34563        0.32195        0.41050        0.47138        0.46764        0.45186        0.48536        0.54846        0.49110        0.47231        0.42102        0.34792        0.33837        0.27167        0.30091        0.23549        0.22117        0.28640        0.23883        0.26250        0.32531        0.41986        0.41789        0.44320        0.41978        0.50039        0.49588        0.46831        0.44250        0.38852        0.38236        0.40000        0.40051        0.33505        0.28169        0.31533        0.29268        0.29412        0.29851        0.34075        0.36863        0.39159        0.45415        0.49135        0.40137        0.43226        0.43052        0.38683        0.32212        0.36654        0.32323        0.31587        0.33553        0.28304        0.25685        0.32021        0.33729        0.42506        0.42288        0.40850        0.40084        0.40157        0.37056        0.37078        0.31796        0.31869        0.33966        0.30817        0.30766        0.33835        0.35066        0.34751        0.35413        0.39276        0.38741        0.45506        0.39865        0.34260        0.36346        0.35019        0.33360        0.32984        0.33589        0.37750        0.33793        0.35843        0.35223        0.41776        0.37884        0.35880        0.37166        0.37748        0.36424        0.34017        0.33260        0.31061        0.34238        0.33027        0.31181        0.32456        0.35607        0.35511        0.34367        0.33639        0.30305        0.30174        0.28162        0.31717        0.32538        0.35291        0.33359        0.33062        0.37229        0.33268        0.33897        0.32542        0.29478        0.34407        0.31611        0.31910        0.33353        0.32281        0.31664        0.29998        0.34085        0.36982        0.32999        0.32129        0.31688        0.32906        0.29953        0.35079        0.32107        0.28046        0.32911        0.30203        0.34771        0.34813        0.38556        0.32113        0.31813        0.26804        0.33471        0.36841        0.34435        0.31138        0.31932        0.32597        0.32247        0.29647        0.31726        0.31045        0.30848        0.29524        0.29874        0.30971        0.29627        0.30056        0.31512        0.26957        0.31799        0.34775        0.36586        0.34771        0.31404        0.32359        0.28024        0.30463        0.29576        0.32591        0.34057        0.28020        0.26759        0.32538        0.34238        0.33100        0.28417        0.28367        0.32374        0.28770        0.30938        0.34875        0.34123        0.28844        0.25468        0.30806        0.33738        0.28659        0.24903        0.27059        0.26501        0.30693        0.35600        0.30322        0.34175        0.28336        0.27056        0.30701        0.29108        0.22424        0.25869        0.29824        0.25189        0.21798        0.24520        0.28858        0.41287        0.30183        0.25108        0.18788        0.24466        0.25959        0.25754        0.34985        0.20376        0.14142        0.27909        0.34170        0.29207        0.17601        0.04207       -0.59590       -1.09624
2.464788 2.440738 2.416809 2.393000 2.369312 2.345744 2.322296 2.298970 2.275763 2.252677 2.229712 2.206867 2.184143 2.161539 2.139056 2.116693 2.094451 2.072329 2.050328 2.028448 2.006687 1.985048 1.963529 1.942130 1.920852 1.899694 1.878657 1.857741 1.836945 1.816269 1.795714 1.775280 1.754966 1.734772 1.714700 1.694747 1.674915 1.655204 1.635613 1.616143 1.596793 1.577563 1.558455 1.539466 1.520599 1.501851 1.483225 1.464718 1.446333 1.428067 1.409923 1.365476 1.841976 1.396973 0.909829 0.755600 -0.017168 0.604408 0.144309 0.324364 0.634943 0.386155 0.273104 0.501313 0.433964 0.349424 0.230765 0.006162 -0.238942 -0.412106 -0.396819 -0.338874 0.138100 -0.389498 -0.167440 -0.315119 -0.226381 -0.386268 -0.032303 -0.062162 -0.175907 0.068803 0.233386 0.096855 0.345926 0.248504 0.616094 0.493062 0.804183 0.754018 0.874566 1.092381 0.973545 1.228666 1.289497 1.144344 0.983422 0.992349 0.960328 0.990096 0.957973 0.800928 0.691000 0.638198 0.544904 0.493251 0.561014 0.388368 0.328761 0.138725 0.091287 0.152202 0.188644 0.107812 0.157613 0.287474 0.373443 0.384154 0.468134 0.496796 0.655237 0.462441 0.876470 0.985596 0.796970 0.713667 0.841123 0.573712 0.541226 0.513677 0.267799 0.289927 0.106711 0.232998 0.014056 0.028946 -0.063128 -0.045588 0.181087 0.082939 0.199878 0.257041 0.304138 0.421415 0.484557 0.434793 0.427184 0.552669 0.508011 0.400393 0.375031 0.241915 0.200708 0.093530 0.021384 0.039845 -0.114451 0.036046 0.040790 -0.073778 -0.019252 0.187746 0.344175 0.240320 0.338179 0.191584 0.548674 0.340347 0.307395 0.308167 0.170797 0.121512 0.344721 0.052637 0.062085 -0.015232 0.069646 -0.033151 0.073331 -0.017114 0.166859 0.022183 0.233605 0.340270 0.255133 0.167336 0.204776 0.164331 0.062246 0.072318 0.066580 -0.030097 -0.008297 0.040180 -0.147054 -0.107522 -0.009730 0.073588 0.257908 0.137394 0.159228 0.112186 0.156513 0.071470 0.067665 -0.055983 0.020143 0.013485 -0.050211 0.005172 0.033850 0.060417 0.009233 0.068503 0.096747 0.156663 0.272214 0.013964 0.045663 0.054641 -0.012112 0.011574 -0.019271 0.046625 0.097160 -0.020153 0.035529 0.061487 0.132438 0.055236 0.055418 0.097494 0.043076 0.072332 -0.015407 0.020977 -0.038930 0.017630 -0.012556 -0.020456 -0.011992 0.040709 0.031263 0.034035 -0.019215 -0.074166 -0.039378 -0.101980 -0.013442 -0.002331 0.053797 -0.028685 0.003210 0.099876 -0.052015 0.014343 -0.066291 -0.083940 0.011773 -0.073306 -0.020310 -0.009196 -0.034434 -0.049697 -0.082451 0.013955 0.051931 -0.011424 -0.036556 -0.018545 -0.069991 -0.044510 0.024306 -0.037386 -0.084574 -0.009190 -0.080257 0.035924 0.026260 0.089875 -0.013143 -0.061239 -0.132872 0.031604 0.096648 -0.050080 -0.030284 -0.040898 0.036803 -0.043925 -0.107722 -0.015859 -0.022186 -0.049328 -0.064194 -0.093624 -0.014660 -0.070950 -0.017233 -0.117538 -0.117173 0.041165 0.061439 0.103785 0.020767 0.031427 -0.046320 -0.056441 -0.029101 -0.081019 0.014776 0.064299 -0.109037 -0.100858 0.036042 0.036270 0.033354 -0.088004 -0.049813 -0.047843 -0.063432 -0.085279 0.079909 -0.022193 -0.067679 -0.138926 -0.072087 0.024858 -0.082558 -0.133948 -0.131493 -0.034061 -0.045248 0.032771 -0.082994 0.033405 0.008567 -0.089792 0.011904 -0.058275 -0.187327 -0.071129 0.031751 -0.088911 -0.081284 -0.054743 0.052282 0.278559 -0.018584 0.060114 -0.239688 0.029446 0.038119 0.012385 0.247967 -0.037261 0.261099 0.597928 0.621565 0.496227 0.255841 0.085593 -1.986607
0.072396 0.072904 0.074427 0.076966 0.080519 0.085086 0.090665 0.097255 0.104853 0.113457 0.123063 0.133667 0.145263 0.157845 0.171405 0.185933 0.201418 0.217847 0.235204 0.253471 0.272629 0.292653 0.313517 0.335190 0.357638 0.380823 0.404702 0.429229 0.454350 0.480009 0.506142 0.532681 0.559549 0.586667 0.613947 0.641294 0.668607 0.695778 0.722693 0.749228 0.775255 0.800639 0.825237 0.848900 0.871473 0.892796 0.912702 0.931021 0.947578 0.962197 0.974698 0.984899 0.992620 0.997682 0.999907 0.999123 0.995163 0.987867 0.977086 0.962681 0.944526 0.922512 0.896547 0.866560 0.832499 0.794341 0.752086 0.705765 0.655441 0.601207 0.543195 0.481570 0.416539 0.348346 0.277278 0.203660 0.127860 0.050288 0.028607 0.108337 0.188374 0.268159 0.347098 0.424570 0.499929 0.572511 0.641638 0.706625 0.766787 0.821446 0.869941 0.911633 0.945920 0.972238 0.990080 0.998999 0.998622 0.988654 0.968896 0.939245 0.899709 0.850408 0.791586 0.723612 0.646986 0.562338 0.470429 0.372151 0.268519 0.160668 0.049840 0.062624 0.175297 0.286689 0.395258 0.499436 0.597647 0.688341 0.770007 0.841213 0.900628 0.947050 0.979436 0.996928 0.998879 0.984876 0.954761 0.908649 0.846939 0.770323 0.679788 0.576617 0.462376 0.338897 0.208262 0.072769 0.065103 0.202736 0.337416 0.466393 0.586933 0.696379 0.792216 0.872132 0.934080 0.976337 0.997564 0.996851 0.973762 0.928368 0.861266 0.773597 0.667035 0.543774 0.406495 0.258321 0.102753 0.056403 0.215125 0.369270 0.514691 0.647339 0.763392 0.859364 0.932228 0.979514 0.999414 0.990858 0.953578 0.888155 0.796031 0.679503 0.541687 0.386452 0.218330 0.042392 0.135890 0.310811 0.476613 0.627679 0.758729 0.865008 0.942486 0.988018 0.999491 0.975945 0.917645 0.826125 0.704174 0.555784 0.386039 0.200965 0.007334 0.187576 0.376245 0.551203 0.705329 0.832158 0.926163 0.983018 0.999827 0.975287 0.909809 0.805557 0.666412 0.497867 0.306842 0.101413 0.109494 0.316497 0.510162 0.681442 0.822109 0.925177 0.985265 0.998917 0.964831 0.883992 0.759697 0.597470 0.404855 0.191096 0.033274 0.256941 0.468376 0.656421 0.810906 0.923209 0.986781 0.997557 0.954262 0.858562 0.715065 0.531148 0.316631 0.083283 0.155798 0.386903 0.596491 0.772007 0.902647 0.980065 0.998946 0.957422 0.857285 0.703985 0.506390 0.276333 0.027938 0.223216 0.461056 0.670048 0.836237 0.948197 0.997879 0.981236 0.898609 0.754827 0.558993 0.323981 0.065632 0.198273 0.449213 0.669247 0.842294 0.955359 0.999563 0.970903 0.870674 0.705515 0.487053 0.231144 0.043207 0.315243 0.564002 0.769947 0.916526 0.991572 0.988370 0.906336 0.751221 0.534801 0.274061 0.010064 0.294336 0.555091 0.770232 0.921122 0.994273 0.982620 0.886292 0.712780 0.476451 0.197449 0.099960 0.389440 0.644935 0.843019 0.965100 0.999240 0.941418 0.796090 0.575962 0.300996 0.003323 0.308299 0.584695 0.805559 0.948906 0.999976 0.952856 0.811273 0.588429 0.305905 0.008355 0.322736 0.605107 0.826127 0.962350 0.998797 0.930722 0.764336 0.516380 0.212573 0.114963 0.431059 0.701235 0.895527 0.991860 0.978686 0.856484 0.637974 0.346924 0.015697 0.318279 0.616700 0.844800 0.975473 0.992598 0.893170 0.687923 0.400339 0.064084 0.280822 0.592729 0.833414 0.972814 0.992911 0.890201 0.676428 0.377410 0.030068 0.322026 0.634087 0.865829 0.986746 0.980261 0.846165 0.600955 0.275991 0.086353 0.438179 0.732303
1.000000 1.000000 1.000000 1.000000 1.000000 1.000000 1.000000 1.000000 1.000000 1.000000 1.000000 1.000000 1.000000 1.000000 1.000000 1.000000 1.000000 1.000000 1.000000 1.000000 1.000000 1.000000 1.000000 1.000000 1.000000 1.000000 1.000000 1.000000 1.000000 1.000000 1.000000 1.000000 1.000000 1.000000 1.000000 1.000000 1.000000 1.000000 1.000000 1.000000 1.000000 1.000000 1.000000 1.000000 1.000000 1.000000 1.000000 1.000000 1.000000 1.000000 1.000000 1.000000 0.822638 0.822638 0.822638 0.816912 0.816912 0.816912 0.816912 0.816912 0.816912 0.816912 0.816912 0.816912 0.816912 0.816912 0.816912 0.816912 0.816912 0.816912 0.816912 0.816912 0.816912 0.816912 0.816912 0.816912 0.816912 0.816912 0.816912 0.816912 0.816912 0.816912 0.816912 0.816912 0.816912 0.816912 0.816912 0.816912 0.816912 0.816912 0.816912 0.816912 0.816912 0.816912 0.816912 0.816912 0.827741 0.833561 0.834277 0.839887 0.844231 0.842556 0.840448 0.839666 0.839325 0.840341 0.849436 0.874755 0.892131 0.899764 0.913552 0.917843 0.922079 0.924170 0.931104 0.930964 0.962977 0.957992 0.957608 0.958504 0.950138 0.944830 0.943897 0.942349 0.951296 0.945506 0.943102 0.940349 0.939109 0.935868 0.936910 0.936849 0.933054 0.933499 0.933917 0.931580 0.932172 0.930754 0.929975 0.916898 0.916206 0.915667 0.918425 0.893276 0.888749 0.877845 0.877761 0.879172 0.874903 0.873860 0.865943 0.867399 0.868558 0.866970 0.857164 0.852876 0.848275 0.840549 0.837497 0.835916 0.838722 0.836859 0.836229 0.830552 0.817766 0.808834 0.797044 0.790242 0.778756 0.771567 0.775109 0.779078 0.782081 0.778902 0.777338 0.770283 0.764355 0.748231 0.746079 0.743013 0.753605 0.756318 0.756782 0.756583 0.737806 0.720562 0.702181 0.702730 0.703187 0.663414 0.649779 0.650475 0.652482 0.659008 0.673341 0.669035 0.659932 0.635985 0.611868 0.591876 0.605056 0.621235 0.613099 0.617730 0.596658 0.633541 0.635474 0.651874 0.666797 0.672782 0.668675 0.644983 0.611147 0.606987 0.606443 0.605068 0.597940 0.588756 0.591239 0.608327 0.583530 0.576294 0.566464 0.558229 0.560448 0.572624 0.558361 0.562124 0.531923 0.498200 0.458818 0.455915 0.406989 0.365498 0.359197 0.359347 0.337517 0.334946 0.356564 0.361640 0.358121 0.361807 0.370301 0.307369 0.315733 0.307714 0.285503 0.277392 0.300132 0.312937 0.318890 0.302341 0.269250 0.281653 0.237434 0.252621 0.221361 0.195157 0.193610 0.187428 0.207038 0.204625 0.182411 0.168848 0.156034 0.122653 0.131686 0.141100 0.175519 0.163364 0.141287 0.134621 0.101458 0.077742 0.081463 0.047315 0.008304 -0.006939 -0.015387 -0.013369 -0.018056 -0.038615 -0.054338 -0.029162 -0.057126 -0.018779 -0.045817 -0.059120 -0.079000 -0.045403 -0.056985 -0.065805 -0.052118 -0.087617 -0.132343 -0.147932 -0.147257 -0.131136 -0.122348 -0.151242 -0.148426 -0.151328 -0.204826 -0.202121 -0.175717 -0.173392 -0.177297 -0.144738 -0.121251 -0.138210 -0.270426 -0.209465 -0.172562 -0.174174 -0.174506 -0.211560 -0.242990 -0.244119 -0.228882 -0.189250 -0.165015 -0.142801 -0.143933 -0.141754 -0.135076 -0.170960 -0.207262 -0.210990 -0.203040 -0.185606 -0.148620 -0.120778 -0.104764 -0.090173 -0.113183 -0.113183 -0.113183 -0.113183 -0.106285 -0.106285 -0.106285 -0.106285 -0.106285 -0.106285 -0.106285 -0.106285 -0.106285 -0.143139 -0.143139 -0.143139 -0.143139 -0.143139 -0.143139 -0.143139 -0.143139 -0.143139 -0.143139 -0.143139 -0.143139 -0.143139 -0.143139 -0.143139 -0.143139
0.000000 0.000000 0.000000 0.000000 0.000000 0.000000 0.000000 0.000000 0.000000 0.000000 0.000000 0.000000 0.000000 0.000000 0.000000 0.000000 0.000000 0.000000 0.000000 0.000000 0.000000 0.000000 0.000000 0.000000 0.000000 0.000000 0.000000 0.000000 0.000000 0.000000 0.000000 0.000000 0.000000 0.000000 0.000000 0.000000 0.000000 0.000000 0.000000 0.000000 0.000000 0.000000 0.000000 0.000000 0.000000 0.000000 0.000000 0.000000 0.000000 0.000000 0.000000 0.000000 0.180334 0.180334 0.180334 0.199007 0.199007 0.199007 0.199007 0.199007 0.199007 0.199007 0.199007 0.199007 0.199007 0.199007 0.199007 0.199007 0.199007 0.199007 0.199007 0.199007 0.199007 0.199007 0.199007 0.199007 0.199007 0.199007 0.199007 0.199007 0.199007 0.199007 0.199007 0.199007 0.199007 0.199007 0.199007 0.199007 0.199007 0.199007 0.199007 0.199007 0.199007 0.199007 0.199007 0.199007 0.230940 0.230940 0.230940 0.230940 0.230940 0.230940 0.230940 0.230940 0.230940 0.230940 0.230940 0.230940 0.230940 0.230940 0.230940 0.230940 0.230940 0.230940 0.230940 0.230940 0.230940 0.230940 0.230940 0.230940 0.230940 0.230940 0.230940 0.230940 0.244339 0.244339 0.244339 0.244339 0.244339 0.244339 0.244339 0.244339 0.244339 0.244339 0.244339 0.244339 0.244339 0.244339 0.244339 0.244339 0.244339 0.244339 0.244339 0.244339 0.244339 0.244339 0.244339 0.251976 0.251976 0.251976 0.251976 0.251976 0.251976 0.251976 0.251976 0.251976 0.251976 0.251976 0.251976 0.251976 0.251976 0.251976 0.251976 0.251976 0.251976 0.251976 0.251976 0.264906 0.264906 0.264906 0.264906 0.264906 0.264906 0.264906 0.264906 0.264906 0.264906 0.264906 0.264906 0.264906 0.264906 0.264906 0.264906 0.264906 0.264906 0.264906 0.264906 0.264906 0.264906 0.264906 0.264906 0.264906 0.264906 0.264906 0.264906 0.264906 0.264906 0.264906 0.264906 0.264906 0.264906 0.264906 0.264906 0.264906 0.264906 0.264906 0.264906 0.264906 0.264906 0.264906 0.264906 0.264906 0.264906 0.264906 0.264906 0.264906 0.264906 0.264906 0.264906 0.264906 0.264906 0.264906 0.264906 0.264906 0.264906 0.264906 0.264906 0.264906 0.264906 0.264906 0.264906 0.264906 0.264906 0.264906 0.264906 0.264906 0.264906 0.264906 0.264906 0.264906 0.264906 0.264906 0.260378 0.260378 0.260378 0.260378 0.260378 0.260378 0.260378 0.260378 0.260378 0.260378 0.260378 0.260378 0.260378 0.264906 0.264906 0.264906 0.264906 0.264906 0.264906 0.264906 0.264906 0.264906 0.264906 0.264906 0.264906 0.269680 0.269680 0.269680 0.269680 0.269680 0.269680 0.269680 0.269680 0.269680 0.269680 0.269680 0.264906 0.264906 0.264906 0.264906 0.264906 0.264906 0.264906 0.264906 0.264906 0.264906 0.264906 0.269680 0.269680 0.269680 0.269680 0.269680 0.269680 0.269680 0.269680 0.269680 0.269680 0.251976 0.251976 0.251976 0.251976 0.251976 0.251976 0.251976 0.251976 0.251976 0.251976 0.251976 0.269680 0.269680 0.269680 0.269680 0.269680 0.269680 0.269680 0.269680 0.269680 0.256074 0.256074 0.256074 0.256074 0.256074 0.256074 0.256074 0.256074 0.256074 0.256074 0.260378 0.260378 0.260378 0.260378 0.260378 0.260378 0.260378 0.260378 0.260378 0.256074 0.256074 0.256074 0.256074 0.256074 0.256074 0.256074 0.256074 0.256074 0.251976 0.251976 0.251976 0.251976 0.251976 0.251976 0.251976 0.251976 0.251976 0.251976 0.251976 0.251976 0.251976 0.251976 0.251976 0.251976
