# Output from CTFFind version 4.1.9, run on 2019-11-03 19:23:56
# Input file: stack6_bm3d_averaged_1_3.75_0_50_half.mrc ; Number of micrographs: 1
# Pixel size: 3.000 Angstroms ; acceleration voltage: 300.0 keV ; spherical aberration: 0.00 mm ; amplitude contrast: 0.07
# Box size: 512 pixels ; min. res.: 30.0 Angstroms ; max. res.: 5.0 Angstroms ; min. def.: 5000.0 um; max. def. 50000.0 um; num. frames averaged: 1
# 6 lines per micrograph: #1 - spatial frequency (1/Angstroms); #2 - 1D rotational average of spectrum (assuming no astigmatism); #3 - 1D rotational average of spectrum; #4 - CTF fit; #5 - cross-correlation between spectrum and CTF fit; #6 - 2sigma of expected cross correlation of noise
0.000000 0.000651 0.001302 0.001953 0.002604 0.003255 0.003906 0.004557 0.005208 0.005859 0.006510 0.007161 0.007812 0.008464 0.009115 0.009766 0.010417 0.011068 0.011719 0.012370 0.013021 0.013672 0.014323 0.014974 0.015625 0.016276 0.016927 0.017578 0.018229 0.018880 0.019531 0.020182 0.020833 0.021484 0.022135 0.022786 0.023438 0.024089 0.024740 0.025391 0.026042 0.026693 0.027344 0.027995 0.028646 0.029297 0.029948 0.030599 0.031250 0.031901 0.032552 0.033203 0.033854 0.034505 0.035156 0.035807 0.036458 0.037109 0.037760 0.038411 0.039062 0.039714 0.040365 0.041016 0.041667 0.042318 0.042969 0.043620 0.044271 0.044922 0.045573 0.046224 0.046875 0.047526 0.048177 0.048828 0.049479 0.050130 0.050781 0.051432 0.052083 0.052734 0.053385 0.054036 0.054688 0.055339 0.055990 0.056641 0.057292 0.057943 0.058594 0.059245 0.059896 0.060547 0.061198 0.061849 0.062500 0.063151 0.063802 0.064453 0.065104 0.065755 0.066406 0.067057 0.067708 0.068359 0.069010 0.069661 0.070312 0.070964 0.071615 0.072266 0.072917 0.073568 0.074219 0.074870 0.075521 0.076172 0.076823 0.077474 0.078125 0.078776 0.079427 0.080078 0.080729 0.081380 0.082031 0.082682 0.083333 0.083984 0.084635 0.085286 0.085938 0.086589 0.087240 0.087891 0.088542 0.089193 0.089844 0.090495 0.091146 0.091797 0.092448 0.093099 0.093750 0.094401 0.095052 0.095703 0.096354 0.097005 0.097656 0.098307 0.098958 0.099609 0.100260 0.100911 0.101562 0.102214 0.102865 0.103516 0.104167 0.104818 0.105469 0.106120 0.106771 0.107422 0.108073 0.108724 0.109375 0.110026 0.110677 0.111328 0.111979 0.112630 0.113281 0.113932 0.114583 0.115234 0.115885 0.116536 0.117188 0.117839 0.118490 0.119141 0.119792 0.120443 0.121094 0.121745 0.122396 0.123047 0.123698 0.124349 0.125000 0.125651 0.126302 0.126953 0.127604 0.128255 0.128906 0.129557 0.130208 0.130859 0.131510 0.132161 0.132812 0.133464 0.134115 0.134766 0.135417 0.136068 0.136719 0.137370 0.138021 0.138672 0.139323 0.139974 0.140625 0.141276 0.141927 0.142578 0.143229 0.143880 0.144531 0.145182 0.145833 0.146484 0.147135 0.147786 0.148438 0.149089 0.149740 0.150391 0.151042 0.151693 0.152344 0.152995 0.153646 0.154297 0.154948 0.155599 0.156250 0.156901 0.157552 0.158203 0.158854 0.159505 0.160156 0.160807 0.161458 0.162109 0.162760 0.163411 0.164062 0.164714 0.165365 0.166016 0.166667 0.167318 0.167969 0.168620 0.169271 0.169922 0.170573 0.171224 0.171875 0.172526 0.173177 0.173828 0.174479 0.175130 0.175781 0.176432 0.177083 0.177734 0.178385 0.179036 0.179688 0.180339 0.180990 0.181641 0.182292 0.182943 0.183594 0.184245 0.184896 0.185547 0.186198 0.186849 0.187500 0.188151 0.188802 0.189453 0.190104 0.190755 0.191406 0.192057 0.192708 0.193359 0.194010 0.194661 0.195312 0.195964 0.196615 0.197266 0.197917 0.198568 0.199219 0.199870 0.200521 0.201172 0.201823 0.202474 0.203125 0.203776 0.204427 0.205078 0.205729 0.206380 0.207031 0.207682 0.208333 0.208984 0.209635 0.210286 0.210938 0.211589 0.212240 0.212891 0.213542 0.214193 0.214844 0.215495 0.216146 0.216797 0.217448 0.218099 0.218750 0.219401 0.220052 0.220703 0.221354 0.222005 0.222656 0.223307 0.223958 0.224609 0.225260 0.225911 0.226562 0.227214 0.227865 0.228516 0.229167 0.229818 0.230469 0.231120 0.231771 0.232422 0.233073 0.233724 0.234375 0.235026 0.235677
       0.30193        0.30193        0.30193        0.30193        0.30193        0.30193        0.30193        0.30193        0.30193        0.30193        0.30193        0.30193        0.30193        0.30193        0.30193        0.30193        0.30193        0.30193        0.30193        0.30193        0.30193        0.30193        0.30193        0.30193        0.30193        0.30193        0.30193        0.30193        0.30193        0.30193        0.30193        0.30193        0.30193        0.30193        0.30193        0.30193        0.30193        0.30193        0.30193        0.30193        0.30193        0.30193        0.30193        0.30193        0.30193        0.30193        0.30193        0.30193        0.30193        0.30193        0.30193        0.60944        0.75376        0.36707        0.21923        0.13685       -0.14621        0.11643        0.02638        0.03865        0.09758        0.32505        0.36577        0.30124        0.17986       -0.02753        0.00658        0.04889       -0.15902       -0.16922       -0.08975       -0.11946       -0.26592       -0.16420       -0.29495       -0.29329       -0.30595       -0.37552       -0.44927       -0.41832       -0.33529       -0.29492       -0.38975       -0.29495       -0.35752       -0.29478       -0.22661       -0.17377       -0.13481       -0.05342       -0.02750        0.09164        0.12935        0.21848        0.32706        0.39143        0.36693        0.47382        0.56497        0.57930        0.66148        0.62401        0.67399        0.61059        0.63751        0.63738        0.57792        0.57364        0.57977        0.40312        0.33592        0.35698        0.34253        0.18262        0.12927        0.08388        0.07372        0.06639       -0.03606        0.02773       -0.01286       -0.05221        0.07163        0.15774        0.25983        0.33911        0.33018        0.37972        0.49200        0.52244        0.46334        0.65487        0.53037        0.50144        0.55943        0.52255        0.51747        0.46619        0.37658        0.33191        0.23553        0.19833        0.16479        0.16265        0.12985        0.06979        0.12068        0.15100        0.19016        0.17210        0.23898        0.27232        0.32904        0.45310        0.42159        0.42754        0.47510        0.52458        0.51660        0.47935        0.37921        0.40144        0.35619        0.27801        0.22718        0.23136        0.19597        0.17294        0.15847        0.18208        0.17057        0.22173        0.28473        0.33864        0.38913        0.40032        0.45461        0.47193        0.45030        0.43319        0.39919        0.40340        0.39038        0.34569        0.29747        0.28210        0.23181        0.25177        0.24083        0.20075        0.24123        0.23941        0.25387        0.32396        0.35891        0.38329        0.38829        0.39965        0.40957        0.40571        0.40703        0.29749        0.28619        0.25384        0.27168        0.23301        0.19736        0.26001        0.30761        0.29344        0.27676        0.32570        0.27305        0.36157        0.34647        0.35282        0.36469        0.36731        0.31137        0.30452        0.28816        0.28064        0.26250        0.25152        0.25389        0.28502        0.28637        0.30924        0.35356        0.36723        0.34128        0.33418        0.34949        0.31331        0.28917        0.28899        0.26762        0.27321        0.26281        0.29515        0.29073        0.27349        0.29755        0.30559        0.32257        0.32857        0.32944        0.27711        0.26234        0.28897        0.27685        0.26733        0.25604        0.22533        0.24702        0.25633        0.24821        0.26272        0.27563        0.31906        0.31943        0.30474        0.30641        0.23142        0.22529        0.27336        0.23966        0.20845        0.25868        0.31734        0.25466        0.29635        0.29303        0.29690        0.31245        0.27298        0.27190        0.28822        0.26462        0.27180        0.23129        0.25381        0.25136        0.29113        0.28982        0.31878        0.30952        0.32237        0.23299        0.28831        0.28397        0.22465        0.27647        0.26084        0.29284        0.28765        0.30652        0.30395        0.34432        0.29062        0.25391        0.24945        0.21827        0.23457        0.27001        0.29869        0.28166        0.28442        0.28642        0.27541        0.27152        0.27452        0.23673        0.27589        0.23502        0.23278        0.22519        0.29917        0.30114        0.28116        0.28009        0.22329        0.28414        0.25324        0.20629        0.22771        0.27137        0.27285        0.30931        0.21674        0.19728        0.25149        0.24075        0.25572        0.22213        0.21360        0.20210        0.24192        0.25832        0.22271        0.26245        0.23277        0.26910        0.20420        0.26315        0.28882        0.20391        0.14522        0.16152        0.12713        0.20217        0.15684        0.08837        0.30694        0.16706        0.09220        0.10750        0.08855        0.18872        0.23604       -0.03148       -0.73426       -1.04971
2.801889 2.774147 2.746547 2.719089 2.691774 2.664600 2.637569 2.610680 2.583932 2.557327 2.530864 2.504543 2.478364 2.452328 2.426433 2.400680 2.375070 2.349601 2.324275 2.299091 2.274049 2.249149 2.224391 2.199775 2.175301 2.150970 2.126780 2.102733 2.078827 2.055064 2.031443 2.007964 1.984627 1.961432 1.938379 1.915468 1.892699 1.870073 1.847588 1.825246 1.803046 1.780987 1.759071 1.737297 1.715665 1.694175 1.672828 1.651622 1.630558 1.609637 1.588857 1.910093 2.219797 1.627994 1.563383 1.280672 0.780650 1.150881 1.019034 1.052359 0.919597 1.483776 1.408155 1.401868 1.170358 0.856232 0.706303 0.935269 0.691340 0.396778 0.514892 0.613123 0.364608 0.417628 0.263668 0.206345 0.130165 0.129925 -0.105108 -0.048884 0.055563 0.039495 0.002860 0.093937 -0.051368 -0.013852 0.127241 0.188472 0.241084 0.303602 0.332369 0.593369 0.510660 0.630727 0.838327 0.909572 0.833707 1.106297 1.105186 1.182344 1.252025 1.132119 1.318680 1.141952 1.107350 1.261480 1.073063 1.007135 1.105553 0.880235 0.616303 0.650902 0.698588 0.417097 0.343300 0.243331 0.167444 0.148304 0.008636 0.117245 0.033661 -0.074519 0.067376 0.189675 0.292363 0.481272 0.487013 0.477222 0.658394 0.763866 0.542820 0.916832 0.729599 0.738721 0.745978 0.631562 0.693904 0.658997 0.419590 0.400407 0.236376 0.169902 0.123931 0.013570 0.052109 -0.101541 -0.029631 -0.022392 0.088835 -0.031820 0.188000 0.156715 0.170467 0.376465 0.443245 0.367298 0.348669 0.531265 0.570386 0.447498 0.336725 0.316991 0.286467 0.174255 0.054264 0.042215 0.013126 -0.012334 -0.085950 -0.050248 -0.104259 0.037017 0.010711 0.157971 0.215827 0.238891 0.339791 0.330961 0.375014 0.333658 0.396012 0.344257 0.242554 0.304700 0.137521 0.178098 0.057211 0.095962 0.041166 0.041258 -0.037403 0.069786 0.020857 0.120897 0.215590 0.218963 0.257392 0.248354 0.307097 0.277014 0.284963 0.191309 0.075609 0.093937 0.036828 0.032264 -0.040386 -0.035545 0.058017 0.121855 0.072651 0.077423 0.085941 0.131854 0.183248 0.144671 0.175755 0.215741 0.135537 0.084133 0.080552 0.059432 0.056053 -0.024361 0.025186 0.068355 0.008429 0.085514 0.107077 0.194039 0.201596 0.138619 0.148828 0.174037 0.072645 0.081208 0.082904 0.032140 0.023792 0.063613 0.072711 0.075811 0.042276 0.101401 0.093595 0.138928 0.126933 0.097732 0.043132 0.003305 0.064945 0.016672 0.054086 -0.024940 -0.052002 0.014646 -0.005962 -0.012379 0.039770 0.021950 0.122447 0.119605 0.054021 0.075752 -0.055011 -0.000362 0.047721 -0.045742 -0.053982 0.062895 0.093603 -0.008183 0.074905 0.074032 0.091085 0.094542 0.012566 0.040194 0.125364 -0.028205 0.056755 -0.009018 0.034373 -0.006355 0.100701 0.058619 0.108241 0.100587 0.128295 -0.027504 0.085292 0.040259 -0.020427 0.058091 0.027022 0.066022 0.062842 0.149801 0.059004 0.149542 0.079108 -0.045622 0.040967 -0.063199 0.009506 0.062849 0.066660 0.063325 0.036965 0.086627 0.040105 0.016542 0.043980 -0.041446 0.064129 -0.011101 -0.046320 -0.002036 0.078990 0.052736 0.058964 0.080025 -0.041187 0.060954 0.007595 -0.092192 0.000836 0.031850 0.069969 0.093531 -0.039085 -0.049407 0.051940 0.033421 -0.005557 0.029795 -0.064752 0.029011 0.058921 0.078586 0.024972 0.111530 0.068984 0.119955 -0.002852 0.173301 0.196653 0.043763 -0.037682 0.023172 -0.130921 0.146826 0.040423 -0.010876 0.469379 0.208399 0.135547 0.192292 0.153402 0.248663 0.333801 -0.035804 -1.595756
0.072396 0.072835 0.074151 0.076345 0.079416 0.083363 0.088185 0.093881 0.100450 0.107889 0.116196 0.125368 0.135402 0.146292 0.158034 0.170620 0.184044 0.198295 0.213365 0.229241 0.245910 0.263355 0.281558 0.300501 0.320159 0.340508 0.361520 0.383162 0.405400 0.428197 0.451510 0.475292 0.499495 0.524064 0.548940 0.574060 0.599355 0.624753 0.650175 0.675538 0.700754 0.725729 0.750365 0.774556 0.798195 0.821167 0.843353 0.864629 0.884869 0.903939 0.921704 0.938026 0.952764 0.965774 0.976911 0.986030 0.992986 0.997635 0.999835 0.999446 0.996334 0.990370 0.981431 0.969403 0.954180 0.935668 0.913786 0.888464 0.859652 0.827314 0.791433 0.752013 0.709079 0.662680 0.612889 0.559806 0.503559 0.444301 0.382216 0.317521 0.250460 0.181307 0.110371 0.037987 0.035476 0.109622 0.184027 0.258241 0.331790 0.404178 0.474890 0.543397 0.609158 0.671623 0.730242 0.784467 0.833756 0.877582 0.915438 0.946842 0.971347 0.988542 0.998066 0.999608 0.992919 0.977815 0.954185 0.921996 0.881300 0.832235 0.775033 0.710021 0.637623 0.558361 0.472856 0.381826 0.286078 0.186514 0.084114 0.020065 0.124898 0.229209 0.331774 0.431345 0.526656 0.616446 0.699473 0.774535 0.840486 0.896257 0.940879 0.973497 0.993392 0.999999 0.992921 0.971949 0.937070 0.888480 0.826591 0.752035 0.665665 0.568553 0.461980 0.347429 0.226564 0.101216 0.026646 0.154941 0.281510 0.404147 0.520644 0.628827 0.726602 0.811995 0.883199 0.938617 0.976900 0.996988 0.998142 0.979979 0.942488 0.886052 0.811456 0.719888 0.612929 0.492538 0.361023 0.221006 0.075375 0.072768 0.220172 0.363507 0.499437 0.624700 0.736192 0.831046 0.906713 0.961040 0.992340 0.999448 0.981780 0.939365 0.872871 0.783611 0.673533 0.545193 0.401708 0.246689 0.084164 0.081525 0.245828 0.404116 0.551808 0.684509 0.798144 0.889097 0.954329 0.991501 0.999062 0.976331 0.923548 0.841899 0.733512 0.601420 0.449493 0.282347 0.105205 0.076245 0.256034 0.428106 0.586519 0.725660 0.840449 0.926540 0.980500 0.999959 0.983738 0.931926 0.845921 0.728419 0.583355 0.415793 0.231770 0.038089 0.157916 0.348659 0.526585 0.684484 0.815791 0.914865 0.977260 0.999941 0.981454 0.922036 0.823656 0.689985 0.526290 0.339243 0.136684 0.072700 0.279739 0.475174 0.650073 0.796255 0.906684 0.975836 0.999991 0.977470 0.908769 0.796597 0.645811 0.463240 0.257400 0.038122 0.183894 0.397605 0.592165 0.757491 0.884798 0.967091 0.999582 0.979999 0.908775 0.789100 0.626819 0.430191 0.209504 0.023448 0.255969 0.475144 0.668571 0.825068 0.935348 0.992597 0.992937 0.935728 0.823684 0.662807 0.462101 0.233119 0.010676 0.254677 0.484008 0.684435 0.843253 0.950134 0.997830 0.982710 0.905082 0.769269 0.583422 0.359095 0.110556 0.146093 0.393923 0.616312 0.798074 0.926502 0.992323 0.990398 0.920184 0.785877 0.596227 0.364034 0.105321 0.161725 0.418030 0.644978 0.825785 0.946777 0.998468 0.976360 0.881396 0.720006 0.503748 0.248540 0.026462 0.300274 0.551682 0.760873 0.911047 0.989801 0.990219 0.911545 0.759371 0.545336 0.286289 0.003033 0.281315 0.543198 0.760577 0.914810 0.992317 0.985828 0.895146 0.727315 0.496157 0.221203 0.073882 0.363319 0.621443 0.825012 0.955320 0.999999 0.954261 0.821491 0.613103 0.347652 0.049248 0.254578 0.535391 0.766522 0.925640 0.996969 0.972931 0.855043 0.653954 0.388573 0.084383 0.228947 0.520428 0.760829 0.925635
1.000000 1.000000 1.000000 1.000000 1.000000 1.000000 1.000000 1.000000 1.000000 1.000000 1.000000 1.000000 1.000000 1.000000 1.000000 1.000000 1.000000 1.000000 1.000000 1.000000 1.000000 1.000000 1.000000 1.000000 1.000000 1.000000 1.000000 1.000000 1.000000 1.000000 1.000000 1.000000 1.000000 1.000000 1.000000 1.000000 1.000000 1.000000 1.000000 1.000000 1.000000 1.000000 1.000000 1.000000 1.000000 1.000000 1.000000 1.000000 1.000000 1.000000 1.000000 1.000000 0.826002 0.826002 0.826002 0.826002 0.826002 0.826002 0.826002 0.800847 0.800847 0.800847 0.800847 0.800847 0.800847 0.800847 0.800847 0.800847 0.800847 0.800847 0.800847 0.800847 0.800847 0.800847 0.800847 0.800847 0.800847 0.800847 0.800847 0.800847 0.800847 0.800847 0.800847 0.800847 0.800847 0.800847 0.800847 0.800847 0.800847 0.800847 0.800847 0.800847 0.800847 0.800847 0.800847 0.800847 0.800847 0.800847 0.800847 0.800847 0.800847 0.800847 0.800847 0.947191 0.946398 0.947426 0.948194 0.949560 0.948435 0.947485 0.946566 0.945957 0.945539 0.945577 0.945855 0.946864 0.946823 0.948968 0.949805 0.958411 0.962463 0.962083 0.961987 0.960910 0.974697 0.974115 0.973244 0.972938 0.973419 0.973936 0.974351 0.973243 0.972462 0.974826 0.975281 0.973893 0.972143 0.971674 0.971189 0.970714 0.970284 0.970494 0.970538 0.970277 0.970931 0.971650 0.970763 0.972757 0.971591 0.971441 0.970859 0.969099 0.969829 0.970126 0.969856 0.967495 0.964405 0.964401 0.965571 0.963756 0.963884 0.964011 0.964661 0.965159 0.962560 0.962669 0.962308 0.962009 0.959209 0.947591 0.943890 0.940746 0.941637 0.943948 0.946419 0.946740 0.946085 0.943076 0.935991 0.931458 0.915848 0.907961 0.903031 0.904596 0.904831 0.905416 0.905257 0.902226 0.900875 0.901008 0.898412 0.901858 0.901456 0.899508 0.890899 0.888446 0.886081 0.888058 0.890914 0.890182 0.890277 0.884893 0.866961 0.859148 0.863204 0.864207 0.871756 0.869156 0.868934 0.869173 0.855081 0.850579 0.840601 0.839988 0.841516 0.842961 0.845100 0.846971 0.847965 0.829651 0.823697 0.820279 0.807960 0.811423 0.820709 0.821538 0.818364 0.803743 0.797027 0.781083 0.781115 0.783217 0.782262 0.787707 0.771086 0.770882 0.746145 0.745083 0.740507 0.729714 0.726020 0.713018 0.719632 0.728656 0.736083 0.737888 0.723844 0.717800 0.676795 0.685100 0.657437 0.664825 0.664164 0.652748 0.639835 0.630737 0.636783 0.640602 0.645545 0.621375 0.612683 0.596846 0.588296 0.596286 0.591911 0.596201 0.595648 0.588317 0.579367 0.573776 0.583261 0.584050 0.569910 0.569936 0.577799 0.561299 0.545727 0.530920 0.517728 0.525517 0.544226 0.544895 0.549399 0.548820 0.512441 0.496528 0.521870 0.532596 0.538008 0.530634 0.518141 0.511212 0.523187 0.501078 0.522632 0.519338 0.527483 0.496508 0.440468 0.401190 0.352312 0.372612 0.382641 0.389614 0.385379 0.383861 0.363806 0.322157 0.315967 0.316634 0.343453 0.330808 0.316534 0.325177 0.326353 0.327135 0.323572 0.316176 0.328024 0.321597 0.345179 0.348707 0.289464 0.265920 0.212091 0.206608 0.212952 0.244311 0.263763 0.251616 0.234225 0.116090 0.138611 0.104457 0.120720 0.120720 0.120720 0.120720 0.120720 0.120720 0.120720 0.120720 0.120720 0.156754 0.156754 0.156754 0.156754 0.156754 0.156754 0.156754 0.156754 0.156754 0.156754 0.156754 0.156754 0.156754 0.156754 0.156754 0.156754 0.156754 0.156754 0.156754 0.156754
0.000000 0.000000 0.000000 0.000000 0.000000 0.000000 0.000000 0.000000 0.000000 0.000000 0.000000 0.000000 0.000000 0.000000 0.000000 0.000000 0.000000 0.000000 0.000000 0.000000 0.000000 0.000000 0.000000 0.000000 0.000000 0.000000 0.000000 0.000000 0.000000 0.000000 0.000000 0.000000 0.000000 0.000000 0.000000 0.000000 0.000000 0.000000 0.000000 0.000000 0.000000 0.000000 0.000000 0.000000 0.000000 0.000000 0.000000 0.000000 0.000000 0.000000 0.000000 0.000000 0.173422 0.173422 0.173422 0.173422 0.173422 0.173422 0.173422 0.191565 0.191565 0.191565 0.191565 0.191565 0.191565 0.191565 0.191565 0.191565 0.191565 0.191565 0.191565 0.191565 0.191565 0.191565 0.191565 0.191565 0.191565 0.191565 0.191565 0.191565 0.191565 0.191565 0.191565 0.191565 0.191565 0.191565 0.191565 0.191565 0.191565 0.191565 0.191565 0.191565 0.191565 0.191565 0.191565 0.191565 0.191565 0.191565 0.191565 0.191565 0.191565 0.191565 0.191565 0.222222 0.222222 0.222222 0.222222 0.222222 0.222222 0.222222 0.222222 0.222222 0.222222 0.222222 0.222222 0.222222 0.222222 0.222222 0.222222 0.222222 0.222222 0.222222 0.222222 0.222222 0.222222 0.222222 0.222222 0.222222 0.222222 0.222222 0.222222 0.222222 0.222222 0.234082 0.234082 0.234082 0.234082 0.234082 0.234082 0.234082 0.234082 0.234082 0.234082 0.234082 0.234082 0.234082 0.234082 0.234082 0.234082 0.234082 0.234082 0.234082 0.234082 0.234082 0.234082 0.234082 0.234082 0.234082 0.244339 0.244339 0.244339 0.244339 0.244339 0.244339 0.244339 0.244339 0.244339 0.244339 0.244339 0.244339 0.244339 0.244339 0.244339 0.244339 0.244339 0.244339 0.244339 0.244339 0.244339 0.248069 0.248069 0.248069 0.248069 0.248069 0.248069 0.248069 0.248069 0.248069 0.248069 0.248069 0.248069 0.248069 0.248069 0.248069 0.248069 0.248069 0.248069 0.248069 0.248069 0.248069 0.248069 0.248069 0.248069 0.248069 0.248069 0.248069 0.248069 0.248069 0.248069 0.248069 0.248069 0.248069 0.248069 0.248069 0.248069 0.248069 0.256074 0.256074 0.256074 0.256074 0.256074 0.256074 0.256074 0.256074 0.256074 0.256074 0.256074 0.256074 0.256074 0.256074 0.256074 0.256074 0.256074 0.256074 0.256074 0.256074 0.256074 0.256074 0.256074 0.256074 0.256074 0.256074 0.256074 0.256074 0.256074 0.256074 0.256074 0.256074 0.256074 0.256074 0.256074 0.256074 0.256074 0.256074 0.256074 0.256074 0.256074 0.256074 0.256074 0.256074 0.256074 0.260378 0.260378 0.260378 0.260378 0.260378 0.260378 0.260378 0.260378 0.260378 0.260378 0.260378 0.260378 0.260378 0.256074 0.256074 0.256074 0.256074 0.256074 0.256074 0.256074 0.256074 0.256074 0.256074 0.256074 0.256074 0.256074 0.260378 0.260378 0.260378 0.260378 0.260378 0.260378 0.260378 0.260378 0.260378 0.260378 0.260378 0.260378 0.251976 0.251976 0.251976 0.251976 0.251976 0.251976 0.251976 0.251976 0.251976 0.251976 0.251976 0.251976 0.256074 0.256074 0.256074 0.256074 0.256074 0.256074 0.256074 0.256074 0.256074 0.256074 0.256074 0.251976 0.251976 0.251976 0.251976 0.251976 0.251976 0.251976 0.251976 0.251976 0.251976 0.251976 0.260378 0.260378 0.260378 0.260378 0.260378 0.260378 0.260378 0.260378 0.260378 0.260378 0.244339 0.244339 0.244339 0.244339 0.244339 0.244339 0.244339 0.244339 0.244339 0.244339 0.244339 0.244339 0.244339 0.244339 0.244339 0.244339 0.244339 0.244339 0.244339 0.244339
