# Output from CTFFind version 4.1.9, run on 2019-11-02 17:48:35
# Input file: stack11_bm3d_averaged_1_0.5_0_2000_half.mrc ; Number of micrographs: 1
# Pixel size: 3.000 Angstroms ; acceleration voltage: 300.0 keV ; spherical aberration: 0.00 mm ; amplitude contrast: 0.07
# Box size: 512 pixels ; min. res.: 30.0 Angstroms ; max. res.: 5.0 Angstroms ; min. def.: 5000.0 um; max. def. 50000.0 um; num. frames averaged: 1
# 6 lines per micrograph: #1 - spatial frequency (1/Angstroms); #2 - 1D rotational average of spectrum (assuming no astigmatism); #3 - 1D rotational average of spectrum; #4 - CTF fit; #5 - cross-correlation between spectrum and CTF fit; #6 - 2sigma of expected cross correlation of noise
0.000000 0.000651 0.001302 0.001953 0.002604 0.003255 0.003906 0.004557 0.005208 0.005859 0.006510 0.007161 0.007812 0.008464 0.009115 0.009766 0.010417 0.011068 0.011719 0.012370 0.013021 0.013672 0.014323 0.014974 0.015625 0.016276 0.016927 0.017578 0.018229 0.018880 0.019531 0.020182 0.020833 0.021484 0.022135 0.022786 0.023438 0.024089 0.024740 0.025391 0.026042 0.026693 0.027344 0.027995 0.028646 0.029297 0.029948 0.030599 0.031250 0.031901 0.032552 0.033203 0.033854 0.034505 0.035156 0.035807 0.036458 0.037109 0.037760 0.038411 0.039062 0.039714 0.040365 0.041016 0.041667 0.042318 0.042969 0.043620 0.044271 0.044922 0.045573 0.046224 0.046875 0.047526 0.048177 0.048828 0.049479 0.050130 0.050781 0.051432 0.052083 0.052734 0.053385 0.054036 0.054688 0.055339 0.055990 0.056641 0.057292 0.057943 0.058594 0.059245 0.059896 0.060547 0.061198 0.061849 0.062500 0.063151 0.063802 0.064453 0.065104 0.065755 0.066406 0.067057 0.067708 0.068359 0.069010 0.069661 0.070312 0.070964 0.071615 0.072266 0.072917 0.073568 0.074219 0.074870 0.075521 0.076172 0.076823 0.077474 0.078125 0.078776 0.079427 0.080078 0.080729 0.081380 0.082031 0.082682 0.083333 0.083984 0.084635 0.085286 0.085938 0.086589 0.087240 0.087891 0.088542 0.089193 0.089844 0.090495 0.091146 0.091797 0.092448 0.093099 0.093750 0.094401 0.095052 0.095703 0.096354 0.097005 0.097656 0.098307 0.098958 0.099609 0.100260 0.100911 0.101562 0.102214 0.102865 0.103516 0.104167 0.104818 0.105469 0.106120 0.106771 0.107422 0.108073 0.108724 0.109375 0.110026 0.110677 0.111328 0.111979 0.112630 0.113281 0.113932 0.114583 0.115234 0.115885 0.116536 0.117188 0.117839 0.118490 0.119141 0.119792 0.120443 0.121094 0.121745 0.122396 0.123047 0.123698 0.124349 0.125000 0.125651 0.126302 0.126953 0.127604 0.128255 0.128906 0.129557 0.130208 0.130859 0.131510 0.132161 0.132812 0.133464 0.134115 0.134766 0.135417 0.136068 0.136719 0.137370 0.138021 0.138672 0.139323 0.139974 0.140625 0.141276 0.141927 0.142578 0.143229 0.143880 0.144531 0.145182 0.145833 0.146484 0.147135 0.147786 0.148438 0.149089 0.149740 0.150391 0.151042 0.151693 0.152344 0.152995 0.153646 0.154297 0.154948 0.155599 0.156250 0.156901 0.157552 0.158203 0.158854 0.159505 0.160156 0.160807 0.161458 0.162109 0.162760 0.163411 0.164062 0.164714 0.165365 0.166016 0.166667 0.167318 0.167969 0.168620 0.169271 0.169922 0.170573 0.171224 0.171875 0.172526 0.173177 0.173828 0.174479 0.175130 0.175781 0.176432 0.177083 0.177734 0.178385 0.179036 0.179688 0.180339 0.180990 0.181641 0.182292 0.182943 0.183594 0.184245 0.184896 0.185547 0.186198 0.186849 0.187500 0.188151 0.188802 0.189453 0.190104 0.190755 0.191406 0.192057 0.192708 0.193359 0.194010 0.194661 0.195312 0.195964 0.196615 0.197266 0.197917 0.198568 0.199219 0.199870 0.200521 0.201172 0.201823 0.202474 0.203125 0.203776 0.204427 0.205078 0.205729 0.206380 0.207031 0.207682 0.208333 0.208984 0.209635 0.210286 0.210938 0.211589 0.212240 0.212891 0.213542 0.214193 0.214844 0.215495 0.216146 0.216797 0.217448 0.218099 0.218750 0.219401 0.220052 0.220703 0.221354 0.222005 0.222656 0.223307 0.223958 0.224609 0.225260 0.225911 0.226562 0.227214 0.227865 0.228516 0.229167 0.229818 0.230469 0.231120 0.231771 0.232422 0.233073 0.233724 0.234375 0.235026 0.235677
       0.31603        0.31603        0.31603        0.31603        0.31603        0.31603        0.31603        0.31603        0.31603        0.31603        0.31603        0.31603        0.31603        0.31603        0.31603        0.31603        0.31603        0.31603        0.31603        0.31603        0.31603        0.31603        0.31603        0.31603        0.31603        0.31603        0.31603        0.31603        0.31603        0.31603        0.31603        0.31603        0.31603        0.31603        0.31603        0.31603        0.31603        0.31603        0.31603        0.31603        0.31603        0.31603        0.31603        0.31603        0.31603        0.31603        0.31603        0.31603        0.31603        0.31603        0.31603        0.68448        0.87211        0.52103        0.08489       -0.06912       -0.42763       -0.20986       -0.29808       -0.11941       -0.08023       -0.11920       -0.07043       -0.21162       -0.23942       -0.26240       -0.33171       -0.33847       -0.49472       -0.38570       -0.46896       -0.45320       -0.42257       -0.47240       -0.55102       -0.56619       -0.59078       -0.63052       -0.58200       -0.41908       -0.38020       -0.33096       -0.31844       -0.21527       -0.20105        0.01913        0.06597        0.10003        0.22168        0.37133        0.44120        0.51595        0.55873        0.55357        0.57153        0.69854        0.81500        0.74698        0.73484        0.67534        0.58300        0.48639        0.40603        0.49207        0.37057        0.19839        0.07589        0.04356        0.00494       -0.06172       -0.04265       -0.02988       -0.07655       -0.00701       -0.02344        0.20847        0.24772        0.29151        0.43001        0.46775        0.40345        0.53065        0.63121        0.70399        0.76878        0.69125        0.66196        0.70087        0.58874        0.50726        0.41788        0.28782        0.18352        0.15603        0.10794        0.03531        0.01229       -0.00256        0.07442        0.13082        0.20134        0.28348        0.40332        0.41557        0.51117        0.60215        0.63627        0.61153        0.63013        0.55237        0.44446        0.44151        0.35012        0.22948        0.18536        0.14894        0.10240        0.11719        0.06231        0.09723        0.21829        0.26229        0.33868        0.34433        0.45237        0.51112        0.53597        0.55148        0.46762        0.42566        0.39321        0.37722        0.30866        0.24992        0.19944        0.18317        0.16039        0.18966        0.17596        0.26860        0.33200        0.36245        0.42028        0.46194        0.47748        0.44609        0.39172        0.41229        0.37541        0.29097        0.27531        0.22918        0.21131        0.19249        0.20997        0.23022        0.32825        0.37131        0.36502        0.45625        0.43873        0.43945        0.43044        0.39472        0.34249        0.32953        0.27721        0.23207        0.23453        0.26612        0.26760        0.29856        0.29686        0.33942        0.32802        0.41038        0.41592        0.37328        0.34291        0.36214        0.27940        0.27894        0.26289        0.27631        0.25874        0.28033        0.29268        0.31526        0.35253        0.35770        0.35909        0.33086        0.35092        0.28645        0.32297        0.26662        0.24868        0.28061        0.27948        0.30551        0.31506        0.33190        0.32360        0.31128        0.31731        0.28691        0.28426        0.25909        0.28145        0.26878        0.31120        0.28294        0.25937        0.30662        0.31027        0.31572        0.29177        0.29716        0.29315        0.24208        0.23597        0.21848        0.27675        0.27033        0.30525        0.31773        0.31996        0.31199        0.30157        0.27594        0.28206        0.33144        0.27554        0.26942        0.29376        0.29684        0.34205        0.33914        0.36302        0.33092        0.31115        0.27967        0.26197        0.26238        0.22501        0.26517        0.29780        0.29654        0.27683        0.29483        0.27002        0.32183        0.33348        0.25111        0.21594        0.26630        0.33695        0.27799        0.31505        0.32604        0.32809        0.29714        0.31885        0.34488        0.29734        0.29593        0.26345        0.27470        0.34920        0.34967        0.25645        0.26765        0.25367        0.27385        0.22780        0.28945        0.22080        0.25261        0.32372        0.31546        0.34182        0.29745        0.23589        0.23833        0.24226        0.24509        0.17892        0.21710        0.25850        0.29011        0.28062        0.29971        0.28895        0.27991        0.28404        0.20875        0.18042        0.18327        0.23396        0.20001        0.22227        0.23310        0.20931        0.24687        0.33180        0.29348        0.30344        0.22008        0.26587        0.23593        0.28286        0.30387        0.14791        0.21141        0.22507        0.13552        0.23718        0.10896        0.17080        0.18767        0.12921       -0.11980       -0.63875
2.586553 2.559551 2.532695 2.505985 2.479422 2.453005 2.426735 2.400611 2.374633 2.348802 2.323117 2.297579 2.272187 2.246941 2.221842 2.196889 2.172083 2.147423 2.122909 2.098542 2.074321 2.050247 2.026319 2.002537 1.978902 1.955413 1.932070 1.908874 1.885825 1.862921 1.840164 1.817554 1.795090 1.772772 1.750601 1.728576 1.706697 1.684965 1.663379 1.641940 1.620647 1.599501 1.578500 1.557647 1.536939 1.516378 1.495964 1.475696 1.455574 1.435598 1.415769 1.638348 2.042931 1.614808 1.128171 0.986261 0.423931 0.811206 0.563335 0.835488 0.772094 0.787767 0.753481 0.710314 0.560784 0.511157 0.486984 0.447625 0.204623 0.380531 0.205096 0.304451 0.240069 0.181684 0.129503 0.003974 0.044188 -0.015363 -0.054955 0.104476 0.207101 0.199109 0.154048 0.331363 0.198411 0.500185 0.572367 0.545427 0.589761 0.877925 0.806980 0.946202 0.888727 0.973345 0.939268 1.080421 1.141809 1.080625 1.125481 0.956980 0.944210 0.785633 0.651722 0.768587 0.701527 0.459290 0.306331 0.253636 0.209653 0.148356 0.088387 0.124749 0.064557 0.156431 0.049475 0.260772 0.376793 0.361124 0.477580 0.585970 0.470587 0.539404 0.699054 0.748318 0.781253 0.735253 0.734890 0.718589 0.627578 0.573442 0.430941 0.283871 0.205999 0.076021 0.133448 -0.043724 -0.027265 -0.081986 -0.037101 0.006651 0.141047 0.093151 0.304063 0.277087 0.366570 0.452879 0.525329 0.508836 0.516209 0.504574 0.332041 0.306170 0.275508 0.101488 0.048012 0.000706 -0.037651 -0.042759 -0.095022 -0.102878 -0.020207 0.054388 0.136640 0.133019 0.226160 0.332823 0.303317 0.412150 0.396539 0.281719 0.232016 0.252123 0.212837 0.101025 0.071258 0.017316 0.002692 0.005209 -0.018799 0.058919 0.148064 0.141865 0.223351 0.251024 0.305805 0.260669 0.219503 0.188058 0.208390 0.152735 0.045717 0.051820 -0.008921 -0.011035 -0.031744 0.015115 0.017283 0.172351 0.121889 0.183039 0.235147 0.202446 0.194284 0.199459 0.134554 0.106396 0.067109 0.043390 -0.041383 0.007121 0.019078 0.051962 0.046975 0.078090 0.098784 0.118487 0.139378 0.183666 0.076082 0.096830 0.068708 -0.000650 0.005293 0.008931 -0.010332 0.017664 0.003812 0.031618 0.071145 0.087732 0.104974 0.052083 0.094114 0.056002 0.013029 0.062392 -0.035690 -0.014800 0.019037 -0.001013 0.049570 0.056373 0.046735 0.059063 0.046055 0.046858 0.018314 -0.002948 0.003330 0.016566 -0.013681 0.068915 -0.016022 0.003895 0.052348 0.047028 0.030191 0.042045 0.035577 0.015929 -0.029158 -0.048934 -0.020369 0.013848 0.015122 0.055004 0.061512 0.048414 0.080999 0.057340 0.020130 0.058896 0.085123 0.021619 0.023932 0.054600 0.055353 0.101210 0.110141 0.113139 0.108391 0.060219 0.040850 0.028071 0.005461 -0.007748 0.044166 0.073786 0.045089 0.027154 0.030559 0.027421 0.081477 0.067852 -0.048599 -0.055573 0.026956 0.091895 0.009161 0.034470 0.061539 0.086605 0.018999 0.055751 0.087111 0.033468 0.041403 -0.026152 0.008394 0.108029 0.066072 -0.059464 -0.019214 -0.049386 0.006449 -0.099871 0.033199 -0.111398 -0.031980 0.046242 0.022408 0.026506 -0.046024 -0.068692 -0.092638 -0.080396 -0.065170 -0.135671 -0.098436 -0.040695 0.007452 -0.028773 0.030731 -0.024704 -0.042560 0.054253 -0.113605 -0.092935 -0.102746 -0.005854 -0.059644 -0.021878 -0.010941 0.012378 0.010835 0.171757 -0.008796 0.139184 -0.000887 0.272585 0.248188 0.322052 0.281003 0.113636 0.213944 0.270291 0.058224 0.261103 0.113584 0.155382 0.240832 0.131270 -0.658097
0.072396 0.072899 0.074405 0.076917 0.080432 0.084949 0.090469 0.096988 0.104505 0.113017 0.122521 0.133011 0.144484 0.156933 0.170349 0.184724 0.200047 0.216305 0.233482 0.251562 0.270525 0.290347 0.311003 0.332464 0.354696 0.377662 0.401321 0.425627 0.450529 0.475971 0.501893 0.528228 0.554901 0.581836 0.608947 0.636142 0.663323 0.690384 0.717215 0.743696 0.769702 0.795100 0.819753 0.843515 0.866234 0.887755 0.907914 0.926546 0.943479 0.958540 0.971552 0.982338 0.990720 0.996520 0.999563 0.999679 0.996701 0.990469 0.980834 0.967656 0.950806 0.930171 0.905656 0.877182 0.844694 0.808157 0.767564 0.722935 0.674318 0.621797 0.565485 0.505533 0.442130 0.375499 0.305908 0.233661 0.159104 0.082623 0.004645 0.074367 0.153909 0.233444 0.312402 0.390183 0.466162 0.539693 0.610114 0.676754 0.738937 0.795993 0.847261 0.892102 0.929904 0.960093 0.982142 0.995579 0.999998 0.995069 0.980546 0.956278 0.922212 0.878407 0.825038 0.762398 0.690910 0.611119 0.523705 0.429471 0.329347 0.224383 0.115741 0.004683 0.107433 0.219178 0.329063 0.435558 0.537114 0.632187 0.719264 0.796883 0.863668 0.918350 0.959800 0.987051 0.999327 0.996066 0.976942 0.941886 0.891098 0.825060 0.744543 0.650609 0.544601 0.428141 0.303103 0.171599 0.035944 0.101383 0.237775 0.370547 0.496992 0.614434 0.720285 0.812115 0.887701 0.945099 0.982692 0.999250 0.993973 0.966532 0.917100 0.846369 0.755562 0.646421 0.521194 0.382599 0.233774 0.078221 0.080277 0.237737 0.390076 0.533219 0.663207 0.776313 0.869162 0.938832 0.982964 0.999853 0.988528 0.948806 0.881335 0.787610 0.669958 0.531505 0.376110 0.208268 0.033001 0.144293 0.317992 0.482433 0.632097 0.761803 0.866892 0.943415 0.988294 0.999465 0.975990 0.918132 0.827396 0.706515 0.559399 0.391030 0.207321 0.014911 0.179047 0.367162 0.542072 0.696747 0.824781 0.920665 0.980059 0.999998 0.979075 0.917547 0.817389 0.682261 0.517419 0.329531 0.126433 0.083174 0.290088 0.485009 0.658962 0.803713 0.912186 0.978832 0.999940 0.973878 0.901238 0.784881 0.629866 0.443277 0.233924 0.011968 0.211574 0.425345 0.618247 0.780013 0.901779 0.976604 0.999896 0.969733 0.887054 0.755688 0.582238 0.375787 0.147465 0.090122 0.323570 0.539433 0.724999 0.869066 0.962642 0.999553 0.976892 0.895296 0.759003 0.575699 0.356135 0.113546 0.137118 0.380099 0.599809 0.781852 0.913987 0.987002 0.995397 0.937863 0.817477 0.641619 0.421582 0.171907 0.090546 0.347693 0.581490 0.775190 0.914583 0.989090 0.992613 0.924104 0.787777 0.592930 0.353381 0.086561 0.187730 0.448764 0.676439 0.852872 0.963829 0.999942 0.957571 0.839237 0.653575 0.414788 0.141637 0.143985 0.418779 0.659923 0.847014 0.963818 0.999762 0.950962 0.820722 0.619426 0.363798 0.075594 0.220199 0.497495 0.731426 0.900586 0.989073 0.988049 0.896724 0.722613 0.481032 0.193845 0.112440 0.409079 0.667776 0.863413 0.976546 0.995416 0.917285 0.748899 0.506035 0.212131 0.103890 0.410419 0.676324 0.874119 0.982878 0.990555 0.895418 0.706459 0.442687 0.131312 0.194959 0.501322 0.754602 0.926866 0.998602 0.961039 0.817345 0.582520 0.281984 0.051087 0.379348 0.665435 0.876274 0.986952 0.983792 0.866172 0.646865 0.350809 0.012392 0.328442 0.630895 0.858209 0.982200 0.986887 0.870686 0.646894 0.342338 0.005702 0.353973 0.658584 0.880570 0.990955 0.974672 0.832776 0.582616 0.255899 0.105201
1.000000 1.000000 1.000000 1.000000 1.000000 1.000000 1.000000 1.000000 1.000000 1.000000 1.000000 1.000000 1.000000 1.000000 1.000000 1.000000 1.000000 1.000000 1.000000 1.000000 1.000000 1.000000 1.000000 1.000000 1.000000 1.000000 1.000000 1.000000 1.000000 1.000000 1.000000 1.000000 1.000000 1.000000 1.000000 1.000000 1.000000 1.000000 1.000000 1.000000 1.000000 1.000000 1.000000 1.000000 1.000000 1.000000 1.000000 1.000000 1.000000 1.000000 1.000000 1.000000 0.932036 0.932036 0.932036 0.923924 0.923924 0.923924 0.923924 0.923924 0.923924 0.923924 0.923924 0.923924 0.923924 0.923924 0.923924 0.923924 0.923924 0.923924 0.923924 0.923924 0.923924 0.923924 0.923924 0.923924 0.923924 0.923924 0.923924 0.923924 0.923924 0.923924 0.923924 0.923924 0.923924 0.923924 0.923924 0.923924 0.923924 0.923924 0.923924 0.923924 0.923924 0.923924 0.923924 0.923924 0.949914 0.951133 0.958983 0.958809 0.958299 0.956173 0.955270 0.954131 0.953684 0.953955 0.954561 0.955395 0.967155 0.968171 0.969712 0.970509 0.971210 0.971855 0.971698 0.972484 0.971719 0.971168 0.970653 0.966662 0.967310 0.967892 0.968043 0.967794 0.967347 0.971223 0.971365 0.970779 0.969931 0.967699 0.966727 0.966309 0.966025 0.966126 0.966585 0.967885 0.971063 0.970468 0.970179 0.970337 0.970436 0.970609 0.971027 0.971852 0.967857 0.966314 0.964542 0.962292 0.966458 0.963554 0.963348 0.964716 0.965118 0.965538 0.964370 0.960221 0.954521 0.953688 0.951312 0.942193 0.941249 0.941998 0.944434 0.944969 0.943548 0.936533 0.937062 0.929965 0.931649 0.934933 0.928910 0.928936 0.930118 0.929833 0.929000 0.928457 0.925538 0.923087 0.921611 0.921313 0.924311 0.924102 0.925313 0.925229 0.919740 0.911893 0.900259 0.898121 0.893694 0.896727 0.885472 0.888532 0.887190 0.882641 0.885994 0.885693 0.886646 0.883404 0.867397 0.850729 0.844538 0.849451 0.854266 0.852631 0.850445 0.843676 0.855076 0.830959 0.843141 0.853405 0.849818 0.849948 0.848733 0.847352 0.841980 0.843313 0.844747 0.845922 0.843375 0.840976 0.841160 0.821948 0.823465 0.762786 0.745584 0.734674 0.739867 0.747222 0.748740 0.747667 0.755000 0.759638 0.751392 0.734693 0.727995 0.723410 0.727589 0.720826 0.723634 0.705071 0.673314 0.668845 0.640383 0.657408 0.667590 0.630058 0.653599 0.664602 0.664694 0.663459 0.657197 0.654661 0.649706 0.651868 0.657305 0.669366 0.686467 0.709305 0.703333 0.693651 0.689144 0.669659 0.663346 0.659508 0.677405 0.654584 0.651005 0.670069 0.669048 0.652230 0.628084 0.616062 0.611553 0.606607 0.616450 0.601724 0.596066 0.586131 0.562730 0.557941 0.591197 0.606379 0.629929 0.600379 0.587921 0.576984 0.559233 0.570634 0.510991 0.511326 0.533237 0.541311 0.520320 0.509448 0.520694 0.524061 0.521444 0.511658 0.506093 0.495987 0.513511 0.551218 0.539308 0.520378 0.521674 0.521029 0.513241 0.421367 0.416043 0.391292 0.357415 0.299238 0.282948 0.274634 0.258714 0.246686 0.210040 0.206797 0.216472 0.221569 0.234644 0.237000 0.217233 0.228426 0.224756 0.211279 0.148596 0.137898 0.130193 0.119585 0.116882 0.093351 0.121168 0.191785 0.193838 0.193838 0.193838 0.193838 0.193838 0.193838 0.199851 0.199851 0.199851 0.199851 0.199851 0.199851 0.199851 0.199851 0.199851 0.211588 0.211588 0.211588 0.211588 0.211588 0.211588 0.211588 0.211588 0.211588 0.211588 0.211588 0.211588 0.211588 0.211588
0.000000 0.000000 0.000000 0.000000 0.000000 0.000000 0.000000 0.000000 0.000000 0.000000 0.000000 0.000000 0.000000 0.000000 0.000000 0.000000 0.000000 0.000000 0.000000 0.000000 0.000000 0.000000 0.000000 0.000000 0.000000 0.000000 0.000000 0.000000 0.000000 0.000000 0.000000 0.000000 0.000000 0.000000 0.000000 0.000000 0.000000 0.000000 0.000000 0.000000 0.000000 0.000000 0.000000 0.000000 0.000000 0.000000 0.000000 0.000000 0.000000 0.000000 0.000000 0.000000 0.180334 0.180334 0.180334 0.199007 0.199007 0.199007 0.199007 0.199007 0.199007 0.199007 0.199007 0.199007 0.199007 0.199007 0.199007 0.199007 0.199007 0.199007 0.199007 0.199007 0.199007 0.199007 0.199007 0.199007 0.199007 0.199007 0.199007 0.199007 0.199007 0.199007 0.199007 0.199007 0.199007 0.199007 0.199007 0.199007 0.199007 0.199007 0.199007 0.199007 0.199007 0.199007 0.199007 0.199007 0.225018 0.225018 0.225018 0.225018 0.225018 0.225018 0.225018 0.225018 0.225018 0.225018 0.225018 0.225018 0.225018 0.225018 0.225018 0.225018 0.225018 0.225018 0.225018 0.225018 0.225018 0.225018 0.225018 0.225018 0.225018 0.225018 0.225018 0.225018 0.225018 0.244339 0.244339 0.244339 0.244339 0.244339 0.244339 0.244339 0.244339 0.244339 0.244339 0.244339 0.244339 0.244339 0.244339 0.244339 0.244339 0.244339 0.244339 0.244339 0.244339 0.244339 0.244339 0.244339 0.251976 0.251976 0.251976 0.251976 0.251976 0.251976 0.251976 0.251976 0.251976 0.251976 0.251976 0.251976 0.251976 0.251976 0.251976 0.251976 0.251976 0.251976 0.251976 0.251976 0.264906 0.264906 0.264906 0.264906 0.264906 0.264906 0.264906 0.264906 0.264906 0.264906 0.264906 0.264906 0.264906 0.264906 0.264906 0.264906 0.264906 0.264906 0.264906 0.264906 0.264906 0.264906 0.264906 0.264906 0.264906 0.264906 0.264906 0.264906 0.264906 0.264906 0.264906 0.264906 0.264906 0.264906 0.264906 0.264906 0.264906 0.264906 0.264906 0.264906 0.264906 0.264906 0.264906 0.264906 0.264906 0.264906 0.264906 0.264906 0.264906 0.264906 0.264906 0.264906 0.264906 0.264906 0.264906 0.264906 0.264906 0.264906 0.264906 0.264906 0.264906 0.264906 0.256074 0.256074 0.256074 0.256074 0.256074 0.256074 0.256074 0.256074 0.256074 0.256074 0.256074 0.256074 0.256074 0.256074 0.269680 0.269680 0.269680 0.269680 0.269680 0.269680 0.269680 0.269680 0.269680 0.269680 0.269680 0.269680 0.264906 0.264906 0.264906 0.264906 0.264906 0.264906 0.264906 0.264906 0.264906 0.264906 0.264906 0.264906 0.269680 0.269680 0.269680 0.269680 0.269680 0.269680 0.269680 0.269680 0.269680 0.269680 0.269680 0.264906 0.264906 0.264906 0.264906 0.264906 0.264906 0.264906 0.264906 0.264906 0.264906 0.264906 0.256074 0.256074 0.256074 0.256074 0.256074 0.256074 0.256074 0.256074 0.256074 0.256074 0.256074 0.264906 0.264906 0.264906 0.264906 0.264906 0.264906 0.264906 0.264906 0.264906 0.264906 0.260378 0.260378 0.260378 0.260378 0.260378 0.260378 0.260378 0.260378 0.260378 0.260378 0.256074 0.256074 0.256074 0.256074 0.256074 0.256074 0.256074 0.256074 0.256074 0.256074 0.260378 0.260378 0.260378 0.260378 0.260378 0.260378 0.260378 0.260378 0.260378 0.256074 0.256074 0.256074 0.256074 0.256074 0.256074 0.256074 0.256074 0.256074 0.251976 0.251976 0.251976 0.251976 0.251976 0.251976 0.251976 0.251976 0.251976 0.251976 0.251976 0.251976 0.251976 0.251976
