# Output from CTFFind version 4.1.9, run on 2019-11-03 19:32:41
# Input file: stack16_bm3d_averaged_1_4.25_0_250_half.mrc ; Number of micrographs: 1
# Pixel size: 3.000 Angstroms ; acceleration voltage: 300.0 keV ; spherical aberration: 0.00 mm ; amplitude contrast: 0.07
# Box size: 512 pixels ; min. res.: 30.0 Angstroms ; max. res.: 5.0 Angstroms ; min. def.: 5000.0 um; max. def. 50000.0 um; num. frames averaged: 1
# 6 lines per micrograph: #1 - spatial frequency (1/Angstroms); #2 - 1D rotational average of spectrum (assuming no astigmatism); #3 - 1D rotational average of spectrum; #4 - CTF fit; #5 - cross-correlation between spectrum and CTF fit; #6 - 2sigma of expected cross correlation of noise
0.000000 0.000651 0.001302 0.001953 0.002604 0.003255 0.003906 0.004557 0.005208 0.005859 0.006510 0.007161 0.007812 0.008464 0.009115 0.009766 0.010417 0.011068 0.011719 0.012370 0.013021 0.013672 0.014323 0.014974 0.015625 0.016276 0.016927 0.017578 0.018229 0.018880 0.019531 0.020182 0.020833 0.021484 0.022135 0.022786 0.023438 0.024089 0.024740 0.025391 0.026042 0.026693 0.027344 0.027995 0.028646 0.029297 0.029948 0.030599 0.031250 0.031901 0.032552 0.033203 0.033854 0.034505 0.035156 0.035807 0.036458 0.037109 0.037760 0.038411 0.039062 0.039714 0.040365 0.041016 0.041667 0.042318 0.042969 0.043620 0.044271 0.044922 0.045573 0.046224 0.046875 0.047526 0.048177 0.048828 0.049479 0.050130 0.050781 0.051432 0.052083 0.052734 0.053385 0.054036 0.054688 0.055339 0.055990 0.056641 0.057292 0.057943 0.058594 0.059245 0.059896 0.060547 0.061198 0.061849 0.062500 0.063151 0.063802 0.064453 0.065104 0.065755 0.066406 0.067057 0.067708 0.068359 0.069010 0.069661 0.070312 0.070964 0.071615 0.072266 0.072917 0.073568 0.074219 0.074870 0.075521 0.076172 0.076823 0.077474 0.078125 0.078776 0.079427 0.080078 0.080729 0.081380 0.082031 0.082682 0.083333 0.083984 0.084635 0.085286 0.085938 0.086589 0.087240 0.087891 0.088542 0.089193 0.089844 0.090495 0.091146 0.091797 0.092448 0.093099 0.093750 0.094401 0.095052 0.095703 0.096354 0.097005 0.097656 0.098307 0.098958 0.099609 0.100260 0.100911 0.101562 0.102214 0.102865 0.103516 0.104167 0.104818 0.105469 0.106120 0.106771 0.107422 0.108073 0.108724 0.109375 0.110026 0.110677 0.111328 0.111979 0.112630 0.113281 0.113932 0.114583 0.115234 0.115885 0.116536 0.117188 0.117839 0.118490 0.119141 0.119792 0.120443 0.121094 0.121745 0.122396 0.123047 0.123698 0.124349 0.125000 0.125651 0.126302 0.126953 0.127604 0.128255 0.128906 0.129557 0.130208 0.130859 0.131510 0.132161 0.132812 0.133464 0.134115 0.134766 0.135417 0.136068 0.136719 0.137370 0.138021 0.138672 0.139323 0.139974 0.140625 0.141276 0.141927 0.142578 0.143229 0.143880 0.144531 0.145182 0.145833 0.146484 0.147135 0.147786 0.148438 0.149089 0.149740 0.150391 0.151042 0.151693 0.152344 0.152995 0.153646 0.154297 0.154948 0.155599 0.156250 0.156901 0.157552 0.158203 0.158854 0.159505 0.160156 0.160807 0.161458 0.162109 0.162760 0.163411 0.164062 0.164714 0.165365 0.166016 0.166667 0.167318 0.167969 0.168620 0.169271 0.169922 0.170573 0.171224 0.171875 0.172526 0.173177 0.173828 0.174479 0.175130 0.175781 0.176432 0.177083 0.177734 0.178385 0.179036 0.179688 0.180339 0.180990 0.181641 0.182292 0.182943 0.183594 0.184245 0.184896 0.185547 0.186198 0.186849 0.187500 0.188151 0.188802 0.189453 0.190104 0.190755 0.191406 0.192057 0.192708 0.193359 0.194010 0.194661 0.195312 0.195964 0.196615 0.197266 0.197917 0.198568 0.199219 0.199870 0.200521 0.201172 0.201823 0.202474 0.203125 0.203776 0.204427 0.205078 0.205729 0.206380 0.207031 0.207682 0.208333 0.208984 0.209635 0.210286 0.210938 0.211589 0.212240 0.212891 0.213542 0.214193 0.214844 0.215495 0.216146 0.216797 0.217448 0.218099 0.218750 0.219401 0.220052 0.220703 0.221354 0.222005 0.222656 0.223307 0.223958 0.224609 0.225260 0.225911 0.226562 0.227214 0.227865 0.228516 0.229167 0.229818 0.230469 0.231120 0.231771 0.232422 0.233073 0.233724 0.234375 0.235026 0.235677
       0.33540        0.33540        0.33540        0.33540        0.33540        0.33540        0.33540        0.33540        0.33540        0.33540        0.33540        0.33540        0.33540        0.33540        0.33540        0.33540        0.33540        0.33540        0.33540        0.33540        0.33540        0.33540        0.33540        0.33540        0.33540        0.33540        0.33540        0.33540        0.33540        0.33540        0.33540        0.33540        0.33540        0.33540        0.33540        0.33540        0.33540        0.33540        0.33540        0.33540        0.33540        0.33540        0.33540        0.33540        0.33540        0.33540        0.33540        0.33540        0.33540        0.33540        0.33540        0.42125        0.56215        0.34918       -0.19950       -0.45526       -0.55625       -0.65410       -0.72594       -0.74259       -0.84574       -0.90874       -0.70528       -0.86634       -0.84130       -0.99053       -1.02745       -0.91048       -0.86945       -0.81588       -0.74158       -0.66690       -0.58040       -0.48719       -0.41727       -0.19137       -0.08311        0.01166        0.23934        0.24552        0.30249        0.36683        0.39472        0.50264        0.53657        0.57136        0.53285        0.47269        0.50863        0.50707        0.42895        0.32006        0.19418        0.16771        0.10170       -0.02005       -0.03445       -0.04047        0.03605       -0.00179        0.05476        0.03116        0.14611        0.18668        0.40334        0.45655        0.55276        0.65633        0.69287        0.71641        0.63849        0.61499        0.52978        0.43791        0.38006        0.26037        0.20613        0.19559        0.08264        0.08111        0.06699        0.06755        0.08329        0.29699        0.40714        0.50915        0.53671        0.57782        0.61286        0.59084        0.58324        0.58495        0.56255        0.46419        0.28916        0.24855        0.22804        0.12574        0.07404        0.13837        0.16759        0.27034        0.34840        0.41139        0.47012        0.53302        0.60429        0.55078        0.50890        0.49087        0.35318        0.24503        0.23449        0.16035        0.15581        0.20273        0.24938        0.26697        0.30942        0.41540        0.44264        0.50234        0.45696        0.44833        0.47292        0.37670        0.31863        0.27421        0.23822        0.21428        0.21873        0.22939        0.32421        0.42775        0.41824        0.48638        0.54756        0.44378        0.41248        0.35407        0.29913        0.24748        0.25781        0.26626        0.28238        0.32013        0.33365        0.41417        0.46762        0.43435        0.45006        0.35685        0.36968        0.34964        0.24709        0.23233        0.23212        0.29920        0.36248        0.36412        0.38626        0.43219        0.43147        0.36264        0.33625        0.31154        0.33798        0.29642        0.27079        0.26879        0.33101        0.35825        0.37244        0.39389        0.37493        0.40320        0.38269        0.29783        0.27830        0.30908        0.33480        0.35712        0.35682        0.40430        0.33555        0.36868        0.38299        0.32229        0.34322        0.29977        0.28817        0.33362        0.32573        0.31632        0.33351        0.35625        0.31799        0.33562        0.30185        0.30525        0.27817        0.30125        0.29531        0.32986        0.36716        0.35709        0.33901        0.29404        0.27989        0.27994        0.31816        0.29337        0.30511        0.35820        0.36364        0.33325        0.30289        0.30352        0.30506        0.26689        0.28680        0.29470        0.31619        0.35029        0.32638        0.28404        0.32319        0.31016        0.30284        0.34995        0.33763        0.30535        0.32964        0.28755        0.31713        0.28042        0.30162        0.29117        0.31221        0.36994        0.32683        0.34268        0.30218        0.30939        0.32368        0.32180        0.29246        0.29070        0.32645        0.31797        0.31569        0.30610        0.30741        0.29166        0.29710        0.31665        0.32378        0.32738        0.33282        0.32625        0.28463        0.27028        0.26685        0.26283        0.35427        0.31044        0.35748        0.29537        0.26437        0.28607        0.35070        0.30034        0.28169        0.27229        0.30656        0.28052        0.26371        0.30898        0.27142        0.26624        0.30163        0.30766        0.33165        0.32808        0.29843        0.26436        0.25333        0.24945        0.26171        0.28408        0.33617        0.27810        0.19960        0.28996        0.26659        0.29464        0.22986        0.30653        0.30240        0.31074        0.27481        0.26522        0.26752        0.22649        0.28918        0.33293        0.36100        0.24679        0.26319        0.21859        0.22638        0.20586        0.33148        0.23412        0.21943        0.13253        0.24166        0.25447        0.21385        0.14218        0.03606       -0.60741       -0.88197
3.073333 3.034787 2.996490 2.958442 2.920642 2.883092 2.845790 2.808737 2.771933 2.735378 2.699072 2.663015 2.627206 2.591647 2.556336 2.521274 2.486461 2.451897 2.417581 2.383515 2.349697 2.316129 2.282809 2.249738 2.216916 2.184343 2.152018 2.119943 2.088116 2.056539 2.025210 1.994130 1.963298 1.932716 1.902383 1.872298 1.842463 1.812876 1.783538 1.754449 1.725608 1.697017 1.668675 1.640581 1.612736 1.585140 1.557793 1.530695 1.503846 1.477245 1.450894 1.485871 1.582511 1.522786 0.849282 0.585549 0.442111 0.374570 0.283513 0.200831 0.159815 -0.059850 0.188437 0.051796 -0.043966 -0.124232 -0.245631 -0.157614 -0.073762 -0.094848 -0.088894 0.028259 0.020593 0.212736 0.099122 0.342990 0.453774 0.474313 0.750662 0.684887 0.681155 0.826653 0.796419 0.828365 0.919734 0.859909 0.895193 0.727994 0.804810 0.841673 0.673164 0.599823 0.440006 0.419344 0.354537 0.180173 0.177433 0.116135 0.212333 0.118240 0.213920 0.104082 0.229123 0.235201 0.461755 0.413890 0.593196 0.628814 0.672169 0.729830 0.627743 0.609468 0.471400 0.424698 0.309258 0.274775 0.108479 0.171322 -0.017990 0.035093 -0.035338 -0.038000 -0.034189 0.041592 0.290820 0.306972 0.385447 0.333939 0.412756 0.449123 0.430980 0.431824 0.371739 0.360830 0.143061 0.091435 0.067956 -0.002567 -0.147181 -0.035888 -0.071711 0.045476 0.102753 0.171471 0.243380 0.250942 0.344118 0.433825 0.318982 0.378778 0.266027 0.144865 0.065719 0.055269 0.008082 0.039666 0.074895 0.109306 0.119040 0.198288 0.251242 0.305844 0.309699 0.240349 0.266675 0.236404 0.112936 0.090196 0.044158 0.038698 0.008875 0.005527 0.043350 0.175011 0.194179 0.198722 0.316960 0.201758 0.217648 0.095022 0.084014 -0.004153 -0.006437 0.007622 0.011232 0.043245 0.051826 0.093265 0.159701 0.155726 0.218181 0.123532 0.080465 0.104220 0.044348 -0.067825 -0.026433 0.010800 0.052651 0.068638 0.084671 0.155018 0.131637 0.153151 0.041361 0.056937 0.050108 0.051180 0.021521 -0.016983 0.031852 0.041122 0.084885 0.111388 0.098790 0.106859 0.123813 0.068120 0.006154 0.004210 0.030766 0.079268 0.061594 0.109000 0.097992 0.055430 0.112303 0.067255 0.038180 0.074989 -0.027662 0.024562 0.059292 0.033593 0.039381 0.045164 0.066940 0.052385 0.049676 0.008938 0.021815 -0.012502 0.030395 0.000375 0.056350 0.077566 0.066294 0.036713 -0.016470 -0.013189 -0.011453 0.026714 -0.003177 0.013726 0.069939 0.064950 -0.013817 0.011965 -0.007324 0.006577 -0.043055 -0.018424 -0.010759 0.023992 0.035092 0.013205 -0.023305 0.009384 -0.010181 0.000079 0.042764 0.017701 0.022021 -0.086360 0.012068 -0.011142 -0.043578 -0.010738 -0.025209 0.021211 0.064317 0.005149 0.009492 0.002777 0.012017 0.012701 0.028081 -0.016112 -0.004898 0.023262 0.036203 0.015439 0.010408 0.051969 -0.017728 -0.000299 0.030920 0.016958 0.065435 0.056466 0.024147 0.002194 -0.004494 -0.031881 0.001967 0.077490 -0.004071 0.081133 -0.013211 -0.021040 -0.014480 0.083389 -0.007823 0.000236 -0.006672 0.032461 -0.005684 0.001613 0.026747 0.005995 -0.004516 0.023280 0.055740 0.089736 0.056453 0.034094 0.010442 -0.019484 -0.004672 0.000626 0.005192 0.096712 -0.024895 -0.092222 0.053121 -0.017380 0.037845 -0.062833 0.029093 0.007256 0.009999 -0.015997 -0.017467 -0.027739 -0.058555 0.022866 0.048439 0.079589 -0.098410 0.027996 -0.053994 -0.000587 -0.085177 0.133639 0.023378 0.059298 -0.055834 0.121609 0.253434 0.180008 0.088495 0.040827 -0.828585
0.072396 0.073047 0.074999 0.078251 0.082803 0.088653 0.095800 0.104238 0.113966 0.124978 0.137267 0.150825 0.165641 0.181703 0.198996 0.217502 0.237197 0.258055 0.280047 0.303137 0.327284 0.352440 0.378551 0.405558 0.433392 0.461976 0.491225 0.521044 0.551329 0.581966 0.612830 0.643785 0.674685 0.705370 0.735671 0.765407 0.794386 0.822403 0.849245 0.874687 0.898496 0.920429 0.940238 0.957666 0.972456 0.984343 0.993068 0.998368 0.999988 0.997680 0.991207 0.980342 0.964881 0.944637 0.919449 0.889186 0.853749 0.813078 0.767154 0.716003 0.659701 0.598381 0.532229 0.461494 0.386488 0.307590 0.225243 0.139959 0.052320 0.037029 0.127377 0.217952 0.307925 0.396418 0.482510 0.565244 0.643639 0.716704 0.783445 0.842883 0.894072 0.936107 0.968151 0.989447 0.999336 0.997278 0.982868 0.955856 0.916157 0.863873 0.799297 0.722932 0.635491 0.537902 0.431309 0.317068 0.196732 0.072045 0.055087 0.182611 0.308364 0.430105 0.545555 0.652438 0.748534 0.831723 0.900041 0.951732 0.985296 0.999546 0.993649 0.967171 0.920111 0.852928 0.766561 0.662436 0.542455 0.408986 0.264826 0.113158 0.042515 0.198436 0.350682 0.495267 0.628241 0.745805 0.844430 0.920970 0.972778 0.997810 0.994723 0.962949 0.902762 0.815305 0.702611 0.567576 0.413917 0.246089 0.069172 0.111263 0.289322 0.458982 0.614288 0.749577 0.859693 0.940200 0.987587 0.999441 0.974593 0.913225 0.816923 0.688688 0.532875 0.355087 0.161996 0.038874 0.239438 0.431355 0.606385 0.756747 0.875488 0.956824 0.996458 0.991839 0.942358 0.849462 0.716668 0.549494 0.355265 0.142841 0.077760 0.295820 0.500429 0.681037 0.828021 0.933216 0.990420 0.995792 0.948167 0.849219 0.703482 0.518213 0.303089 0.069743 0.168827 0.398958 0.607118 0.780698 0.908817 0.983047 0.998024 0.951892 0.846552 0.687683 0.484514 0.249356 0.003081 0.256580 0.494438 0.700572 0.860634 0.963058 0.999953 0.967791 0.867805 0.706066 0.493216 0.243850 0.024417 0.292154 0.539500 0.747647 0.900312 0.985067 0.994435 0.926634 0.785908 0.582391 0.331473 0.052731 0.231535 0.498071 0.724560 0.891534 0.984121 0.993453 0.917624 0.762076 0.539350 0.268185 0.027949 0.322831 0.589783 0.804103 0.945408 0.999663 0.960689 0.830988 0.621753 0.352064 0.047250 0.263403 0.549416 0.782138 0.937654 0.999354 0.959832 0.821911 0.598649 0.312250 0.007997 0.328636 0.615505 0.837394 0.969523 0.996427 0.913924 0.729888 0.463694 0.144354 0.192537 0.508684 0.767462 0.938201 0.999954 0.944229 0.776322 0.515052 0.190846 0.157665 0.488159 0.759756 0.938134 0.999998 0.936302 0.753763 0.474402 0.133102 0.226611 0.558016 0.817293 0.969382 0.992902 0.883349 0.654134 0.335192 0.030718 0.393613 0.703066 0.915257 0.999319 0.942034 0.750143 0.449865 0.083547 0.296125 0.633610 0.878683 0.994010 0.961060 0.783334 0.486349 0.114247 0.276565 0.625862 0.878904 0.995142 0.954944 0.763189 0.449041 0.061802 0.336606 0.681468 0.915814 0.999991 0.918639 0.683793 0.333451 0.074254 0.470547 0.787542 0.969946 0.984948 0.828412 0.526219 0.130360 0.289779 0.659407 0.911682 0.999986 0.906806 0.647577 0.268508 0.161309 0.562315 0.859173 0.995067 0.942851 0.710853 0.341979 0.093833 0.512651 0.832648 0.990215 0.952881 0.726406 0.354386 0.089747 0.516962 0.840411 0.993196 0.942545 0.697220 0.306543 0.149141 0.574726 0.880130 0.999565 0.906027 0.617855 0.195656 0.270076 0.678095
1.000000 1.000000 1.000000 1.000000 1.000000 1.000000 1.000000 1.000000 1.000000 1.000000 1.000000 1.000000 1.000000 1.000000 1.000000 1.000000 1.000000 1.000000 1.000000 1.000000 1.000000 1.000000 1.000000 1.000000 1.000000 1.000000 1.000000 1.000000 1.000000 1.000000 1.000000 1.000000 1.000000 1.000000 1.000000 1.000000 1.000000 1.000000 1.000000 1.000000 1.000000 1.000000 1.000000 1.000000 1.000000 1.000000 1.000000 1.000000 1.000000 1.000000 1.000000 1.000000 0.930366 0.930366 0.930366 0.930366 0.930366 0.930366 0.930366 0.930366 0.930366 0.930366 0.930366 0.930366 0.930366 0.930366 0.930366 0.930366 0.930366 0.930366 0.930366 0.930366 0.930366 0.930366 0.930366 0.930366 0.930366 0.930366 0.930366 0.930366 0.930366 0.930366 0.930366 0.930366 0.930366 0.918703 0.916692 0.917765 0.918870 0.918784 0.918273 0.917946 0.918224 0.919705 0.921644 0.943177 0.945528 0.946196 0.947450 0.948898 0.951430 0.949544 0.953802 0.964360 0.963484 0.964414 0.958338 0.959502 0.958939 0.958250 0.959982 0.959950 0.958440 0.956667 0.955298 0.954855 0.954578 0.956204 0.956720 0.956883 0.957350 0.957289 0.957138 0.957090 0.957381 0.959609 0.958743 0.957816 0.963473 0.962039 0.963957 0.963930 0.964641 0.965366 0.965581 0.965764 0.962139 0.961753 0.960997 0.948248 0.941734 0.938661 0.941084 0.944187 0.941480 0.936913 0.938228 0.940888 0.939443 0.939009 0.930775 0.928489 0.909412 0.900143 0.888632 0.889053 0.891055 0.892152 0.890111 0.881597 0.871538 0.867598 0.869211 0.864348 0.859415 0.876126 0.871115 0.871730 0.875778 0.878653 0.883946 0.878449 0.874353 0.870220 0.866220 0.862601 0.864952 0.869574 0.872886 0.860690 0.853069 0.856524 0.846429 0.840942 0.847888 0.849829 0.845619 0.844381 0.845198 0.844936 0.837052 0.832738 0.834581 0.843986 0.844499 0.834131 0.829966 0.823596 0.823596 0.820418 0.821633 0.820828 0.817572 0.810735 0.823336 0.793016 0.815277 0.811477 0.798871 0.784493 0.772658 0.780075 0.792027 0.795006 0.791875 0.772791 0.771529 0.770452 0.750402 0.756210 0.763276 0.761227 0.749991 0.727197 0.734661 0.743112 0.736416 0.728047 0.730355 0.732068 0.699500 0.712921 0.716857 0.704767 0.718651 0.717625 0.709312 0.706677 0.707545 0.707258 0.697793 0.659530 0.660831 0.668324 0.658590 0.607355 0.604578 0.606445 0.603121 0.530478 0.535591 0.523714 0.524529 0.508781 0.536672 0.516195 0.513025 0.539123 0.492092 0.402256 0.415806 0.411687 0.425169 0.429721 0.409009 0.358848 0.373208 0.401949 0.382443 0.355595 0.302993 0.341673 0.360268 0.399088 0.387921 0.398575 0.424503 0.408186 0.389207 0.362179 0.380803 0.372216 0.410205 0.357963 0.327419 0.319740 0.278247 0.292274 0.289159 0.273162 0.225156 0.247127 0.200809 0.223426 0.204646 0.187675 0.189555 0.221198 0.213553 0.218498 0.203547 0.235445 0.225745 0.225554 0.217540 0.229780 0.258487 0.257315 0.243066 0.252739 0.213935 0.215885 0.200455 0.183602 0.249592 0.225054 0.208021 0.202811 0.198484 0.213984 0.178669 0.139436 0.088030 0.094022 0.081069 0.055143 0.030023 -0.004288 -0.007442 -0.027531 -0.023021 -0.003542 -0.014947 -0.012644 -0.012644 -0.012644 -0.012644 -0.048539 -0.048539 -0.048539 -0.048539 -0.048539 -0.048539 -0.048539 -0.048539 -0.048539 -0.048539 -0.048539 -0.048539 -0.048539 -0.048539 -0.026028 -0.026028 -0.026028 -0.026028 -0.026028 -0.026028 -0.026028 -0.026028 -0.026028 -0.026028 -0.026028 -0.026028
0.000000 0.000000 0.000000 0.000000 0.000000 0.000000 0.000000 0.000000 0.000000 0.000000 0.000000 0.000000 0.000000 0.000000 0.000000 0.000000 0.000000 0.000000 0.000000 0.000000 0.000000 0.000000 0.000000 0.000000 0.000000 0.000000 0.000000 0.000000 0.000000 0.000000 0.000000 0.000000 0.000000 0.000000 0.000000 0.000000 0.000000 0.000000 0.000000 0.000000 0.000000 0.000000 0.000000 0.000000 0.000000 0.000000 0.000000 0.000000 0.000000 0.000000 0.000000 0.000000 0.209657 0.209657 0.209657 0.209657 0.209657 0.209657 0.209657 0.209657 0.209657 0.209657 0.209657 0.209657 0.209657 0.209657 0.209657 0.209657 0.209657 0.209657 0.209657 0.209657 0.209657 0.209657 0.209657 0.209657 0.209657 0.209657 0.209657 0.209657 0.209657 0.209657 0.209657 0.209657 0.209657 0.244339 0.244339 0.244339 0.244339 0.244339 0.244339 0.244339 0.244339 0.244339 0.244339 0.244339 0.244339 0.244339 0.244339 0.244339 0.244339 0.244339 0.244339 0.244339 0.244339 0.244339 0.244339 0.244339 0.244339 0.244339 0.260378 0.260378 0.260378 0.260378 0.260378 0.260378 0.260378 0.260378 0.260378 0.260378 0.260378 0.260378 0.260378 0.260378 0.260378 0.260378 0.260378 0.260378 0.260378 0.260378 0.269680 0.269680 0.269680 0.269680 0.269680 0.269680 0.269680 0.269680 0.269680 0.269680 0.269680 0.269680 0.269680 0.269680 0.269680 0.269680 0.269680 0.269680 0.269680 0.269680 0.269680 0.269680 0.269680 0.269680 0.269680 0.269680 0.269680 0.269680 0.269680 0.269680 0.269680 0.269680 0.269680 0.280056 0.280056 0.280056 0.280056 0.280056 0.280056 0.280056 0.280056 0.280056 0.280056 0.280056 0.280056 0.280056 0.280056 0.280056 0.280056 0.280056 0.280056 0.280056 0.280056 0.280056 0.280056 0.280056 0.280056 0.280056 0.280056 0.280056 0.274721 0.274721 0.274721 0.274721 0.274721 0.274721 0.274721 0.274721 0.274721 0.274721 0.274721 0.274721 0.274721 0.285714 0.285714 0.285714 0.285714 0.285714 0.285714 0.285714 0.285714 0.285714 0.285714 0.285714 0.280056 0.280056 0.280056 0.280056 0.280056 0.280056 0.280056 0.280056 0.280056 0.280056 0.280056 0.274721 0.274721 0.274721 0.274721 0.274721 0.274721 0.274721 0.274721 0.274721 0.274721 0.274721 0.280056 0.280056 0.280056 0.280056 0.280056 0.280056 0.280056 0.280056 0.280056 0.280056 0.285714 0.285714 0.285714 0.285714 0.285714 0.285714 0.285714 0.285714 0.285714 0.269680 0.269680 0.269680 0.269680 0.269680 0.269680 0.269680 0.269680 0.269680 0.269680 0.291730 0.291730 0.291730 0.291730 0.291730 0.291730 0.291730 0.291730 0.269680 0.269680 0.269680 0.269680 0.269680 0.269680 0.269680 0.269680 0.269680 0.264906 0.264906 0.264906 0.264906 0.264906 0.264906 0.264906 0.264906 0.264906 0.274721 0.274721 0.274721 0.274721 0.274721 0.274721 0.274721 0.274721 0.269680 0.269680 0.269680 0.269680 0.269680 0.269680 0.269680 0.269680 0.269680 0.269680 0.269680 0.269680 0.269680 0.269680 0.269680 0.269680 0.280056 0.280056 0.280056 0.280056 0.280056 0.280056 0.280056 0.274721 0.274721 0.274721 0.274721 0.274721 0.274721 0.274721 0.256074 0.256074 0.256074 0.256074 0.256074 0.256074 0.256074 0.256074 0.264906 0.264906 0.264906 0.264906 0.264906 0.264906 0.264906 0.264906 0.264906 0.264906 0.264906 0.264906 0.264906 0.264906 0.260378 0.260378 0.260378 0.260378 0.260378 0.260378 0.260378 0.260378 0.260378 0.260378 0.260378 0.260378
