# Output from CTFFind version 4.1.9, run on 2019-11-02 17:43:28
# Input file: stack11_bm3d_averaged_1_1.5_0_50_half.mrc ; Number of micrographs: 1
# Pixel size: 3.000 Angstroms ; acceleration voltage: 300.0 keV ; spherical aberration: 0.00 mm ; amplitude contrast: 0.07
# Box size: 512 pixels ; min. res.: 30.0 Angstroms ; max. res.: 5.0 Angstroms ; min. def.: 5000.0 um; max. def. 50000.0 um; num. frames averaged: 1
# 6 lines per micrograph: #1 - spatial frequency (1/Angstroms); #2 - 1D rotational average of spectrum (assuming no astigmatism); #3 - 1D rotational average of spectrum; #4 - CTF fit; #5 - cross-correlation between spectrum and CTF fit; #6 - 2sigma of expected cross correlation of noise
0.000000 0.000651 0.001302 0.001953 0.002604 0.003255 0.003906 0.004557 0.005208 0.005859 0.006510 0.007161 0.007812 0.008464 0.009115 0.009766 0.010417 0.011068 0.011719 0.012370 0.013021 0.013672 0.014323 0.014974 0.015625 0.016276 0.016927 0.017578 0.018229 0.018880 0.019531 0.020182 0.020833 0.021484 0.022135 0.022786 0.023438 0.024089 0.024740 0.025391 0.026042 0.026693 0.027344 0.027995 0.028646 0.029297 0.029948 0.030599 0.031250 0.031901 0.032552 0.033203 0.033854 0.034505 0.035156 0.035807 0.036458 0.037109 0.037760 0.038411 0.039062 0.039714 0.040365 0.041016 0.041667 0.042318 0.042969 0.043620 0.044271 0.044922 0.045573 0.046224 0.046875 0.047526 0.048177 0.048828 0.049479 0.050130 0.050781 0.051432 0.052083 0.052734 0.053385 0.054036 0.054688 0.055339 0.055990 0.056641 0.057292 0.057943 0.058594 0.059245 0.059896 0.060547 0.061198 0.061849 0.062500 0.063151 0.063802 0.064453 0.065104 0.065755 0.066406 0.067057 0.067708 0.068359 0.069010 0.069661 0.070312 0.070964 0.071615 0.072266 0.072917 0.073568 0.074219 0.074870 0.075521 0.076172 0.076823 0.077474 0.078125 0.078776 0.079427 0.080078 0.080729 0.081380 0.082031 0.082682 0.083333 0.083984 0.084635 0.085286 0.085938 0.086589 0.087240 0.087891 0.088542 0.089193 0.089844 0.090495 0.091146 0.091797 0.092448 0.093099 0.093750 0.094401 0.095052 0.095703 0.096354 0.097005 0.097656 0.098307 0.098958 0.099609 0.100260 0.100911 0.101562 0.102214 0.102865 0.103516 0.104167 0.104818 0.105469 0.106120 0.106771 0.107422 0.108073 0.108724 0.109375 0.110026 0.110677 0.111328 0.111979 0.112630 0.113281 0.113932 0.114583 0.115234 0.115885 0.116536 0.117188 0.117839 0.118490 0.119141 0.119792 0.120443 0.121094 0.121745 0.122396 0.123047 0.123698 0.124349 0.125000 0.125651 0.126302 0.126953 0.127604 0.128255 0.128906 0.129557 0.130208 0.130859 0.131510 0.132161 0.132812 0.133464 0.134115 0.134766 0.135417 0.136068 0.136719 0.137370 0.138021 0.138672 0.139323 0.139974 0.140625 0.141276 0.141927 0.142578 0.143229 0.143880 0.144531 0.145182 0.145833 0.146484 0.147135 0.147786 0.148438 0.149089 0.149740 0.150391 0.151042 0.151693 0.152344 0.152995 0.153646 0.154297 0.154948 0.155599 0.156250 0.156901 0.157552 0.158203 0.158854 0.159505 0.160156 0.160807 0.161458 0.162109 0.162760 0.163411 0.164062 0.164714 0.165365 0.166016 0.166667 0.167318 0.167969 0.168620 0.169271 0.169922 0.170573 0.171224 0.171875 0.172526 0.173177 0.173828 0.174479 0.175130 0.175781 0.176432 0.177083 0.177734 0.178385 0.179036 0.179688 0.180339 0.180990 0.181641 0.182292 0.182943 0.183594 0.184245 0.184896 0.185547 0.186198 0.186849 0.187500 0.188151 0.188802 0.189453 0.190104 0.190755 0.191406 0.192057 0.192708 0.193359 0.194010 0.194661 0.195312 0.195964 0.196615 0.197266 0.197917 0.198568 0.199219 0.199870 0.200521 0.201172 0.201823 0.202474 0.203125 0.203776 0.204427 0.205078 0.205729 0.206380 0.207031 0.207682 0.208333 0.208984 0.209635 0.210286 0.210938 0.211589 0.212240 0.212891 0.213542 0.214193 0.214844 0.215495 0.216146 0.216797 0.217448 0.218099 0.218750 0.219401 0.220052 0.220703 0.221354 0.222005 0.222656 0.223307 0.223958 0.224609 0.225260 0.225911 0.226562 0.227214 0.227865 0.228516 0.229167 0.229818 0.230469 0.231120 0.231771 0.232422 0.233073 0.233724 0.234375 0.235026 0.235677
       0.31881        0.31881        0.31881        0.31881        0.31881        0.31881        0.31881        0.31881        0.31881        0.31881        0.31881        0.31881        0.31881        0.31881        0.31881        0.31881        0.31881        0.31881        0.31881        0.31881        0.31881        0.31881        0.31881        0.31881        0.31881        0.31881        0.31881        0.31881        0.31881        0.31881        0.31881        0.31881        0.31881        0.31881        0.31881        0.31881        0.31881        0.31881        0.31881        0.31881        0.31881        0.31881        0.31881        0.31881        0.31881        0.31881        0.31881        0.31881        0.31881        0.31881        0.31881        0.68370        0.86723        0.52423        0.09138       -0.05847       -0.42054       -0.20238       -0.29461       -0.11464       -0.07169       -0.11680       -0.06455       -0.20300       -0.23025       -0.25297       -0.32658       -0.33639       -0.48182       -0.37844       -0.46154       -0.44522       -0.41825       -0.46322       -0.53128       -0.55513       -0.58245       -0.61623       -0.57263       -0.41036       -0.37615       -0.32606       -0.30839       -0.21132       -0.19978        0.02030        0.08336        0.11561        0.22963        0.37116        0.44358        0.51214        0.55973        0.55744        0.56653        0.69590        0.80981        0.73229        0.73164        0.66063        0.57644        0.48168        0.41056        0.49590        0.38077        0.21418        0.07944        0.05464        0.02226       -0.05870       -0.03129       -0.01355       -0.06421       -0.00830       -0.01351        0.21663        0.25168        0.28728        0.42735        0.45423        0.40563        0.54502        0.62492        0.69418        0.75547        0.68679        0.65009        0.69559        0.58257        0.49793        0.41999        0.28987        0.19420        0.15552        0.10624        0.04318        0.01440        0.00503        0.07765        0.13151        0.20900        0.28101        0.39588        0.42390        0.50759        0.60349        0.63011        0.62592        0.62897        0.55817        0.44989        0.45241        0.35466        0.23023        0.17701        0.14803        0.11970        0.12370        0.07881        0.10912        0.24086        0.26567        0.34943        0.36371        0.44920        0.51462        0.53900        0.54974        0.47285        0.43613        0.39140        0.35962        0.30468        0.25358        0.20378        0.19245        0.16806        0.19501        0.18343        0.27608        0.33521        0.37221        0.43145        0.45912        0.47870        0.43732        0.39298        0.41657        0.37090        0.28579        0.26592        0.22110        0.21758        0.19524        0.22242        0.23344        0.32993        0.37335        0.37073        0.46377        0.43585        0.43494        0.42955        0.39660        0.34479        0.32327        0.27539        0.25259        0.23993        0.27512        0.27582        0.30382        0.30906        0.33708        0.32662        0.40638        0.42117        0.37742        0.34780        0.37162        0.28564        0.28437        0.26034        0.28442        0.26367        0.27900        0.29107        0.31060        0.34897        0.36572        0.36429        0.34338        0.35570        0.28837        0.31915        0.26920        0.24303        0.29331        0.28726        0.31300        0.31007        0.32669        0.33329        0.31729        0.31716        0.28681        0.29490        0.26903        0.28365        0.25955        0.30336        0.28628        0.27340        0.30734        0.31677        0.32431        0.28089        0.30516        0.28176        0.25823        0.25009        0.22080        0.28260        0.27727        0.32962        0.31257        0.31773        0.32031        0.31381        0.27786        0.29594        0.32699        0.26836        0.25845        0.29834        0.29014        0.33592        0.33000        0.34283        0.32895        0.30507        0.28211        0.27443        0.25288        0.22637        0.28228        0.30995        0.29732        0.28375        0.29542        0.27488        0.32894        0.32007        0.25057        0.22025        0.28320        0.32310        0.27556        0.30670        0.32538        0.32869        0.31301        0.31627        0.34087        0.30787        0.29032        0.25824        0.29502        0.35885        0.36211        0.27092        0.26485        0.25946        0.29798        0.22377        0.29126        0.23256        0.24776        0.33595        0.32619        0.34530        0.29687        0.25045        0.24090        0.24162        0.22846        0.20324        0.23655        0.27504        0.31111        0.25373        0.31594        0.31965        0.27228        0.26418        0.20500        0.16209        0.20477        0.22474        0.21053        0.21240        0.22803        0.19184        0.25138        0.34817        0.31448        0.32885        0.23620        0.21577        0.21121        0.28668        0.29167        0.13302        0.21206        0.23223        0.11450        0.19069        0.11597        0.13056        0.19464        0.09157       -0.11288       -0.56333
2.599894 2.572695 2.545644 2.518741 2.491985 2.465377 2.438917 2.412605 2.386440 2.360423 2.334554 2.308833 2.283259 2.257833 2.232555 2.207424 2.182441 2.157606 2.132919 2.108379 2.083987 2.059743 2.035647 2.011698 1.987897 1.964244 1.940738 1.917380 1.894170 1.871108 1.848193 1.825426 1.802807 1.780336 1.758012 1.735836 1.713808 1.691927 1.670195 1.648610 1.627172 1.605883 1.584741 1.563747 1.542900 1.522202 1.501651 1.481247 1.460992 1.440884 1.420924 1.639717 2.049392 1.622450 1.135566 0.993274 0.424440 0.815186 0.561697 0.835693 0.778168 0.791626 0.751960 0.712694 0.567228 0.519397 0.486474 0.439611 0.212445 0.381241 0.201356 0.309317 0.236767 0.182836 0.137141 0.011509 0.040020 -0.011184 -0.057016 0.106239 0.208390 0.192053 0.159253 0.328420 0.194101 0.491979 0.586449 0.561123 0.599343 0.873055 0.811810 0.939967 0.887239 0.976450 0.945361 1.068368 1.149071 1.069181 1.121404 0.940408 0.939372 0.780069 0.652121 0.773022 0.708409 0.469379 0.310527 0.249958 0.225990 0.147226 0.092578 0.131100 0.077357 0.141735 0.058680 0.262928 0.377737 0.350738 0.479107 0.568538 0.457380 0.558584 0.698200 0.737568 0.767549 0.730269 0.722237 0.707325 0.626219 0.562690 0.421774 0.288097 0.206823 0.078411 0.125168 -0.047088 -0.032184 -0.076328 -0.042537 -0.002093 0.147601 0.086745 0.288590 0.282629 0.360380 0.456658 0.520827 0.511682 0.514736 0.510080 0.333321 0.310023 0.279488 0.099687 0.044608 -0.020740 -0.023030 -0.043232 -0.087546 -0.104308 0.003737 0.062329 0.128187 0.155137 0.229270 0.324419 0.316990 0.426512 0.390430 0.280136 0.234756 0.237375 0.190853 0.107888 0.078750 0.013025 0.004652 0.011309 -0.017356 0.066212 0.147882 0.143183 0.240782 0.253817 0.312433 0.241911 0.217504 0.180351 0.214758 0.135565 0.045530 0.027488 -0.009904 -0.009887 -0.033551 0.022953 0.019277 0.165931 0.134537 0.177726 0.238823 0.195346 0.185744 0.198188 0.143008 0.095482 0.054637 0.051502 -0.022973 0.005112 0.027913 0.056388 0.056653 0.080213 0.090101 0.118118 0.145164 0.192219 0.082395 0.100991 0.077942 0.011828 0.007077 0.008444 0.003238 0.019041 0.006101 0.028165 0.067299 0.087550 0.123540 0.055503 0.113526 0.058530 0.015599 0.060119 -0.034265 -0.010555 0.036922 0.004845 0.063207 0.049584 0.051680 0.081146 0.052352 0.041612 0.026701 0.009897 0.021606 0.009399 -0.012384 0.069046 -0.008825 0.019574 0.059805 0.055550 0.048811 0.044082 0.045765 0.020162 -0.002750 -0.030780 -0.011482 0.028120 0.037176 0.083057 0.064311 0.071871 0.083744 0.071453 0.038923 0.079399 0.089564 0.017259 0.022534 0.072499 0.053330 0.104894 0.103543 0.093030 0.124640 0.073341 0.040984 0.046363 -0.003652 0.009646 0.066913 0.085078 0.052337 0.048790 0.023480 0.024610 0.103185 0.053238 -0.040980 -0.043631 0.037822 0.087489 -0.001050 0.033758 0.079324 0.083021 0.050384 0.047434 0.082553 0.044998 0.038235 -0.037563 0.041210 0.124623 0.076373 -0.024761 -0.023134 -0.037844 0.053702 -0.102058 0.036456 -0.081242 -0.033635 0.061049 0.046780 0.033497 -0.030311 -0.050940 -0.065218 -0.083489 -0.062654 -0.088408 -0.081834 -0.014847 0.056135 -0.035303 0.064061 0.013952 -0.040259 0.041588 -0.102165 -0.103053 -0.065918 -0.009097 -0.025819 -0.046022 0.019581 -0.021921 0.029174 0.211604 0.003468 0.181654 0.046360 0.220135 0.234729 0.325117 0.282284 0.098648 0.214590 0.276841 0.058642 0.207001 0.117434 0.118332 0.277094 0.093642 -0.586039
0.072396 0.072899 0.074406 0.076919 0.080436 0.084956 0.090478 0.097000 0.104521 0.113037 0.122545 0.133041 0.144519 0.156974 0.170397 0.184778 0.200108 0.216374 0.233559 0.251648 0.270619 0.290451 0.311116 0.332586 0.354828 0.377804 0.401472 0.425788 0.450700 0.476153 0.502084 0.528427 0.555110 0.582053 0.609172 0.636373 0.663560 0.690627 0.717461 0.743945 0.769952 0.795350 0.820001 0.843758 0.866471 0.887983 0.908132 0.926750 0.943666 0.958708 0.971697 0.982457 0.990810 0.996577 0.999584 0.999660 0.996638 0.990359 0.980673 0.967440 0.950532 0.929836 0.905256 0.876715 0.844156 0.807547 0.766879 0.722174 0.673481 0.620883 0.564494 0.504467 0.440990 0.374289 0.304630 0.232321 0.157707 0.081175 0.003154 0.075892 0.155459 0.235008 0.313967 0.391737 0.467692 0.541183 0.611549 0.678118 0.740214 0.797166 0.848313 0.893017 0.930665 0.960684 0.982547 0.995784 0.999990 0.994838 0.980082 0.955573 0.921262 0.877210 0.823594 0.760714 0.688991 0.608979 0.521357 0.426935 0.326647 0.221544 0.112794 0.001664 0.110489 0.222231 0.332069 0.438473 0.539892 0.634783 0.721630 0.798975 0.865441 0.919765 0.960818 0.987639 0.999458 0.995719 0.976104 0.940551 0.889268 0.822748 0.741772 0.647410 0.541015 0.424219 0.298907 0.167198 0.031414 0.105958 0.242306 0.374941 0.501155 0.618270 0.723705 0.815029 0.890030 0.946770 0.983646 0.999441 0.993370 0.965122 0.914888 0.843380 0.751841 0.642033 0.516225 0.377152 0.227971 0.072197 0.086374 0.243751 0.395846 0.538582 0.668007 0.780402 0.872402 0.941108 0.984182 0.999947 0.987460 0.946572 0.877966 0.783174 0.664557 0.525278 0.369224 0.200921 0.025413 0.151886 0.325344 0.489296 0.638230 0.766979 0.870910 0.946105 0.989526 0.999156 0.974108 0.914702 0.822499 0.700292 0.552043 0.382787 0.198474 0.005783 0.188114 0.375814 0.549959 0.703539 0.830175 0.924411 0.981960 0.999930 0.976991 0.913485 0.811470 0.674695 0.508492 0.319597 0.115908 0.093836 0.300413 0.494523 0.667207 0.810278 0.916727 0.981087 0.999749 0.971193 0.896130 0.777543 0.620609 0.432515 0.222165 0.000220 0.223576 0.436541 0.628037 0.787852 0.907211 0.979287 0.999624 0.966457 0.880887 0.746909 0.571277 0.363211 0.133952 0.103822 0.336674 0.551166 0.734649 0.876019 0.966429 0.999881 0.973670 0.888647 0.749265 0.563410 0.342012 0.098437 0.152275 0.394334 0.612189 0.791535 0.920288 0.989437 0.993730 0.932124 0.807974 0.628925 0.406502 0.155435 0.107286 0.363537 0.595301 0.785945 0.921458 0.991513 0.990323 0.917182 0.776646 0.578339 0.336363 0.068352 0.205772 0.465247 0.690070 0.862540 0.968704 0.999554 0.951858 0.828560 0.638701 0.396851 0.122042 0.163656 0.436897 0.674955 0.857643 0.969072 0.999100 0.944338 0.808607 0.602775 0.343987 0.054311 0.241092 0.516130 0.746092 0.909893 0.992084 0.984383 0.886609 0.706879 0.461054 0.171432 0.135209 0.430044 0.684901 0.874980 0.981345 0.992870 0.907526 0.732774 0.485049 0.188309 0.128195 0.432751 0.694371 0.885958 0.987192 0.986776 0.883817 0.688135 0.419474 0.105608 0.220433 0.523823 0.771640 0.936497 0.999657 0.953271 0.801483 0.560219 0.255652 0.078532 0.404800 0.685950 0.889418 0.991095 0.978318 0.851580 0.624741 0.323664 0.016606 0.355851 0.653383 0.872979 0.987342 0.981630 0.855530 0.623577 0.313655 0.036231 0.382521 0.681507 0.894862 0.994663 0.967168 0.814878 0.556513 0.224900 0.137076
1.000000 1.000000 1.000000 1.000000 1.000000 1.000000 1.000000 1.000000 1.000000 1.000000 1.000000 1.000000 1.000000 1.000000 1.000000 1.000000 1.000000 1.000000 1.000000 1.000000 1.000000 1.000000 1.000000 1.000000 1.000000 1.000000 1.000000 1.000000 1.000000 1.000000 1.000000 1.000000 1.000000 1.000000 1.000000 1.000000 1.000000 1.000000 1.000000 1.000000 1.000000 1.000000 1.000000 1.000000 1.000000 1.000000 1.000000 1.000000 1.000000 1.000000 1.000000 1.000000 0.926845 0.926845 0.926845 0.918245 0.918245 0.918245 0.918245 0.918245 0.918245 0.918245 0.918245 0.918245 0.918245 0.918245 0.918245 0.918245 0.918245 0.918245 0.918245 0.918245 0.918245 0.918245 0.918245 0.918245 0.918245 0.918245 0.918245 0.918245 0.918245 0.918245 0.918245 0.918245 0.918245 0.918245 0.918245 0.918245 0.918245 0.918245 0.918245 0.918245 0.918245 0.918245 0.918245 0.918245 0.947035 0.948335 0.956308 0.956163 0.955655 0.953588 0.952597 0.952187 0.952087 0.952378 0.953012 0.953877 0.962584 0.963667 0.966394 0.967232 0.967956 0.968610 0.969297 0.970031 0.966670 0.965749 0.965264 0.961391 0.964062 0.963435 0.963563 0.964584 0.964478 0.966244 0.966383 0.965793 0.964901 0.964142 0.963394 0.962956 0.962682 0.963189 0.963504 0.964824 0.967996 0.967486 0.967160 0.967317 0.967423 0.967625 0.968107 0.969845 0.966223 0.966746 0.965065 0.962956 0.966921 0.964253 0.964714 0.965244 0.966734 0.966970 0.963906 0.959221 0.952240 0.951164 0.947326 0.938690 0.936337 0.937505 0.939853 0.940334 0.939354 0.932283 0.932844 0.926719 0.926799 0.930036 0.925384 0.923048 0.924429 0.923170 0.921216 0.920505 0.917612 0.913454 0.910787 0.910651 0.914235 0.916402 0.917747 0.917293 0.912334 0.905631 0.889768 0.886063 0.881518 0.884907 0.873819 0.873575 0.873768 0.870773 0.874764 0.876851 0.877791 0.873138 0.853933 0.831770 0.822079 0.827324 0.833296 0.831626 0.829290 0.822797 0.835762 0.817359 0.830253 0.840802 0.833798 0.834332 0.833158 0.829836 0.823358 0.823156 0.824396 0.824338 0.823064 0.823122 0.817925 0.808569 0.812112 0.768083 0.753721 0.748284 0.753128 0.758553 0.760119 0.758949 0.765850 0.771021 0.767185 0.752482 0.745422 0.736058 0.741175 0.746126 0.750232 0.740896 0.725204 0.713317 0.676782 0.693402 0.718364 0.674572 0.697822 0.707034 0.699446 0.698049 0.690032 0.682556 0.673956 0.677350 0.691409 0.711780 0.728833 0.753277 0.744782 0.735296 0.734779 0.721020 0.706251 0.697310 0.704935 0.686337 0.682056 0.703879 0.703812 0.691672 0.676760 0.656918 0.650740 0.654153 0.660502 0.657469 0.654750 0.635697 0.604882 0.599585 0.624612 0.642435 0.662877 0.645676 0.630196 0.620658 0.592423 0.607696 0.559256 0.558286 0.579026 0.585879 0.561479 0.541646 0.550101 0.570972 0.580979 0.570639 0.540524 0.529575 0.542634 0.568173 0.559431 0.536894 0.543791 0.539579 0.534088 0.475067 0.475424 0.443945 0.418877 0.364321 0.339345 0.337389 0.325137 0.318598 0.289164 0.283979 0.293477 0.301809 0.311007 0.307675 0.288557 0.300114 0.295722 0.282846 0.222678 0.210569 0.200657 0.192291 0.192632 0.172002 0.190530 0.245796 0.246861 0.246861 0.246861 0.246861 0.246861 0.246861 0.257919 0.257919 0.257919 0.257919 0.257919 0.257919 0.257919 0.257919 0.257919 0.269103 0.269103 0.269103 0.269103 0.269103 0.269103 0.269103 0.269103 0.269103 0.269103 0.269103 0.269103 0.269103 0.269103
0.000000 0.000000 0.000000 0.000000 0.000000 0.000000 0.000000 0.000000 0.000000 0.000000 0.000000 0.000000 0.000000 0.000000 0.000000 0.000000 0.000000 0.000000 0.000000 0.000000 0.000000 0.000000 0.000000 0.000000 0.000000 0.000000 0.000000 0.000000 0.000000 0.000000 0.000000 0.000000 0.000000 0.000000 0.000000 0.000000 0.000000 0.000000 0.000000 0.000000 0.000000 0.000000 0.000000 0.000000 0.000000 0.000000 0.000000 0.000000 0.000000 0.000000 0.000000 0.000000 0.180334 0.180334 0.180334 0.199007 0.199007 0.199007 0.199007 0.199007 0.199007 0.199007 0.199007 0.199007 0.199007 0.199007 0.199007 0.199007 0.199007 0.199007 0.199007 0.199007 0.199007 0.199007 0.199007 0.199007 0.199007 0.199007 0.199007 0.199007 0.199007 0.199007 0.199007 0.199007 0.199007 0.199007 0.199007 0.199007 0.199007 0.199007 0.199007 0.199007 0.199007 0.199007 0.199007 0.199007 0.225018 0.225018 0.225018 0.225018 0.225018 0.225018 0.225018 0.225018 0.225018 0.225018 0.225018 0.225018 0.225018 0.225018 0.225018 0.225018 0.225018 0.225018 0.225018 0.225018 0.225018 0.225018 0.225018 0.225018 0.225018 0.225018 0.225018 0.225018 0.225018 0.244339 0.244339 0.244339 0.244339 0.244339 0.244339 0.244339 0.244339 0.244339 0.244339 0.244339 0.244339 0.244339 0.244339 0.244339 0.244339 0.244339 0.244339 0.244339 0.244339 0.244339 0.244339 0.244339 0.251976 0.251976 0.251976 0.251976 0.251976 0.251976 0.251976 0.251976 0.251976 0.251976 0.251976 0.251976 0.251976 0.251976 0.251976 0.251976 0.251976 0.251976 0.251976 0.251976 0.264906 0.264906 0.264906 0.264906 0.264906 0.264906 0.264906 0.264906 0.264906 0.264906 0.264906 0.264906 0.264906 0.264906 0.264906 0.264906 0.264906 0.264906 0.264906 0.264906 0.264906 0.264906 0.264906 0.264906 0.264906 0.264906 0.264906 0.264906 0.264906 0.264906 0.264906 0.264906 0.264906 0.264906 0.264906 0.264906 0.264906 0.264906 0.264906 0.264906 0.264906 0.264906 0.264906 0.264906 0.264906 0.264906 0.264906 0.264906 0.264906 0.264906 0.264906 0.264906 0.264906 0.264906 0.264906 0.264906 0.264906 0.264906 0.264906 0.264906 0.264906 0.264906 0.256074 0.256074 0.256074 0.256074 0.256074 0.256074 0.256074 0.256074 0.256074 0.256074 0.256074 0.256074 0.256074 0.256074 0.269680 0.269680 0.269680 0.269680 0.269680 0.269680 0.269680 0.269680 0.269680 0.269680 0.269680 0.269680 0.264906 0.264906 0.264906 0.264906 0.264906 0.264906 0.264906 0.264906 0.264906 0.264906 0.264906 0.264906 0.269680 0.269680 0.269680 0.269680 0.269680 0.269680 0.269680 0.269680 0.269680 0.269680 0.269680 0.264906 0.264906 0.264906 0.264906 0.264906 0.264906 0.264906 0.264906 0.264906 0.264906 0.264906 0.256074 0.256074 0.256074 0.256074 0.256074 0.256074 0.256074 0.256074 0.256074 0.256074 0.256074 0.264906 0.264906 0.264906 0.264906 0.264906 0.264906 0.264906 0.264906 0.264906 0.264906 0.260378 0.260378 0.260378 0.260378 0.260378 0.260378 0.260378 0.260378 0.260378 0.260378 0.256074 0.256074 0.256074 0.256074 0.256074 0.256074 0.256074 0.256074 0.256074 0.256074 0.260378 0.260378 0.260378 0.260378 0.260378 0.260378 0.260378 0.260378 0.260378 0.256074 0.256074 0.256074 0.256074 0.256074 0.256074 0.256074 0.256074 0.256074 0.251976 0.251976 0.251976 0.251976 0.251976 0.251976 0.251976 0.251976 0.251976 0.251976 0.251976 0.251976 0.251976 0.251976
