# Output from CTFFind version 4.1.9, run on 2019-11-02 17:49:28
# Input file: stack11_bm3d_averaged_1_1.5_0_2500_half.mrc ; Number of micrographs: 1
# Pixel size: 3.000 Angstroms ; acceleration voltage: 300.0 keV ; spherical aberration: 0.00 mm ; amplitude contrast: 0.07
# Box size: 512 pixels ; min. res.: 30.0 Angstroms ; max. res.: 5.0 Angstroms ; min. def.: 5000.0 um; max. def. 50000.0 um; num. frames averaged: 1
# 6 lines per micrograph: #1 - spatial frequency (1/Angstroms); #2 - 1D rotational average of spectrum (assuming no astigmatism); #3 - 1D rotational average of spectrum; #4 - CTF fit; #5 - cross-correlation between spectrum and CTF fit; #6 - 2sigma of expected cross correlation of noise
0.000000 0.000651 0.001302 0.001953 0.002604 0.003255 0.003906 0.004557 0.005208 0.005859 0.006510 0.007161 0.007812 0.008464 0.009115 0.009766 0.010417 0.011068 0.011719 0.012370 0.013021 0.013672 0.014323 0.014974 0.015625 0.016276 0.016927 0.017578 0.018229 0.018880 0.019531 0.020182 0.020833 0.021484 0.022135 0.022786 0.023438 0.024089 0.024740 0.025391 0.026042 0.026693 0.027344 0.027995 0.028646 0.029297 0.029948 0.030599 0.031250 0.031901 0.032552 0.033203 0.033854 0.034505 0.035156 0.035807 0.036458 0.037109 0.037760 0.038411 0.039062 0.039714 0.040365 0.041016 0.041667 0.042318 0.042969 0.043620 0.044271 0.044922 0.045573 0.046224 0.046875 0.047526 0.048177 0.048828 0.049479 0.050130 0.050781 0.051432 0.052083 0.052734 0.053385 0.054036 0.054688 0.055339 0.055990 0.056641 0.057292 0.057943 0.058594 0.059245 0.059896 0.060547 0.061198 0.061849 0.062500 0.063151 0.063802 0.064453 0.065104 0.065755 0.066406 0.067057 0.067708 0.068359 0.069010 0.069661 0.070312 0.070964 0.071615 0.072266 0.072917 0.073568 0.074219 0.074870 0.075521 0.076172 0.076823 0.077474 0.078125 0.078776 0.079427 0.080078 0.080729 0.081380 0.082031 0.082682 0.083333 0.083984 0.084635 0.085286 0.085938 0.086589 0.087240 0.087891 0.088542 0.089193 0.089844 0.090495 0.091146 0.091797 0.092448 0.093099 0.093750 0.094401 0.095052 0.095703 0.096354 0.097005 0.097656 0.098307 0.098958 0.099609 0.100260 0.100911 0.101562 0.102214 0.102865 0.103516 0.104167 0.104818 0.105469 0.106120 0.106771 0.107422 0.108073 0.108724 0.109375 0.110026 0.110677 0.111328 0.111979 0.112630 0.113281 0.113932 0.114583 0.115234 0.115885 0.116536 0.117188 0.117839 0.118490 0.119141 0.119792 0.120443 0.121094 0.121745 0.122396 0.123047 0.123698 0.124349 0.125000 0.125651 0.126302 0.126953 0.127604 0.128255 0.128906 0.129557 0.130208 0.130859 0.131510 0.132161 0.132812 0.133464 0.134115 0.134766 0.135417 0.136068 0.136719 0.137370 0.138021 0.138672 0.139323 0.139974 0.140625 0.141276 0.141927 0.142578 0.143229 0.143880 0.144531 0.145182 0.145833 0.146484 0.147135 0.147786 0.148438 0.149089 0.149740 0.150391 0.151042 0.151693 0.152344 0.152995 0.153646 0.154297 0.154948 0.155599 0.156250 0.156901 0.157552 0.158203 0.158854 0.159505 0.160156 0.160807 0.161458 0.162109 0.162760 0.163411 0.164062 0.164714 0.165365 0.166016 0.166667 0.167318 0.167969 0.168620 0.169271 0.169922 0.170573 0.171224 0.171875 0.172526 0.173177 0.173828 0.174479 0.175130 0.175781 0.176432 0.177083 0.177734 0.178385 0.179036 0.179688 0.180339 0.180990 0.181641 0.182292 0.182943 0.183594 0.184245 0.184896 0.185547 0.186198 0.186849 0.187500 0.188151 0.188802 0.189453 0.190104 0.190755 0.191406 0.192057 0.192708 0.193359 0.194010 0.194661 0.195312 0.195964 0.196615 0.197266 0.197917 0.198568 0.199219 0.199870 0.200521 0.201172 0.201823 0.202474 0.203125 0.203776 0.204427 0.205078 0.205729 0.206380 0.207031 0.207682 0.208333 0.208984 0.209635 0.210286 0.210938 0.211589 0.212240 0.212891 0.213542 0.214193 0.214844 0.215495 0.216146 0.216797 0.217448 0.218099 0.218750 0.219401 0.220052 0.220703 0.221354 0.222005 0.222656 0.223307 0.223958 0.224609 0.225260 0.225911 0.226562 0.227214 0.227865 0.228516 0.229167 0.229818 0.230469 0.231120 0.231771 0.232422 0.233073 0.233724 0.234375 0.235026 0.235677
       0.31573        0.31573        0.31573        0.31573        0.31573        0.31573        0.31573        0.31573        0.31573        0.31573        0.31573        0.31573        0.31573        0.31573        0.31573        0.31573        0.31573        0.31573        0.31573        0.31573        0.31573        0.31573        0.31573        0.31573        0.31573        0.31573        0.31573        0.31573        0.31573        0.31573        0.31573        0.31573        0.31573        0.31573        0.31573        0.31573        0.31573        0.31573        0.31573        0.31573        0.31573        0.31573        0.31573        0.31573        0.31573        0.31573        0.31573        0.31573        0.31573        0.31573        0.31573        0.68244        0.86835        0.52020        0.08554       -0.06679       -0.42809       -0.20566       -0.29770       -0.12007       -0.07891       -0.12049       -0.07175       -0.20990       -0.23774       -0.25927       -0.33354       -0.34054       -0.49301       -0.38462       -0.46756       -0.45206       -0.42335       -0.47006       -0.54488       -0.56424       -0.58880       -0.62424       -0.57925       -0.41625       -0.37904       -0.33232       -0.31711       -0.21219       -0.19908        0.01894        0.07071        0.10362        0.22279        0.36960        0.44172        0.51585        0.55746        0.55116        0.57228        0.69728        0.81187        0.74305        0.73314        0.66922        0.57810        0.48423        0.40386        0.49264        0.37212        0.19915        0.07636        0.04248        0.00711       -0.06213       -0.04151       -0.02315       -0.07319       -0.00916       -0.02249        0.21164        0.24986        0.28953        0.42740        0.46109        0.40270        0.53124        0.62500        0.69804        0.76339        0.68740        0.65823        0.69647        0.58425        0.50029        0.41837        0.28936        0.18802        0.15616        0.11032        0.03432        0.01018       -0.00021        0.07472        0.13239        0.20321        0.27906        0.39955        0.41626        0.50503        0.59901        0.63331        0.61337        0.62888        0.55131        0.44480        0.44509        0.35159        0.22710        0.18312        0.14774        0.10621        0.12194        0.06875        0.10160        0.22306        0.26145        0.33973        0.35105        0.44985        0.51122        0.53721        0.54844        0.46793        0.42691        0.38901        0.37016        0.30719        0.25006        0.20196        0.18392        0.16270        0.19292        0.17628        0.26687        0.33217        0.36470        0.42250        0.45954        0.47597        0.44129        0.39238        0.40991        0.37357        0.28682        0.27181        0.22581        0.21195        0.19295        0.21245        0.22780        0.32662        0.37213        0.36849        0.45966        0.43413        0.43777        0.42788        0.39354        0.34304        0.32758        0.27901        0.23752        0.23550        0.26829        0.27145        0.29876        0.29921        0.33623        0.32830        0.40750        0.41562        0.37415        0.34452        0.36338        0.28084        0.27807        0.26119        0.27619        0.25951        0.28080        0.29203        0.31130        0.34696        0.35643        0.35914        0.33398        0.35061        0.28755        0.32451        0.26692        0.24396        0.28182        0.28417        0.30854        0.31236        0.32788        0.32262        0.31132        0.31805        0.28544        0.28419        0.25826        0.28174        0.26945        0.30885        0.28215        0.26325        0.30591        0.30929        0.31321        0.28555        0.29718        0.28757        0.24719        0.24263        0.21691        0.27710        0.27326        0.31417        0.31293        0.32190        0.31564        0.30489        0.27393        0.28354        0.33002        0.26724        0.26004        0.29169        0.28973        0.34020        0.33692        0.35728        0.33231        0.30955        0.28376        0.26440        0.25840        0.22352        0.26581        0.30409        0.29629        0.27889        0.29393        0.26747        0.32233        0.33643        0.24938        0.21673        0.26773        0.33583        0.27816        0.30842        0.32659        0.32435        0.29450        0.31955        0.34342        0.29652        0.28982        0.25563        0.27781        0.34816        0.35452        0.25966        0.26584        0.25300        0.27857        0.22108        0.29073        0.22263        0.25137        0.33275        0.31952        0.35118        0.30039        0.23576        0.23292        0.24021        0.23410        0.18004        0.21833        0.26207        0.29150        0.27126        0.30861        0.29396        0.27281        0.28029        0.21013        0.17321        0.18856        0.22820        0.19276        0.21521        0.22941        0.20099        0.25398        0.34374        0.29767        0.31399        0.22087        0.25914        0.22452        0.28324        0.29877        0.14905        0.22880        0.22338        0.11628        0.22751        0.11427        0.16143        0.23547        0.14109       -0.14002       -0.65726
2.581003 2.554102 2.527346 2.500736 2.474272 2.447953 2.421780 2.395753 2.369872 2.344136 2.318546 2.293102 2.267803 2.242650 2.217643 2.192781 2.168065 2.143495 2.119071 2.094792 2.070659 2.046672 2.022830 1.999134 1.975584 1.952180 1.928921 1.905808 1.882840 1.860019 1.837343 1.814813 1.792428 1.770189 1.748096 1.726149 1.704347 1.682691 1.661180 1.639816 1.618597 1.597524 1.576596 1.555814 1.535178 1.514688 1.494343 1.474144 1.454091 1.434183 1.414421 1.636279 2.043088 1.614486 1.126186 0.986468 0.415873 0.813284 0.557788 0.832094 0.769814 0.785146 0.747957 0.708760 0.559051 0.511297 0.481570 0.440588 0.201967 0.376699 0.199966 0.304853 0.233278 0.179631 0.129833 0.002477 0.038631 -0.014020 -0.056527 0.103421 0.206412 0.192162 0.152067 0.332868 0.197404 0.498394 0.576720 0.549625 0.591987 0.877613 0.810063 0.947031 0.889396 0.974226 0.943639 1.082473 1.140924 1.079126 1.130090 0.954313 0.942011 0.787080 0.650361 0.771587 0.707063 0.458499 0.308767 0.251293 0.211628 0.148175 0.088468 0.129747 0.069011 0.153236 0.052088 0.262831 0.380727 0.361524 0.479758 0.581354 0.468006 0.546167 0.698276 0.748080 0.780755 0.733107 0.737229 0.716099 0.628466 0.569937 0.431376 0.288114 0.210478 0.080028 0.136837 -0.043048 -0.031254 -0.077714 -0.037062 0.006587 0.149210 0.088006 0.302926 0.280130 0.364601 0.452484 0.526834 0.512703 0.519372 0.506144 0.335480 0.309620 0.283136 0.099982 0.049968 -0.004234 -0.031417 -0.040069 -0.087128 -0.100389 -0.009081 0.054339 0.137215 0.142547 0.229326 0.333339 0.311656 0.412548 0.399435 0.285171 0.232250 0.250016 0.208955 0.104475 0.078330 0.020345 0.001250 0.012764 -0.013868 0.059153 0.148024 0.143781 0.233362 0.254004 0.307968 0.255800 0.221824 0.182802 0.212300 0.146524 0.046187 0.046152 -0.010278 -0.011820 -0.031331 0.015364 0.017732 0.168182 0.130027 0.184540 0.236437 0.200380 0.193061 0.195379 0.140360 0.104299 0.064340 0.051004 -0.037888 0.009128 0.022262 0.055729 0.050210 0.076291 0.096802 0.120641 0.137720 0.184052 0.078507 0.096116 0.072993 -0.001728 0.002395 0.008973 -0.009748 0.015873 0.007006 0.029526 0.065954 0.082465 0.109187 0.050491 0.099733 0.054553 0.015875 0.062851 -0.037872 -0.016405 0.022451 0.004331 0.054745 0.053240 0.045508 0.061861 0.049664 0.048136 0.021253 -0.002168 0.009635 0.018183 -0.007163 0.071086 -0.014240 0.012431 0.057203 0.048852 0.034883 0.043963 0.039072 0.020589 -0.017701 -0.035756 -0.018189 0.021511 0.028171 0.069910 0.062376 0.061127 0.089838 0.065132 0.025738 0.068101 0.090199 0.016064 0.022101 0.062316 0.055372 0.106402 0.113772 0.115340 0.121602 0.069949 0.051436 0.036485 0.006229 0.002032 0.051558 0.088168 0.053097 0.034867 0.034153 0.024358 0.096242 0.071420 -0.046209 -0.051718 0.032214 0.098494 0.010292 0.027346 0.071160 0.084108 0.021784 0.060297 0.085616 0.034885 0.037013 -0.034194 0.015169 0.108622 0.072256 -0.050384 -0.021168 -0.047097 0.017344 -0.106783 0.039665 -0.106860 -0.030441 0.056655 0.032030 0.037584 -0.042349 -0.071078 -0.095654 -0.086336 -0.074241 -0.134971 -0.096478 -0.038106 0.021165 -0.040780 0.042671 -0.026920 -0.052026 0.051518 -0.111579 -0.105310 -0.096152 -0.014834 -0.069577 -0.029781 -0.020578 -0.002561 0.019609 0.185504 -0.018095 0.146275 -0.000688 0.266431 0.237707 0.327621 0.271997 0.114312 0.232317 0.265963 0.037801 0.248241 0.118913 0.138048 0.318789 0.144994 -0.681316
0.072396 0.072899 0.074405 0.076917 0.080432 0.084949 0.090469 0.096988 0.104505 0.113017 0.122520 0.133011 0.144484 0.156933 0.170349 0.184724 0.200046 0.216304 0.233481 0.251561 0.270524 0.290346 0.311003 0.332463 0.354695 0.377661 0.401320 0.425625 0.450527 0.475970 0.501892 0.528226 0.554900 0.581835 0.608945 0.636140 0.663321 0.690382 0.717213 0.743694 0.769700 0.795099 0.819751 0.843513 0.866233 0.887753 0.907913 0.926545 0.943478 0.958539 0.971551 0.982338 0.990719 0.996519 0.999563 0.999679 0.996701 0.990470 0.980835 0.967657 0.950808 0.930174 0.905659 0.877186 0.844698 0.808161 0.767569 0.722940 0.674324 0.621803 0.565492 0.505541 0.442137 0.375508 0.305917 0.233670 0.159114 0.082633 0.004655 0.074356 0.153898 0.233433 0.312392 0.390173 0.466152 0.539683 0.610104 0.676744 0.738928 0.795984 0.847254 0.892096 0.929899 0.960089 0.982139 0.995577 0.999998 0.995071 0.980550 0.956283 0.922219 0.878416 0.825048 0.762410 0.690923 0.611134 0.523721 0.429488 0.329366 0.224403 0.115761 0.004704 0.107412 0.219157 0.329043 0.435538 0.537095 0.632169 0.719247 0.796868 0.863655 0.918341 0.959793 0.987047 0.999326 0.996068 0.976948 0.941895 0.891110 0.825076 0.744562 0.650631 0.544626 0.428167 0.303132 0.171630 0.035975 0.101352 0.237743 0.370517 0.496963 0.614407 0.720262 0.812095 0.887685 0.945087 0.982685 0.999248 0.993977 0.966542 0.917115 0.846390 0.755588 0.646451 0.521228 0.382636 0.233814 0.078262 0.080235 0.237695 0.390037 0.533182 0.663173 0.776285 0.869139 0.938815 0.982955 0.999853 0.988535 0.948821 0.881358 0.787640 0.669995 0.531548 0.376157 0.208319 0.033053 0.144241 0.317942 0.482384 0.632056 0.761767 0.866864 0.943396 0.988286 0.999467 0.976002 0.918155 0.827429 0.706556 0.559449 0.391088 0.207382 0.014974 0.178985 0.367101 0.542017 0.696701 0.824743 0.920639 0.980045 0.999998 0.979089 0.917575 0.817429 0.682313 0.517480 0.329599 0.126505 0.083100 0.290017 0.484944 0.658905 0.803668 0.912154 0.978816 0.999941 0.973896 0.901273 0.784930 0.629930 0.443350 0.234006 0.012052 0.211490 0.425269 0.618179 0.779958 0.901741 0.976585 0.999897 0.969755 0.887096 0.755748 0.582314 0.375874 0.147557 0.090027 0.323478 0.539351 0.724932 0.869018 0.962615 0.999550 0.976914 0.895342 0.759070 0.575784 0.356233 0.113650 0.137014 0.380002 0.599723 0.781785 0.913942 0.986984 0.995408 0.937903 0.817543 0.641707 0.421686 0.172020 0.090432 0.347585 0.581393 0.775115 0.914535 0.989073 0.992627 0.924151 0.787853 0.593029 0.353499 0.086687 0.187606 0.448648 0.676346 0.852804 0.963794 0.999943 0.957609 0.839310 0.653679 0.414913 0.141773 0.143849 0.418650 0.659820 0.846939 0.963780 0.999765 0.951006 0.820805 0.619540 0.363933 0.075742 0.220053 0.497366 0.731322 0.900521 0.989051 0.988073 0.896792 0.722721 0.481169 0.193998 0.112281 0.408932 0.667656 0.863332 0.976510 0.995432 0.917350 0.749008 0.506179 0.212295 0.103719 0.410266 0.676201 0.874036 0.982846 0.990579 0.895496 0.706583 0.442844 0.131490 0.194779 0.501167 0.754482 0.926797 0.998592 0.961090 0.817452 0.582675 0.282167 0.050901 0.379172 0.665293 0.876180 0.986921 0.983827 0.866270 0.647014 0.350995 0.012594 0.328251 0.630738 0.858103 0.982162 0.986921 0.870788 0.647054 0.342535 0.005488 0.353773 0.658423 0.880469 0.990927 0.974721 0.832895 0.582796 0.256113 0.104981
1.000000 1.000000 1.000000 1.000000 1.000000 1.000000 1.000000 1.000000 1.000000 1.000000 1.000000 1.000000 1.000000 1.000000 1.000000 1.000000 1.000000 1.000000 1.000000 1.000000 1.000000 1.000000 1.000000 1.000000 1.000000 1.000000 1.000000 1.000000 1.000000 1.000000 1.000000 1.000000 1.000000 1.000000 1.000000 1.000000 1.000000 1.000000 1.000000 1.000000 1.000000 1.000000 1.000000 1.000000 1.000000 1.000000 1.000000 1.000000 1.000000 1.000000 1.000000 1.000000 0.929285 0.929285 0.929285 0.919326 0.919326 0.919326 0.919326 0.919326 0.919326 0.919326 0.919326 0.919326 0.919326 0.919326 0.919326 0.919326 0.919326 0.919326 0.919326 0.919326 0.919326 0.919326 0.919326 0.919326 0.919326 0.919326 0.919326 0.919326 0.919326 0.919326 0.919326 0.919326 0.919326 0.919326 0.919326 0.919326 0.919326 0.919326 0.919326 0.919326 0.919326 0.919326 0.919326 0.919326 0.949864 0.951123 0.959021 0.958859 0.958358 0.956246 0.955336 0.954199 0.953749 0.954019 0.954624 0.955456 0.964187 0.965260 0.966845 0.967669 0.968380 0.969015 0.968829 0.969534 0.968721 0.968135 0.967602 0.963569 0.964223 0.964774 0.964859 0.965888 0.965760 0.967785 0.967987 0.967363 0.966452 0.965681 0.964941 0.964503 0.964214 0.964725 0.965024 0.966346 0.969545 0.968952 0.968672 0.968830 0.968928 0.969106 0.969543 0.971249 0.967437 0.968085 0.966384 0.964164 0.968392 0.965482 0.965276 0.966641 0.967024 0.967427 0.965895 0.961998 0.955543 0.954879 0.952019 0.942938 0.941632 0.942300 0.944752 0.945306 0.943909 0.936962 0.937515 0.931495 0.932317 0.935656 0.930793 0.930982 0.932121 0.931526 0.930478 0.929837 0.927259 0.924584 0.922957 0.922377 0.925331 0.925191 0.926372 0.926320 0.920942 0.912413 0.899999 0.898336 0.893640 0.896722 0.886423 0.886215 0.886399 0.881613 0.885073 0.884817 0.885825 0.882383 0.867423 0.849851 0.842049 0.846750 0.851665 0.849481 0.846963 0.840175 0.852032 0.828793 0.841236 0.851992 0.847509 0.848299 0.847035 0.845251 0.838846 0.839849 0.842189 0.843555 0.841706 0.839178 0.837897 0.818345 0.817839 0.755870 0.738323 0.731633 0.736803 0.743398 0.743627 0.742481 0.751306 0.756344 0.754123 0.738921 0.731622 0.724049 0.728911 0.729134 0.734236 0.720117 0.695710 0.689742 0.658645 0.676235 0.690970 0.651501 0.675244 0.685571 0.683125 0.682697 0.675636 0.672209 0.666773 0.669642 0.676113 0.690477 0.709681 0.734298 0.730244 0.720334 0.717570 0.697570 0.689671 0.681654 0.696846 0.675447 0.670948 0.690070 0.688989 0.673993 0.652027 0.639195 0.629941 0.628170 0.636459 0.625221 0.621385 0.611994 0.589233 0.583936 0.619544 0.635404 0.654457 0.624876 0.610539 0.600805 0.585067 0.598119 0.542005 0.541899 0.561183 0.568531 0.547440 0.529296 0.538833 0.546315 0.549659 0.540616 0.527841 0.514561 0.529160 0.559980 0.549672 0.527829 0.531541 0.531338 0.527545 0.440968 0.436512 0.407086 0.375153 0.316648 0.300350 0.292429 0.274752 0.256047 0.219624 0.216872 0.225927 0.233273 0.245803 0.247123 0.231636 0.235749 0.227844 0.214466 0.153424 0.142895 0.136260 0.125540 0.125174 0.098550 0.122384 0.192553 0.195248 0.195248 0.195248 0.195248 0.195248 0.195248 0.203335 0.203335 0.203335 0.203335 0.203335 0.203335 0.203335 0.203335 0.203335 0.215600 0.215600 0.215600 0.215600 0.215600 0.215600 0.215600 0.215600 0.215600 0.215600 0.215600 0.215600 0.215600 0.215600
0.000000 0.000000 0.000000 0.000000 0.000000 0.000000 0.000000 0.000000 0.000000 0.000000 0.000000 0.000000 0.000000 0.000000 0.000000 0.000000 0.000000 0.000000 0.000000 0.000000 0.000000 0.000000 0.000000 0.000000 0.000000 0.000000 0.000000 0.000000 0.000000 0.000000 0.000000 0.000000 0.000000 0.000000 0.000000 0.000000 0.000000 0.000000 0.000000 0.000000 0.000000 0.000000 0.000000 0.000000 0.000000 0.000000 0.000000 0.000000 0.000000 0.000000 0.000000 0.000000 0.180334 0.180334 0.180334 0.199007 0.199007 0.199007 0.199007 0.199007 0.199007 0.199007 0.199007 0.199007 0.199007 0.199007 0.199007 0.199007 0.199007 0.199007 0.199007 0.199007 0.199007 0.199007 0.199007 0.199007 0.199007 0.199007 0.199007 0.199007 0.199007 0.199007 0.199007 0.199007 0.199007 0.199007 0.199007 0.199007 0.199007 0.199007 0.199007 0.199007 0.199007 0.199007 0.199007 0.199007 0.225018 0.225018 0.225018 0.225018 0.225018 0.225018 0.225018 0.225018 0.225018 0.225018 0.225018 0.225018 0.225018 0.225018 0.225018 0.225018 0.225018 0.225018 0.225018 0.225018 0.225018 0.225018 0.225018 0.225018 0.225018 0.225018 0.225018 0.225018 0.225018 0.244339 0.244339 0.244339 0.244339 0.244339 0.244339 0.244339 0.244339 0.244339 0.244339 0.244339 0.244339 0.244339 0.244339 0.244339 0.244339 0.244339 0.244339 0.244339 0.244339 0.244339 0.244339 0.244339 0.251976 0.251976 0.251976 0.251976 0.251976 0.251976 0.251976 0.251976 0.251976 0.251976 0.251976 0.251976 0.251976 0.251976 0.251976 0.251976 0.251976 0.251976 0.251976 0.251976 0.264906 0.264906 0.264906 0.264906 0.264906 0.264906 0.264906 0.264906 0.264906 0.264906 0.264906 0.264906 0.264906 0.264906 0.264906 0.264906 0.264906 0.264906 0.264906 0.264906 0.264906 0.264906 0.264906 0.264906 0.264906 0.264906 0.264906 0.264906 0.264906 0.264906 0.264906 0.264906 0.264906 0.264906 0.264906 0.264906 0.264906 0.264906 0.264906 0.264906 0.264906 0.264906 0.264906 0.264906 0.264906 0.264906 0.264906 0.264906 0.264906 0.264906 0.264906 0.264906 0.264906 0.264906 0.264906 0.264906 0.264906 0.264906 0.264906 0.264906 0.264906 0.264906 0.256074 0.256074 0.256074 0.256074 0.256074 0.256074 0.256074 0.256074 0.256074 0.256074 0.256074 0.256074 0.256074 0.256074 0.269680 0.269680 0.269680 0.269680 0.269680 0.269680 0.269680 0.269680 0.269680 0.269680 0.269680 0.269680 0.264906 0.264906 0.264906 0.264906 0.264906 0.264906 0.264906 0.264906 0.264906 0.264906 0.264906 0.264906 0.269680 0.269680 0.269680 0.269680 0.269680 0.269680 0.269680 0.269680 0.269680 0.269680 0.269680 0.264906 0.264906 0.264906 0.264906 0.264906 0.264906 0.264906 0.264906 0.264906 0.264906 0.264906 0.256074 0.256074 0.256074 0.256074 0.256074 0.256074 0.256074 0.256074 0.256074 0.256074 0.256074 0.264906 0.264906 0.264906 0.264906 0.264906 0.264906 0.264906 0.264906 0.264906 0.264906 0.260378 0.260378 0.260378 0.260378 0.260378 0.260378 0.260378 0.260378 0.260378 0.260378 0.256074 0.256074 0.256074 0.256074 0.256074 0.256074 0.256074 0.256074 0.256074 0.256074 0.260378 0.260378 0.260378 0.260378 0.260378 0.260378 0.260378 0.260378 0.260378 0.256074 0.256074 0.256074 0.256074 0.256074 0.256074 0.256074 0.256074 0.256074 0.251976 0.251976 0.251976 0.251976 0.251976 0.251976 0.251976 0.251976 0.251976 0.251976 0.251976 0.251976 0.251976 0.251976
