# Output from CTFFind version 4.1.9, run on 2019-11-03 20:04:04
# Input file: stack11_bm3d_averaged_1_7.5_0_250_half.mrc ; Number of micrographs: 1
# Pixel size: 3.000 Angstroms ; acceleration voltage: 300.0 keV ; spherical aberration: 0.00 mm ; amplitude contrast: 0.07
# Box size: 512 pixels ; min. res.: 30.0 Angstroms ; max. res.: 5.0 Angstroms ; min. def.: 5000.0 um; max. def. 50000.0 um; num. frames averaged: 1
# 6 lines per micrograph: #1 - spatial frequency (1/Angstroms); #2 - 1D rotational average of spectrum (assuming no astigmatism); #3 - 1D rotational average of spectrum; #4 - CTF fit; #5 - cross-correlation between spectrum and CTF fit; #6 - 2sigma of expected cross correlation of noise
0.000000 0.000651 0.001302 0.001953 0.002604 0.003255 0.003906 0.004557 0.005208 0.005859 0.006510 0.007161 0.007812 0.008464 0.009115 0.009766 0.010417 0.011068 0.011719 0.012370 0.013021 0.013672 0.014323 0.014974 0.015625 0.016276 0.016927 0.017578 0.018229 0.018880 0.019531 0.020182 0.020833 0.021484 0.022135 0.022786 0.023438 0.024089 0.024740 0.025391 0.026042 0.026693 0.027344 0.027995 0.028646 0.029297 0.029948 0.030599 0.031250 0.031901 0.032552 0.033203 0.033854 0.034505 0.035156 0.035807 0.036458 0.037109 0.037760 0.038411 0.039062 0.039714 0.040365 0.041016 0.041667 0.042318 0.042969 0.043620 0.044271 0.044922 0.045573 0.046224 0.046875 0.047526 0.048177 0.048828 0.049479 0.050130 0.050781 0.051432 0.052083 0.052734 0.053385 0.054036 0.054688 0.055339 0.055990 0.056641 0.057292 0.057943 0.058594 0.059245 0.059896 0.060547 0.061198 0.061849 0.062500 0.063151 0.063802 0.064453 0.065104 0.065755 0.066406 0.067057 0.067708 0.068359 0.069010 0.069661 0.070312 0.070964 0.071615 0.072266 0.072917 0.073568 0.074219 0.074870 0.075521 0.076172 0.076823 0.077474 0.078125 0.078776 0.079427 0.080078 0.080729 0.081380 0.082031 0.082682 0.083333 0.083984 0.084635 0.085286 0.085938 0.086589 0.087240 0.087891 0.088542 0.089193 0.089844 0.090495 0.091146 0.091797 0.092448 0.093099 0.093750 0.094401 0.095052 0.095703 0.096354 0.097005 0.097656 0.098307 0.098958 0.099609 0.100260 0.100911 0.101562 0.102214 0.102865 0.103516 0.104167 0.104818 0.105469 0.106120 0.106771 0.107422 0.108073 0.108724 0.109375 0.110026 0.110677 0.111328 0.111979 0.112630 0.113281 0.113932 0.114583 0.115234 0.115885 0.116536 0.117188 0.117839 0.118490 0.119141 0.119792 0.120443 0.121094 0.121745 0.122396 0.123047 0.123698 0.124349 0.125000 0.125651 0.126302 0.126953 0.127604 0.128255 0.128906 0.129557 0.130208 0.130859 0.131510 0.132161 0.132812 0.133464 0.134115 0.134766 0.135417 0.136068 0.136719 0.137370 0.138021 0.138672 0.139323 0.139974 0.140625 0.141276 0.141927 0.142578 0.143229 0.143880 0.144531 0.145182 0.145833 0.146484 0.147135 0.147786 0.148438 0.149089 0.149740 0.150391 0.151042 0.151693 0.152344 0.152995 0.153646 0.154297 0.154948 0.155599 0.156250 0.156901 0.157552 0.158203 0.158854 0.159505 0.160156 0.160807 0.161458 0.162109 0.162760 0.163411 0.164062 0.164714 0.165365 0.166016 0.166667 0.167318 0.167969 0.168620 0.169271 0.169922 0.170573 0.171224 0.171875 0.172526 0.173177 0.173828 0.174479 0.175130 0.175781 0.176432 0.177083 0.177734 0.178385 0.179036 0.179688 0.180339 0.180990 0.181641 0.182292 0.182943 0.183594 0.184245 0.184896 0.185547 0.186198 0.186849 0.187500 0.188151 0.188802 0.189453 0.190104 0.190755 0.191406 0.192057 0.192708 0.193359 0.194010 0.194661 0.195312 0.195964 0.196615 0.197266 0.197917 0.198568 0.199219 0.199870 0.200521 0.201172 0.201823 0.202474 0.203125 0.203776 0.204427 0.205078 0.205729 0.206380 0.207031 0.207682 0.208333 0.208984 0.209635 0.210286 0.210938 0.211589 0.212240 0.212891 0.213542 0.214193 0.214844 0.215495 0.216146 0.216797 0.217448 0.218099 0.218750 0.219401 0.220052 0.220703 0.221354 0.222005 0.222656 0.223307 0.223958 0.224609 0.225260 0.225911 0.226562 0.227214 0.227865 0.228516 0.229167 0.229818 0.230469 0.231120 0.231771 0.232422 0.233073 0.233724 0.234375 0.235026 0.235677
       0.34644        0.34644        0.34644        0.34644        0.34644        0.34644        0.34644        0.34644        0.34644        0.34644        0.34644        0.34644        0.34644        0.34644        0.34644        0.34644        0.34644        0.34644        0.34644        0.34644        0.34644        0.34644        0.34644        0.34644        0.34644        0.34644        0.34644        0.34644        0.34644        0.34644        0.34644        0.34644        0.34644        0.34644        0.34644        0.34644        0.34644        0.34644        0.34644        0.34644        0.34644        0.34644        0.34644        0.34644        0.34644        0.34644        0.34644        0.34644        0.34644        0.34644        0.34644        0.69977        0.85730        0.53882        0.10554       -0.02872       -0.38312       -0.17922       -0.28823       -0.11681       -0.05456       -0.11310       -0.05321       -0.16429       -0.20445       -0.21213       -0.30569       -0.31699       -0.44192       -0.36129       -0.42382       -0.41918       -0.39163       -0.40303       -0.44281       -0.50437       -0.55701       -0.54619       -0.52004       -0.35399       -0.32260       -0.28826       -0.26833       -0.18439       -0.16778        0.06309        0.14481        0.17858        0.26841        0.38157        0.45830        0.52373        0.60296        0.60013        0.58597        0.70137        0.80230        0.70194        0.74514        0.61812        0.56869        0.48417        0.43432        0.51295        0.39926        0.27569        0.11902        0.11690        0.09785       -0.00989        0.04973        0.05588        0.01566        0.02917        0.03461        0.23670        0.27233        0.29700        0.43647        0.45443        0.41567        0.60293        0.61692        0.63226        0.72259        0.67511        0.64750        0.65455        0.55993        0.45959        0.41931        0.30552        0.27426        0.18771        0.13824        0.05281        0.06950        0.08064        0.10202        0.16336        0.24853        0.30206        0.42669        0.46665        0.48170        0.56234        0.60119        0.63663        0.61358        0.55701        0.46361        0.47373        0.37901        0.28056        0.21446        0.15654        0.17544        0.15519        0.16588        0.19596        0.32673        0.34158        0.41127        0.44945        0.42497        0.47871        0.56426        0.55671        0.50534        0.45796        0.41558        0.37632        0.34512        0.31289        0.26898        0.24876        0.25986        0.25940        0.22819        0.31248        0.36674        0.38499        0.43963        0.45622        0.46710        0.42947        0.41477        0.40281        0.36476        0.34245        0.27604        0.28526        0.27137        0.25125        0.29914        0.29665        0.35472        0.38589        0.43872        0.47694        0.40662        0.42261        0.43298        0.41339        0.35209        0.33163        0.29329        0.32957        0.27869        0.32681        0.31838        0.33648        0.34455        0.36712        0.31227        0.38731        0.41185        0.38193        0.35379        0.36998        0.32106        0.29761        0.31088        0.32024        0.30930        0.32158        0.34833        0.36080        0.34232        0.36402        0.36256        0.42739        0.39331        0.34218        0.35136        0.30134        0.29717        0.32861        0.32172        0.33223        0.34558        0.34640        0.39028        0.33211        0.33116        0.33994        0.35226        0.30564        0.31378        0.28436        0.30393        0.33426        0.30470        0.33453        0.36153        0.37486        0.30173        0.34735        0.30183        0.29187        0.28032        0.24887        0.31088        0.31014        0.34377        0.34107        0.34778        0.32970        0.35072        0.31733        0.34694        0.30524        0.32857        0.29655        0.33940        0.33601        0.37764        0.33508        0.33795        0.33692        0.29420        0.27820        0.31525        0.25313        0.23213        0.34117        0.32545        0.37029        0.34876        0.36589        0.33902        0.33458        0.35464        0.26829        0.27371        0.32164        0.30212        0.31204        0.31303        0.33996        0.32929        0.28894        0.29315        0.34660        0.32382        0.32589        0.30393        0.32143        0.33735        0.39143        0.36703        0.32347        0.28510        0.30399        0.29137        0.31186        0.28234        0.27515        0.31307        0.32873        0.34710        0.35738        0.33476        0.29886        0.30285        0.27358        0.28190        0.25856        0.30620        0.25889        0.25227        0.28568        0.28059        0.26217        0.29328        0.22282        0.21954        0.23667        0.19573        0.27731        0.35202        0.25545        0.24986        0.32036        0.29951        0.30683        0.31488        0.27756        0.25543        0.19708        0.21157        0.21462        0.29358        0.23763        0.28566        0.36884        0.37962        0.26202        0.19119        0.14379       -0.01789       -0.14590       -0.62904
2.731449 2.702449 2.673607 2.644923 2.616397 2.588029 2.559818 2.531766 2.503872 2.476135 2.448557 2.421136 2.393873 2.366769 2.339822 2.313033 2.286402 2.259929 2.233614 2.207457 2.181458 2.155616 2.129933 2.104408 2.079040 2.053831 2.028779 2.003885 1.979150 1.954572 1.930152 1.905890 1.881786 1.857840 1.834052 1.810422 1.786950 1.763635 1.740479 1.717481 1.694640 1.671958 1.649433 1.627066 1.604858 1.582807 1.560914 1.539179 1.517602 1.496183 1.474922 1.686851 2.101811 1.669391 1.159750 1.025903 0.443554 0.827345 0.544830 0.821277 0.794744 0.796062 0.736096 0.737355 0.581364 0.546254 0.488062 0.414742 0.243114 0.352439 0.192786 0.321218 0.211206 0.206036 0.181191 0.040751 -0.000841 0.018247 -0.068583 0.129614 0.227265 0.183738 0.175496 0.314215 0.178372 0.509018 0.609544 0.621116 0.637332 0.854304 0.814800 0.919942 0.919329 1.012497 0.984400 1.063155 1.142617 1.017393 1.139802 0.886739 0.906147 0.777175 0.638237 0.790374 0.676716 0.487363 0.325790 0.245299 0.264745 0.145868 0.136841 0.163160 0.107295 0.113900 0.082316 0.240718 0.339313 0.331781 0.465201 0.530567 0.405424 0.580531 0.714334 0.623624 0.700214 0.690987 0.700743 0.627424 0.580122 0.474375 0.355796 0.270302 0.214002 0.091895 0.113018 -0.117399 -0.048185 -0.061549 -0.083267 -0.016565 0.124769 0.070620 0.237860 0.299776 0.327672 0.360320 0.480718 0.450879 0.465343 0.475391 0.296145 0.284872 0.278534 0.083513 0.044837 -0.081632 -0.016690 -0.061734 -0.095196 -0.065003 0.040010 0.093102 0.124206 0.221863 0.215554 0.218117 0.301434 0.332011 0.435463 0.248347 0.225589 0.222020 0.139613 0.142354 0.117482 -0.004431 0.014165 0.077614 -0.011264 0.042648 0.130138 0.131344 0.205781 0.226672 0.247370 0.158030 0.205877 0.125668 0.118725 0.114047 0.024542 -0.025831 -0.001653 -0.020010 -0.049856 0.054601 0.003013 0.104152 0.134518 0.190204 0.153916 0.116969 0.135442 0.153562 0.106075 0.033283 -0.026036 0.024963 0.029851 -0.044650 0.038911 0.018266 0.046723 0.038444 0.053018 0.022141 0.119916 0.111897 0.044143 0.034588 0.039660 0.003878 -0.029721 0.007340 0.001717 -0.005833 0.001013 0.058329 0.052125 0.036650 0.068841 0.060551 0.163059 0.063027 0.041994 0.043232 -0.034087 0.013177 0.047493 0.008197 0.031810 0.055622 0.076876 0.057957 0.041304 0.008166 0.078659 0.029659 0.019554 0.025566 -0.004480 0.031003 0.027717 0.020687 0.069390 0.074775 0.080112 0.042227 0.054417 0.020887 0.017532 -0.026799 -0.023068 0.038202 0.051817 0.078310 0.078522 0.065276 0.068894 0.093990 0.041378 0.085148 0.052634 0.045381 0.017755 0.102517 0.063332 0.125201 0.060731 0.068732 0.088967 0.026606 0.002356 0.082771 -0.038684 -0.030431 0.086372 0.041369 0.153905 0.087069 0.085400 0.063155 0.024768 0.086244 -0.028318 -0.023649 0.042735 0.027903 0.027857 0.010831 0.097296 0.024923 -0.015496 0.046843 0.035948 0.051151 0.053481 -0.007021 0.050264 0.044076 0.109320 0.060301 0.028234 -0.029644 -0.032109 -0.004151 0.011359 -0.055857 -0.019036 -0.001229 0.005864 0.041778 0.060670 0.005586 -0.029796 -0.026852 -0.017469 -0.061760 -0.043013 -0.037867 -0.127556 -0.091809 -0.065195 -0.099382 -0.106798 -0.030931 -0.149959 -0.099575 -0.116570 -0.194860 -0.069554 0.059274 -0.076375 -0.128386 0.049056 0.018802 -0.032186 0.066863 -0.023688 -0.004555 -0.078764 -0.042846 0.051246 0.135914 0.049751 0.134804 0.161402 0.475199 0.209746 0.329612 0.180233 -0.022925 -0.685743
0.072396 0.072899 0.074408 0.076923 0.080443 0.084967 0.090495 0.097023 0.104551 0.113075 0.122592 0.133098 0.144587 0.157053 0.170489 0.184884 0.200228 0.216508 0.233709 0.251814 0.270803 0.290652 0.311335 0.332824 0.355084 0.378079 0.401767 0.426102 0.451034 0.476505 0.502455 0.528816 0.555516 0.582475 0.609609 0.636824 0.664022 0.691098 0.717940 0.744429 0.770438 0.795835 0.820481 0.844231 0.866931 0.888427 0.908553 0.927144 0.944029 0.959032 0.971978 0.982688 0.990983 0.996687 0.999623 0.999621 0.996514 0.990144 0.980359 0.967019 0.949998 0.929182 0.904476 0.875804 0.843108 0.806358 0.765545 0.720693 0.671851 0.619103 0.562565 0.502392 0.438771 0.371933 0.302144 0.229713 0.154988 0.078359 0.000255 0.078857 0.158471 0.238045 0.317008 0.394756 0.470661 0.544075 0.614334 0.680765 0.742690 0.799439 0.850351 0.894786 0.932133 0.961820 0.983322 0.996169 0.999961 0.994373 0.979163 0.954186 0.919398 0.874866 0.820772 0.757422 0.685246 0.604803 0.516781 0.421996 0.321389 0.216020 0.107064 0.004207 0.116428 0.228159 0.337904 0.444128 0.545279 0.639810 0.726207 0.803014 0.868859 0.922480 0.962759 0.988744 0.999673 0.995003 0.974432 0.937912 0.885670 0.818216 0.736347 0.641155 0.534014 0.416571 0.290731 0.158629 0.022603 0.114847 0.251099 0.383460 0.509215 0.625689 0.730302 0.820636 0.894491 0.949948 0.985425 0.999732 0.992116 0.962298 0.910507 0.837493 0.744536 0.633442 0.506513 0.366524 0.216665 0.060477 0.098219 0.255416 0.407018 0.548948 0.677260 0.788255 0.878595 0.945415 0.986424 0.999995 0.985247 0.942095 0.871291 0.774434 0.653958 0.513090 0.355778 0.186605 0.010655 0.166624 0.339582 0.502554 0.650040 0.776902 0.878558 0.951152 0.991726 0.998353 0.970248 0.907841 0.812804 0.688040 0.537618 0.366670 0.181229 0.011966 0.205697 0.392543 0.565156 0.716560 0.840444 0.931442 0.985385 0.999517 0.972660 0.905320 0.799722 0.659780 0.490977 0.300185 0.095408 0.114537 0.320390 0.512850 0.683005 0.822758 0.925227 0.985113 0.999004 0.965601 0.885851 0.762969 0.602361 0.411416 0.199208 0.023915 0.246813 0.458116 0.646790 0.802735 0.917352 0.984040 0.998615 0.959615 0.868459 0.729460 0.549669 0.338569 0.107606 0.130403 0.361963 0.573671 0.752991 0.889030 0.973222 0.999919 0.966812 0.875168 0.729858 0.539157 0.314328 0.068997 0.181637 0.421741 0.635834 0.809804 0.931879 0.993453 0.989755 0.920267 0.788881 0.603754 0.376866 0.123294 0.139745 0.394038 0.621653 0.806191 0.934030 0.995356 0.984995 0.902900 0.754300 0.549441 0.302959 0.032884 0.240642 0.496838 0.715882 0.880458 0.977186 0.997760 0.939744 0.806910 0.609094 0.361542 0.083816 0.201706 0.471614 0.703388 0.877293 0.978124 0.996599 0.930299 0.784042 0.569638 0.305032 0.012868 0.281390 0.551666 0.773592 0.926734 0.996556 0.975868 0.865677 0.675266 0.421543 0.127607 0.179270 0.470143 0.717127 0.896097 0.989117 0.986323 0.887074 0.700220 0.443443 0.141679 0.175221 0.475408 0.728228 0.907397 0.993799 0.977632 0.859633 0.651226 0.373557 0.055446 0.269527 0.566528 0.803220 0.953331 0.999670 0.936207 0.768984 0.515690 0.203924 0.131708 0.453381 0.724307 0.912972 0.996897 0.965431 0.821241 0.580275 0.270141 0.072931 0.408255 0.695485 0.899513 0.994846 0.968911 0.823868 0.576634 0.257080 0.095472 0.436980 0.724201 0.920169 0.999091 0.949855 0.777765 0.504172 0.163993 0.198625
1.000000 1.000000 1.000000 1.000000 1.000000 1.000000 1.000000 1.000000 1.000000 1.000000 1.000000 1.000000 1.000000 1.000000 1.000000 1.000000 1.000000 1.000000 1.000000 1.000000 1.000000 1.000000 1.000000 1.000000 1.000000 1.000000 1.000000 1.000000 1.000000 1.000000 1.000000 1.000000 1.000000 1.000000 1.000000 1.000000 1.000000 1.000000 1.000000 1.000000 1.000000 1.000000 1.000000 1.000000 1.000000 1.000000 1.000000 1.000000 1.000000 1.000000 1.000000 1.000000 0.915268 0.915268 0.915268 0.911328 0.911328 0.911328 0.911328 0.911328 0.911328 0.911328 0.911328 0.911328 0.911328 0.911328 0.911328 0.911328 0.911328 0.911328 0.911328 0.911328 0.911328 0.911328 0.911328 0.911328 0.911328 0.911328 0.911328 0.911328 0.911328 0.911328 0.911328 0.911328 0.911328 0.911328 0.911328 0.911328 0.911328 0.911328 0.911328 0.911328 0.911328 0.911328 0.911328 0.911328 0.939751 0.941177 0.949536 0.949056 0.948514 0.946540 0.945272 0.945063 0.944978 0.945332 0.946068 0.947063 0.953277 0.954213 0.958617 0.961340 0.961312 0.963058 0.965034 0.964678 0.956406 0.956157 0.954716 0.953997 0.956111 0.954761 0.953539 0.954017 0.952634 0.956002 0.955573 0.954371 0.952738 0.951150 0.948676 0.948255 0.948023 0.948833 0.948917 0.950498 0.953530 0.953702 0.953448 0.950717 0.950316 0.951524 0.951027 0.952813 0.940704 0.939984 0.938462 0.938444 0.941044 0.940904 0.940804 0.941723 0.941427 0.941350 0.941498 0.935759 0.935475 0.928534 0.924661 0.923476 0.917875 0.913797 0.916445 0.919098 0.920230 0.920632 0.911167 0.908369 0.909423 0.908192 0.909582 0.910176 0.911313 0.911676 0.911601 0.906533 0.897138 0.895614 0.886505 0.889185 0.885362 0.882696 0.879882 0.871399 0.862973 0.874960 0.862053 0.825099 0.828573 0.833340 0.827236 0.824265 0.827164 0.827930 0.832686 0.825989 0.824795 0.818820 0.805628 0.802642 0.797138 0.782126 0.777511 0.767725 0.757608 0.751440 0.774389 0.768300 0.779837 0.784001 0.783668 0.779679 0.769826 0.758318 0.758664 0.757459 0.753095 0.728739 0.720511 0.720629 0.718787 0.705863 0.708560 0.697545 0.697550 0.684330 0.689186 0.694960 0.698370 0.693587 0.687123 0.679099 0.674547 0.688342 0.701517 0.693978 0.690550 0.699730 0.690669 0.684539 0.675367 0.678805 0.670179 0.666414 0.667982 0.697748 0.671721 0.661555 0.666690 0.666325 0.663881 0.663743 0.642447 0.637822 0.614801 0.632245 0.636135 0.650492 0.652820 0.656411 0.667071 0.673048 0.683721 0.688495 0.686319 0.645533 0.650195 0.667464 0.675419 0.665305 0.655562 0.649774 0.639631 0.676628 0.660985 0.619618 0.615220 0.616030 0.569944 0.548865 0.547075 0.548285 0.575795 0.574109 0.557826 0.531915 0.533831 0.533781 0.529389 0.528469 0.507629 0.517737 0.501248 0.478481 0.491679 0.500233 0.499016 0.483074 0.476761 0.490581 0.471472 0.494781 0.473519 0.456862 0.472899 0.472216 0.460409 0.389072 0.395627 0.386925 0.371513 0.328948 0.338155 0.348244 0.327556 0.251483 0.246089 0.246889 0.243110 0.220972 0.194869 0.181572 0.172036 0.149413 0.090908 0.041358 0.044455 0.048385 0.074618 0.036644 0.090694 0.160787 0.157083 0.157083 0.157083 0.157083 0.157083 0.157083 0.157083 0.157083 0.133806 0.133806 0.133806 0.133806 0.133806 0.133806 0.133806 0.133806 0.133806 0.157083 0.157083 0.157083 0.157083 0.157083 0.157083 0.157083 0.157083 0.157083 0.157083 0.157083 0.157083 0.157083 0.157083
0.000000 0.000000 0.000000 0.000000 0.000000 0.000000 0.000000 0.000000 0.000000 0.000000 0.000000 0.000000 0.000000 0.000000 0.000000 0.000000 0.000000 0.000000 0.000000 0.000000 0.000000 0.000000 0.000000 0.000000 0.000000 0.000000 0.000000 0.000000 0.000000 0.000000 0.000000 0.000000 0.000000 0.000000 0.000000 0.000000 0.000000 0.000000 0.000000 0.000000 0.000000 0.000000 0.000000 0.000000 0.000000 0.000000 0.000000 0.000000 0.000000 0.000000 0.000000 0.000000 0.180334 0.180334 0.180334 0.199007 0.199007 0.199007 0.199007 0.199007 0.199007 0.199007 0.199007 0.199007 0.199007 0.199007 0.199007 0.199007 0.199007 0.199007 0.199007 0.199007 0.199007 0.199007 0.199007 0.199007 0.199007 0.199007 0.199007 0.199007 0.199007 0.199007 0.199007 0.199007 0.199007 0.199007 0.199007 0.199007 0.199007 0.199007 0.199007 0.199007 0.199007 0.199007 0.199007 0.199007 0.225018 0.225018 0.225018 0.225018 0.225018 0.225018 0.225018 0.225018 0.225018 0.225018 0.225018 0.225018 0.225018 0.225018 0.225018 0.225018 0.225018 0.225018 0.225018 0.225018 0.225018 0.225018 0.225018 0.225018 0.225018 0.225018 0.225018 0.225018 0.225018 0.244339 0.244339 0.244339 0.244339 0.244339 0.244339 0.244339 0.244339 0.244339 0.244339 0.244339 0.244339 0.244339 0.244339 0.244339 0.244339 0.244339 0.244339 0.244339 0.244339 0.244339 0.244339 0.244339 0.256074 0.256074 0.256074 0.256074 0.256074 0.256074 0.256074 0.256074 0.256074 0.256074 0.256074 0.256074 0.256074 0.256074 0.256074 0.256074 0.256074 0.256074 0.256074 0.256074 0.256074 0.256074 0.256074 0.256074 0.256074 0.256074 0.256074 0.256074 0.256074 0.256074 0.256074 0.256074 0.256074 0.256074 0.256074 0.256074 0.256074 0.264906 0.264906 0.264906 0.264906 0.264906 0.264906 0.264906 0.264906 0.264906 0.264906 0.264906 0.264906 0.264906 0.264906 0.264906 0.264906 0.264906 0.264906 0.264906 0.264906 0.264906 0.264906 0.264906 0.264906 0.264906 0.264906 0.264906 0.264906 0.264906 0.264906 0.264906 0.264906 0.264906 0.264906 0.264906 0.264906 0.264906 0.264906 0.264906 0.264906 0.264906 0.264906 0.264906 0.264906 0.264906 0.264906 0.264906 0.264906 0.264906 0.264906 0.264906 0.264906 0.264906 0.264906 0.264906 0.264906 0.264906 0.264906 0.260378 0.260378 0.260378 0.260378 0.260378 0.260378 0.260378 0.260378 0.260378 0.260378 0.260378 0.260378 0.260378 0.264906 0.264906 0.264906 0.264906 0.264906 0.264906 0.264906 0.264906 0.264906 0.264906 0.264906 0.264906 0.269680 0.269680 0.269680 0.269680 0.269680 0.269680 0.269680 0.269680 0.269680 0.269680 0.269680 0.264906 0.264906 0.264906 0.264906 0.264906 0.264906 0.264906 0.264906 0.264906 0.264906 0.264906 0.256074 0.256074 0.256074 0.256074 0.256074 0.256074 0.256074 0.256074 0.256074 0.256074 0.256074 0.264906 0.264906 0.264906 0.264906 0.264906 0.264906 0.264906 0.264906 0.264906 0.264906 0.260378 0.260378 0.260378 0.260378 0.260378 0.260378 0.260378 0.260378 0.260378 0.260378 0.264906 0.264906 0.264906 0.264906 0.264906 0.264906 0.264906 0.264906 0.264906 0.251976 0.251976 0.251976 0.251976 0.251976 0.251976 0.251976 0.251976 0.251976 0.251976 0.256074 0.256074 0.256074 0.256074 0.256074 0.256074 0.256074 0.256074 0.256074 0.251976 0.251976 0.251976 0.251976 0.251976 0.251976 0.251976 0.251976 0.251976 0.251976 0.251976 0.251976 0.251976 0.251976
