# Output from CTFFind version 4.1.9, run on 2019-11-03 19:31:35
# Input file: stack6_bm3d_averaged_1_4.25_0_50_half.mrc ; Number of micrographs: 1
# Pixel size: 3.000 Angstroms ; acceleration voltage: 300.0 keV ; spherical aberration: 0.00 mm ; amplitude contrast: 0.07
# Box size: 512 pixels ; min. res.: 30.0 Angstroms ; max. res.: 5.0 Angstroms ; min. def.: 5000.0 um; max. def. 50000.0 um; num. frames averaged: 1
# 6 lines per micrograph: #1 - spatial frequency (1/Angstroms); #2 - 1D rotational average of spectrum (assuming no astigmatism); #3 - 1D rotational average of spectrum; #4 - CTF fit; #5 - cross-correlation between spectrum and CTF fit; #6 - 2sigma of expected cross correlation of noise
0.000000 0.000651 0.001302 0.001953 0.002604 0.003255 0.003906 0.004557 0.005208 0.005859 0.006510 0.007161 0.007812 0.008464 0.009115 0.009766 0.010417 0.011068 0.011719 0.012370 0.013021 0.013672 0.014323 0.014974 0.015625 0.016276 0.016927 0.017578 0.018229 0.018880 0.019531 0.020182 0.020833 0.021484 0.022135 0.022786 0.023438 0.024089 0.024740 0.025391 0.026042 0.026693 0.027344 0.027995 0.028646 0.029297 0.029948 0.030599 0.031250 0.031901 0.032552 0.033203 0.033854 0.034505 0.035156 0.035807 0.036458 0.037109 0.037760 0.038411 0.039062 0.039714 0.040365 0.041016 0.041667 0.042318 0.042969 0.043620 0.044271 0.044922 0.045573 0.046224 0.046875 0.047526 0.048177 0.048828 0.049479 0.050130 0.050781 0.051432 0.052083 0.052734 0.053385 0.054036 0.054688 0.055339 0.055990 0.056641 0.057292 0.057943 0.058594 0.059245 0.059896 0.060547 0.061198 0.061849 0.062500 0.063151 0.063802 0.064453 0.065104 0.065755 0.066406 0.067057 0.067708 0.068359 0.069010 0.069661 0.070312 0.070964 0.071615 0.072266 0.072917 0.073568 0.074219 0.074870 0.075521 0.076172 0.076823 0.077474 0.078125 0.078776 0.079427 0.080078 0.080729 0.081380 0.082031 0.082682 0.083333 0.083984 0.084635 0.085286 0.085938 0.086589 0.087240 0.087891 0.088542 0.089193 0.089844 0.090495 0.091146 0.091797 0.092448 0.093099 0.093750 0.094401 0.095052 0.095703 0.096354 0.097005 0.097656 0.098307 0.098958 0.099609 0.100260 0.100911 0.101562 0.102214 0.102865 0.103516 0.104167 0.104818 0.105469 0.106120 0.106771 0.107422 0.108073 0.108724 0.109375 0.110026 0.110677 0.111328 0.111979 0.112630 0.113281 0.113932 0.114583 0.115234 0.115885 0.116536 0.117188 0.117839 0.118490 0.119141 0.119792 0.120443 0.121094 0.121745 0.122396 0.123047 0.123698 0.124349 0.125000 0.125651 0.126302 0.126953 0.127604 0.128255 0.128906 0.129557 0.130208 0.130859 0.131510 0.132161 0.132812 0.133464 0.134115 0.134766 0.135417 0.136068 0.136719 0.137370 0.138021 0.138672 0.139323 0.139974 0.140625 0.141276 0.141927 0.142578 0.143229 0.143880 0.144531 0.145182 0.145833 0.146484 0.147135 0.147786 0.148438 0.149089 0.149740 0.150391 0.151042 0.151693 0.152344 0.152995 0.153646 0.154297 0.154948 0.155599 0.156250 0.156901 0.157552 0.158203 0.158854 0.159505 0.160156 0.160807 0.161458 0.162109 0.162760 0.163411 0.164062 0.164714 0.165365 0.166016 0.166667 0.167318 0.167969 0.168620 0.169271 0.169922 0.170573 0.171224 0.171875 0.172526 0.173177 0.173828 0.174479 0.175130 0.175781 0.176432 0.177083 0.177734 0.178385 0.179036 0.179688 0.180339 0.180990 0.181641 0.182292 0.182943 0.183594 0.184245 0.184896 0.185547 0.186198 0.186849 0.187500 0.188151 0.188802 0.189453 0.190104 0.190755 0.191406 0.192057 0.192708 0.193359 0.194010 0.194661 0.195312 0.195964 0.196615 0.197266 0.197917 0.198568 0.199219 0.199870 0.200521 0.201172 0.201823 0.202474 0.203125 0.203776 0.204427 0.205078 0.205729 0.206380 0.207031 0.207682 0.208333 0.208984 0.209635 0.210286 0.210938 0.211589 0.212240 0.212891 0.213542 0.214193 0.214844 0.215495 0.216146 0.216797 0.217448 0.218099 0.218750 0.219401 0.220052 0.220703 0.221354 0.222005 0.222656 0.223307 0.223958 0.224609 0.225260 0.225911 0.226562 0.227214 0.227865 0.228516 0.229167 0.229818 0.230469 0.231120 0.231771 0.232422 0.233073 0.233724 0.234375 0.235026 0.235677
       0.30120        0.30120        0.30120        0.30120        0.30120        0.30120        0.30120        0.30120        0.30120        0.30120        0.30120        0.30120        0.30120        0.30120        0.30120        0.30120        0.30120        0.30120        0.30120        0.30120        0.30120        0.30120        0.30120        0.30120        0.30120        0.30120        0.30120        0.30120        0.30120        0.30120        0.30120        0.30120        0.30120        0.30120        0.30120        0.30120        0.30120        0.30120        0.30120        0.30120        0.30120        0.30120        0.30120        0.30120        0.30120        0.30120        0.30120        0.30120        0.30120        0.30120        0.30120        0.60030        0.73459        0.35675        0.19443        0.12590       -0.15419        0.10737        0.02286        0.02931        0.08804        0.31045        0.34134        0.27156        0.15832       -0.04091       -0.00935        0.03885       -0.14966       -0.16097       -0.09229       -0.11733       -0.24859       -0.15901       -0.28283       -0.29339       -0.29977       -0.36628       -0.44258       -0.39451       -0.30556       -0.27190       -0.36972       -0.27960       -0.34000       -0.27576       -0.20131       -0.15136       -0.11228       -0.03547       -0.00714        0.10300        0.14544        0.20912        0.32864        0.39279        0.35567        0.46315        0.55315        0.56306        0.64579        0.59473        0.63431        0.60186        0.62128        0.62007        0.55926        0.56565        0.55945        0.39622        0.32635        0.35582        0.34169        0.18180        0.13708        0.10238        0.07245        0.07537       -0.02185        0.03896        0.00566       -0.03675        0.08050        0.15257        0.25194        0.34395        0.33372        0.36549        0.46882        0.50227        0.43317        0.65109        0.53040        0.48422        0.56225        0.50245        0.51977        0.47644        0.36206        0.30909        0.24613        0.20583        0.18137        0.16984        0.14720        0.09079        0.15474        0.16068        0.20142        0.18077        0.25090        0.28524        0.32161        0.44936        0.42072        0.41409        0.44874        0.49079        0.47650        0.45482        0.38060        0.39701        0.34142        0.27823        0.22356        0.23213        0.21308        0.17346        0.15131        0.18839        0.18943        0.24148        0.31366        0.34207        0.40025        0.38875        0.44863        0.45351        0.44403        0.42486        0.39169        0.40309        0.37622        0.33452        0.31495        0.29565        0.24485        0.26022        0.25528        0.20885        0.26405        0.25085        0.26196        0.31542        0.35842        0.39500        0.39019        0.40422        0.38303        0.40030        0.39145        0.29018        0.27800        0.24083        0.25675        0.21339        0.18921        0.26686        0.31067        0.29456        0.26807        0.32438        0.25400        0.33660        0.35531        0.35496        0.35993        0.37902        0.31195        0.31346        0.29708        0.27289        0.26856        0.24419        0.26863        0.29301        0.29309        0.31349        0.35921        0.37043        0.35174        0.33541        0.34935        0.31381        0.30207        0.29888        0.27207        0.27706        0.25407        0.29610        0.31028        0.29561        0.28869        0.31130        0.31616        0.32522        0.32870        0.28922        0.25913        0.28578        0.27419        0.26159        0.24355        0.22374        0.24278        0.25252        0.23890        0.26467        0.27549        0.31837        0.30471        0.28158        0.29926        0.23891        0.20712        0.26390        0.23782        0.20343        0.25850        0.30481        0.26842        0.29079        0.29174        0.29458        0.30285        0.29755        0.26238        0.29365        0.27707        0.31102        0.26053        0.26122        0.24987        0.29369        0.29757        0.31974        0.32165        0.30675        0.20800        0.26936        0.25835        0.22989        0.24403        0.24060        0.28376        0.26396        0.30157        0.29826        0.34602        0.30023        0.27033        0.23156        0.23108        0.24169        0.24877        0.27779        0.28511        0.29892        0.31497        0.28196        0.28336        0.25878        0.25848        0.27397        0.22861        0.20683        0.23246        0.30740        0.29369        0.28936        0.27969        0.21928        0.25945        0.25200        0.20193        0.21977        0.26410        0.28115        0.28011        0.20877        0.19318        0.25460        0.23892        0.25774        0.25030        0.23792        0.18896        0.21383        0.25474        0.23430        0.26472        0.23337        0.22544        0.16635        0.28218        0.30870        0.17337        0.16478        0.12116        0.13741        0.27040        0.14072        0.11531        0.31010        0.20013        0.14373        0.11406        0.14630        0.13300        0.16610       -0.05048       -0.67966       -1.06523
2.663172 2.637353 2.611664 2.586106 2.560679 2.535382 2.510217 2.485182 2.460278 2.435506 2.410863 2.386352 2.361972 2.337722 2.313604 2.289616 2.265759 2.242033 2.218437 2.194973 2.171639 2.148437 2.125365 2.102423 2.079613 2.056934 2.034385 2.011967 1.989681 1.967525 1.945499 1.923605 1.901842 1.880209 1.858707 1.837336 1.816096 1.794987 1.774008 1.753161 1.732444 1.711858 1.691403 1.671079 1.650885 1.630823 1.610891 1.591090 1.571420 1.551881 1.532473 1.900318 2.243815 1.577351 1.469372 1.180933 0.606214 1.044790 0.908665 0.930130 0.788649 1.442862 1.325223 1.330594 1.070352 0.718182 0.562279 0.822230 0.590755 0.254789 0.360615 0.501080 0.236121 0.276735 0.121697 0.032123 -0.027346 -0.025566 -0.301730 -0.207048 -0.060758 -0.091276 -0.141943 -0.042057 -0.190203 -0.155003 0.022347 0.103500 0.167295 0.227563 0.281715 0.551924 0.490592 0.584660 0.818757 0.944414 0.798832 1.153118 1.141789 1.222129 1.301398 1.179942 1.327014 1.203154 1.146114 1.325358 1.109339 1.058727 1.151313 0.915150 0.610086 0.660732 0.723216 0.411162 0.318747 0.241106 0.118948 0.115385 -0.043430 0.082965 0.019663 -0.113456 0.029634 0.152028 0.266021 0.520773 0.518712 0.481101 0.668131 0.819192 0.536416 0.981936 0.839043 0.736809 0.828280 0.670501 0.756724 0.753113 0.463291 0.372081 0.259518 0.191867 0.130253 0.029243 0.064402 -0.117547 0.011185 -0.003454 0.109258 -0.017107 0.199693 0.205365 0.176328 0.425983 0.510819 0.406618 0.345817 0.564948 0.613141 0.462719 0.413050 0.371091 0.300800 0.229678 0.062407 0.072874 0.002660 0.053574 -0.109729 -0.040536 -0.086291 0.121428 0.037335 0.256907 0.262756 0.299759 0.390498 0.373957 0.489899 0.379479 0.430340 0.418952 0.273733 0.317136 0.176416 0.237353 0.085568 0.140111 0.074709 0.077646 -0.005360 0.123967 0.035430 0.145757 0.244039 0.255040 0.330425 0.332011 0.305821 0.297870 0.318713 0.207692 0.101199 0.088343 0.031442 0.027098 -0.060903 -0.034525 0.086392 0.173958 0.083160 0.102258 0.096116 0.104946 0.207869 0.178555 0.225645 0.251797 0.155921 0.101089 0.096358 0.077782 0.050939 -0.033884 0.007188 0.121629 0.004750 0.115389 0.118165 0.229817 0.183551 0.175687 0.245157 0.214012 0.092394 0.135889 0.127323 0.065439 0.025186 0.083933 0.107733 0.130181 0.113810 0.100973 0.126386 0.145098 0.179126 0.114588 0.040299 0.001332 0.076936 0.007977 0.044834 -0.046180 -0.058960 0.014811 -0.018302 -0.032842 0.029595 0.051290 0.109343 0.102727 0.017348 0.076829 -0.081821 -0.040381 0.037315 -0.068040 -0.075782 0.052821 0.073666 0.013352 0.055408 0.040125 0.085877 0.131474 -0.008361 0.015775 0.126511 -0.010614 0.105722 -0.005056 0.031493 -0.034894 0.135343 0.031189 0.128778 0.123443 0.075080 -0.086950 0.038954 0.010817 -0.029216 -0.019330 -0.000204 0.029948 0.034017 0.169004 -0.004564 0.193542 0.098451 -0.020227 0.005429 -0.042890 0.000971 0.047020 0.046491 0.068855 0.095215 0.155358 0.115907 0.070985 0.071311 0.082041 0.089243 0.033169 -0.054735 0.057183 0.145460 0.114251 0.139620 0.135785 -0.008804 0.075110 0.043150 -0.044578 0.019187 0.064959 0.139092 0.091664 -0.025827 -0.033375 0.065522 0.067290 0.037422 0.083477 0.000659 0.008454 -0.008737 0.088126 0.040800 0.119312 0.012467 0.013727 -0.075803 0.180990 0.214278 -0.105808 0.001182 -0.157480 -0.236875 0.223836 -0.105115 0.097237 0.544400 0.296086 0.247319 0.160287 0.376018 0.201816 0.274428 -0.078569 -1.877499
0.072396 0.072835 0.074152 0.076347 0.079420 0.083369 0.088193 0.093892 0.100465 0.107908 0.116220 0.125397 0.135436 0.146332 0.158079 0.170672 0.184103 0.198363 0.213440 0.229325 0.246002 0.263456 0.281668 0.300620 0.320289 0.340647 0.361669 0.383321 0.405570 0.428377 0.451700 0.475493 0.499705 0.524284 0.549169 0.574297 0.599601 0.625006 0.650435 0.675804 0.701025 0.726003 0.750641 0.774833 0.798471 0.821441 0.843622 0.864892 0.885123 0.904182 0.921934 0.938240 0.952958 0.965946 0.977058 0.986149 0.993074 0.997688 0.999849 0.999418 0.996261 0.990248 0.981256 0.969172 0.953889 0.935314 0.913366 0.887976 0.859092 0.826680 0.790723 0.751225 0.708212 0.661733 0.611863 0.558702 0.502376 0.443041 0.380884 0.316119 0.248991 0.179778 0.108787 0.036356 0.037146 0.111323 0.185749 0.259973 0.333521 0.405894 0.476578 0.545043 0.610747 0.673140 0.731671 0.785791 0.834960 0.878648 0.916351 0.947587 0.971907 0.988904 0.998216 0.999535 0.992611 0.977264 0.953385 0.920942 0.879990 0.830671 0.773218 0.707962 0.635330 0.555849 0.470141 0.378928 0.283022 0.183326 0.080826 0.023419 0.128283 0.232584 0.335099 0.434576 0.529749 0.619357 0.702157 0.776947 0.842583 0.897999 0.942228 0.974419 0.993858 0.999983 0.992407 0.970924 0.935531 0.886430 0.824043 0.749010 0.662192 0.564672 0.457738 0.342881 0.221776 0.096259 0.031695 0.159998 0.286486 0.408953 0.525188 0.633019 0.730352 0.815220 0.885821 0.940566 0.978116 0.997424 0.997765 0.978769 0.940443 0.883188 0.807807 0.715504 0.607881 0.486914 0.354927 0.214556 0.068705 0.079515 0.226846 0.369953 0.505497 0.630221 0.741028 0.835060 0.909784 0.963066 0.993239 0.999167 0.980293 0.936675 0.869015 0.778657 0.667583 0.538377 0.394188 0.238651 0.075817 0.089957 0.254110 0.412008 0.559072 0.690916 0.803484 0.893184 0.957009 0.992655 0.998616 0.974259 0.919872 0.836695 0.726906 0.593591 0.440663 0.272780 0.095202 0.086364 0.265929 0.437436 0.594950 0.732877 0.846172 0.930531 0.982574 0.999998 0.981693 0.927823 0.839863 0.720587 0.574003 0.405241 0.220396 0.026311 0.169644 0.359876 0.536833 0.693334 0.822852 0.919811 0.979841 0.999998 0.978930 0.916980 0.816230 0.680455 0.515023 0.326694 0.123378 0.086192 0.292815 0.487237 0.660554 0.804640 0.912544 0.978845 0.999949 0.974317 0.902591 0.787630 0.634436 0.449960 0.242831 0.022964 0.198898 0.411694 0.604606 0.767614 0.892037 0.971013 0.999917 0.976660 0.901869 0.778927 0.613867 0.415113 0.193082 0.040331 0.272381 0.490160 0.681316 0.834776 0.941404 0.994587 0.990670 0.929258 0.813317 0.649084 0.445783 0.215145 0.029246 0.272722 0.500411 0.698145 0.853371 0.955959 0.998918 0.978910 0.896552 0.756475 0.567126 0.340301 0.090456 0.166183 0.412661 0.632420 0.810410 0.934164 0.994705 0.987248 0.911628 0.772423 0.578743 0.343690 0.083523 0.183436 0.438080 0.661881 0.838252 0.953817 0.999469 0.971151 0.870268 0.703705 0.483432 0.225704 0.050103 0.322899 0.571506 0.776295 0.920781 0.992983 0.986494 0.901103 0.742955 0.524188 0.262074 0.022299 0.305681 0.564550 0.777074 0.924985 0.995209 0.981081 0.883054 0.708813 0.472759 0.194884 0.100847 0.388550 0.642666 0.840266 0.963143 0.999573 0.945505 0.805085 0.590450 0.320763 0.020572 0.282375 0.559675 0.784939 0.936349 0.998831 0.965642 0.839182 0.630944 0.360576 0.054089 0.258561 0.546400 0.780500 0.936936
1.000000 1.000000 1.000000 1.000000 1.000000 1.000000 1.000000 1.000000 1.000000 1.000000 1.000000 1.000000 1.000000 1.000000 1.000000 1.000000 1.000000 1.000000 1.000000 1.000000 1.000000 1.000000 1.000000 1.000000 1.000000 1.000000 1.000000 1.000000 1.000000 1.000000 1.000000 1.000000 1.000000 1.000000 1.000000 1.000000 1.000000 1.000000 1.000000 1.000000 1.000000 1.000000 1.000000 1.000000 1.000000 1.000000 1.000000 1.000000 1.000000 1.000000 1.000000 1.000000 0.797377 0.797377 0.797377 0.797377 0.797377 0.797377 0.797377 0.780036 0.780036 0.780036 0.780036 0.780036 0.780036 0.780036 0.780036 0.780036 0.780036 0.780036 0.780036 0.780036 0.780036 0.780036 0.780036 0.780036 0.780036 0.780036 0.780036 0.780036 0.780036 0.780036 0.780036 0.780036 0.780036 0.780036 0.780036 0.780036 0.780036 0.780036 0.780036 0.780036 0.780036 0.780036 0.780036 0.780036 0.780036 0.780036 0.780036 0.780036 0.780036 0.780036 0.780036 0.931335 0.930430 0.932004 0.930660 0.931658 0.930536 0.926503 0.928806 0.928001 0.925544 0.925502 0.926090 0.927408 0.928028 0.934784 0.936747 0.945597 0.949611 0.949653 0.948493 0.946272 0.950165 0.947752 0.944105 0.940825 0.943007 0.940713 0.942086 0.939393 0.940583 0.942571 0.943606 0.939877 0.939143 0.937673 0.936411 0.935414 0.934884 0.935112 0.935193 0.934715 0.935655 0.936429 0.934618 0.936762 0.933738 0.934325 0.931866 0.932306 0.934544 0.923548 0.923796 0.917226 0.910797 0.908884 0.908271 0.906655 0.907252 0.908301 0.908989 0.909657 0.910597 0.910269 0.909714 0.910113 0.907081 0.900120 0.896011 0.893967 0.895724 0.900285 0.904204 0.903434 0.900007 0.899025 0.893581 0.888061 0.875438 0.861399 0.860571 0.859398 0.863295 0.866282 0.866362 0.863027 0.861225 0.861279 0.860085 0.865075 0.866346 0.859755 0.849988 0.848168 0.844529 0.852430 0.852999 0.847246 0.852059 0.842169 0.851232 0.852267 0.837392 0.837700 0.838097 0.840723 0.846027 0.841128 0.836650 0.832016 0.826893 0.816099 0.808429 0.811787 0.818475 0.818414 0.804809 0.777319 0.795716 0.791712 0.796335 0.806860 0.816822 0.819331 0.811973 0.787586 0.772840 0.759685 0.760104 0.763627 0.759168 0.759274 0.743745 0.744256 0.713994 0.711654 0.708144 0.700055 0.704738 0.703047 0.707862 0.702108 0.712304 0.711317 0.666853 0.669655 0.607192 0.604654 0.597030 0.574995 0.580708 0.568447 0.577886 0.583350 0.565206 0.533528 0.540829 0.540276 0.547626 0.515878 0.501681 0.499602 0.513850 0.515388 0.515960 0.507695 0.498758 0.464267 0.480238 0.484186 0.470139 0.474596 0.498107 0.497588 0.490241 0.473037 0.465612 0.481737 0.506251 0.512637 0.514018 0.518728 0.485770 0.459688 0.482960 0.499585 0.499866 0.490101 0.477165 0.474003 0.490705 0.459233 0.471727 0.464713 0.481818 0.461973 0.419222 0.375509 0.324328 0.336869 0.340368 0.334491 0.328380 0.342165 0.350606 0.362474 0.361579 0.362442 0.391546 0.427553 0.414794 0.411129 0.412120 0.409154 0.408245 0.403161 0.377299 0.385401 0.402631 0.407643 0.354300 0.338156 0.310535 0.298217 0.307559 0.322019 0.337519 0.323604 0.326458 0.195326 0.217747 0.183791 0.198185 0.198185 0.198185 0.198185 0.198185 0.198185 0.198185 0.198185 0.198185 0.219452 0.219452 0.219452 0.219452 0.219452 0.219452 0.219452 0.219452 0.219452 0.219452 0.219452 0.219452 0.219452 0.219452 0.219452 0.219452 0.219452 0.219452 0.219452 0.219452
0.000000 0.000000 0.000000 0.000000 0.000000 0.000000 0.000000 0.000000 0.000000 0.000000 0.000000 0.000000 0.000000 0.000000 0.000000 0.000000 0.000000 0.000000 0.000000 0.000000 0.000000 0.000000 0.000000 0.000000 0.000000 0.000000 0.000000 0.000000 0.000000 0.000000 0.000000 0.000000 0.000000 0.000000 0.000000 0.000000 0.000000 0.000000 0.000000 0.000000 0.000000 0.000000 0.000000 0.000000 0.000000 0.000000 0.000000 0.000000 0.000000 0.000000 0.000000 0.000000 0.173422 0.173422 0.173422 0.173422 0.173422 0.173422 0.173422 0.191565 0.191565 0.191565 0.191565 0.191565 0.191565 0.191565 0.191565 0.191565 0.191565 0.191565 0.191565 0.191565 0.191565 0.191565 0.191565 0.191565 0.191565 0.191565 0.191565 0.191565 0.191565 0.191565 0.191565 0.191565 0.191565 0.191565 0.191565 0.191565 0.191565 0.191565 0.191565 0.191565 0.191565 0.191565 0.191565 0.191565 0.191565 0.191565 0.191565 0.191565 0.191565 0.191565 0.191565 0.222222 0.222222 0.222222 0.222222 0.222222 0.222222 0.222222 0.222222 0.222222 0.222222 0.222222 0.222222 0.222222 0.222222 0.222222 0.222222 0.222222 0.222222 0.222222 0.222222 0.222222 0.222222 0.222222 0.222222 0.222222 0.222222 0.222222 0.222222 0.222222 0.222222 0.234082 0.234082 0.234082 0.234082 0.234082 0.234082 0.234082 0.234082 0.234082 0.234082 0.234082 0.234082 0.234082 0.234082 0.234082 0.234082 0.234082 0.234082 0.234082 0.234082 0.234082 0.234082 0.234082 0.234082 0.234082 0.244339 0.244339 0.244339 0.244339 0.244339 0.244339 0.244339 0.244339 0.244339 0.244339 0.244339 0.244339 0.244339 0.244339 0.244339 0.244339 0.244339 0.244339 0.244339 0.244339 0.244339 0.248069 0.248069 0.248069 0.248069 0.248069 0.248069 0.248069 0.248069 0.248069 0.248069 0.248069 0.248069 0.248069 0.248069 0.248069 0.248069 0.248069 0.248069 0.248069 0.256074 0.256074 0.256074 0.256074 0.256074 0.256074 0.256074 0.256074 0.256074 0.256074 0.256074 0.256074 0.256074 0.256074 0.256074 0.256074 0.256074 0.256074 0.256074 0.256074 0.256074 0.256074 0.256074 0.256074 0.256074 0.256074 0.256074 0.256074 0.256074 0.256074 0.256074 0.256074 0.256074 0.256074 0.256074 0.256074 0.256074 0.256074 0.256074 0.256074 0.256074 0.256074 0.256074 0.256074 0.256074 0.256074 0.256074 0.256074 0.248069 0.248069 0.248069 0.248069 0.248069 0.248069 0.248069 0.248069 0.248069 0.248069 0.248069 0.248069 0.248069 0.248069 0.248069 0.260378 0.260378 0.260378 0.260378 0.260378 0.260378 0.260378 0.260378 0.260378 0.260378 0.260378 0.260378 0.260378 0.256074 0.256074 0.256074 0.256074 0.256074 0.256074 0.256074 0.256074 0.256074 0.256074 0.256074 0.256074 0.256074 0.260378 0.260378 0.260378 0.260378 0.260378 0.260378 0.260378 0.260378 0.260378 0.260378 0.260378 0.260378 0.251976 0.251976 0.251976 0.251976 0.251976 0.251976 0.251976 0.251976 0.251976 0.251976 0.251976 0.251976 0.256074 0.256074 0.256074 0.256074 0.256074 0.256074 0.256074 0.256074 0.256074 0.256074 0.256074 0.251976 0.251976 0.251976 0.251976 0.251976 0.251976 0.251976 0.251976 0.251976 0.251976 0.251976 0.260378 0.260378 0.260378 0.260378 0.260378 0.260378 0.260378 0.260378 0.260378 0.260378 0.244339 0.244339 0.244339 0.244339 0.244339 0.244339 0.244339 0.244339 0.244339 0.244339 0.244339 0.244339 0.244339 0.244339 0.244339 0.244339 0.244339 0.244339 0.244339 0.244339
