# Output from CTFFind version 4.1.9, run on 2019-11-02 17:50:19
# Input file: stack11_bm3d_averaged_1_1.25_0_3000_half.mrc ; Number of micrographs: 1
# Pixel size: 3.000 Angstroms ; acceleration voltage: 300.0 keV ; spherical aberration: 0.00 mm ; amplitude contrast: 0.07
# Box size: 512 pixels ; min. res.: 30.0 Angstroms ; max. res.: 5.0 Angstroms ; min. def.: 5000.0 um; max. def. 50000.0 um; num. frames averaged: 1
# 6 lines per micrograph: #1 - spatial frequency (1/Angstroms); #2 - 1D rotational average of spectrum (assuming no astigmatism); #3 - 1D rotational average of spectrum; #4 - CTF fit; #5 - cross-correlation between spectrum and CTF fit; #6 - 2sigma of expected cross correlation of noise
0.000000 0.000651 0.001302 0.001953 0.002604 0.003255 0.003906 0.004557 0.005208 0.005859 0.006510 0.007161 0.007812 0.008464 0.009115 0.009766 0.010417 0.011068 0.011719 0.012370 0.013021 0.013672 0.014323 0.014974 0.015625 0.016276 0.016927 0.017578 0.018229 0.018880 0.019531 0.020182 0.020833 0.021484 0.022135 0.022786 0.023438 0.024089 0.024740 0.025391 0.026042 0.026693 0.027344 0.027995 0.028646 0.029297 0.029948 0.030599 0.031250 0.031901 0.032552 0.033203 0.033854 0.034505 0.035156 0.035807 0.036458 0.037109 0.037760 0.038411 0.039062 0.039714 0.040365 0.041016 0.041667 0.042318 0.042969 0.043620 0.044271 0.044922 0.045573 0.046224 0.046875 0.047526 0.048177 0.048828 0.049479 0.050130 0.050781 0.051432 0.052083 0.052734 0.053385 0.054036 0.054688 0.055339 0.055990 0.056641 0.057292 0.057943 0.058594 0.059245 0.059896 0.060547 0.061198 0.061849 0.062500 0.063151 0.063802 0.064453 0.065104 0.065755 0.066406 0.067057 0.067708 0.068359 0.069010 0.069661 0.070312 0.070964 0.071615 0.072266 0.072917 0.073568 0.074219 0.074870 0.075521 0.076172 0.076823 0.077474 0.078125 0.078776 0.079427 0.080078 0.080729 0.081380 0.082031 0.082682 0.083333 0.083984 0.084635 0.085286 0.085938 0.086589 0.087240 0.087891 0.088542 0.089193 0.089844 0.090495 0.091146 0.091797 0.092448 0.093099 0.093750 0.094401 0.095052 0.095703 0.096354 0.097005 0.097656 0.098307 0.098958 0.099609 0.100260 0.100911 0.101562 0.102214 0.102865 0.103516 0.104167 0.104818 0.105469 0.106120 0.106771 0.107422 0.108073 0.108724 0.109375 0.110026 0.110677 0.111328 0.111979 0.112630 0.113281 0.113932 0.114583 0.115234 0.115885 0.116536 0.117188 0.117839 0.118490 0.119141 0.119792 0.120443 0.121094 0.121745 0.122396 0.123047 0.123698 0.124349 0.125000 0.125651 0.126302 0.126953 0.127604 0.128255 0.128906 0.129557 0.130208 0.130859 0.131510 0.132161 0.132812 0.133464 0.134115 0.134766 0.135417 0.136068 0.136719 0.137370 0.138021 0.138672 0.139323 0.139974 0.140625 0.141276 0.141927 0.142578 0.143229 0.143880 0.144531 0.145182 0.145833 0.146484 0.147135 0.147786 0.148438 0.149089 0.149740 0.150391 0.151042 0.151693 0.152344 0.152995 0.153646 0.154297 0.154948 0.155599 0.156250 0.156901 0.157552 0.158203 0.158854 0.159505 0.160156 0.160807 0.161458 0.162109 0.162760 0.163411 0.164062 0.164714 0.165365 0.166016 0.166667 0.167318 0.167969 0.168620 0.169271 0.169922 0.170573 0.171224 0.171875 0.172526 0.173177 0.173828 0.174479 0.175130 0.175781 0.176432 0.177083 0.177734 0.178385 0.179036 0.179688 0.180339 0.180990 0.181641 0.182292 0.182943 0.183594 0.184245 0.184896 0.185547 0.186198 0.186849 0.187500 0.188151 0.188802 0.189453 0.190104 0.190755 0.191406 0.192057 0.192708 0.193359 0.194010 0.194661 0.195312 0.195964 0.196615 0.197266 0.197917 0.198568 0.199219 0.199870 0.200521 0.201172 0.201823 0.202474 0.203125 0.203776 0.204427 0.205078 0.205729 0.206380 0.207031 0.207682 0.208333 0.208984 0.209635 0.210286 0.210938 0.211589 0.212240 0.212891 0.213542 0.214193 0.214844 0.215495 0.216146 0.216797 0.217448 0.218099 0.218750 0.219401 0.220052 0.220703 0.221354 0.222005 0.222656 0.223307 0.223958 0.224609 0.225260 0.225911 0.226562 0.227214 0.227865 0.228516 0.229167 0.229818 0.230469 0.231120 0.231771 0.232422 0.233073 0.233724 0.234375 0.235026 0.235677
       0.31634        0.31634        0.31634        0.31634        0.31634        0.31634        0.31634        0.31634        0.31634        0.31634        0.31634        0.31634        0.31634        0.31634        0.31634        0.31634        0.31634        0.31634        0.31634        0.31634        0.31634        0.31634        0.31634        0.31634        0.31634        0.31634        0.31634        0.31634        0.31634        0.31634        0.31634        0.31634        0.31634        0.31634        0.31634        0.31634        0.31634        0.31634        0.31634        0.31634        0.31634        0.31634        0.31634        0.31634        0.31634        0.31634        0.31634        0.31634        0.31634        0.31634        0.31634        0.68378        0.87056        0.52107        0.08589       -0.06799       -0.42879       -0.20685       -0.29723       -0.11960       -0.07877       -0.11866       -0.07161       -0.21016       -0.23781       -0.25922       -0.33255       -0.33872       -0.49453       -0.38529       -0.46806       -0.45218       -0.42355       -0.47142       -0.54785       -0.56527       -0.58926       -0.62611       -0.57983       -0.41588       -0.37932       -0.33255       -0.31830       -0.21200       -0.19881        0.01901        0.06776        0.10248        0.22330        0.37211        0.44271        0.51695        0.55861        0.55254        0.57294        0.69815        0.81355        0.74622        0.73326        0.67241        0.58036        0.48658        0.40526        0.49277        0.37162        0.19767        0.07693        0.04281        0.00566       -0.06117       -0.04166       -0.02560       -0.07506       -0.00696       -0.02350        0.21096        0.24942        0.29091        0.42863        0.46450        0.40285        0.53120        0.62858        0.70165        0.76711        0.69021        0.66217        0.69977        0.58688        0.50336        0.41933        0.29064        0.18723        0.15681        0.10931        0.03432        0.01127       -0.00101        0.07537        0.13250        0.20221        0.28143        0.40253        0.41492        0.50587        0.59919        0.63567        0.61217        0.63102        0.55153        0.44468        0.44281        0.35192        0.22789        0.18646        0.14991        0.10455        0.12151        0.06668        0.10056        0.22027        0.26312        0.33840        0.34754        0.45213        0.51197        0.53726        0.54955        0.46942        0.42728        0.39063        0.37457        0.30899        0.25039        0.20118        0.18336        0.16295        0.19489        0.17650        0.26732        0.33267        0.36306        0.42070        0.46136        0.47679        0.44318        0.39202        0.40998        0.37605        0.28951        0.27429        0.22766        0.21113        0.19360        0.21207        0.22874        0.32618        0.37324        0.36883        0.45836        0.43626        0.44011        0.43043        0.39369        0.34279        0.32964        0.28020        0.23508        0.23522        0.26783        0.27099        0.29882        0.29785        0.33913        0.32960        0.40808        0.41364        0.37419        0.34369        0.36278        0.28064        0.27936        0.26256        0.27599        0.26014        0.28248        0.29420        0.31563        0.34968        0.35675        0.35884        0.33275        0.35138        0.28798        0.32587        0.26873        0.24787        0.28187        0.28395        0.30617        0.31394        0.32954        0.32344        0.31247        0.31905        0.28710        0.28316        0.25735        0.28178        0.27234        0.31094        0.28297        0.26124        0.30580        0.30914        0.31216        0.28874        0.29701        0.29103        0.24522        0.24040        0.21684        0.27513        0.27297        0.30955        0.31487        0.32169        0.31417        0.30373        0.27656        0.28329        0.33271        0.27160        0.26447        0.29411        0.29401        0.34343        0.33925        0.36077        0.33346        0.31124        0.28188        0.26251        0.25899        0.22473        0.26486        0.30211        0.29768        0.27857        0.29495        0.26821        0.32308        0.33861        0.25174        0.21934        0.26691        0.33910        0.27801        0.31077        0.32651        0.32619        0.29531        0.32040        0.34559        0.29426        0.29200        0.25810        0.27550        0.34611        0.35019        0.25757        0.26951        0.25450        0.27439        0.22445        0.29420        0.22421        0.24928        0.32884        0.31953        0.35042        0.30123        0.23510        0.23514        0.24236        0.24071        0.17648        0.21780        0.26311        0.28856        0.27757        0.30580        0.29113        0.27449        0.28332        0.21052        0.17930        0.18694        0.23047        0.19663        0.22100        0.23285        0.20620        0.25326        0.33801        0.29389        0.30931        0.21991        0.26929        0.22904        0.27434        0.29633        0.14667        0.22266        0.22911        0.13104        0.23199        0.11550        0.17090        0.21769        0.14046       -0.14256       -0.67721
2.578490 2.551619 2.524894 2.498314 2.471880 2.445591 2.419447 2.393449 2.367597 2.341890 2.316329 2.290913 2.265643 2.240518 2.215539 2.190705 2.166017 2.141474 2.117077 2.092825 2.068719 2.044758 2.020943 1.997274 1.973750 1.950371 1.927138 1.904050 1.881108 1.858312 1.835661 1.813155 1.790795 1.768581 1.746512 1.724589 1.702811 1.681178 1.659691 1.638350 1.617154 1.596104 1.575199 1.554440 1.533826 1.513358 1.493035 1.472858 1.452826 1.432940 1.413199 1.635560 2.041379 1.613107 1.125116 0.984832 0.415991 0.811034 0.558217 0.832227 0.769511 0.785716 0.748232 0.708397 0.558737 0.510763 0.482099 0.443406 0.201156 0.375660 0.200931 0.304275 0.233996 0.178406 0.128510 0.000793 0.040448 -0.015346 -0.055957 0.104356 0.205360 0.193700 0.150644 0.333040 0.198079 0.498419 0.573197 0.547159 0.590805 0.879123 0.809682 0.946577 0.889447 0.973650 0.941416 1.082075 1.140860 1.081184 1.127390 0.955366 0.942611 0.788152 0.650950 0.769684 0.704912 0.457387 0.307426 0.253163 0.209525 0.148629 0.088727 0.128007 0.065351 0.156572 0.050502 0.262206 0.378985 0.362529 0.478825 0.584228 0.468973 0.542780 0.699166 0.751059 0.781520 0.735231 0.739429 0.719028 0.628475 0.571810 0.432300 0.288243 0.209934 0.079739 0.135516 -0.043240 -0.030009 -0.079083 -0.036035 0.007357 0.146680 0.089981 0.305292 0.279161 0.363871 0.451057 0.526273 0.512260 0.519369 0.504532 0.334425 0.308368 0.280001 0.100679 0.050099 0.001426 -0.034602 -0.039832 -0.089556 -0.099630 -0.014963 0.054402 0.138164 0.136777 0.229243 0.334521 0.308974 0.412591 0.399182 0.285745 0.231861 0.253080 0.211873 0.103414 0.075786 0.019874 0.001225 0.014093 -0.014008 0.058096 0.148355 0.143581 0.227247 0.253382 0.307655 0.257449 0.220910 0.182711 0.212359 0.150339 0.046501 0.050557 -0.011056 -0.012272 -0.029481 0.014312 0.016946 0.168707 0.127913 0.188021 0.234219 0.201778 0.196047 0.197121 0.136548 0.105516 0.067213 0.048307 -0.040505 0.008700 0.021434 0.054770 0.048425 0.074887 0.099859 0.119222 0.134326 0.180955 0.076544 0.093855 0.070713 -0.003333 0.001997 0.009261 -0.012792 0.015956 0.005797 0.032004 0.067956 0.083546 0.104805 0.048847 0.096345 0.054192 0.014359 0.063031 -0.036549 -0.015714 0.020138 0.002337 0.049027 0.054400 0.043703 0.059666 0.048409 0.049325 0.018253 -0.004582 0.004700 0.018667 -0.008010 0.069695 -0.015456 0.008424 0.053878 0.045682 0.032340 0.043101 0.038726 0.019796 -0.022337 -0.039514 -0.021224 0.017801 0.023600 0.063405 0.059885 0.060467 0.084724 0.062215 0.026001 0.065469 0.090365 0.019289 0.025106 0.060729 0.057651 0.106812 0.113899 0.118766 0.117313 0.066658 0.048255 0.032462 0.005760 -0.000863 0.047982 0.083751 0.052249 0.032016 0.032601 0.024105 0.090883 0.072191 -0.046648 -0.053032 0.029537 0.096622 0.009243 0.028095 0.064770 0.084710 0.017575 0.058149 0.085710 0.027840 0.037397 -0.033835 0.009994 0.102345 0.065604 -0.056998 -0.019009 -0.049648 0.005182 -0.104168 0.039531 -0.110046 -0.038189 0.051115 0.025261 0.035753 -0.045471 -0.074687 -0.098961 -0.085134 -0.071116 -0.143676 -0.097655 -0.038228 0.006690 -0.036248 0.035256 -0.028394 -0.052039 0.052038 -0.113860 -0.100728 -0.099148 -0.013519 -0.066509 -0.024612 -0.017840 0.003823 0.017704 0.177157 -0.016064 0.142704 -0.006821 0.277237 0.238652 0.316866 0.270020 0.112951 0.225543 0.273393 0.051339 0.256622 0.122567 0.145956 0.287880 0.143803 -0.700256
0.072396 0.072899 0.074405 0.076917 0.080432 0.084949 0.090468 0.096987 0.104504 0.113016 0.122519 0.133010 0.144483 0.156931 0.170347 0.184722 0.200044 0.216301 0.233479 0.251558 0.270521 0.290343 0.310998 0.332458 0.354690 0.377655 0.401314 0.425619 0.450521 0.475963 0.501885 0.528219 0.554892 0.581827 0.608937 0.636132 0.663312 0.690373 0.717204 0.743685 0.769690 0.795089 0.819742 0.843504 0.866224 0.887745 0.907905 0.926537 0.943471 0.958533 0.971546 0.982333 0.990716 0.996517 0.999562 0.999680 0.996703 0.990474 0.980842 0.967665 0.950818 0.930186 0.905674 0.877203 0.844718 0.808184 0.767595 0.722969 0.674356 0.621838 0.565529 0.505581 0.442180 0.375553 0.305965 0.233721 0.159167 0.082688 0.004711 0.074299 0.153840 0.233375 0.312332 0.390114 0.466094 0.539627 0.610050 0.676693 0.738880 0.795940 0.847214 0.892061 0.929870 0.960067 0.982124 0.995569 0.999998 0.995079 0.980567 0.956309 0.922254 0.878461 0.825102 0.762474 0.690995 0.611215 0.523810 0.429584 0.329467 0.224510 0.115872 0.004818 0.107297 0.219042 0.328929 0.435427 0.536990 0.632071 0.719158 0.796789 0.863588 0.918287 0.959755 0.987025 0.999321 0.996081 0.976979 0.941945 0.891179 0.825163 0.744667 0.650751 0.544761 0.428316 0.303290 0.171796 0.036146 0.101179 0.237572 0.370351 0.496806 0.614262 0.720132 0.811985 0.887597 0.945023 0.982649 0.999240 0.993999 0.966594 0.917198 0.846502 0.755728 0.646616 0.521416 0.382841 0.234033 0.078489 0.080005 0.237468 0.389819 0.532979 0.662992 0.776130 0.869016 0.938729 0.982908 0.999848 0.988575 0.948904 0.881485 0.787807 0.670198 0.531783 0.376417 0.208596 0.033339 0.143954 0.317663 0.482125 0.631822 0.761570 0.866711 0.943293 0.988238 0.999477 0.976072 0.918283 0.827612 0.706791 0.559726 0.391399 0.207715 0.015319 0.178641 0.366775 0.541719 0.696444 0.824538 0.920496 0.979972 0.999999 0.979166 0.917726 0.817650 0.682597 0.517817 0.329972 0.126902 0.082697 0.289626 0.484584 0.658592 0.803418 0.911980 0.978728 0.999945 0.973995 0.901463 0.785205 0.630276 0.443755 0.234449 0.012511 0.211037 0.424844 0.617808 0.779660 0.901533 0.976480 0.999904 0.969875 0.887325 0.756078 0.582725 0.376346 0.148068 0.089510 0.322984 0.538906 0.724566 0.868751 0.962468 0.999533 0.977032 0.895589 0.759434 0.576245 0.356764 0.114220 0.136442 0.379462 0.599253 0.781414 0.913701 0.986887 0.995466 0.938114 0.817897 0.642183 0.422253 0.172640 0.089798 0.346984 0.580869 0.774703 0.914271 0.988975 0.992708 0.924405 0.788268 0.593575 0.354141 0.087375 0.186924 0.448024 0.675826 0.852434 0.963603 0.999951 0.957818 0.839708 0.654233 0.415586 0.142510 0.143105 0.417964 0.659246 0.846531 0.963575 0.999782 0.951248 0.821256 0.620163 0.364679 0.076544 0.219264 0.496658 0.730762 0.900161 0.988928 0.988201 0.897165 0.723306 0.481918 0.194844 0.111421 0.408139 0.667003 0.862885 0.976318 0.995517 0.917710 0.749609 0.506965 0.213193 0.102801 0.409417 0.675509 0.873577 0.982671 0.990709 0.895922 0.707266 0.443716 0.132458 0.193818 0.500312 0.753831 0.926422 0.998538 0.961369 0.818039 0.583509 0.283155 0.049860 0.378204 0.664510 0.875670 0.986748 0.984018 0.866807 0.647839 0.352013 0.013689 0.327209 0.629879 0.857531 0.981951 0.987102 0.871344 0.647920 0.343614 0.004336 0.352688 0.657544 0.879911 0.990767 0.974985 0.833557 0.583769 0.257278 0.103775
1.000000 1.000000 1.000000 1.000000 1.000000 1.000000 1.000000 1.000000 1.000000 1.000000 1.000000 1.000000 1.000000 1.000000 1.000000 1.000000 1.000000 1.000000 1.000000 1.000000 1.000000 1.000000 1.000000 1.000000 1.000000 1.000000 1.000000 1.000000 1.000000 1.000000 1.000000 1.000000 1.000000 1.000000 1.000000 1.000000 1.000000 1.000000 1.000000 1.000000 1.000000 1.000000 1.000000 1.000000 1.000000 1.000000 1.000000 1.000000 1.000000 1.000000 1.000000 1.000000 0.929417 0.929417 0.929417 0.919507 0.919507 0.919507 0.919507 0.919507 0.919507 0.919507 0.919507 0.919507 0.919507 0.919507 0.919507 0.919507 0.919507 0.919507 0.919507 0.919507 0.919507 0.919507 0.919507 0.919507 0.919507 0.919507 0.919507 0.919507 0.919507 0.919507 0.919507 0.919507 0.919507 0.919507 0.919507 0.919507 0.919507 0.919507 0.919507 0.919507 0.919507 0.919507 0.919507 0.919507 0.950037 0.951293 0.959187 0.959025 0.958524 0.956412 0.955505 0.954368 0.953919 0.954188 0.954790 0.955619 0.964350 0.965419 0.967002 0.967825 0.968533 0.969168 0.968982 0.969691 0.968878 0.968291 0.967756 0.963718 0.964375 0.964928 0.965013 0.966043 0.965914 0.967957 0.968160 0.967535 0.966625 0.965856 0.965118 0.964681 0.964392 0.964498 0.964974 0.966297 0.969499 0.968903 0.968625 0.968782 0.968880 0.969058 0.969495 0.971202 0.967379 0.968029 0.966323 0.964098 0.968332 0.965413 0.965209 0.966574 0.966957 0.967360 0.965907 0.961814 0.955205 0.954507 0.951862 0.942550 0.941420 0.941950 0.944531 0.945115 0.943547 0.936298 0.936857 0.930444 0.931640 0.934994 0.929757 0.930223 0.931376 0.931064 0.930379 0.929817 0.927116 0.924660 0.923218 0.922650 0.925590 0.925124 0.926263 0.926251 0.920991 0.912658 0.901349 0.899838 0.895000 0.898052 0.887958 0.887757 0.887931 0.883336 0.886686 0.885662 0.886631 0.883482 0.868956 0.853247 0.846779 0.851528 0.856235 0.853813 0.851164 0.844400 0.855899 0.831281 0.843502 0.854016 0.850037 0.850555 0.849446 0.847929 0.841514 0.842775 0.845207 0.846447 0.843801 0.840731 0.840568 0.819534 0.818512 0.757484 0.739744 0.731402 0.736349 0.743440 0.744345 0.743279 0.751157 0.756059 0.753342 0.737581 0.730252 0.723456 0.728124 0.727056 0.730127 0.713123 0.686642 0.681756 0.652357 0.670111 0.682089 0.644039 0.667790 0.678288 0.677088 0.676350 0.669742 0.667626 0.662626 0.665119 0.670134 0.682016 0.700948 0.724010 0.719416 0.709767 0.707199 0.686460 0.678595 0.671294 0.688696 0.666609 0.662604 0.681563 0.680460 0.665119 0.642922 0.630449 0.622063 0.619177 0.629682 0.617852 0.613034 0.603282 0.583098 0.575972 0.610551 0.625978 0.646381 0.615797 0.602732 0.591901 0.576994 0.589071 0.528639 0.528765 0.547917 0.555580 0.534749 0.517539 0.527864 0.532730 0.532907 0.523569 0.513209 0.503668 0.519479 0.552470 0.540189 0.520520 0.523103 0.522649 0.517870 0.426495 0.421125 0.393969 0.361994 0.303571 0.288161 0.279537 0.261436 0.243874 0.206872 0.203947 0.213092 0.219628 0.235331 0.237388 0.221369 0.229649 0.222775 0.209127 0.147179 0.135830 0.128783 0.118178 0.117667 0.090077 0.115397 0.187674 0.190462 0.190462 0.190462 0.190462 0.190462 0.190462 0.199115 0.199115 0.199115 0.199115 0.199115 0.199115 0.199115 0.199115 0.199115 0.210991 0.210991 0.210991 0.210991 0.210991 0.210991 0.210991 0.210991 0.210991 0.210991 0.210991 0.210991 0.210991 0.210991
0.000000 0.000000 0.000000 0.000000 0.000000 0.000000 0.000000 0.000000 0.000000 0.000000 0.000000 0.000000 0.000000 0.000000 0.000000 0.000000 0.000000 0.000000 0.000000 0.000000 0.000000 0.000000 0.000000 0.000000 0.000000 7.000000 4.000000 0.000000 0.000000 0.000000 0.000000 0.000000 0.000000 0.000000 0.000000 0.000000 0.000000 0.000000 0.000000 0.000000 0.000000 0.000000 0.000000 0.000000 0.000000 0.000000 0.000000 0.000000 0.000000 0.000000 0.000000 0.000000 0.180334 0.180334 0.180334 0.199007 0.199007 0.199007 0.199007 0.199007 0.199007 0.199007 0.199007 0.199007 0.199007 0.199007 0.199007 0.199007 0.199007 0.199007 0.199007 0.199007 0.199007 0.199007 0.199007 0.199007 0.199007 0.199007 0.199007 0.199007 0.199007 0.199007 0.199007 0.199007 0.199007 0.199007 0.199007 0.199007 0.199007 0.199007 0.199007 0.199007 0.199007 0.199007 0.199007 0.199007 0.225018 0.225018 0.225018 0.225018 0.225018 0.225018 0.225018 0.225018 0.225018 0.225018 0.225018 0.225018 0.225018 0.225018 0.225018 0.225018 0.225018 0.225018 0.225018 0.225018 0.225018 0.225018 0.225018 0.225018 0.225018 0.225018 0.225018 0.225018 0.225018 0.244339 0.244339 0.244339 0.244339 0.244339 0.244339 0.244339 0.244339 0.244339 0.244339 0.244339 0.244339 0.244339 0.244339 0.244339 0.244339 0.244339 0.244339 0.244339 0.244339 0.244339 0.244339 0.244339 0.251976 0.251976 0.251976 0.251976 0.251976 0.251976 0.251976 0.251976 0.251976 0.251976 0.251976 0.251976 0.251976 0.251976 0.251976 0.251976 0.251976 0.251976 0.251976 0.251976 0.264906 0.264906 0.264906 0.264906 0.264906 0.264906 0.264906 0.264906 0.264906 0.264906 0.264906 0.264906 0.264906 0.264906 0.264906 0.264906 0.264906 0.264906 0.264906 0.264906 0.264906 0.264906 0.264906 0.264906 0.264906 0.264906 0.264906 0.264906 0.264906 0.264906 0.264906 0.264906 0.264906 0.264906 0.264906 0.264906 0.264906 0.264906 0.264906 0.264906 0.264906 0.264906 0.264906 0.264906 0.264906 0.264906 0.264906 0.264906 0.264906 0.264906 0.264906 0.264906 0.264906 0.264906 0.264906 0.264906 0.264906 0.264906 0.264906 0.264906 0.264906 0.264906 0.256074 0.256074 0.256074 0.256074 0.256074 0.256074 0.256074 0.256074 0.256074 0.256074 0.256074 0.256074 0.256074 0.256074 0.269680 0.269680 0.269680 0.269680 0.269680 0.269680 0.269680 0.269680 0.269680 0.269680 0.269680 0.269680 0.264906 0.264906 0.264906 0.264906 0.264906 0.264906 0.264906 0.264906 0.264906 0.264906 0.264906 0.264906 0.269680 0.269680 0.269680 0.269680 0.269680 0.269680 0.269680 0.269680 0.269680 0.269680 0.269680 0.264906 0.264906 0.264906 0.264906 0.264906 0.264906 0.264906 0.264906 0.264906 0.264906 0.264906 0.256074 0.256074 0.256074 0.256074 0.256074 0.256074 0.256074 0.256074 0.256074 0.256074 0.256074 0.264906 0.264906 0.264906 0.264906 0.264906 0.264906 0.264906 0.264906 0.264906 0.264906 0.260378 0.260378 0.260378 0.260378 0.260378 0.260378 0.260378 0.260378 0.260378 0.260378 0.256074 0.256074 0.256074 0.256074 0.256074 0.256074 0.256074 0.256074 0.256074 0.256074 0.260378 0.260378 0.260378 0.260378 0.260378 0.260378 0.260378 0.260378 0.260378 0.256074 0.256074 0.256074 0.256074 0.256074 0.256074 0.256074 0.256074 0.256074 0.251976 0.251976 0.251976 0.251976 0.251976 0.251976 0.251976 0.251976 0.251976 0.251976 0.251976 0.251976 0.251976 0.251976
