# Output from CTFFind version 4.1.9, run on 2019-11-02 17:44:56
# Input file: stack6_bm3d_averaged_1_1.25_0_750_half.mrc ; Number of micrographs: 1
# Pixel size: 3.000 Angstroms ; acceleration voltage: 300.0 keV ; spherical aberration: 0.00 mm ; amplitude contrast: 0.07
# Box size: 512 pixels ; min. res.: 30.0 Angstroms ; max. res.: 5.0 Angstroms ; min. def.: 5000.0 um; max. def. 50000.0 um; num. frames averaged: 1
# 6 lines per micrograph: #1 - spatial frequency (1/Angstroms); #2 - 1D rotational average of spectrum (assuming no astigmatism); #3 - 1D rotational average of spectrum; #4 - CTF fit; #5 - cross-correlation between spectrum and CTF fit; #6 - 2sigma of expected cross correlation of noise
0.000000 0.000651 0.001302 0.001953 0.002604 0.003255 0.003906 0.004557 0.005208 0.005859 0.006510 0.007161 0.007812 0.008464 0.009115 0.009766 0.010417 0.011068 0.011719 0.012370 0.013021 0.013672 0.014323 0.014974 0.015625 0.016276 0.016927 0.017578 0.018229 0.018880 0.019531 0.020182 0.020833 0.021484 0.022135 0.022786 0.023438 0.024089 0.024740 0.025391 0.026042 0.026693 0.027344 0.027995 0.028646 0.029297 0.029948 0.030599 0.031250 0.031901 0.032552 0.033203 0.033854 0.034505 0.035156 0.035807 0.036458 0.037109 0.037760 0.038411 0.039062 0.039714 0.040365 0.041016 0.041667 0.042318 0.042969 0.043620 0.044271 0.044922 0.045573 0.046224 0.046875 0.047526 0.048177 0.048828 0.049479 0.050130 0.050781 0.051432 0.052083 0.052734 0.053385 0.054036 0.054688 0.055339 0.055990 0.056641 0.057292 0.057943 0.058594 0.059245 0.059896 0.060547 0.061198 0.061849 0.062500 0.063151 0.063802 0.064453 0.065104 0.065755 0.066406 0.067057 0.067708 0.068359 0.069010 0.069661 0.070312 0.070964 0.071615 0.072266 0.072917 0.073568 0.074219 0.074870 0.075521 0.076172 0.076823 0.077474 0.078125 0.078776 0.079427 0.080078 0.080729 0.081380 0.082031 0.082682 0.083333 0.083984 0.084635 0.085286 0.085938 0.086589 0.087240 0.087891 0.088542 0.089193 0.089844 0.090495 0.091146 0.091797 0.092448 0.093099 0.093750 0.094401 0.095052 0.095703 0.096354 0.097005 0.097656 0.098307 0.098958 0.099609 0.100260 0.100911 0.101562 0.102214 0.102865 0.103516 0.104167 0.104818 0.105469 0.106120 0.106771 0.107422 0.108073 0.108724 0.109375 0.110026 0.110677 0.111328 0.111979 0.112630 0.113281 0.113932 0.114583 0.115234 0.115885 0.116536 0.117188 0.117839 0.118490 0.119141 0.119792 0.120443 0.121094 0.121745 0.122396 0.123047 0.123698 0.124349 0.125000 0.125651 0.126302 0.126953 0.127604 0.128255 0.128906 0.129557 0.130208 0.130859 0.131510 0.132161 0.132812 0.133464 0.134115 0.134766 0.135417 0.136068 0.136719 0.137370 0.138021 0.138672 0.139323 0.139974 0.140625 0.141276 0.141927 0.142578 0.143229 0.143880 0.144531 0.145182 0.145833 0.146484 0.147135 0.147786 0.148438 0.149089 0.149740 0.150391 0.151042 0.151693 0.152344 0.152995 0.153646 0.154297 0.154948 0.155599 0.156250 0.156901 0.157552 0.158203 0.158854 0.159505 0.160156 0.160807 0.161458 0.162109 0.162760 0.163411 0.164062 0.164714 0.165365 0.166016 0.166667 0.167318 0.167969 0.168620 0.169271 0.169922 0.170573 0.171224 0.171875 0.172526 0.173177 0.173828 0.174479 0.175130 0.175781 0.176432 0.177083 0.177734 0.178385 0.179036 0.179688 0.180339 0.180990 0.181641 0.182292 0.182943 0.183594 0.184245 0.184896 0.185547 0.186198 0.186849 0.187500 0.188151 0.188802 0.189453 0.190104 0.190755 0.191406 0.192057 0.192708 0.193359 0.194010 0.194661 0.195312 0.195964 0.196615 0.197266 0.197917 0.198568 0.199219 0.199870 0.200521 0.201172 0.201823 0.202474 0.203125 0.203776 0.204427 0.205078 0.205729 0.206380 0.207031 0.207682 0.208333 0.208984 0.209635 0.210286 0.210938 0.211589 0.212240 0.212891 0.213542 0.214193 0.214844 0.215495 0.216146 0.216797 0.217448 0.218099 0.218750 0.219401 0.220052 0.220703 0.221354 0.222005 0.222656 0.223307 0.223958 0.224609 0.225260 0.225911 0.226562 0.227214 0.227865 0.228516 0.229167 0.229818 0.230469 0.231120 0.231771 0.232422 0.233073 0.233724 0.234375 0.235026 0.235677
       0.30978        0.30978        0.30978        0.30978        0.30978        0.30978        0.30978        0.30978        0.30978        0.30978        0.30978        0.30978        0.30978        0.30978        0.30978        0.30978        0.30978        0.30978        0.30978        0.30978        0.30978        0.30978        0.30978        0.30978        0.30978        0.30978        0.30978        0.30978        0.30978        0.30978        0.30978        0.30978        0.30978        0.30978        0.30978        0.30978        0.30978        0.30978        0.30978        0.30978        0.30978        0.30978        0.30978        0.30978        0.30978        0.30978        0.30978        0.30978        0.30978        0.30978        0.30978        0.63251        0.81364        0.41488        0.30958        0.18538       -0.10743        0.11096       -0.00228        0.03219        0.11553        0.33597        0.42110        0.40167        0.22440       -0.01443        0.04582        0.06934       -0.17391       -0.18139       -0.08656       -0.10983       -0.29579       -0.19199       -0.30315       -0.25835       -0.28744       -0.40721       -0.47549       -0.47888       -0.42473       -0.34243       -0.43924       -0.36778       -0.41216       -0.35251       -0.27800       -0.20250       -0.19562       -0.13798       -0.09290        0.03916        0.07922        0.25172        0.28069        0.36873        0.40331        0.51896        0.59097        0.61041        0.73873        0.69875        0.74114        0.65232        0.66317        0.69252        0.63177        0.61576        0.60747        0.43349        0.39522        0.35268        0.32243        0.22387        0.12860        0.05886        0.05419        0.00121       -0.08130       -0.02896       -0.03342       -0.07233        0.06429        0.16268        0.25368        0.31827        0.33483        0.42686        0.54524        0.59304        0.54129        0.67279        0.56530        0.54002        0.59879        0.63758        0.53108        0.45812        0.40219        0.37638        0.24495        0.20769        0.13141        0.11594        0.05315        0.05187        0.10197        0.16289        0.14590        0.17937        0.22078        0.23951        0.32769        0.45305        0.48949        0.49524        0.51803        0.57958        0.57107        0.52238        0.42309        0.38304        0.36347        0.26720        0.24248        0.21022        0.20500        0.19611        0.17720        0.15932        0.12681        0.19013        0.24497        0.34063        0.37988        0.40786        0.46271        0.53471        0.47183        0.48582        0.42608        0.40131        0.37992        0.36142        0.28681        0.25222        0.19606        0.23507        0.21512        0.19076        0.21682        0.22393        0.23851        0.30247        0.39904        0.39766        0.37696        0.39134        0.45350        0.48120        0.42917        0.35183        0.32097        0.27320        0.26270        0.25124        0.21519        0.28128        0.29224        0.29520        0.31283        0.30717        0.34205        0.37564        0.36999        0.36850        0.35323        0.31630        0.32924        0.31910        0.29292        0.28623        0.27281        0.21571        0.26875        0.27102        0.29870        0.31738        0.34075        0.37646        0.33622        0.31387        0.36036        0.36334        0.25964        0.29196        0.30627        0.24180        0.20568        0.26055        0.27519        0.27694        0.29781        0.30458        0.33490        0.33240        0.35715        0.32293        0.31977        0.30673        0.29592        0.26912        0.24596        0.25371        0.25556        0.27907        0.30032        0.29817        0.29649        0.31567        0.32817        0.26497        0.30344        0.26691        0.25688        0.27014        0.26027        0.25945        0.26172        0.30943        0.28254        0.31334        0.28693        0.27111        0.31063        0.30914        0.33073        0.31420        0.29089        0.24824        0.25306        0.26419        0.25887        0.31038        0.31413        0.33120        0.31979        0.31209        0.24926        0.28093        0.21072        0.20164        0.25603        0.26082        0.25755        0.28267        0.31325        0.29690        0.35804        0.30251        0.25121        0.22684        0.23892        0.29216        0.31119        0.30320        0.27196        0.28082        0.26375        0.31663        0.27736        0.25232        0.26695        0.25420        0.28574        0.24910        0.27852        0.32524        0.28997        0.21377        0.23710        0.28154        0.31640        0.25375        0.26043        0.23924        0.28641        0.29160        0.38198        0.28321        0.26392        0.26040        0.24798        0.21802        0.18772        0.24224        0.21051        0.20376        0.17587        0.19354        0.23921        0.21578        0.23474        0.20315        0.25145        0.22673        0.21440        0.18064        0.15642        0.19272        0.25107        0.13654        0.06155        0.20998        0.17661        0.13241        0.23999        0.16022        0.22672        0.18998       -0.05056       -0.51933       -1.00656
2.848060 2.820044 2.792172 2.764445 2.736861 2.709421 2.682126 2.654975 2.627968 2.601105 2.574387 2.547812 2.521382 2.495096 2.468954 2.442956 2.417102 2.391393 2.365828 2.340407 2.315130 2.289997 2.265008 2.240164 2.215464 2.190908 2.166496 2.142228 2.118104 2.094125 2.070290 2.046598 2.023051 1.999649 1.976390 1.953276 1.930305 1.907479 1.884797 1.862260 1.839866 1.817617 1.795511 1.773550 1.751733 1.730061 1.708532 1.687148 1.665907 1.644811 1.623859 1.919017 2.267972 1.698475 1.739741 1.380367 0.939869 1.199246 1.026917 1.075985 1.028808 1.494716 1.515790 1.537909 1.281798 0.943408 0.823415 1.012658 0.710721 0.489228 0.593090 0.678765 0.421980 0.487864 0.329101 0.370227 0.249890 0.157124 -0.033190 0.006526 0.025344 0.081010 0.041096 0.082197 -0.042409 0.031462 0.110614 0.225605 0.283400 0.212423 0.323060 0.559339 0.445745 0.730684 0.799452 0.876448 0.911127 1.122667 1.148253 1.179951 1.326336 1.235063 1.378506 1.195231 1.112066 1.312171 1.128237 1.055497 1.130192 0.886991 0.737131 0.676094 0.669317 0.467820 0.393316 0.263737 0.223120 0.098876 -0.005288 0.095049 0.027117 -0.063199 0.114969 0.259321 0.310675 0.462546 0.487549 0.553120 0.721423 0.825950 0.660842 0.964368 0.807580 0.657946 0.769208 0.797547 0.716399 0.638920 0.443081 0.503138 0.287420 0.180869 0.142677 0.009476 -0.015013 -0.112240 -0.019739 0.025761 0.085157 -0.043490 0.254939 0.099506 0.212253 0.374809 0.432504 0.533858 0.426372 0.563737 0.663766 0.507313 0.392446 0.337745 0.322060 0.147247 0.135980 0.008920 0.097381 0.018385 0.002403 -0.028254 -0.113953 -0.008152 0.021745 0.104258 0.290370 0.208129 0.357160 0.372649 0.429995 0.409605 0.405260 0.336295 0.228066 0.305627 0.168148 0.160533 -0.000782 0.053545 0.070838 -0.023378 -0.002102 0.019480 0.062636 0.076004 0.224841 0.304788 0.248962 0.215404 0.376486 0.400916 0.354862 0.246491 0.173509 0.142152 0.085224 0.074486 0.034723 0.023058 0.132598 0.058065 0.184579 0.092720 0.134966 0.229944 0.217021 0.236412 0.194031 0.200717 0.112966 0.166033 0.125875 0.096097 0.119895 -0.002738 0.034598 0.086267 0.047030 0.150544 0.115681 0.212446 0.205673 0.133390 0.135673 0.222856 0.115948 0.064800 0.090301 0.066035 -0.005132 -0.027329 0.056307 0.076411 0.040142 0.116129 0.113436 0.128867 0.142715 0.171696 0.122824 0.089255 0.106460 0.090919 0.025927 0.014413 0.041418 0.004381 0.079501 0.110876 0.076757 0.069781 0.126899 0.109424 0.020576 0.118102 0.026010 0.022722 0.055209 0.017199 0.016276 0.061229 0.088506 0.018333 0.106930 0.067561 0.019914 0.114492 0.073924 0.090656 0.085618 0.019061 -0.015104 -0.017013 0.036024 -0.005333 0.070365 0.088905 0.083569 0.057734 0.139165 -0.032917 0.039807 -0.100898 -0.023761 -0.023591 0.005188 0.015700 0.020108 0.091348 0.058169 0.117707 -0.007259 -0.042790 -0.082710 -0.076430 0.063024 0.039866 0.038086 -0.015703 -0.009964 -0.028272 0.050774 0.000618 -0.080504 -0.014906 -0.083793 0.015679 -0.051437 0.003477 0.053903 -0.018580 -0.099788 -0.040406 0.068542 0.034125 -0.024964 -0.000771 -0.063903 0.092010 0.073754 0.173474 0.026671 0.006553 0.017586 0.044944 -0.049962 -0.031865 0.044502 -0.013357 -0.033804 -0.053662 -0.040707 0.082256 -0.063460 0.086526 -0.008048 0.113624 -0.010037 0.068975 -0.078590 -0.041318 -0.053996 0.135331 -0.049779 -0.248977 0.293023 0.242525 0.187273 0.409277 0.214249 0.292893 0.282363 -0.068040 -1.404366
0.072396 0.072834 0.074149 0.076339 0.079405 0.083346 0.088162 0.093849 0.100408 0.107837 0.116132 0.125291 0.135310 0.146184 0.157908 0.170476 0.183881 0.198112 0.213161 0.229014 0.245659 0.263079 0.281258 0.300174 0.319806 0.340128 0.361112 0.382726 0.404937 0.427705 0.450990 0.474745 0.498921 0.523464 0.548315 0.573411 0.598684 0.624061 0.649465 0.674812 0.700015 0.724981 0.749610 0.773799 0.797440 0.820419 0.842616 0.863910 0.884173 0.903273 0.921076 0.937442 0.952231 0.965301 0.976506 0.985702 0.992744 0.997488 0.999793 0.999518 0.996531 0.990701 0.981905 0.970030 0.954969 0.936629 0.914927 0.889793 0.861177 0.829040 0.793367 0.754158 0.711439 0.665258 0.615684 0.562818 0.506783 0.447733 0.385850 0.321347 0.254466 0.185480 0.114693 0.042440 0.030913 0.104975 0.179322 0.253508 0.327060 0.399486 0.470272 0.538892 0.604806 0.667467 0.726325 0.780833 0.830449 0.874647 0.912920 0.944783 0.969789 0.987525 0.997625 0.999777 0.993726 0.979284 0.956335 0.924839 0.884840 0.836471 0.779955 0.715611 0.643853 0.565195 0.480248 0.389719 0.294409 0.195207 0.093086 0.010905 0.115650 0.219979 0.322675 0.422494 0.518174 0.608456 0.692097 0.767893 0.834695 0.891430 0.937120 0.970898 0.992036 0.999951 0.994234 0.974654 0.941180 0.893986 0.833462 0.760215 0.675074 0.579086 0.473510 0.359803 0.239609 0.114738 0.012859 0.141117 0.267885 0.390969 0.508162 0.617290 0.716252 0.803063 0.875900 0.933143 0.973415 0.995624 0.998996 0.983104 0.947894 0.893701 0.821261 0.731711 0.626584 0.507789 0.377589 0.238564 0.093569 0.054328 0.201898 0.345820 0.482766 0.609465 0.722796 0.819864 0.898080 0.955241 0.989599 0.999922 0.985547 0.946422 0.883126 0.796886 0.689560 0.563619 0.422101 0.268547 0.106924 0.058473 0.223126 0.382419 0.531765 0.666745 0.783241 0.877569 0.946611 0.987922 0.999839 0.981551 0.933161 0.855714 0.751196 0.622502 0.473377 0.308319 0.132462 0.048578 0.228881 0.402400 0.563176 0.705545 0.824340 0.915102 0.974248 0.999241 0.988710 0.942540 0.861915 0.749323 0.608496 0.444317 0.262662 0.070211 0.125787 0.317781 0.498212 0.659807 0.795883 0.900643 0.969433 0.998972 0.987533 0.935059 0.843223 0.715399 0.556578 0.373194 0.172886 0.035804 0.243779 0.441785 0.620824 0.772569 0.889770 0.966617 0.999059 0.985037 0.924648 0.820196 0.676146 0.498966 0.296869 0.079456 0.142721 0.358666 0.557480 0.728913 0.863918 0.955143 0.997364 0.987815 0.926404 0.815787 0.661301 0.470746 0.254026 0.022666 0.210792 0.433449 0.632770 0.797304 0.917353 0.985590 0.997526 0.951858 0.850618 0.699143 0.505843 0.281773 0.040033 0.204968 0.438369 0.645759 0.814072 0.932443 0.992950 0.991177 0.926587 0.802652 0.626727 0.409660 0.165179 0.090954 0.341936 0.571025 0.762656 0.903534 0.983585 0.996733 0.941406 0.820751 0.642532 0.418679 0.164553 0.102080 0.362270 0.597214 0.789640 0.925101 0.993101 0.987965 0.909376 0.762513 0.557788 0.310164 0.038127 0.237677 0.495979 0.716538 0.881755 0.978114 0.997344 0.937201 0.801775 0.601293 0.351436 0.072146 0.213899 0.483124 0.712988 0.883911 0.980981 0.995316 0.924960 0.775182 0.558188 0.292193 0.000043 0.293115 0.561171 0.780208 0.930243 0.997206 0.974331 0.862920 0.672386 0.419558 0.127264 0.177666 0.466846 0.712955 0.892369 0.987467 0.988450 0.894435 0.713715 0.463135 0.166616 0.147082 0.447093 0.703479 0.890267
1.000000 1.000000 1.000000 1.000000 1.000000 1.000000 1.000000 1.000000 1.000000 1.000000 1.000000 1.000000 1.000000 1.000000 1.000000 1.000000 1.000000 1.000000 1.000000 1.000000 1.000000 1.000000 1.000000 1.000000 1.000000 1.000000 1.000000 1.000000 1.000000 1.000000 1.000000 1.000000 1.000000 1.000000 1.000000 1.000000 1.000000 1.000000 1.000000 1.000000 1.000000 1.000000 1.000000 1.000000 1.000000 1.000000 1.000000 1.000000 1.000000 1.000000 1.000000 1.000000 0.833777 0.833777 0.833777 0.833777 0.833777 0.833777 0.833777 0.815944 0.815944 0.815944 0.815944 0.815944 0.815944 0.815944 0.815944 0.815944 0.815944 0.815944 0.815944 0.815944 0.815944 0.815944 0.815944 0.815944 0.815944 0.815944 0.815944 0.815944 0.815944 0.815944 0.815944 0.815944 0.815944 0.815944 0.815944 0.815944 0.815944 0.815944 0.815944 0.815944 0.815944 0.815944 0.815944 0.815944 0.815944 0.815944 0.815944 0.815944 0.815944 0.815944 0.815944 0.954259 0.954880 0.951952 0.950857 0.949183 0.945848 0.941561 0.941121 0.942473 0.942677 0.943290 0.945366 0.946329 0.947928 0.949075 0.949874 0.950673 0.958800 0.962524 0.962260 0.961974 0.952800 0.959630 0.957649 0.955368 0.956133 0.956420 0.957120 0.957007 0.956847 0.956350 0.955020 0.955731 0.955567 0.954830 0.953791 0.951526 0.951476 0.951030 0.951164 0.952129 0.952839 0.953491 0.954017 0.954001 0.954178 0.954168 0.954072 0.949241 0.949262 0.942524 0.943093 0.944181 0.943812 0.942752 0.941292 0.941355 0.941241 0.941179 0.941017 0.941232 0.923327 0.922914 0.922937 0.923410 0.916697 0.905808 0.897992 0.891977 0.892919 0.897120 0.901950 0.902558 0.899438 0.898512 0.882268 0.879257 0.864529 0.861195 0.850716 0.861083 0.861650 0.863004 0.855813 0.855093 0.853629 0.851591 0.840292 0.844795 0.845064 0.841509 0.837472 0.835605 0.833020 0.835356 0.844026 0.841329 0.839361 0.841412 0.830146 0.820162 0.818927 0.820537 0.828838 0.841044 0.839443 0.838155 0.832016 0.828330 0.822368 0.817467 0.817717 0.819496 0.817231 0.820924 0.820605 0.829549 0.819290 0.813011 0.818067 0.828457 0.832328 0.834077 0.835869 0.833369 0.836201 0.819579 0.820341 0.821866 0.771721 0.771463 0.759671 0.757532 0.749017 0.750038 0.746434 0.744047 0.736009 0.712708 0.724861 0.729202 0.702868 0.710890 0.705422 0.695383 0.675390 0.682291 0.695597 0.705332 0.705104 0.706714 0.696597 0.696723 0.704764 0.703828 0.709571 0.700790 0.696703 0.690222 0.692409 0.682436 0.675252 0.673554 0.673200 0.673813 0.670089 0.652073 0.662477 0.651608 0.638167 0.626819 0.594798 0.566339 0.553547 0.543769 0.524631 0.502460 0.516980 0.524555 0.510542 0.502871 0.485042 0.448125 0.432149 0.431087 0.411311 0.398181 0.379200 0.334013 0.346879 0.342862 0.346012 0.327917 0.325853 0.308225 0.252549 0.244727 0.206043 0.224429 0.244562 0.243932 0.225361 0.216877 0.237783 0.231625 0.240685 0.238961 0.255690 0.210195 0.148349 0.168013 0.163356 0.172145 0.156658 0.128000 0.157181 0.154446 0.169045 0.173784 0.121004 0.090688 0.069407 0.056103 0.062026 0.084811 0.099705 0.090351 0.075736 -0.017177 0.014998 0.038681 0.038681 0.038681 0.038681 0.038681 0.038681 0.038681 0.038681 0.038681 0.038681 0.038681 -0.016105 -0.016105 -0.016105 -0.016105 -0.016105 -0.016105 -0.016105 -0.016105 -0.016105 -0.016105 -0.016105 -0.016105 -0.016105 -0.016105 -0.016105 -0.016105 -0.016105 -0.016105 -0.016105
0.000000 0.000000 0.000000 0.000000 0.000000 0.000000 0.000000 0.000000 0.000000 0.000000 0.000000 0.000000 0.000000 0.000000 0.000000 0.000000 0.000000 0.000000 0.000000 0.000000 0.000000 0.000000 0.000000 0.000000 0.000000 0.000000 0.000000 0.000000 0.000000 0.000000 0.000000 0.000000 0.000000 0.000000 0.000000 0.000000 0.000000 0.000000 0.000000 0.000000 0.000000 0.000000 0.000000 0.000000 0.000000 0.000000 0.000000 0.000000 0.000000 0.000000 0.000000 0.000000 0.173422 0.173422 0.173422 0.173422 0.173422 0.173422 0.173422 0.191565 0.191565 0.191565 0.191565 0.191565 0.191565 0.191565 0.191565 0.191565 0.191565 0.191565 0.191565 0.191565 0.191565 0.191565 0.191565 0.191565 0.191565 0.191565 0.191565 0.191565 0.191565 0.191565 0.191565 0.191565 0.191565 0.191565 0.191565 0.191565 0.191565 0.191565 0.191565 0.191565 0.191565 0.191565 0.191565 0.191565 0.191565 0.191565 0.191565 0.191565 0.191565 0.191565 0.191565 0.219529 0.219529 0.219529 0.219529 0.219529 0.219529 0.219529 0.219529 0.219529 0.219529 0.219529 0.219529 0.219529 0.219529 0.219529 0.219529 0.219529 0.219529 0.219529 0.219529 0.219529 0.219529 0.219529 0.219529 0.219529 0.219529 0.219529 0.219529 0.219529 0.219529 0.219529 0.237356 0.237356 0.237356 0.237356 0.237356 0.237356 0.237356 0.237356 0.237356 0.237356 0.237356 0.237356 0.237356 0.237356 0.237356 0.237356 0.237356 0.237356 0.237356 0.237356 0.237356 0.237356 0.237356 0.237356 0.244339 0.244339 0.244339 0.244339 0.244339 0.244339 0.244339 0.244339 0.244339 0.244339 0.244339 0.244339 0.244339 0.244339 0.244339 0.244339 0.244339 0.244339 0.244339 0.244339 0.244339 0.248069 0.248069 0.248069 0.248069 0.248069 0.248069 0.248069 0.248069 0.248069 0.248069 0.248069 0.248069 0.248069 0.248069 0.248069 0.248069 0.248069 0.248069 0.248069 0.248069 0.248069 0.248069 0.248069 0.248069 0.248069 0.248069 0.248069 0.248069 0.248069 0.248069 0.248069 0.248069 0.248069 0.248069 0.248069 0.248069 0.248069 0.256074 0.256074 0.256074 0.256074 0.256074 0.256074 0.256074 0.256074 0.256074 0.256074 0.256074 0.256074 0.256074 0.256074 0.256074 0.256074 0.256074 0.256074 0.256074 0.256074 0.256074 0.256074 0.256074 0.256074 0.256074 0.256074 0.256074 0.256074 0.256074 0.256074 0.256074 0.256074 0.256074 0.256074 0.256074 0.256074 0.256074 0.256074 0.256074 0.256074 0.256074 0.256074 0.256074 0.256074 0.256074 0.260378 0.260378 0.260378 0.260378 0.260378 0.260378 0.260378 0.260378 0.260378 0.260378 0.260378 0.260378 0.260378 0.256074 0.256074 0.256074 0.256074 0.256074 0.256074 0.256074 0.256074 0.256074 0.256074 0.256074 0.256074 0.256074 0.260378 0.260378 0.260378 0.260378 0.260378 0.260378 0.260378 0.260378 0.260378 0.260378 0.260378 0.260378 0.251976 0.251976 0.251976 0.251976 0.251976 0.251976 0.251976 0.251976 0.251976 0.251976 0.251976 0.251976 0.256074 0.256074 0.256074 0.256074 0.256074 0.256074 0.256074 0.256074 0.256074 0.256074 0.256074 0.251976 0.251976 0.251976 0.251976 0.251976 0.251976 0.251976 0.251976 0.251976 0.251976 0.251976 0.248069 0.248069 0.248069 0.248069 0.248069 0.248069 0.248069 0.248069 0.248069 0.248069 0.248069 0.256074 0.256074 0.256074 0.256074 0.256074 0.256074 0.256074 0.256074 0.256074 0.256074 0.256074 0.256074 0.256074 0.256074 0.256074 0.256074 0.256074 0.256074 0.256074
