# Output from CTFFind version 4.1.9, run on 2019-11-02 17:48:48
# Input file: stack16_bm3d_averaged_1_1.5_0_2000_half.mrc ; Number of micrographs: 1
# Pixel size: 3.000 Angstroms ; acceleration voltage: 300.0 keV ; spherical aberration: 0.00 mm ; amplitude contrast: 0.07
# Box size: 512 pixels ; min. res.: 30.0 Angstroms ; max. res.: 5.0 Angstroms ; min. def.: 5000.0 um; max. def. 50000.0 um; num. frames averaged: 1
# 6 lines per micrograph: #1 - spatial frequency (1/Angstroms); #2 - 1D rotational average of spectrum (assuming no astigmatism); #3 - 1D rotational average of spectrum; #4 - CTF fit; #5 - cross-correlation between spectrum and CTF fit; #6 - 2sigma of expected cross correlation of noise
0.000000 0.000651 0.001302 0.001953 0.002604 0.003255 0.003906 0.004557 0.005208 0.005859 0.006510 0.007161 0.007812 0.008464 0.009115 0.009766 0.010417 0.011068 0.011719 0.012370 0.013021 0.013672 0.014323 0.014974 0.015625 0.016276 0.016927 0.017578 0.018229 0.018880 0.019531 0.020182 0.020833 0.021484 0.022135 0.022786 0.023438 0.024089 0.024740 0.025391 0.026042 0.026693 0.027344 0.027995 0.028646 0.029297 0.029948 0.030599 0.031250 0.031901 0.032552 0.033203 0.033854 0.034505 0.035156 0.035807 0.036458 0.037109 0.037760 0.038411 0.039062 0.039714 0.040365 0.041016 0.041667 0.042318 0.042969 0.043620 0.044271 0.044922 0.045573 0.046224 0.046875 0.047526 0.048177 0.048828 0.049479 0.050130 0.050781 0.051432 0.052083 0.052734 0.053385 0.054036 0.054688 0.055339 0.055990 0.056641 0.057292 0.057943 0.058594 0.059245 0.059896 0.060547 0.061198 0.061849 0.062500 0.063151 0.063802 0.064453 0.065104 0.065755 0.066406 0.067057 0.067708 0.068359 0.069010 0.069661 0.070312 0.070964 0.071615 0.072266 0.072917 0.073568 0.074219 0.074870 0.075521 0.076172 0.076823 0.077474 0.078125 0.078776 0.079427 0.080078 0.080729 0.081380 0.082031 0.082682 0.083333 0.083984 0.084635 0.085286 0.085938 0.086589 0.087240 0.087891 0.088542 0.089193 0.089844 0.090495 0.091146 0.091797 0.092448 0.093099 0.093750 0.094401 0.095052 0.095703 0.096354 0.097005 0.097656 0.098307 0.098958 0.099609 0.100260 0.100911 0.101562 0.102214 0.102865 0.103516 0.104167 0.104818 0.105469 0.106120 0.106771 0.107422 0.108073 0.108724 0.109375 0.110026 0.110677 0.111328 0.111979 0.112630 0.113281 0.113932 0.114583 0.115234 0.115885 0.116536 0.117188 0.117839 0.118490 0.119141 0.119792 0.120443 0.121094 0.121745 0.122396 0.123047 0.123698 0.124349 0.125000 0.125651 0.126302 0.126953 0.127604 0.128255 0.128906 0.129557 0.130208 0.130859 0.131510 0.132161 0.132812 0.133464 0.134115 0.134766 0.135417 0.136068 0.136719 0.137370 0.138021 0.138672 0.139323 0.139974 0.140625 0.141276 0.141927 0.142578 0.143229 0.143880 0.144531 0.145182 0.145833 0.146484 0.147135 0.147786 0.148438 0.149089 0.149740 0.150391 0.151042 0.151693 0.152344 0.152995 0.153646 0.154297 0.154948 0.155599 0.156250 0.156901 0.157552 0.158203 0.158854 0.159505 0.160156 0.160807 0.161458 0.162109 0.162760 0.163411 0.164062 0.164714 0.165365 0.166016 0.166667 0.167318 0.167969 0.168620 0.169271 0.169922 0.170573 0.171224 0.171875 0.172526 0.173177 0.173828 0.174479 0.175130 0.175781 0.176432 0.177083 0.177734 0.178385 0.179036 0.179688 0.180339 0.180990 0.181641 0.182292 0.182943 0.183594 0.184245 0.184896 0.185547 0.186198 0.186849 0.187500 0.188151 0.188802 0.189453 0.190104 0.190755 0.191406 0.192057 0.192708 0.193359 0.194010 0.194661 0.195312 0.195964 0.196615 0.197266 0.197917 0.198568 0.199219 0.199870 0.200521 0.201172 0.201823 0.202474 0.203125 0.203776 0.204427 0.205078 0.205729 0.206380 0.207031 0.207682 0.208333 0.208984 0.209635 0.210286 0.210938 0.211589 0.212240 0.212891 0.213542 0.214193 0.214844 0.215495 0.216146 0.216797 0.217448 0.218099 0.218750 0.219401 0.220052 0.220703 0.221354 0.222005 0.222656 0.223307 0.223958 0.224609 0.225260 0.225911 0.226562 0.227214 0.227865 0.228516 0.229167 0.229818 0.230469 0.231120 0.231771 0.232422 0.233073 0.233724 0.234375 0.235026 0.235677
       0.34444        0.34444        0.34444        0.34444        0.34444        0.34444        0.34444        0.34444        0.34444        0.34444        0.34444        0.34444        0.34444        0.34444        0.34444        0.34444        0.34444        0.34444        0.34444        0.34444        0.34444        0.34444        0.34444        0.34444        0.34444        0.34444        0.34444        0.34444        0.34444        0.34444        0.34444        0.34444        0.34444        0.34444        0.34444        0.34444        0.34444        0.34444        0.34444        0.34444        0.34444        0.34444        0.34444        0.34444        0.34444        0.34444        0.34444        0.34444        0.34444        0.34444        0.34444        0.48902        0.70120        0.45768       -0.10916       -0.41159       -0.56948       -0.65798       -0.74135       -0.75800       -0.86956       -0.91376       -0.75907       -0.92517       -0.87126       -1.02495       -1.09677       -0.98814       -0.95917       -0.88339       -0.85514       -0.74825       -0.63942       -0.49798       -0.42033       -0.21865       -0.11672       -0.02430        0.20076        0.24337        0.30995        0.38472        0.43732        0.51441        0.58232        0.60224        0.59262        0.50276        0.54839        0.48534        0.39326        0.32915        0.20671        0.17361        0.09922       -0.05747       -0.11364       -0.08898        0.01381       -0.01682        0.01594        0.02790        0.20624        0.21836        0.39184        0.45861        0.56529        0.70500        0.76647        0.73326        0.70660        0.70154        0.58629        0.54170        0.39883        0.27877        0.19797        0.15080        0.06997        0.02879        0.02434        0.06530        0.08405        0.27789        0.41681        0.50492        0.58963        0.63963        0.70508        0.66109        0.65578        0.67337        0.60946        0.48479        0.28799        0.23815        0.20630        0.12998        0.04464        0.09314        0.11326        0.25233        0.34835        0.41798        0.50527        0.54398        0.65897        0.60554        0.55443        0.51041        0.36467        0.20619        0.21208        0.15716        0.12209        0.12225        0.21447        0.25713        0.36301        0.44416        0.43868        0.56033        0.51331        0.45413        0.45682        0.38335        0.32523        0.27450        0.21381        0.23287        0.21489        0.21096        0.31963        0.45220        0.48966        0.48442        0.55360        0.49942        0.45450        0.39945        0.29592        0.22917        0.23579        0.24301        0.26558        0.27411        0.33183        0.44350        0.50388        0.49366        0.46036        0.41656        0.38950        0.36085        0.25098        0.22823        0.25233        0.29624        0.35744        0.36519        0.39576        0.41272        0.44604        0.37696        0.34856        0.31656        0.31178        0.26997        0.25979        0.31087        0.34930        0.41640        0.41954        0.39563        0.39223        0.40554        0.34913        0.28761        0.29797        0.28514        0.30943        0.35898        0.37114        0.41467        0.36075        0.36346        0.38927        0.34406        0.31102        0.28585        0.29101        0.33865        0.33042        0.32559        0.37449        0.39810        0.33829        0.35513        0.30177        0.30866        0.28779        0.28142        0.30340        0.32968        0.38469        0.36743        0.34906        0.32870        0.28689        0.27710        0.29930        0.28548        0.31626        0.37008        0.39649        0.33660        0.31995        0.31187        0.30160        0.29563        0.27976        0.30695        0.34090        0.33276        0.34668        0.32522        0.35166        0.32757        0.29033        0.31190        0.32235        0.34197        0.34110        0.31929        0.31417        0.30272        0.33185        0.31759        0.33925        0.39364        0.33780        0.36233        0.31791        0.30781        0.29015        0.31037        0.29309        0.31249        0.32399        0.35165        0.36282        0.30828        0.32026        0.31739        0.30081        0.29335        0.29466        0.32627        0.34156        0.35692        0.33833        0.31819        0.26471        0.25965        0.31244        0.35463        0.31613        0.29339        0.28461        0.29519        0.32915        0.31248        0.30450        0.33743        0.33716        0.31333        0.24498        0.28356        0.28966        0.28959        0.33132        0.33192        0.34858        0.34453        0.28578        0.27497        0.30080        0.27306        0.30084        0.27170        0.25314        0.26597        0.26369        0.28431        0.28675        0.28393        0.26671        0.31577        0.32894        0.31981        0.28308        0.28945        0.23892        0.26646        0.24853        0.31443        0.35256        0.23037        0.25193        0.29083        0.24680        0.23644        0.31201        0.24375        0.12837        0.17554        0.21967        0.27587        0.25932        0.15435        0.06445       -0.37102       -0.74916
3.060920 3.022849 2.985022 2.947440 2.910103 2.873011 2.836164 2.799561 2.763203 2.727089 2.691221 2.655597 2.620218 2.585084 2.550195 2.515550 2.481150 2.446995 2.413085 2.379419 2.345999 2.312823 2.279891 2.247205 2.214763 2.182566 2.150614 2.118907 2.087444 2.056227 2.025253 1.994525 1.964042 1.933803 1.903809 1.874060 1.844555 1.815296 1.786281 1.757511 1.728985 1.700704 1.672669 1.644878 1.617331 1.590030 1.562973 1.536161 1.509594 1.483271 1.457194 1.514263 1.698829 1.615330 0.968832 0.683746 0.478837 0.433596 0.325311 0.268418 0.200829 0.021250 0.197662 0.081218 -0.007836 -0.059760 -0.198290 -0.152452 -0.087691 -0.092591 -0.092590 0.010877 0.034407 0.232024 0.153354 0.364512 0.445174 0.476665 0.711987 0.699173 0.709757 0.837170 0.820395 0.847847 0.923111 0.898667 0.938911 0.751650 0.836921 0.839011 0.622709 0.609988 0.457471 0.438157 0.379121 0.211733 0.118330 0.099594 0.209162 0.143128 0.199121 0.112211 0.305970 0.285567 0.457439 0.413765 0.582774 0.646328 0.766076 0.699826 0.662274 0.666275 0.530864 0.504928 0.362050 0.296490 0.121057 0.150911 0.002539 -0.007773 -0.038927 -0.027976 0.000672 0.037240 0.275277 0.328142 0.387898 0.394161 0.467745 0.518142 0.473112 0.506457 0.397540 0.392571 0.156006 0.069483 0.074823 -0.004362 -0.126208 -0.042851 -0.117091 0.014149 0.140385 0.159354 0.254383 0.261688 0.383333 0.454780 0.352708 0.389308 0.285336 0.124200 0.047486 0.053774 0.021139 0.005959 0.007780 0.108744 0.130007 0.269917 0.237036 0.302247 0.367221 0.244800 0.246890 0.219674 0.130131 0.084283 0.047921 0.022980 0.039846 -0.013101 0.027757 0.183059 0.221073 0.255802 0.283147 0.233303 0.237911 0.148471 0.109119 -0.021574 -0.012262 -0.007790 0.016115 0.006679 0.031152 0.106307 0.189296 0.206813 0.221049 0.136064 0.144458 0.078898 0.057413 -0.059294 -0.013807 0.000254 0.053990 0.065866 0.078558 0.152533 0.089332 0.164645 0.065949 0.049298 0.047054 0.028676 0.001669 0.006384 0.048907 0.086424 0.127648 0.135971 0.068390 0.124510 0.095323 0.009926 0.009034 0.007430 -0.003606 0.049102 0.057966 0.097883 0.095102 0.059505 0.069150 0.077889 0.028673 0.009222 -0.008556 0.002033 0.059808 0.020724 0.034514 0.072053 0.089611 0.056665 0.032163 0.010423 0.010335 -0.008135 -0.014787 0.011496 0.049037 0.096280 0.065355 0.059574 0.034268 -0.013670 -0.002920 0.017406 0.010943 0.025989 0.102974 0.066095 0.015228 0.045132 0.001934 0.027401 -0.004977 -0.006059 0.029036 0.057674 0.026554 0.045015 0.030009 0.054404 0.023402 -0.008142 0.020255 0.038290 0.040955 0.031210 0.034070 0.002549 -0.002342 0.032263 0.016091 0.049874 0.077571 0.042944 0.019239 0.003966 -0.011021 -0.015080 0.000385 -0.006266 0.003255 -0.007472 0.060510 0.032543 0.005910 0.023117 -0.016472 -0.005519 -0.013052 -0.019918 0.026770 0.045205 0.060802 0.029926 0.020789 -0.044327 -0.017224 0.008140 0.052482 0.015385 0.013755 -0.019820 -0.010111 0.034416 0.030540 0.008907 0.053720 0.050025 0.037529 -0.038213 -0.000220 0.036024 0.005009 0.040361 0.071051 0.074323 0.067860 0.015395 0.012394 0.019157 0.000144 0.033967 -0.031895 -0.025567 -0.025793 -0.037932 -0.007421 -0.012614 0.006173 -0.085459 -0.004749 0.003292 -0.004401 -0.054662 -0.002606 -0.107382 -0.030691 -0.061941 0.002097 0.065487 -0.113560 -0.034101 0.036680 -0.005775 -0.056995 0.047417 0.026104 -0.052446 -0.045643 0.030953 0.246169 0.233578 0.105695 0.059133 -0.657716
0.072396 0.073046 0.074995 0.078243 0.082789 0.088631 0.095768 0.104195 0.113910 0.124907 0.137179 0.150719 0.165515 0.181557 0.198827 0.217307 0.236977 0.257809 0.279772 0.302833 0.326949 0.352075 0.378155 0.405131 0.432933 0.461486 0.490704 0.520494 0.550751 0.581361 0.612201 0.643135 0.674016 0.704687 0.734978 0.764710 0.793689 0.821714 0.848570 0.874035 0.897874 0.919847 0.939706 0.957195 0.972055 0.984026 0.992846 0.998254 0.999996 0.997823 0.991497 0.980793 0.965506 0.945449 0.920460 0.890407 0.855190 0.814748 0.769059 0.718148 0.662091 0.601014 0.535103 0.464605 0.389827 0.311143 0.228994 0.143888 0.056402 0.032822 0.123079 0.213599 0.303561 0.392088 0.478263 0.561134 0.639722 0.713038 0.780090 0.839901 0.891522 0.934051 0.966646 0.988546 0.999089 0.997728 0.984053 0.957801 0.918881 0.867379 0.803581 0.727972 0.641252 0.544333 0.438345 0.324626 0.204716 0.080340 0.046606 0.174084 0.299941 0.421945 0.537822 0.645300 0.742158 0.826271 0.895667 0.948576 0.983482 0.999175 0.994796 0.969882 0.924399 0.858768 0.773890 0.671151 0.552412 0.420001 0.276679 0.125590 0.029790 0.185731 0.338326 0.483601 0.617605 0.736530 0.836827 0.915319 0.969318 0.996729 0.996145 0.966931 0.909282 0.824262 0.713819 0.580770 0.428750 0.262139 0.085960 0.094269 0.272689 0.443293 0.600122 0.737487 0.850183 0.933705 0.984451 0.999897 0.978748 0.921047 0.828235 0.703166 0.550050 0.374359 0.182653 0.017639 0.218491 0.411591 0.588685 0.741946 0.864326 0.949911 0.994238 0.994560 0.950049 0.861917 0.733447 0.569928 0.378481 0.167789 0.052260 0.271025 0.477612 0.661422 0.812715 0.923145 0.986266 0.997948 0.956697 0.863836 0.723552 0.542768 0.330867 0.099248 0.139247 0.371031 0.582531 0.761004 0.895337 0.976767 0.999521 0.961280 0.863451 0.711219 0.513352 0.281770 0.030884 0.223267 0.464015 0.675160 0.842088 0.952825 0.998951 0.976320 0.885499 0.731888 0.525505 0.280412 0.013835 0.255007 0.506265 0.720930 0.882308 0.977370 0.997885 0.941222 0.810743 0.615725 0.370816 0.095022 0.189702 0.460169 0.693846 0.870761 0.975280 0.997570 0.934633 0.790779 0.577475 0.312553 0.018822 0.277830 0.550692 0.774650 0.928527 0.997204 0.973191 0.857581 0.660185 0.398871 0.098040 0.213534 0.505430 0.748551 0.918066 0.996040 0.973465 0.851430 0.641304 0.363835 0.047249 0.275542 0.570302 0.805133 0.953977 0.999634 0.935897 0.768543 0.515011 0.202760 0.133571 0.455934 0.727158 0.915291 0.997466 0.962843 0.814214 0.568027 0.252763 0.094202 0.430926 0.715962 0.913491 0.997957 0.957537 0.795990 0.532578 0.199988 0.159572 0.499624 0.775415 0.949889 0.998805 0.914301 0.706370 0.401938 0.041592 0.325674 0.649065 0.883036 0.993817 0.964494 0.797821 0.516301 0.159389 0.221822 0.571833 0.838812 0.982374 0.979881 0.830271 0.554714 0.193907 0.197722 0.560110 0.836741 0.983591 0.976335 0.814644 0.522788 0.146290 0.254939 0.616029 0.877634 0.995827 0.949726 0.745473 0.415799 0.015094 0.389353 0.728593 0.943785 0.996637 0.876486 0.602776 0.222252 0.198694 0.585485 0.868530 0.995907 0.943136 0.718246 0.360972 0.063920 0.478145 0.804253 0.980225 0.971508 0.778155 0.435540 0.008247 0.421823 0.771024 0.970369 0.979352 0.794586 0.451205 0.016599 0.422509 0.777284 0.974786 0.973280 0.771425 0.409351 0.038880 0.480151 0.821518 0.989909 0.948075 0.703265 0.306505 0.157578 0.588572
1.000000 1.000000 1.000000 1.000000 1.000000 1.000000 1.000000 1.000000 1.000000 1.000000 1.000000 1.000000 1.000000 1.000000 1.000000 1.000000 1.000000 1.000000 1.000000 1.000000 1.000000 1.000000 1.000000 1.000000 1.000000 1.000000 1.000000 1.000000 1.000000 1.000000 1.000000 1.000000 1.000000 1.000000 1.000000 1.000000 1.000000 1.000000 1.000000 1.000000 1.000000 1.000000 1.000000 1.000000 1.000000 1.000000 1.000000 1.000000 1.000000 1.000000 1.000000 1.000000 0.933522 0.933522 0.933522 0.933522 0.933522 0.933522 0.933522 0.933522 0.933522 0.933522 0.933522 0.933522 0.933522 0.933522 0.933522 0.933522 0.933522 0.933522 0.933522 0.933522 0.933522 0.933522 0.933522 0.933522 0.933522 0.933522 0.933522 0.933522 0.933522 0.933522 0.933522 0.933522 0.933522 0.924270 0.925724 0.928619 0.929662 0.929624 0.929184 0.928885 0.929108 0.930009 0.932298 0.948837 0.950238 0.950816 0.952088 0.950774 0.953534 0.951730 0.951604 0.962086 0.960913 0.961692 0.954851 0.956419 0.955539 0.954637 0.955032 0.955262 0.953345 0.951202 0.949519 0.948887 0.948517 0.950293 0.950780 0.950763 0.952237 0.952223 0.951962 0.948682 0.947209 0.948687 0.950718 0.949803 0.955457 0.955254 0.963232 0.964052 0.962686 0.962580 0.962789 0.962992 0.954438 0.948768 0.943675 0.931836 0.923145 0.920723 0.923617 0.925423 0.924230 0.919463 0.918401 0.915928 0.911243 0.910421 0.910122 0.911551 0.907542 0.904157 0.888016 0.887757 0.890439 0.890132 0.887789 0.879767 0.876123 0.877213 0.880299 0.877941 0.874681 0.890603 0.885397 0.890223 0.893195 0.896239 0.900090 0.895664 0.893918 0.890319 0.886761 0.881669 0.883015 0.872675 0.875388 0.869466 0.859491 0.852722 0.855551 0.864565 0.872419 0.880328 0.879365 0.879831 0.879070 0.871087 0.872069 0.861095 0.862151 0.866835 0.872516 0.869985 0.867060 0.871417 0.869675 0.868902 0.871499 0.868231 0.866393 0.856953 0.857183 0.860351 0.876234 0.877609 0.865707 0.854919 0.842286 0.848682 0.851650 0.850872 0.852612 0.845303 0.846742 0.836444 0.824076 0.824424 0.829632 0.827618 0.831567 0.831223 0.835824 0.835820 0.834469 0.830036 0.828544 0.835005 0.803830 0.811010 0.813355 0.808083 0.812306 0.803589 0.797000 0.793265 0.791337 0.781743 0.791191 0.789558 0.755335 0.746723 0.753949 0.742954 0.733062 0.730704 0.732067 0.705787 0.693189 0.660296 0.656774 0.642357 0.637856 0.641945 0.632322 0.613905 0.601885 0.585506 0.600257 0.605298 0.588742 0.591131 0.584309 0.579604 0.571842 0.566482 0.567768 0.574027 0.578108 0.545452 0.537512 0.541732 0.511965 0.512329 0.512940 0.501513 0.476640 0.481216 0.473873 0.497938 0.523274 0.481419 0.472306 0.485840 0.503756 0.515297 0.514205 0.501555 0.484018 0.500463 0.476757 0.453503 0.469460 0.484999 0.476300 0.485882 0.474440 0.500632 0.492545 0.476372 0.500583 0.488811 0.483031 0.494252 0.510354 0.509940 0.510000 0.504016 0.459761 0.470436 0.451030 0.380449 0.380319 0.386174 0.371916 0.371790 0.349120 0.351717 0.322509 0.296504 0.299639 0.293163 0.252452 0.216444 0.222763 0.224300 0.197048 0.168265 0.184062 0.140130 0.134331 0.153887 0.156625 0.148135 0.149136 0.172404 0.172404 0.172404 0.172404 0.172404 0.172404 0.172404 0.172404 0.172404 0.172404 0.172404 0.172404 0.172404 0.172404 0.197028 0.197028 0.197028 0.197028 0.197028 0.197028 0.197028 0.197028 0.197028 0.197028 0.197028 0.197028
0.000000 0.000000 0.000000 0.000000 0.000000 0.000000 0.000000 0.000000 0.000000 0.000000 0.000000 0.000000 0.000000 0.000000 0.000000 0.000000 0.000000 0.000000 0.000000 0.000000 0.000000 0.000000 0.000000 0.000000 0.000000 0.000000 0.000000 0.000000 0.000000 0.000000 0.000000 0.000000 0.000000 0.000000 0.000000 0.000000 0.000000 0.000000 0.000000 0.000000 0.000000 0.000000 0.000000 0.000000 0.000000 0.000000 0.000000 0.000000 0.000000 0.000000 0.000000 0.000000 0.209657 0.209657 0.209657 0.209657 0.209657 0.209657 0.209657 0.209657 0.209657 0.209657 0.209657 0.209657 0.209657 0.209657 0.209657 0.209657 0.209657 0.209657 0.209657 0.209657 0.209657 0.209657 0.209657 0.209657 0.209657 0.209657 0.209657 0.209657 0.209657 0.209657 0.209657 0.209657 0.209657 0.244339 0.244339 0.244339 0.244339 0.244339 0.244339 0.244339 0.244339 0.244339 0.244339 0.244339 0.244339 0.244339 0.244339 0.244339 0.244339 0.244339 0.244339 0.244339 0.244339 0.244339 0.244339 0.244339 0.244339 0.244339 0.260378 0.260378 0.260378 0.260378 0.260378 0.260378 0.260378 0.260378 0.260378 0.260378 0.260378 0.260378 0.260378 0.260378 0.260378 0.260378 0.260378 0.260378 0.260378 0.260378 0.269680 0.269680 0.269680 0.269680 0.269680 0.269680 0.269680 0.269680 0.269680 0.269680 0.269680 0.269680 0.269680 0.269680 0.269680 0.269680 0.269680 0.269680 0.269680 0.269680 0.269680 0.269680 0.269680 0.269680 0.269680 0.269680 0.269680 0.269680 0.269680 0.269680 0.269680 0.269680 0.269680 0.280056 0.280056 0.280056 0.280056 0.280056 0.280056 0.280056 0.280056 0.280056 0.280056 0.280056 0.280056 0.280056 0.280056 0.280056 0.280056 0.280056 0.280056 0.280056 0.280056 0.280056 0.280056 0.280056 0.280056 0.280056 0.280056 0.280056 0.274721 0.274721 0.274721 0.274721 0.274721 0.274721 0.274721 0.274721 0.274721 0.274721 0.274721 0.274721 0.274721 0.285714 0.285714 0.285714 0.285714 0.285714 0.285714 0.285714 0.285714 0.285714 0.285714 0.285714 0.280056 0.280056 0.280056 0.280056 0.280056 0.280056 0.280056 0.280056 0.280056 0.280056 0.280056 0.274721 0.274721 0.274721 0.274721 0.274721 0.274721 0.274721 0.274721 0.274721 0.274721 0.274721 0.280056 0.280056 0.280056 0.280056 0.280056 0.280056 0.280056 0.280056 0.280056 0.280056 0.285714 0.285714 0.285714 0.285714 0.285714 0.285714 0.285714 0.285714 0.285714 0.269680 0.269680 0.269680 0.269680 0.269680 0.269680 0.269680 0.269680 0.269680 0.269680 0.274721 0.274721 0.274721 0.274721 0.274721 0.274721 0.274721 0.274721 0.274721 0.285714 0.285714 0.285714 0.285714 0.285714 0.285714 0.285714 0.285714 0.264906 0.264906 0.264906 0.264906 0.264906 0.264906 0.264906 0.264906 0.264906 0.274721 0.274721 0.274721 0.274721 0.274721 0.274721 0.274721 0.274721 0.269680 0.269680 0.269680 0.269680 0.269680 0.269680 0.269680 0.269680 0.269680 0.269680 0.269680 0.269680 0.269680 0.269680 0.269680 0.269680 0.280056 0.280056 0.280056 0.280056 0.280056 0.280056 0.280056 0.260378 0.260378 0.260378 0.260378 0.260378 0.260378 0.260378 0.260378 0.269680 0.269680 0.269680 0.269680 0.269680 0.269680 0.269680 0.264906 0.264906 0.264906 0.264906 0.264906 0.264906 0.264906 0.264906 0.264906 0.264906 0.264906 0.264906 0.264906 0.264906 0.260378 0.260378 0.260378 0.260378 0.260378 0.260378 0.260378 0.260378 0.260378 0.260378 0.260378 0.260378
