# Output from CTFFind version 4.1.9, run on 2019-11-02 17:59:01
# Input file: stack11_bm3d_averaged_1_1.75_0_750_half.mrc ; Number of micrographs: 1
# Pixel size: 3.000 Angstroms ; acceleration voltage: 300.0 keV ; spherical aberration: 0.00 mm ; amplitude contrast: 0.07
# Box size: 512 pixels ; min. res.: 30.0 Angstroms ; max. res.: 5.0 Angstroms ; min. def.: 5000.0 um; max. def. 50000.0 um; num. frames averaged: 1
# 6 lines per micrograph: #1 - spatial frequency (1/Angstroms); #2 - 1D rotational average of spectrum (assuming no astigmatism); #3 - 1D rotational average of spectrum; #4 - CTF fit; #5 - cross-correlation between spectrum and CTF fit; #6 - 2sigma of expected cross correlation of noise
0.000000 0.000651 0.001302 0.001953 0.002604 0.003255 0.003906 0.004557 0.005208 0.005859 0.006510 0.007161 0.007812 0.008464 0.009115 0.009766 0.010417 0.011068 0.011719 0.012370 0.013021 0.013672 0.014323 0.014974 0.015625 0.016276 0.016927 0.017578 0.018229 0.018880 0.019531 0.020182 0.020833 0.021484 0.022135 0.022786 0.023438 0.024089 0.024740 0.025391 0.026042 0.026693 0.027344 0.027995 0.028646 0.029297 0.029948 0.030599 0.031250 0.031901 0.032552 0.033203 0.033854 0.034505 0.035156 0.035807 0.036458 0.037109 0.037760 0.038411 0.039062 0.039714 0.040365 0.041016 0.041667 0.042318 0.042969 0.043620 0.044271 0.044922 0.045573 0.046224 0.046875 0.047526 0.048177 0.048828 0.049479 0.050130 0.050781 0.051432 0.052083 0.052734 0.053385 0.054036 0.054688 0.055339 0.055990 0.056641 0.057292 0.057943 0.058594 0.059245 0.059896 0.060547 0.061198 0.061849 0.062500 0.063151 0.063802 0.064453 0.065104 0.065755 0.066406 0.067057 0.067708 0.068359 0.069010 0.069661 0.070312 0.070964 0.071615 0.072266 0.072917 0.073568 0.074219 0.074870 0.075521 0.076172 0.076823 0.077474 0.078125 0.078776 0.079427 0.080078 0.080729 0.081380 0.082031 0.082682 0.083333 0.083984 0.084635 0.085286 0.085938 0.086589 0.087240 0.087891 0.088542 0.089193 0.089844 0.090495 0.091146 0.091797 0.092448 0.093099 0.093750 0.094401 0.095052 0.095703 0.096354 0.097005 0.097656 0.098307 0.098958 0.099609 0.100260 0.100911 0.101562 0.102214 0.102865 0.103516 0.104167 0.104818 0.105469 0.106120 0.106771 0.107422 0.108073 0.108724 0.109375 0.110026 0.110677 0.111328 0.111979 0.112630 0.113281 0.113932 0.114583 0.115234 0.115885 0.116536 0.117188 0.117839 0.118490 0.119141 0.119792 0.120443 0.121094 0.121745 0.122396 0.123047 0.123698 0.124349 0.125000 0.125651 0.126302 0.126953 0.127604 0.128255 0.128906 0.129557 0.130208 0.130859 0.131510 0.132161 0.132812 0.133464 0.134115 0.134766 0.135417 0.136068 0.136719 0.137370 0.138021 0.138672 0.139323 0.139974 0.140625 0.141276 0.141927 0.142578 0.143229 0.143880 0.144531 0.145182 0.145833 0.146484 0.147135 0.147786 0.148438 0.149089 0.149740 0.150391 0.151042 0.151693 0.152344 0.152995 0.153646 0.154297 0.154948 0.155599 0.156250 0.156901 0.157552 0.158203 0.158854 0.159505 0.160156 0.160807 0.161458 0.162109 0.162760 0.163411 0.164062 0.164714 0.165365 0.166016 0.166667 0.167318 0.167969 0.168620 0.169271 0.169922 0.170573 0.171224 0.171875 0.172526 0.173177 0.173828 0.174479 0.175130 0.175781 0.176432 0.177083 0.177734 0.178385 0.179036 0.179688 0.180339 0.180990 0.181641 0.182292 0.182943 0.183594 0.184245 0.184896 0.185547 0.186198 0.186849 0.187500 0.188151 0.188802 0.189453 0.190104 0.190755 0.191406 0.192057 0.192708 0.193359 0.194010 0.194661 0.195312 0.195964 0.196615 0.197266 0.197917 0.198568 0.199219 0.199870 0.200521 0.201172 0.201823 0.202474 0.203125 0.203776 0.204427 0.205078 0.205729 0.206380 0.207031 0.207682 0.208333 0.208984 0.209635 0.210286 0.210938 0.211589 0.212240 0.212891 0.213542 0.214193 0.214844 0.215495 0.216146 0.216797 0.217448 0.218099 0.218750 0.219401 0.220052 0.220703 0.221354 0.222005 0.222656 0.223307 0.223958 0.224609 0.225260 0.225911 0.226562 0.227214 0.227865 0.228516 0.229167 0.229818 0.230469 0.231120 0.231771 0.232422 0.233073 0.233724 0.234375 0.235026 0.235677
       0.31684        0.31684        0.31684        0.31684        0.31684        0.31684        0.31685        0.31684        0.31684        0.31684        0.31685        0.31684        0.31685        0.31685        0.31684        0.31684        0.31685        0.31684        0.31684        0.31685        0.31685        0.31684        0.31684        0.31685        0.31684        0.31685        0.31684        0.31685        0.31685        0.31684        0.31684        0.31685        0.31684        0.31685        0.31684        0.31684        0.31685        0.31684        0.31685        0.31684        0.31685        0.31685        0.31685        0.31685        0.31684        0.31685        0.31684        0.31684        0.31684        0.31685        0.31684        0.68183        0.86724        0.52334        0.08839       -0.06408       -0.42583       -0.20567       -0.29788       -0.11714       -0.07666       -0.11852       -0.06782       -0.20733       -0.23476       -0.25705       -0.33044       -0.33779       -0.48818       -0.38176       -0.46429       -0.44723       -0.42137       -0.46787       -0.53907       -0.56098       -0.58745       -0.62095       -0.57753       -0.41445       -0.37904       -0.33085       -0.31348       -0.21063       -0.19999        0.01849        0.07695        0.10781        0.22611        0.37005        0.44220        0.51437        0.55849        0.55526        0.56841        0.69560        0.81045        0.73680        0.73186        0.66508        0.57796        0.48286        0.40757        0.49394        0.37820        0.20600        0.07704        0.04681        0.01487       -0.06132       -0.03764       -0.01924       -0.06859       -0.00783       -0.01877        0.21318        0.25111        0.28850        0.42899        0.45893        0.40369        0.53817        0.62415        0.69530        0.76021        0.68845        0.65446        0.69701        0.58224        0.49935        0.41851        0.29101        0.19113        0.15543        0.10684        0.03851        0.00995        0.00085        0.07517        0.13055        0.20558        0.27898        0.39717        0.41803        0.50706        0.60167        0.63342        0.61899        0.62777        0.55490        0.44793        0.44882        0.35216        0.22882        0.18275        0.14645        0.11272        0.12311        0.07348        0.10421        0.23129        0.26301        0.34270        0.35707        0.45175        0.51489        0.53572        0.54741        0.46986        0.42964        0.38953        0.36359        0.30606        0.25067        0.20248        0.18784        0.16400        0.19383        0.17900        0.27142        0.33295        0.36510        0.42587        0.45986        0.47608        0.43964        0.39249        0.41433        0.37223        0.28281        0.26626        0.22264        0.21523        0.19410        0.21678        0.22964        0.32688        0.37216        0.36908        0.46276        0.43633        0.43572        0.43000        0.39382        0.34464        0.32580        0.27666        0.24417        0.23647        0.27009        0.27341        0.30271        0.30391        0.33585        0.32742        0.40633        0.41893        0.37661        0.34647        0.36457        0.27948        0.28120        0.26017        0.27680        0.26097        0.28072        0.29173        0.31172        0.34871        0.36119        0.36093        0.33564        0.35130        0.28710        0.32028        0.26798        0.24496        0.28786        0.28429        0.30891        0.31024        0.32899        0.32786        0.31613        0.31862        0.28730        0.28892        0.26135        0.28184        0.26311        0.30568        0.28312        0.26680        0.30755        0.31250        0.31619        0.28278        0.30074        0.28359        0.25138        0.24309        0.21783        0.28119        0.27655        0.32110        0.31227        0.31933        0.31834        0.30970        0.27597        0.28971        0.32954        0.26623        0.25782        0.29473        0.28904        0.34064        0.33279        0.35044        0.32848        0.30940        0.28265        0.26693        0.25845        0.22565        0.27308        0.30547        0.29435        0.27920        0.29612        0.26932        0.32339        0.32529        0.24938        0.22065        0.27729        0.33046        0.27551        0.30490        0.32461        0.32468        0.30306        0.32345        0.34222        0.29980        0.28765        0.25631        0.28663        0.35594        0.35734        0.26780        0.26768        0.25433        0.28723        0.21884        0.29054        0.22818        0.25111        0.33378        0.32305        0.34747        0.29441        0.24197        0.24055        0.23960        0.23184        0.19070        0.22667        0.26928        0.30319        0.26736        0.30796        0.30509        0.27273        0.26981        0.20670        0.16107        0.19693        0.22991        0.19845        0.20904        0.22731        0.20240        0.25243        0.34784        0.30428        0.31469        0.22452        0.23763        0.22307        0.28144        0.29553        0.15039        0.23021        0.23557        0.10741        0.21021        0.11321        0.13388        0.22847        0.10665       -0.11347       -0.57736
2.589532 2.562503 2.535620 2.508884 2.482294 2.455851 2.429555 2.403405 2.377402 2.351545 2.325835 2.300271 2.274854 2.249583 2.224459 2.199482 2.174651 2.149967 2.125429 2.101038 2.076793 2.052696 2.028744 2.004939 1.981281 1.957769 1.934404 1.911185 1.888113 1.865188 1.842409 1.819776 1.797291 1.774952 1.752759 1.730713 1.708813 1.687060 1.665454 1.643994 1.622681 1.601514 1.580494 1.559620 1.538893 1.518313 1.497879 1.477591 1.457451 1.437456 1.417609 1.637156 2.044728 1.620119 1.131372 0.989372 0.420433 0.813175 0.559501 0.835280 0.773073 0.789508 0.750981 0.711238 0.563352 0.516032 0.484229 0.442422 0.207600 0.380532 0.202614 0.309414 0.236265 0.181636 0.134628 0.006799 0.039637 -0.011703 -0.056573 0.105393 0.207073 0.192494 0.155379 0.332786 0.197991 0.494479 0.582651 0.554758 0.596410 0.875659 0.810667 0.944694 0.888531 0.977231 0.943964 1.078169 1.139964 1.070307 1.129252 0.946180 0.941860 0.785101 0.652214 0.772739 0.708980 0.465618 0.308939 0.251188 0.219750 0.148312 0.090426 0.130482 0.073951 0.150779 0.055519 0.263554 0.379578 0.356661 0.482309 0.577760 0.463643 0.552315 0.698519 0.740104 0.781396 0.729737 0.731683 0.712740 0.626919 0.565804 0.428266 0.288894 0.210710 0.080590 0.129743 -0.043169 -0.032884 -0.077487 -0.037977 0.000056 0.149190 0.087855 0.295754 0.280399 0.362411 0.458113 0.522759 0.507148 0.520388 0.507428 0.334727 0.312335 0.279901 0.099096 0.050316 -0.010724 -0.029869 -0.039681 -0.086025 -0.102887 -0.004540 0.060081 0.131108 0.147314 0.231553 0.331507 0.314646 0.415176 0.392447 0.284203 0.230562 0.243145 0.200842 0.104643 0.078190 0.017286 0.002556 0.010849 -0.015602 0.061236 0.150921 0.140041 0.234111 0.254758 0.305084 0.252692 0.222463 0.181974 0.215252 0.140029 0.041587 0.035805 -0.009014 -0.010652 -0.031944 0.018915 0.017216 0.167308 0.130474 0.182732 0.239575 0.199023 0.188765 0.197769 0.141415 0.102012 0.060931 0.051263 -0.029330 0.006208 0.023877 0.057897 0.055700 0.078854 0.094158 0.121265 0.138266 0.192263 0.081352 0.099231 0.073522 0.002557 0.006246 0.008714 -0.006317 0.019592 0.007825 0.030579 0.068106 0.080700 0.127345 0.051572 0.103956 0.057959 0.014860 0.060873 -0.034513 -0.012094 0.031183 0.002832 0.057121 0.052218 0.053023 0.059648 0.058572 0.048280 0.024754 0.001922 0.015859 0.012610 -0.010950 0.071665 -0.013784 0.015155 0.060368 0.051268 0.038926 0.047269 0.040043 0.017955 -0.011491 -0.036609 -0.014368 0.024336 0.033852 0.077219 0.060317 0.068534 0.083293 0.070685 0.026139 0.072345 0.088641 0.014966 0.020388 0.063694 0.052422 0.105684 0.108328 0.101317 0.118404 0.072424 0.043328 0.035281 0.003297 0.003596 0.055478 0.084440 0.045522 0.037293 0.034052 0.016561 0.096499 0.055341 -0.045680 -0.047078 0.033511 0.092899 0.004618 0.020243 0.070197 0.081326 0.031819 0.060255 0.079873 0.035982 0.035344 -0.042521 0.029942 0.115850 0.075484 -0.038464 -0.022158 -0.044745 0.037218 -0.109652 0.040198 -0.094105 -0.029119 0.059339 0.042507 0.034584 -0.036211 -0.060034 -0.071250 -0.084412 -0.064705 -0.109850 -0.090554 -0.022895 0.043591 -0.033460 0.049234 -0.007249 -0.045046 0.043934 -0.105004 -0.110837 -0.081033 -0.016250 -0.048513 -0.050130 0.001430 -0.002145 0.021275 0.194404 -0.015138 0.150112 0.016258 0.244105 0.243344 0.322020 0.276581 0.118477 0.233218 0.281907 0.040162 0.226393 0.116455 0.095799 0.333959 0.109050 -0.598867
0.072396 0.072899 0.074406 0.076917 0.080433 0.084951 0.090472 0.096992 0.104510 0.113023 0.122528 0.133021 0.144495 0.156946 0.170364 0.184741 0.200067 0.216327 0.233507 0.251589 0.270555 0.290380 0.311039 0.332503 0.354738 0.377707 0.401369 0.425678 0.450583 0.476029 0.501954 0.528291 0.554968 0.581906 0.609019 0.636216 0.663398 0.690461 0.717293 0.743775 0.769781 0.795180 0.819832 0.843592 0.866310 0.887828 0.907984 0.926611 0.943539 0.958594 0.971599 0.982376 0.990749 0.996538 0.999570 0.999673 0.996681 0.990434 0.980783 0.967587 0.950719 0.930064 0.905529 0.877033 0.844522 0.807962 0.767346 0.722692 0.674052 0.621505 0.565169 0.505193 0.441766 0.375113 0.305501 0.233234 0.158658 0.082162 0.004169 0.074853 0.154403 0.233943 0.312902 0.390679 0.466650 0.540169 0.610572 0.677189 0.739345 0.796367 0.847597 0.892394 0.930147 0.960282 0.982272 0.995645 0.999996 0.994996 0.980399 0.956054 0.921910 0.878026 0.824578 0.761862 0.690298 0.610437 0.522956 0.428663 0.328486 0.223478 0.114801 0.003721 0.108408 0.220152 0.330022 0.436488 0.538001 0.633016 0.720019 0.797551 0.864234 0.918803 0.960126 0.987240 0.999370 0.995957 0.976676 0.941462 0.890516 0.824324 0.743661 0.649590 0.543458 0.426891 0.301766 0.170196 0.034499 0.102842 0.239220 0.371949 0.498321 0.615659 0.721378 0.813046 0.888447 0.945635 0.982999 0.999314 0.993783 0.966085 0.916398 0.845419 0.754378 0.645024 0.519611 0.380863 0.231924 0.076299 0.082222 0.239656 0.391918 0.534932 0.664741 0.777621 0.870200 0.939562 0.983357 0.999888 0.988193 0.948098 0.880265 0.786200 0.668239 0.529523 0.373916 0.205926 0.030581 0.146716 0.320338 0.484625 0.634058 0.763458 0.868180 0.944280 0.988695 0.999374 0.975397 0.917045 0.825840 0.704536 0.557057 0.388404 0.204501 0.012001 0.181942 0.369924 0.544592 0.698921 0.826509 0.921869 0.980675 0.999987 0.978421 0.916262 0.815510 0.679856 0.514579 0.326367 0.123078 0.086576 0.293384 0.488050 0.661601 0.805818 0.913647 0.979565 0.999893 0.973036 0.899622 0.782551 0.626922 0.439850 0.230178 0.008081 0.215405 0.428924 0.621380 0.782526 0.903527 0.977477 0.999827 0.968706 0.885104 0.752903 0.578753 0.371784 0.143158 0.094492 0.327756 0.543185 0.728092 0.871302 0.963872 0.999680 0.975887 0.893197 0.755915 0.571794 0.351640 0.108731 0.141957 0.384650 0.603773 0.784962 0.916022 0.987806 0.994894 0.936060 0.814469 0.637590 0.416785 0.166658 0.095886 0.352759 0.585913 0.778646 0.916806 0.989896 0.991916 0.921927 0.784254 0.588298 0.347965 0.080757 0.193493 0.454037 0.680812 0.855988 0.965421 0.999858 0.955787 0.835867 0.648859 0.409084 0.135392 0.150267 0.424576 0.664747 0.850442 0.965538 0.999597 0.948894 0.816897 0.614145 0.357497 0.068810 0.226873 0.503466 0.736140 0.903602 0.990086 0.986933 0.893546 0.717634 0.474688 0.186707 0.119707 0.415789 0.673277 0.867155 0.978135 0.994665 0.914229 0.743801 0.499373 0.204546 0.111646 0.417569 0.682125 0.877955 0.984321 0.989418 0.891779 0.700666 0.435314 0.123124 0.203097 0.508537 0.760093 0.930009 0.999016 0.958637 0.812349 0.575454 0.273607 0.059847 0.387497 0.672035 0.880542 0.988358 0.982132 0.861594 0.639865 0.342182 0.003146 0.337215 0.638128 0.863002 0.983934 0.985307 0.865937 0.639521 0.333226 0.015440 0.363114 0.665964 0.885220 0.992243 0.972383 0.827155 0.574352 0.246040 0.115378
1.000000 1.000000 1.000000 1.000000 1.000000 1.000000 1.000000 1.000000 1.000000 1.000000 1.000000 1.000000 1.000000 1.000000 1.000000 1.000000 1.000000 1.000000 1.000000 1.000000 1.000000 1.000000 1.000000 1.000000 1.000000 1.000000 1.000000 1.000000 1.000000 1.000000 1.000000 1.000000 1.000000 1.000000 1.000000 1.000000 1.000000 1.000000 1.000000 1.000000 1.000000 1.000000 1.000000 1.000000 1.000000 1.000000 1.000000 1.000000 1.000000 1.000000 1.000000 1.000000 0.929693 0.929693 0.929693 0.919665 0.919665 0.919665 0.919665 0.919665 0.919665 0.919665 0.919665 0.919665 0.919665 0.919665 0.919665 0.919665 0.919665 0.919665 0.919665 0.919665 0.919665 0.919665 0.919665 0.919665 0.919665 0.919665 0.919665 0.919665 0.919665 0.919665 0.919665 0.919665 0.919665 0.919665 0.919665 0.919665 0.919665 0.919665 0.919665 0.919665 0.919665 0.919665 0.919665 0.919665 0.950045 0.951288 0.959185 0.959030 0.958537 0.956457 0.955538 0.954422 0.953967 0.954240 0.954844 0.955674 0.964388 0.965460 0.967034 0.967863 0.968582 0.969230 0.969061 0.969778 0.968988 0.968428 0.967916 0.963950 0.964568 0.965130 0.965245 0.966276 0.966157 0.968154 0.968321 0.967719 0.966830 0.966080 0.965357 0.964929 0.964650 0.965155 0.965451 0.966760 0.969939 0.969371 0.969071 0.969229 0.969331 0.969514 0.969954 0.971652 0.967926 0.968554 0.966896 0.964730 0.968902 0.966068 0.965843 0.967205 0.967591 0.967992 0.966403 0.962838 0.956591 0.956132 0.952913 0.943375 0.941489 0.942351 0.944648 0.945138 0.943986 0.936941 0.937523 0.931634 0.932287 0.935578 0.930903 0.931009 0.932157 0.931077 0.929300 0.928607 0.925703 0.922431 0.920312 0.920048 0.923149 0.924322 0.925581 0.925378 0.919834 0.910659 0.896428 0.894057 0.888306 0.891592 0.881160 0.880892 0.880891 0.877030 0.880643 0.881006 0.882030 0.878596 0.862943 0.844443 0.836224 0.839390 0.844660 0.840182 0.839195 0.832292 0.844542 0.827568 0.840431 0.852049 0.847438 0.848183 0.847927 0.845408 0.838849 0.839447 0.841472 0.843477 0.842892 0.842146 0.837892 0.823004 0.824707 0.759746 0.742956 0.738049 0.743493 0.749308 0.749389 0.748651 0.756972 0.762230 0.757497 0.741812 0.733725 0.724885 0.729980 0.733737 0.737518 0.726867 0.702460 0.693937 0.661041 0.678505 0.697033 0.656102 0.679677 0.689810 0.686216 0.685239 0.677799 0.673348 0.667039 0.670048 0.679569 0.694344 0.714129 0.738653 0.735680 0.725388 0.724345 0.706223 0.699725 0.689311 0.697204 0.678422 0.673742 0.692655 0.692562 0.679562 0.659849 0.646257 0.631332 0.628914 0.635099 0.628626 0.626891 0.614426 0.587283 0.581821 0.619924 0.636772 0.655271 0.632053 0.618620 0.610529 0.588493 0.602568 0.548398 0.548476 0.569755 0.576894 0.554366 0.537382 0.545816 0.559849 0.565457 0.556721 0.535270 0.525912 0.539236 0.567637 0.559033 0.538628 0.542776 0.540945 0.535048 0.462570 0.460096 0.429445 0.402850 0.342052 0.317536 0.310639 0.293017 0.278946 0.245432 0.241270 0.251330 0.260963 0.269862 0.270678 0.255860 0.258506 0.249857 0.235723 0.173588 0.161463 0.153468 0.142158 0.144305 0.122108 0.144538 0.206995 0.209435 0.209435 0.209435 0.209435 0.209435 0.209435 0.218752 0.218752 0.218752 0.218752 0.218752 0.218752 0.218752 0.218752 0.218752 0.227317 0.227317 0.227317 0.227317 0.227317 0.227317 0.227317 0.227317 0.227317 0.227317 0.227317 0.227317 0.227317 0.227317
0.000000 0.000000 0.000000 0.000000 0.000000 0.000000 0.000000 0.000000 0.000000 0.000000 0.000000 0.000000 0.000000 0.000000 0.000000 0.000000 0.000000 0.000000 0.000000 0.000000 0.000000 0.000000 0.000000 0.000000 0.000000 0.000000 0.000000 0.000000 0.000000 0.000000 0.000000 0.000000 0.000000 0.000000 0.000000 0.000000 0.000000 0.000000 0.000000 0.000000 0.000000 0.000000 0.000000 0.000000 0.000000 0.000000 0.000000 0.000000 0.000000 0.000000 0.000000 0.000000 0.180334 0.180334 0.180334 0.199007 0.199007 0.199007 0.199007 0.199007 0.199007 0.199007 0.199007 0.199007 0.199007 0.199007 0.199007 0.199007 0.199007 0.199007 0.199007 0.199007 0.199007 0.199007 0.199007 0.199007 0.199007 0.199007 0.199007 0.199007 0.199007 0.199007 0.199007 0.199007 0.199007 0.199007 0.199007 0.199007 0.199007 0.199007 0.199007 0.199007 0.199007 0.199007 0.199007 0.199007 0.225018 0.225018 0.225018 0.225018 0.225018 0.225018 0.225018 0.225018 0.225018 0.225018 0.225018 0.225018 0.225018 0.225018 0.225018 0.225018 0.225018 0.225018 0.225018 0.225018 0.225018 0.225018 0.225018 0.225018 0.225018 0.225018 0.225018 0.225018 0.225018 0.244339 0.244339 0.244339 0.244339 0.244339 0.244339 0.244339 0.244339 0.244339 0.244339 0.244339 0.244339 0.244339 0.244339 0.244339 0.244339 0.244339 0.244339 0.244339 0.244339 0.244339 0.244339 0.244339 0.251976 0.251976 0.251976 0.251976 0.251976 0.251976 0.251976 0.251976 0.251976 0.251976 0.251976 0.251976 0.251976 0.251976 0.251976 0.251976 0.251976 0.251976 0.251976 0.251976 0.264906 0.264906 0.264906 0.264906 0.264906 0.264906 0.264906 0.264906 0.264906 0.264906 0.264906 0.264906 0.264906 0.264906 0.264906 0.264906 0.264906 0.264906 0.264906 0.264906 0.264906 0.264906 0.264906 0.264906 0.264906 0.264906 0.264906 0.264906 0.264906 0.264906 0.264906 0.264906 0.264906 0.264906 0.264906 0.264906 0.264906 0.264906 0.264906 0.264906 0.264906 0.264906 0.264906 0.264906 0.264906 0.264906 0.264906 0.264906 0.264906 0.264906 0.264906 0.264906 0.264906 0.264906 0.264906 0.264906 0.264906 0.264906 0.264906 0.264906 0.264906 0.264906 0.256074 0.256074 0.256074 0.256074 0.256074 0.256074 0.256074 0.256074 0.256074 0.256074 0.256074 0.256074 0.256074 0.256074 0.269680 0.269680 0.269680 0.269680 0.269680 0.269680 0.269680 0.269680 0.269680 0.269680 0.269680 0.269680 0.264906 0.264906 0.264906 0.264906 0.264906 0.264906 0.264906 0.264906 0.264906 0.264906 0.264906 0.264906 0.269680 0.269680 0.269680 0.269680 0.269680 0.269680 0.269680 0.269680 0.269680 0.269680 0.269680 0.264906 0.264906 0.264906 0.264906 0.264906 0.264906 0.264906 0.264906 0.264906 0.264906 0.264906 0.256074 0.256074 0.256074 0.256074 0.256074 0.256074 0.256074 0.256074 0.256074 0.256074 0.256074 0.264906 0.264906 0.264906 0.264906 0.264906 0.264906 0.264906 0.264906 0.264906 0.264906 0.260378 0.260378 0.260378 0.260378 0.260378 0.260378 0.260378 0.260378 0.260378 0.260378 0.256074 0.256074 0.256074 0.256074 0.256074 0.256074 0.256074 0.256074 0.256074 0.256074 0.260378 0.260378 0.260378 0.260378 0.260378 0.260378 0.260378 0.260378 0.260378 0.256074 0.256074 0.256074 0.256074 0.256074 0.256074 0.256074 0.256074 0.256074 0.251976 0.251976 0.251976 0.251976 0.251976 0.251976 0.251976 0.251976 0.251976 0.251976 0.251976 0.251976 0.251976 0.251976
