# Output from CTFFind version 4.1.9, run on 2019-11-02 17:47:56
# Input file: stack16_bm3d_averaged_1_0.75_0_1500_half.mrc ; Number of micrographs: 1
# Pixel size: 3.000 Angstroms ; acceleration voltage: 300.0 keV ; spherical aberration: 0.00 mm ; amplitude contrast: 0.07
# Box size: 512 pixels ; min. res.: 30.0 Angstroms ; max. res.: 5.0 Angstroms ; min. def.: 5000.0 um; max. def. 50000.0 um; num. frames averaged: 1
# 6 lines per micrograph: #1 - spatial frequency (1/Angstroms); #2 - 1D rotational average of spectrum (assuming no astigmatism); #3 - 1D rotational average of spectrum; #4 - CTF fit; #5 - cross-correlation between spectrum and CTF fit; #6 - 2sigma of expected cross correlation of noise
0.000000 0.000651 0.001302 0.001953 0.002604 0.003255 0.003906 0.004557 0.005208 0.005859 0.006510 0.007161 0.007812 0.008464 0.009115 0.009766 0.010417 0.011068 0.011719 0.012370 0.013021 0.013672 0.014323 0.014974 0.015625 0.016276 0.016927 0.017578 0.018229 0.018880 0.019531 0.020182 0.020833 0.021484 0.022135 0.022786 0.023438 0.024089 0.024740 0.025391 0.026042 0.026693 0.027344 0.027995 0.028646 0.029297 0.029948 0.030599 0.031250 0.031901 0.032552 0.033203 0.033854 0.034505 0.035156 0.035807 0.036458 0.037109 0.037760 0.038411 0.039062 0.039714 0.040365 0.041016 0.041667 0.042318 0.042969 0.043620 0.044271 0.044922 0.045573 0.046224 0.046875 0.047526 0.048177 0.048828 0.049479 0.050130 0.050781 0.051432 0.052083 0.052734 0.053385 0.054036 0.054688 0.055339 0.055990 0.056641 0.057292 0.057943 0.058594 0.059245 0.059896 0.060547 0.061198 0.061849 0.062500 0.063151 0.063802 0.064453 0.065104 0.065755 0.066406 0.067057 0.067708 0.068359 0.069010 0.069661 0.070312 0.070964 0.071615 0.072266 0.072917 0.073568 0.074219 0.074870 0.075521 0.076172 0.076823 0.077474 0.078125 0.078776 0.079427 0.080078 0.080729 0.081380 0.082031 0.082682 0.083333 0.083984 0.084635 0.085286 0.085938 0.086589 0.087240 0.087891 0.088542 0.089193 0.089844 0.090495 0.091146 0.091797 0.092448 0.093099 0.093750 0.094401 0.095052 0.095703 0.096354 0.097005 0.097656 0.098307 0.098958 0.099609 0.100260 0.100911 0.101562 0.102214 0.102865 0.103516 0.104167 0.104818 0.105469 0.106120 0.106771 0.107422 0.108073 0.108724 0.109375 0.110026 0.110677 0.111328 0.111979 0.112630 0.113281 0.113932 0.114583 0.115234 0.115885 0.116536 0.117188 0.117839 0.118490 0.119141 0.119792 0.120443 0.121094 0.121745 0.122396 0.123047 0.123698 0.124349 0.125000 0.125651 0.126302 0.126953 0.127604 0.128255 0.128906 0.129557 0.130208 0.130859 0.131510 0.132161 0.132812 0.133464 0.134115 0.134766 0.135417 0.136068 0.136719 0.137370 0.138021 0.138672 0.139323 0.139974 0.140625 0.141276 0.141927 0.142578 0.143229 0.143880 0.144531 0.145182 0.145833 0.146484 0.147135 0.147786 0.148438 0.149089 0.149740 0.150391 0.151042 0.151693 0.152344 0.152995 0.153646 0.154297 0.154948 0.155599 0.156250 0.156901 0.157552 0.158203 0.158854 0.159505 0.160156 0.160807 0.161458 0.162109 0.162760 0.163411 0.164062 0.164714 0.165365 0.166016 0.166667 0.167318 0.167969 0.168620 0.169271 0.169922 0.170573 0.171224 0.171875 0.172526 0.173177 0.173828 0.174479 0.175130 0.175781 0.176432 0.177083 0.177734 0.178385 0.179036 0.179688 0.180339 0.180990 0.181641 0.182292 0.182943 0.183594 0.184245 0.184896 0.185547 0.186198 0.186849 0.187500 0.188151 0.188802 0.189453 0.190104 0.190755 0.191406 0.192057 0.192708 0.193359 0.194010 0.194661 0.195312 0.195964 0.196615 0.197266 0.197917 0.198568 0.199219 0.199870 0.200521 0.201172 0.201823 0.202474 0.203125 0.203776 0.204427 0.205078 0.205729 0.206380 0.207031 0.207682 0.208333 0.208984 0.209635 0.210286 0.210938 0.211589 0.212240 0.212891 0.213542 0.214193 0.214844 0.215495 0.216146 0.216797 0.217448 0.218099 0.218750 0.219401 0.220052 0.220703 0.221354 0.222005 0.222656 0.223307 0.223958 0.224609 0.225260 0.225911 0.226562 0.227214 0.227865 0.228516 0.229167 0.229818 0.230469 0.231120 0.231771 0.232422 0.233073 0.233724 0.234375 0.235026 0.235677
       0.34334        0.34334        0.34334        0.34334        0.34334        0.34334        0.34334        0.34334        0.34334        0.34334        0.34334        0.34334        0.34334        0.34334        0.34334        0.34334        0.34334        0.34334        0.34334        0.34334        0.34334        0.34334        0.34334        0.34334        0.34334        0.34334        0.34334        0.34334        0.34334        0.34334        0.34334        0.34334        0.34334        0.34334        0.34334        0.34334        0.34334        0.34334        0.34334        0.34334        0.34334        0.34334        0.34334        0.34334        0.34334        0.34334        0.34334        0.34334        0.34334        0.34334        0.34334        0.48938        0.70337        0.45584       -0.11020       -0.41309       -0.57076       -0.66042       -0.74526       -0.76179       -0.86867       -0.91333       -0.75957       -0.92450       -0.87145       -1.02408       -1.09561       -0.98854       -0.96096       -0.88323       -0.86175       -0.75098       -0.64070       -0.49969       -0.42259       -0.21790       -0.11812       -0.02300        0.20334        0.24398        0.30917        0.38635        0.43934        0.51643        0.58139        0.59648        0.59269        0.50250        0.54672        0.48655        0.39123        0.32488        0.20772        0.17383        0.10300       -0.06161       -0.11179       -0.09203        0.00987       -0.01745        0.01093        0.02980        0.21079        0.21954        0.39054        0.45739        0.56206        0.70139        0.76137        0.72940        0.70755        0.70410        0.58522        0.54395        0.40040        0.27364        0.19411        0.14468        0.06684        0.02310        0.02338        0.06180        0.07905        0.27197        0.41824        0.50530        0.58796        0.63918        0.70583        0.66127        0.65186        0.67223        0.61019        0.48051        0.28454        0.23402        0.20552        0.13077        0.04708        0.09321        0.12214        0.25038        0.34067        0.41521        0.50131        0.53984        0.66280        0.61053        0.55578        0.50862        0.36601        0.20972        0.21165        0.15268        0.11355        0.12011        0.21522        0.25421        0.36137        0.44366        0.44023        0.56731        0.51226        0.44757        0.45365        0.38447        0.32391        0.27712        0.21909        0.23752        0.21088        0.21234        0.32529        0.44928        0.48750        0.48045        0.55122        0.49653        0.45628        0.39571        0.29329        0.22475        0.23270        0.24701        0.26775        0.27222        0.32531        0.44274        0.49910        0.48716        0.45958        0.41878        0.38733        0.36273        0.24934        0.22816        0.24758        0.29389        0.35417        0.36376        0.39324        0.40884        0.44445        0.37128        0.34832        0.31390        0.30443        0.26610        0.25974        0.31177        0.34625        0.41694        0.41758        0.39852        0.39451        0.40801        0.35001        0.28756        0.29094        0.27608        0.31098        0.36022        0.36614        0.41533        0.36077        0.36747        0.39034        0.34594        0.31547        0.28073        0.29601        0.34062        0.33251        0.32672        0.37702        0.39609        0.33531        0.35269        0.29537        0.30835        0.28920        0.28253        0.30170        0.33126        0.38333        0.36703        0.34805        0.32884        0.28630        0.27759        0.29730        0.28230        0.31387        0.36905        0.39445        0.33798        0.31742        0.31195        0.29833        0.28259        0.27822        0.29915        0.34165        0.33566        0.34507        0.31808        0.34719        0.32445        0.28820        0.31578        0.32264        0.33303        0.33593        0.31976        0.31685        0.30683        0.32864        0.31464        0.33655        0.39019        0.33741        0.36187        0.32195        0.31445        0.28906        0.31036        0.29053        0.31055        0.31809        0.35283        0.36400        0.31748        0.32225        0.31482        0.29474        0.29358        0.28982        0.33480        0.34182        0.35815        0.33662        0.32537        0.25905        0.26836        0.31301        0.35085        0.31651        0.29847        0.28691        0.28860        0.32543        0.30753        0.30671        0.33417        0.34437        0.31469        0.24365        0.28746        0.28328        0.28763        0.32144        0.32245        0.34658        0.34221        0.27981        0.26628        0.29390        0.26702        0.28848        0.27529        0.24623        0.26519        0.24900        0.27833        0.27960        0.27623        0.26808        0.31635        0.32809        0.31544        0.29042        0.30914        0.24563        0.27196        0.25553        0.33585        0.34458        0.23371        0.25982        0.27543        0.24902        0.25152        0.30156        0.23114        0.14218        0.17140        0.24920        0.27865        0.23161        0.14619        0.02922       -0.41250       -0.75057
3.057859 3.019876 2.982137 2.944642 2.907391 2.870383 2.833620 2.797100 2.760824 2.724793 2.689005 2.653461 2.618161 2.583105 2.548293 2.513725 2.479400 2.445320 2.411484 2.377891 2.344542 2.311438 2.278577 2.245960 2.213587 2.181458 2.149573 2.117932 2.086535 2.055381 2.024472 1.993806 1.963385 1.933207 1.903273 1.873583 1.844138 1.814936 1.785978 1.757263 1.728793 1.700567 1.672585 1.644846 1.617352 1.590101 1.563094 1.536332 1.509813 1.483538 1.457507 1.514237 1.704296 1.615355 0.968390 0.683424 0.477629 0.432870 0.321397 0.265405 0.200513 0.021717 0.197565 0.081463 -0.006375 -0.058842 -0.197920 -0.151314 -0.090762 -0.091482 -0.098124 0.010274 0.031836 0.234764 0.150601 0.366298 0.446593 0.478129 0.717218 0.701467 0.710716 0.840861 0.824386 0.855606 0.924838 0.894924 0.942341 0.754362 0.838717 0.842693 0.622433 0.609866 0.459281 0.438584 0.388492 0.209895 0.120758 0.101216 0.206373 0.146783 0.194198 0.112421 0.314979 0.289441 0.459038 0.416772 0.581883 0.646133 0.767769 0.694459 0.664561 0.671118 0.534600 0.507443 0.371107 0.294458 0.118746 0.147224 0.002600 -0.012735 -0.037727 -0.028048 -0.000426 0.034265 0.275506 0.333557 0.387981 0.397204 0.470443 0.523564 0.470165 0.507464 0.402414 0.390460 0.156070 0.067469 0.073037 0.000021 -0.122992 -0.041775 -0.109190 0.017781 0.136964 0.157151 0.254359 0.258095 0.384352 0.463914 0.356684 0.389954 0.284152 0.127708 0.049918 0.052309 0.012754 0.002603 0.007066 0.108390 0.130640 0.265193 0.237713 0.307335 0.371326 0.240346 0.243662 0.219720 0.133009 0.081865 0.054077 0.026898 0.039386 -0.012884 0.029712 0.186681 0.223148 0.249353 0.281195 0.231747 0.239766 0.148459 0.105822 -0.022891 -0.016509 -0.005135 0.017792 0.008775 0.027835 0.105382 0.188148 0.202795 0.219129 0.139129 0.146254 0.079899 0.056497 -0.058479 -0.013927 -0.006933 0.054126 0.066342 0.078875 0.155142 0.089015 0.163920 0.068982 0.053900 0.045729 0.027434 0.001874 0.010366 0.055861 0.084349 0.134794 0.141772 0.070616 0.132439 0.101680 0.018677 0.007866 0.005722 -0.004476 0.059162 0.061682 0.099263 0.099380 0.071114 0.070857 0.082370 0.034877 0.013627 -0.011680 0.012850 0.061264 0.027297 0.041228 0.081824 0.086258 0.056090 0.033195 0.007538 0.015184 -0.005588 -0.011972 0.015507 0.053317 0.104256 0.061000 0.058603 0.040482 -0.013780 -0.000376 0.014735 0.010638 0.027680 0.105154 0.061048 0.023776 0.043578 0.003152 0.026304 -0.011853 -0.004524 0.022983 0.065366 0.031346 0.046524 0.030568 0.054937 0.026813 -0.004837 0.029302 0.043719 0.040242 0.036801 0.025373 0.005552 -0.006274 0.028371 0.010746 0.045928 0.078532 0.046001 0.026624 0.018555 0.002361 -0.004207 0.008636 0.003777 0.014915 -0.002998 0.084108 0.056688 0.035234 0.043881 0.002132 0.011622 0.011350 -0.004694 0.056679 0.062069 0.087957 0.050100 0.051085 -0.024570 0.017225 0.036744 0.076255 0.032867 0.034408 0.009520 0.007017 0.050915 0.046646 0.036686 0.059670 0.075261 0.058703 -0.022268 0.017640 0.042167 0.023575 0.040994 0.080579 0.076194 0.071039 0.015970 0.004324 0.016338 -0.001455 0.018905 -0.016538 -0.030347 -0.009981 -0.046514 -0.000615 -0.006495 0.006396 -0.072218 0.001915 0.014128 -0.000186 -0.035198 0.029857 -0.093608 -0.020366 -0.041844 0.034361 0.067645 -0.104159 -0.015993 0.038241 0.017316 -0.037641 0.046836 0.032245 -0.002518 -0.046122 0.077072 0.241977 0.203848 0.108094 0.028723 -0.659953
0.072396 0.073046 0.074995 0.078242 0.082788 0.088629 0.095765 0.104191 0.113904 0.124900 0.137170 0.150708 0.165503 0.181541 0.198809 0.217287 0.236954 0.257783 0.279744 0.302802 0.326915 0.352037 0.378115 0.405087 0.432886 0.461436 0.490651 0.520437 0.550691 0.581299 0.612137 0.643068 0.673948 0.704617 0.734907 0.764638 0.793618 0.821643 0.848501 0.873968 0.897810 0.919787 0.939651 0.957146 0.972014 0.983994 0.992823 0.998243 0.999997 0.997837 0.991526 0.980839 0.965570 0.945532 0.920563 0.890531 0.855337 0.814918 0.769254 0.718368 0.662335 0.601283 0.535398 0.464923 0.390168 0.311507 0.229378 0.144291 0.056821 0.032391 0.122638 0.213153 0.303113 0.391643 0.477827 0.560711 0.639320 0.712661 0.779745 0.839594 0.891259 0.933838 0.966489 0.988451 0.999061 0.997772 0.984172 0.957998 0.919157 0.867737 0.804018 0.728486 0.641840 0.544991 0.439065 0.325400 0.205534 0.081191 0.045736 0.173208 0.299076 0.421106 0.537026 0.644565 0.741500 0.825707 0.895213 0.948247 0.983290 0.999130 0.994908 0.970154 0.924832 0.859360 0.774636 0.672039 0.553429 0.421128 0.277892 0.126863 0.028485 0.184426 0.337056 0.482400 0.616507 0.735571 0.836038 0.914729 0.968952 0.996606 0.996278 0.967326 0.909938 0.825169 0.714959 0.582114 0.430264 0.263782 0.087680 0.092525 0.270980 0.441677 0.598658 0.736233 0.849191 0.933021 0.984110 0.999924 0.979154 0.921829 0.829377 0.704634 0.551798 0.376327 0.184767 0.015461 0.216337 0.409552 0.586855 0.740407 0.863156 0.949174 0.993980 0.994808 0.950808 0.863166 0.735143 0.572005 0.380847 0.170342 0.049643 0.268472 0.475252 0.659384 0.811112 0.922074 0.985798 0.998126 0.957529 0.865296 0.725576 0.545261 0.333700 0.102269 0.136208 0.368147 0.579978 0.758944 0.893904 0.976068 0.999617 0.962186 0.865133 0.713589 0.516278 0.285077 0.034365 0.219836 0.460862 0.672507 0.840127 0.951706 0.998774 0.977122 0.887246 0.734480 0.528774 0.284139 0.017758 0.251174 0.502811 0.718127 0.880382 0.976491 0.998146 0.942630 0.813212 0.619083 0.374814 0.099350 0.185391 0.456232 0.690620 0.868536 0.974265 0.997879 0.936270 0.793630 0.581315 0.317065 0.023620 0.273177 0.546613 0.771526 0.926673 0.996817 0.974341 0.860189 0.664036 0.403613 0.103236 0.208384 0.500841 0.744992 0.915913 0.995542 0.974706 0.854318 0.645573 0.369067 0.052910 0.270044 0.565564 0.801678 0.952206 0.999776 0.937974 0.772361 0.520175 0.208710 0.127493 0.450429 0.722873 0.912747 0.996996 0.964543 0.817922 0.573334 0.259058 0.087667 0.424951 0.711296 0.910740 0.997503 0.959477 0.800121 0.538413 0.206797 0.152650 0.493495 0.770906 0.947628 0.999131 0.917217 0.711527 0.408672 0.049004 0.318603 0.643327 0.879457 0.992941 0.966492 0.802458 0.522950 0.167123 0.214119 0.565299 0.834433 0.980837 0.981467 0.834791 0.561532 0.202014 0.189556 0.553147 0.832090 0.982024 0.978147 0.819603 0.530150 0.154904 0.246449 0.609052 0.873340 0.994972 0.952504 0.751478 0.424067 0.024263 0.380841 0.722202 0.940654 0.997363 0.881001 0.610339 0.231584 0.189241 0.577596 0.863656 0.994972 0.946372 0.725122 0.370274 0.053882 0.469236 0.798163 0.978148 0.973897 0.784621 0.444897 0.018721 0.412240 0.764228 0.967736 0.981466 0.801094 0.460867 0.027514 0.412533 0.770286 0.972247 0.975784 0.778523 0.419634 0.027526 0.470101 0.814913 0.988206 0.951706 0.711521 0.317675 0.145897 0.578928
1.000000 1.000000 1.000000 1.000000 1.000000 1.000000 1.000000 1.000000 1.000000 1.000000 1.000000 1.000000 1.000000 1.000000 1.000000 1.000000 1.000000 1.000000 1.000000 1.000000 1.000000 1.000000 1.000000 1.000000 1.000000 1.000000 1.000000 1.000000 1.000000 1.000000 1.000000 1.000000 1.000000 1.000000 1.000000 1.000000 1.000000 1.000000 1.000000 1.000000 1.000000 1.000000 1.000000 1.000000 1.000000 1.000000 1.000000 1.000000 1.000000 1.000000 1.000000 1.000000 0.933087 0.933087 0.933087 0.933087 0.933087 0.933087 0.933087 0.933087 0.933087 0.933087 0.933087 0.933087 0.933087 0.933087 0.933087 0.933087 0.933087 0.933087 0.933087 0.933087 0.933087 0.933087 0.933087 0.933087 0.933087 0.933087 0.933087 0.933087 0.933087 0.933087 0.933087 0.933087 0.933087 0.922410 0.923896 0.926869 0.927941 0.927901 0.927444 0.927128 0.927347 0.929063 0.931383 0.947995 0.950175 0.950746 0.952036 0.952277 0.954794 0.953045 0.952872 0.963425 0.962246 0.962959 0.956019 0.957595 0.956685 0.955760 0.956262 0.956503 0.954576 0.952434 0.950750 0.950115 0.949742 0.951508 0.951984 0.951951 0.953421 0.953388 0.953113 0.949763 0.948331 0.949799 0.951833 0.950979 0.956688 0.956520 0.964560 0.965354 0.963951 0.963853 0.964051 0.964247 0.954445 0.947919 0.942457 0.930748 0.921390 0.919364 0.922265 0.924211 0.923168 0.918658 0.917596 0.915052 0.909782 0.908930 0.908735 0.910324 0.906587 0.902958 0.886603 0.886034 0.888453 0.887827 0.885683 0.877329 0.872613 0.873296 0.876454 0.873902 0.870485 0.886470 0.881779 0.886812 0.889909 0.893068 0.896947 0.893018 0.892083 0.888378 0.884821 0.879823 0.881333 0.871088 0.873896 0.869129 0.860375 0.853384 0.856429 0.865584 0.873413 0.881372 0.880410 0.880144 0.879357 0.871546 0.872368 0.864747 0.865761 0.871098 0.877110 0.873128 0.870434 0.874567 0.872787 0.875033 0.877529 0.873661 0.871922 0.862974 0.863269 0.865554 0.882473 0.882392 0.870623 0.863317 0.854188 0.861381 0.864653 0.863850 0.865487 0.856679 0.858134 0.847443 0.836103 0.837521 0.842171 0.837024 0.838708 0.836522 0.839947 0.842148 0.840192 0.835117 0.833861 0.838742 0.815934 0.822683 0.825581 0.820477 0.824568 0.816691 0.810647 0.805499 0.805467 0.799341 0.810237 0.808554 0.775955 0.765332 0.773188 0.756117 0.747436 0.743142 0.744002 0.717590 0.696387 0.669090 0.664165 0.653553 0.654583 0.655564 0.650885 0.636296 0.622894 0.617057 0.632712 0.635325 0.601755 0.601894 0.596445 0.591758 0.586877 0.584408 0.583650 0.590426 0.595489 0.560188 0.555994 0.561717 0.537152 0.535420 0.532716 0.524121 0.495944 0.502208 0.498515 0.515992 0.541860 0.507410 0.502609 0.511677 0.524942 0.536494 0.536369 0.522463 0.504700 0.515802 0.491729 0.476427 0.493338 0.501726 0.494103 0.509330 0.499390 0.529586 0.522320 0.504439 0.530867 0.545519 0.542985 0.531002 0.544389 0.527987 0.531269 0.516199 0.471816 0.479077 0.463320 0.411501 0.406265 0.424629 0.410922 0.408826 0.381572 0.385081 0.359770 0.325596 0.335014 0.331319 0.294474 0.255451 0.257624 0.259525 0.227376 0.200493 0.221019 0.171817 0.165042 0.184394 0.193326 0.188079 0.183078 0.205117 0.205117 0.205117 0.205117 0.205117 0.205117 0.205117 0.205117 0.205117 0.205117 0.205117 0.205117 0.205117 0.205117 0.230338 0.230338 0.230338 0.230338 0.230338 0.230338 0.230338 0.230338 0.230338 0.230338 0.230338 0.230338
0.000000 0.000000 0.000000 0.000000 0.000000 0.000000 0.000000 0.000000 0.000000 0.000000 0.000000 0.000000 0.000000 0.000000 0.000000 0.000000 0.000000 0.000000 0.000000 0.000000 0.000000 0.000000 0.000000 0.000000 0.000000 7.000000 4.000000 0.000000 0.000000 0.000000 0.000000 0.000000 0.000000 0.000000 0.000000 0.000000 0.000000 0.000000 0.000000 0.000000 0.000000 0.000000 0.000000 0.000000 0.000000 0.000000 0.000000 0.000000 0.000000 0.000000 0.000000 0.000000 0.209657 0.209657 0.209657 0.209657 0.209657 0.209657 0.209657 0.209657 0.209657 0.209657 0.209657 0.209657 0.209657 0.209657 0.209657 0.209657 0.209657 0.209657 0.209657 0.209657 0.209657 0.209657 0.209657 0.209657 0.209657 0.209657 0.209657 0.209657 0.209657 0.209657 0.209657 0.209657 0.209657 0.244339 0.244339 0.244339 0.244339 0.244339 0.244339 0.244339 0.244339 0.244339 0.244339 0.244339 0.244339 0.244339 0.244339 0.244339 0.244339 0.244339 0.244339 0.244339 0.244339 0.244339 0.244339 0.244339 0.244339 0.244339 0.260378 0.260378 0.260378 0.260378 0.260378 0.260378 0.260378 0.260378 0.260378 0.260378 0.260378 0.260378 0.260378 0.260378 0.260378 0.260378 0.260378 0.260378 0.260378 0.260378 0.269680 0.269680 0.269680 0.269680 0.269680 0.269680 0.269680 0.269680 0.269680 0.269680 0.269680 0.269680 0.269680 0.269680 0.269680 0.269680 0.269680 0.269680 0.269680 0.269680 0.269680 0.269680 0.269680 0.269680 0.269680 0.269680 0.269680 0.269680 0.269680 0.269680 0.269680 0.269680 0.269680 0.280056 0.280056 0.280056 0.280056 0.280056 0.280056 0.280056 0.280056 0.280056 0.280056 0.280056 0.280056 0.280056 0.280056 0.280056 0.280056 0.280056 0.280056 0.280056 0.280056 0.280056 0.280056 0.280056 0.280056 0.280056 0.280056 0.280056 0.274721 0.274721 0.274721 0.274721 0.274721 0.274721 0.274721 0.274721 0.274721 0.274721 0.274721 0.274721 0.274721 0.285714 0.285714 0.285714 0.285714 0.285714 0.285714 0.285714 0.285714 0.285714 0.285714 0.285714 0.280056 0.280056 0.280056 0.280056 0.280056 0.280056 0.280056 0.280056 0.280056 0.280056 0.280056 0.274721 0.274721 0.274721 0.274721 0.274721 0.274721 0.274721 0.274721 0.274721 0.274721 0.274721 0.280056 0.280056 0.280056 0.280056 0.280056 0.280056 0.280056 0.280056 0.280056 0.280056 0.285714 0.285714 0.285714 0.285714 0.285714 0.285714 0.285714 0.285714 0.285714 0.269680 0.269680 0.269680 0.269680 0.269680 0.269680 0.269680 0.269680 0.269680 0.269680 0.274721 0.274721 0.274721 0.274721 0.274721 0.274721 0.274721 0.274721 0.274721 0.285714 0.285714 0.285714 0.285714 0.285714 0.285714 0.285714 0.285714 0.264906 0.264906 0.264906 0.264906 0.264906 0.264906 0.264906 0.264906 0.264906 0.274721 0.274721 0.274721 0.274721 0.274721 0.274721 0.274721 0.274721 0.269680 0.269680 0.269680 0.269680 0.269680 0.269680 0.269680 0.269680 0.269680 0.269680 0.269680 0.269680 0.269680 0.269680 0.269680 0.269680 0.280056 0.280056 0.280056 0.280056 0.280056 0.280056 0.280056 0.260378 0.260378 0.260378 0.260378 0.260378 0.260378 0.260378 0.260378 0.269680 0.269680 0.269680 0.269680 0.269680 0.269680 0.269680 0.264906 0.264906 0.264906 0.264906 0.264906 0.264906 0.264906 0.264906 0.264906 0.264906 0.264906 0.264906 0.264906 0.264906 0.260378 0.260378 0.260378 0.260378 0.260378 0.260378 0.260378 0.260378 0.260378 0.260378 0.260378 0.260378
