# Output from CTFFind version 4.1.9, run on 2019-11-02 17:49:15
# Input file: stack6_bm3d_averaged_1_1.0_0_2500_half.mrc ; Number of micrographs: 1
# Pixel size: 3.000 Angstroms ; acceleration voltage: 300.0 keV ; spherical aberration: 0.00 mm ; amplitude contrast: 0.07
# Box size: 512 pixels ; min. res.: 30.0 Angstroms ; max. res.: 5.0 Angstroms ; min. def.: 5000.0 um; max. def. 50000.0 um; num. frames averaged: 1
# 6 lines per micrograph: #1 - spatial frequency (1/Angstroms); #2 - 1D rotational average of spectrum (assuming no astigmatism); #3 - 1D rotational average of spectrum; #4 - CTF fit; #5 - cross-correlation between spectrum and CTF fit; #6 - 2sigma of expected cross correlation of noise
0.000000 0.000651 0.001302 0.001953 0.002604 0.003255 0.003906 0.004557 0.005208 0.005859 0.006510 0.007161 0.007812 0.008464 0.009115 0.009766 0.010417 0.011068 0.011719 0.012370 0.013021 0.013672 0.014323 0.014974 0.015625 0.016276 0.016927 0.017578 0.018229 0.018880 0.019531 0.020182 0.020833 0.021484 0.022135 0.022786 0.023438 0.024089 0.024740 0.025391 0.026042 0.026693 0.027344 0.027995 0.028646 0.029297 0.029948 0.030599 0.031250 0.031901 0.032552 0.033203 0.033854 0.034505 0.035156 0.035807 0.036458 0.037109 0.037760 0.038411 0.039062 0.039714 0.040365 0.041016 0.041667 0.042318 0.042969 0.043620 0.044271 0.044922 0.045573 0.046224 0.046875 0.047526 0.048177 0.048828 0.049479 0.050130 0.050781 0.051432 0.052083 0.052734 0.053385 0.054036 0.054688 0.055339 0.055990 0.056641 0.057292 0.057943 0.058594 0.059245 0.059896 0.060547 0.061198 0.061849 0.062500 0.063151 0.063802 0.064453 0.065104 0.065755 0.066406 0.067057 0.067708 0.068359 0.069010 0.069661 0.070312 0.070964 0.071615 0.072266 0.072917 0.073568 0.074219 0.074870 0.075521 0.076172 0.076823 0.077474 0.078125 0.078776 0.079427 0.080078 0.080729 0.081380 0.082031 0.082682 0.083333 0.083984 0.084635 0.085286 0.085938 0.086589 0.087240 0.087891 0.088542 0.089193 0.089844 0.090495 0.091146 0.091797 0.092448 0.093099 0.093750 0.094401 0.095052 0.095703 0.096354 0.097005 0.097656 0.098307 0.098958 0.099609 0.100260 0.100911 0.101562 0.102214 0.102865 0.103516 0.104167 0.104818 0.105469 0.106120 0.106771 0.107422 0.108073 0.108724 0.109375 0.110026 0.110677 0.111328 0.111979 0.112630 0.113281 0.113932 0.114583 0.115234 0.115885 0.116536 0.117188 0.117839 0.118490 0.119141 0.119792 0.120443 0.121094 0.121745 0.122396 0.123047 0.123698 0.124349 0.125000 0.125651 0.126302 0.126953 0.127604 0.128255 0.128906 0.129557 0.130208 0.130859 0.131510 0.132161 0.132812 0.133464 0.134115 0.134766 0.135417 0.136068 0.136719 0.137370 0.138021 0.138672 0.139323 0.139974 0.140625 0.141276 0.141927 0.142578 0.143229 0.143880 0.144531 0.145182 0.145833 0.146484 0.147135 0.147786 0.148438 0.149089 0.149740 0.150391 0.151042 0.151693 0.152344 0.152995 0.153646 0.154297 0.154948 0.155599 0.156250 0.156901 0.157552 0.158203 0.158854 0.159505 0.160156 0.160807 0.161458 0.162109 0.162760 0.163411 0.164062 0.164714 0.165365 0.166016 0.166667 0.167318 0.167969 0.168620 0.169271 0.169922 0.170573 0.171224 0.171875 0.172526 0.173177 0.173828 0.174479 0.175130 0.175781 0.176432 0.177083 0.177734 0.178385 0.179036 0.179688 0.180339 0.180990 0.181641 0.182292 0.182943 0.183594 0.184245 0.184896 0.185547 0.186198 0.186849 0.187500 0.188151 0.188802 0.189453 0.190104 0.190755 0.191406 0.192057 0.192708 0.193359 0.194010 0.194661 0.195312 0.195964 0.196615 0.197266 0.197917 0.198568 0.199219 0.199870 0.200521 0.201172 0.201823 0.202474 0.203125 0.203776 0.204427 0.205078 0.205729 0.206380 0.207031 0.207682 0.208333 0.208984 0.209635 0.210286 0.210938 0.211589 0.212240 0.212891 0.213542 0.214193 0.214844 0.215495 0.216146 0.216797 0.217448 0.218099 0.218750 0.219401 0.220052 0.220703 0.221354 0.222005 0.222656 0.223307 0.223958 0.224609 0.225260 0.225911 0.226562 0.227214 0.227865 0.228516 0.229167 0.229818 0.230469 0.231120 0.231771 0.232422 0.233073 0.233724 0.234375 0.235026 0.235677
       0.31332        0.31332        0.31332        0.31332        0.31332        0.31332        0.31332        0.31332        0.31332        0.31332        0.31332        0.31332        0.31332        0.31332        0.31332        0.31332        0.31332        0.31332        0.31332        0.31332        0.31332        0.31332        0.31332        0.31332        0.31332        0.31332        0.31332        0.31332        0.31332        0.31332        0.31332        0.31332        0.31332        0.31332        0.31332        0.31332        0.31332        0.31332        0.31332        0.31332        0.31332        0.31332        0.31332        0.31332        0.31332        0.31332        0.31332        0.31332        0.31332        0.31332        0.31332        0.63795        0.82026        0.41752        0.31395        0.19262       -0.10374        0.11423       -0.00011        0.03594        0.11948        0.33875        0.42853        0.40982        0.22743       -0.00802        0.04973        0.07495       -0.16459       -0.17617       -0.08753       -0.10654       -0.29144       -0.18437       -0.30107       -0.25469       -0.28158       -0.39903       -0.47382       -0.47549       -0.41889       -0.33745       -0.43660       -0.36630       -0.40804       -0.34859       -0.27106       -0.19717       -0.19182       -0.13255       -0.09182        0.03851        0.08640        0.25107        0.28437        0.37412        0.40366        0.51773        0.58952        0.60800        0.74341        0.70094        0.74127        0.65106        0.66687        0.69994        0.63525        0.61651        0.61010        0.43771        0.39932        0.36099        0.32735        0.22520        0.13747        0.06286        0.05977       -0.00074       -0.07748       -0.03093       -0.02930       -0.06753        0.06469        0.16684        0.25734        0.32225        0.33901        0.43273        0.54650        0.59177        0.54368        0.66995        0.56614        0.54284        0.60015        0.64045        0.53284        0.46101        0.40799        0.37910        0.25489        0.21730        0.13376        0.11681        0.05742        0.06406        0.11216        0.16904        0.15090        0.18173        0.21985        0.23985        0.33503        0.45670        0.49618        0.49887        0.52423        0.57982        0.57292        0.52404        0.42449        0.38730        0.36845        0.27110        0.24979        0.21957        0.20851        0.20752        0.18460        0.15919        0.12491        0.19004        0.24873        0.35017        0.38433        0.40733        0.46363        0.53689        0.47942        0.48576        0.42409        0.40253        0.38421        0.36501        0.29104        0.26248        0.20510        0.23689        0.22007        0.19575        0.21874        0.22644        0.24484        0.30041        0.40248        0.40140        0.37298        0.39147        0.45628        0.48419        0.43036        0.35701        0.32773        0.28440        0.26314        0.24691        0.21414        0.28516        0.29483        0.29466        0.31669        0.31167        0.35025        0.37448        0.37489        0.37597        0.35707        0.32090        0.33690        0.32100        0.30180        0.28452        0.27218        0.21787        0.27350        0.27609        0.30460        0.32308        0.34465        0.37491        0.33983        0.32078        0.36045        0.37207        0.27111        0.29892        0.30905        0.24582        0.21405        0.26235        0.27343        0.27854        0.30105        0.30652        0.33495        0.33644        0.36293        0.32988        0.32668        0.31128        0.29284        0.27186        0.24627        0.25601        0.26168        0.27657        0.30159        0.29406        0.29799        0.31588        0.33231        0.26732        0.30634        0.26842        0.26283        0.27783        0.26557        0.26088        0.26686        0.31521        0.28853        0.31960        0.29065        0.27868        0.31128        0.31167        0.33295        0.31585        0.29691        0.25603        0.26770        0.27605        0.26611        0.31282        0.31934        0.34038        0.32586        0.30828        0.26288        0.28672        0.21471        0.20362        0.24628        0.26740        0.25579        0.29058        0.31296        0.29567        0.35163        0.30943        0.26910        0.23423        0.23529        0.28846        0.30754        0.30646        0.26880        0.27807        0.25255        0.32003        0.28515        0.25160        0.26849        0.25443        0.29183        0.25323        0.29309        0.33117        0.28932        0.21309        0.22784        0.27832        0.32587        0.27459        0.26589        0.24237        0.28125        0.28914        0.37769        0.30052        0.28568        0.26186        0.26368        0.22266        0.18315        0.25665        0.22663        0.20539        0.19177        0.19403        0.23773        0.22930        0.24539        0.19545        0.25059        0.22899        0.20712        0.18246        0.16097        0.19739        0.23586        0.15439        0.07976        0.20804        0.19995        0.15183        0.24705        0.15115        0.24094        0.20887       -0.10116       -0.50999       -0.98437
2.858519 2.830357 2.802340 2.774468 2.746741 2.719159 2.691721 2.664429 2.637282 2.610279 2.583422 2.556710 2.530142 2.503720 2.477443 2.451310 2.425323 2.399480 2.373783 2.348230 2.322823 2.297560 2.272442 2.247470 2.222642 2.197959 2.173422 2.149029 2.124781 2.100679 2.076721 2.052908 2.029240 2.005717 1.982339 1.959106 1.936018 1.913076 1.890277 1.867624 1.845117 1.822753 1.800535 1.778462 1.756534 1.734751 1.713113 1.691620 1.670272 1.649068 1.628010 1.925556 2.278626 1.700058 1.744727 1.386566 0.946779 1.203548 1.025395 1.077715 1.033859 1.495060 1.523462 1.551375 1.281135 0.949249 0.827408 1.014526 0.721481 0.495953 0.586164 0.680880 0.422397 0.493722 0.327754 0.370560 0.251783 0.166407 -0.035416 0.003387 0.031148 0.080269 0.042156 0.075966 -0.039449 0.027511 0.114002 0.228413 0.288463 0.210391 0.323077 0.550168 0.452414 0.728090 0.793254 0.883665 0.908517 1.116439 1.138600 1.173372 1.329572 1.234810 1.367437 1.195390 1.112396 1.298140 1.143251 1.053253 1.124645 0.888868 0.740806 0.679370 0.673602 0.460750 0.398894 0.261294 0.229629 0.088953 -0.010102 0.086223 0.025707 -0.063249 0.113366 0.254230 0.305472 0.466376 0.484401 0.557554 0.718422 0.815797 0.660996 0.951870 0.800895 0.661329 0.765324 0.796389 0.708525 0.637607 0.446415 0.499031 0.284866 0.194981 0.140039 0.004720 -0.022272 -0.101369 -0.013471 0.020289 0.098026 -0.052198 0.249853 0.089174 0.209880 0.373980 0.436974 0.527404 0.436460 0.567109 0.649721 0.504753 0.385195 0.333269 0.321403 0.144064 0.134768 0.018748 0.090391 0.032257 -0.000442 -0.027045 -0.127060 -0.014905 0.015948 0.106224 0.294802 0.199944 0.350117 0.370934 0.427077 0.413054 0.388589 0.325127 0.225569 0.303375 0.162461 0.156699 0.014056 0.048079 0.064874 -0.023094 -0.010617 0.015606 0.059190 0.072570 0.211173 0.305025 0.237775 0.206180 0.374846 0.401550 0.350759 0.242576 0.174438 0.151908 0.082299 0.072692 0.020821 0.018854 0.134898 0.048085 0.186858 0.085045 0.142784 0.227305 0.212797 0.232088 0.201339 0.192866 0.122370 0.163459 0.122547 0.099426 0.108362 -0.002411 0.027330 0.087089 0.049252 0.150674 0.116742 0.208901 0.198490 0.135013 0.127618 0.227674 0.123964 0.075538 0.089386 0.060773 -0.001318 -0.023384 0.046210 0.071467 0.031376 0.113396 0.108805 0.120924 0.131225 0.176846 0.122246 0.083517 0.099901 0.078919 0.013063 0.010268 0.031825 0.002655 0.066810 0.103478 0.057727 0.060190 0.125982 0.105348 0.014606 0.112535 0.017041 0.029420 0.057291 0.018404 0.010243 0.062026 0.086596 0.030049 0.105279 0.068954 0.026324 0.115678 0.074337 0.091841 0.092041 0.030722 -0.006940 0.005704 0.048661 0.011153 0.069144 0.099076 0.098907 0.063739 0.133756 -0.003820 0.039537 -0.089167 -0.022160 -0.033589 0.016758 0.016723 0.038473 0.084455 0.068059 0.111362 0.011050 -0.008686 -0.067734 -0.084167 0.071216 0.036206 0.054845 -0.022668 -0.005729 -0.042569 0.063666 0.015126 -0.063637 -0.016863 -0.074947 0.028439 -0.039733 0.032186 0.067686 -0.015897 -0.079922 -0.053750 0.077850 0.055064 0.005842 0.002422 -0.052641 0.086056 0.066972 0.176871 0.055132 0.027708 0.021511 0.084270 -0.054523 -0.038088 0.060794 0.013497 -0.033013 -0.035393 -0.046912 0.089315 -0.056755 0.083437 -0.005248 0.105581 -0.013082 0.046637 -0.082035 -0.041579 -0.049581 0.084587 -0.027102 -0.226014 0.291188 0.283832 0.214035 0.416356 0.185895 0.311362 0.346654 -0.140042 -1.375659
0.072396 0.072834 0.074149 0.076339 0.079404 0.083345 0.088159 0.093845 0.100403 0.107830 0.116124 0.125281 0.135298 0.146171 0.157893 0.170459 0.183861 0.198090 0.213135 0.228986 0.245628 0.263046 0.281221 0.300134 0.319763 0.340081 0.361062 0.382673 0.404880 0.427645 0.450926 0.474678 0.498851 0.523390 0.548238 0.573331 0.598601 0.623976 0.649378 0.674723 0.699925 0.724889 0.749517 0.773706 0.797347 0.820327 0.842526 0.863822 0.884088 0.903191 0.920998 0.937370 0.952166 0.965242 0.976456 0.985662 0.992714 0.997470 0.999787 0.999527 0.996554 0.990741 0.981963 0.970107 0.955066 0.936747 0.915066 0.889956 0.861364 0.829252 0.793604 0.754421 0.711729 0.665574 0.616027 0.563188 0.507179 0.448155 0.386297 0.321817 0.254958 0.185992 0.115224 0.042988 0.030353 0.104403 0.178743 0.252925 0.326478 0.398908 0.469704 0.538338 0.604270 0.666955 0.725842 0.780384 0.830041 0.874285 0.912608 0.944528 0.969595 0.987397 0.997568 0.999794 0.993822 0.979461 0.956595 0.925184 0.885272 0.836989 0.780557 0.716295 0.644616 0.566032 0.481154 0.390687 0.295430 0.196274 0.094188 0.009779 0.114513 0.218843 0.321555 0.421404 0.517128 0.607469 0.691185 0.767071 0.833977 0.890830 0.936650 0.970571 0.991860 0.999936 0.994386 0.974977 0.941676 0.894654 0.834298 0.761211 0.676223 0.580374 0.474922 0.361319 0.241210 0.116398 0.011164 0.139415 0.266207 0.389343 0.506621 0.615863 0.714969 0.801953 0.874989 0.932454 0.972970 0.995439 0.999083 0.983470 0.948541 0.894624 0.822450 0.733149 0.628249 0.509652 0.379617 0.240717 0.095803 0.052061 0.199646 0.343638 0.480704 0.607577 0.721130 0.818467 0.896994 0.954502 0.989234 0.999951 0.985980 0.947259 0.884359 0.798491 0.691506 0.565865 0.424593 0.271225 0.109718 0.055638 0.220327 0.379737 0.529280 0.664536 0.781376 0.876115 0.945621 0.987439 0.999890 0.982148 0.934300 0.857372 0.753333 0.625062 0.476289 0.311496 0.135806 0.045175 0.225532 0.399218 0.560276 0.703032 0.822312 0.913641 0.973421 0.999092 0.989259 0.943783 0.863825 0.751842 0.611546 0.447793 0.266440 0.074155 0.121827 0.313963 0.494687 0.656722 0.793374 0.898824 0.968393 0.998771 0.988197 0.936581 0.845555 0.718460 0.560252 0.377333 0.177319 0.031265 0.239335 0.437637 0.617167 0.769581 0.887600 0.965384 0.998838 0.985861 0.926500 0.823007 0.679799 0.503301 0.301687 0.084528 0.137642 0.353836 0.553146 0.725308 0.861241 0.953550 0.996959 0.988643 0.928445 0.818955 0.665447 0.475664 0.259464 0.028330 0.205206 0.428257 0.628272 0.793765 0.914997 0.984570 0.997928 0.953683 0.853786 0.703491 0.511134 0.287705 0.046261 0.198818 0.432680 0.640885 0.810331 0.930090 0.992159 0.992024 0.929046 0.806593 0.631920 0.415792 0.171861 0.084156 0.335472 0.565331 0.758132 0.900505 0.982287 0.997282 0.943794 0.824845 0.648069 0.425295 0.171795 0.094723 0.355320 0.591188 0.784990 0.922192 0.992176 0.989125 0.912569 0.767530 0.564274 0.317654 0.046059 0.229907 0.488980 0.710871 0.877886 0.976376 0.997911 0.940062 0.806733 0.607984 0.359333 0.080620 0.205537 0.475571 0.706890 0.879805 0.979242 0.996130 0.928294 0.780788 0.565613 0.300816 0.009039 0.284368 0.553541 0.774391 0.926790 0.996464 0.976406 0.867662 0.679401 0.428230 0.136808 0.168130 0.458211 0.706055 0.887879 0.985855 0.989911 0.898870 0.720736 0.472094 0.176654 0.136940 0.437853 0.696078 0.885474
1.000000 1.000000 1.000000 1.000000 1.000000 1.000000 1.000000 1.000000 1.000000 1.000000 1.000000 1.000000 1.000000 1.000000 1.000000 1.000000 1.000000 1.000000 1.000000 1.000000 1.000000 1.000000 1.000000 1.000000 1.000000 1.000000 1.000000 1.000000 1.000000 1.000000 1.000000 1.000000 1.000000 1.000000 1.000000 1.000000 1.000000 1.000000 1.000000 1.000000 1.000000 1.000000 1.000000 1.000000 1.000000 1.000000 1.000000 1.000000 1.000000 1.000000 1.000000 1.000000 0.835940 0.835940 0.835940 0.835940 0.835940 0.835940 0.835940 0.813544 0.813544 0.813544 0.813544 0.813544 0.813544 0.813544 0.813544 0.813544 0.813544 0.813544 0.813544 0.813544 0.813544 0.813544 0.813544 0.813544 0.813544 0.813544 0.813544 0.813544 0.813544 0.813544 0.813544 0.813544 0.813544 0.813544 0.813544 0.813544 0.813544 0.813544 0.813544 0.813544 0.813544 0.813544 0.813544 0.813544 0.813544 0.813544 0.813544 0.813544 0.813544 0.813544 0.813544 0.953568 0.954219 0.946612 0.945513 0.943786 0.940528 0.936123 0.935657 0.937005 0.937218 0.937859 0.940025 0.941073 0.942776 0.944018 0.944891 0.945730 0.953795 0.957429 0.957063 0.956660 0.952244 0.958939 0.956969 0.956809 0.957565 0.957853 0.958559 0.958448 0.958287 0.957762 0.956591 0.957293 0.957143 0.956427 0.955411 0.953133 0.953112 0.952668 0.952793 0.953744 0.954436 0.955069 0.955578 0.955544 0.955721 0.955707 0.955613 0.950666 0.950692 0.944104 0.944729 0.945880 0.945565 0.944539 0.943133 0.943188 0.943063 0.942984 0.942795 0.943014 0.924206 0.923728 0.923754 0.924091 0.917057 0.906539 0.899979 0.893815 0.894682 0.898673 0.903456 0.903722 0.900185 0.899292 0.882339 0.886063 0.873391 0.870030 0.859194 0.869471 0.870848 0.871880 0.866727 0.866134 0.864889 0.862735 0.854059 0.858169 0.859088 0.855323 0.851802 0.849795 0.847649 0.849575 0.854252 0.850896 0.846594 0.843832 0.833063 0.823964 0.822844 0.825291 0.833407 0.845445 0.845643 0.844978 0.837477 0.833611 0.826652 0.819983 0.818206 0.819891 0.817852 0.821466 0.820969 0.828890 0.819148 0.814972 0.820239 0.830926 0.836777 0.839386 0.842038 0.840209 0.836763 0.816255 0.817008 0.818492 0.770435 0.770669 0.756712 0.756757 0.745056 0.742488 0.739407 0.736828 0.728489 0.716346 0.728491 0.732003 0.706217 0.713649 0.708246 0.697152 0.674401 0.676935 0.690611 0.698385 0.697018 0.699713 0.688991 0.687647 0.698416 0.698857 0.705334 0.700505 0.696928 0.690514 0.694129 0.685713 0.682850 0.677925 0.677390 0.677927 0.674077 0.660369 0.667783 0.662331 0.658884 0.650072 0.609073 0.580741 0.563288 0.556739 0.539041 0.512428 0.528018 0.534822 0.516519 0.505387 0.484402 0.444848 0.433540 0.431703 0.410727 0.402567 0.382140 0.336604 0.340523 0.336122 0.343367 0.328992 0.328281 0.314021 0.264207 0.263915 0.225962 0.239166 0.262631 0.249131 0.227561 0.220548 0.238148 0.239758 0.248330 0.246289 0.262137 0.218521 0.163965 0.185683 0.182102 0.192097 0.175538 0.147029 0.173174 0.168801 0.179205 0.182576 0.139307 0.108986 0.087161 0.066614 0.074107 0.098124 0.111344 0.102114 0.082127 -0.011273 0.021414 0.048273 0.048273 0.048273 0.048273 0.048273 0.048273 0.048273 0.048273 0.048273 0.048273 0.048273 -0.015520 -0.015520 -0.015520 -0.015520 -0.015520 -0.015520 -0.015520 -0.015520 -0.015520 -0.015520 -0.015520 -0.015520 -0.015520 -0.015520 -0.015520 -0.015520 -0.015520 -0.015520 -0.015520
0.000000 0.000000 0.000000 0.000000 0.000000 0.000000 0.000000 0.000000 0.000000 0.000000 0.000000 0.000000 0.000000 0.000000 0.000000 0.000000 0.000000 0.000000 0.000000 0.000000 0.000000 0.000000 0.000000 0.000000 0.000000 0.000000 0.000000 0.000000 0.000000 0.000000 0.000000 0.000000 0.000000 0.000000 0.000000 0.000000 0.000000 0.000000 0.000000 0.000000 0.000000 0.000000 0.000000 0.000000 0.000000 0.000000 0.000000 0.000000 0.000000 0.000000 0.000000 0.000000 0.173422 0.173422 0.173422 0.173422 0.173422 0.173422 0.173422 0.191565 0.191565 0.191565 0.191565 0.191565 0.191565 0.191565 0.191565 0.191565 0.191565 0.191565 0.191565 0.191565 0.191565 0.191565 0.191565 0.191565 0.191565 0.191565 0.191565 0.191565 0.191565 0.191565 0.191565 0.191565 0.191565 0.191565 0.191565 0.191565 0.191565 0.191565 0.191565 0.191565 0.191565 0.191565 0.191565 0.191565 0.191565 0.191565 0.191565 0.191565 0.191565 0.191565 0.191565 0.219529 0.219529 0.219529 0.219529 0.219529 0.219529 0.219529 0.219529 0.219529 0.219529 0.219529 0.219529 0.219529 0.219529 0.219529 0.219529 0.219529 0.219529 0.219529 0.219529 0.219529 0.219529 0.219529 0.219529 0.219529 0.219529 0.219529 0.219529 0.219529 0.219529 0.219529 0.237356 0.237356 0.237356 0.237356 0.237356 0.237356 0.237356 0.237356 0.237356 0.237356 0.237356 0.237356 0.237356 0.237356 0.237356 0.237356 0.237356 0.237356 0.237356 0.237356 0.237356 0.237356 0.237356 0.237356 0.244339 0.244339 0.244339 0.244339 0.244339 0.244339 0.244339 0.244339 0.244339 0.244339 0.244339 0.244339 0.244339 0.244339 0.244339 0.244339 0.244339 0.244339 0.244339 0.244339 0.244339 0.248069 0.248069 0.248069 0.248069 0.248069 0.248069 0.248069 0.248069 0.248069 0.248069 0.248069 0.248069 0.248069 0.248069 0.248069 0.248069 0.248069 0.248069 0.248069 0.248069 0.248069 0.248069 0.248069 0.248069 0.248069 0.248069 0.248069 0.248069 0.248069 0.248069 0.248069 0.248069 0.248069 0.248069 0.248069 0.248069 0.248069 0.256074 0.256074 0.256074 0.256074 0.256074 0.256074 0.256074 0.256074 0.256074 0.256074 0.256074 0.256074 0.256074 0.256074 0.256074 0.256074 0.256074 0.256074 0.256074 0.256074 0.256074 0.256074 0.256074 0.256074 0.256074 0.256074 0.256074 0.256074 0.256074 0.256074 0.256074 0.256074 0.256074 0.256074 0.256074 0.256074 0.256074 0.256074 0.256074 0.256074 0.256074 0.256074 0.256074 0.256074 0.256074 0.260378 0.260378 0.260378 0.260378 0.260378 0.260378 0.260378 0.260378 0.260378 0.260378 0.260378 0.260378 0.260378 0.256074 0.256074 0.256074 0.256074 0.256074 0.256074 0.256074 0.256074 0.256074 0.256074 0.256074 0.256074 0.256074 0.260378 0.260378 0.260378 0.260378 0.260378 0.260378 0.260378 0.260378 0.260378 0.260378 0.260378 0.260378 0.251976 0.251976 0.251976 0.251976 0.251976 0.251976 0.251976 0.251976 0.251976 0.251976 0.251976 0.251976 0.256074 0.256074 0.256074 0.256074 0.256074 0.256074 0.256074 0.256074 0.256074 0.256074 0.256074 0.251976 0.251976 0.251976 0.251976 0.251976 0.251976 0.251976 0.251976 0.251976 0.251976 0.251976 0.248069 0.248069 0.248069 0.248069 0.248069 0.248069 0.248069 0.248069 0.248069 0.248069 0.248069 0.256074 0.256074 0.256074 0.256074 0.256074 0.256074 0.256074 0.256074 0.256074 0.256074 0.256074 0.256074 0.256074 0.256074 0.256074 0.256074 0.256074 0.256074 0.256074
