# Output from CTFFind version 4.1.9, run on 2019-11-03 19:02:21
# Input file: stack16_bm3d_averaged_1_2.25_0_2000_half.mrc ; Number of micrographs: 1
# Pixel size: 3.000 Angstroms ; acceleration voltage: 300.0 keV ; spherical aberration: 0.00 mm ; amplitude contrast: 0.07
# Box size: 512 pixels ; min. res.: 30.0 Angstroms ; max. res.: 5.0 Angstroms ; min. def.: 5000.0 um; max. def. 50000.0 um; num. frames averaged: 1
# 6 lines per micrograph: #1 - spatial frequency (1/Angstroms); #2 - 1D rotational average of spectrum (assuming no astigmatism); #3 - 1D rotational average of spectrum; #4 - CTF fit; #5 - cross-correlation between spectrum and CTF fit; #6 - 2sigma of expected cross correlation of noise
0.000000 0.000651 0.001302 0.001953 0.002604 0.003255 0.003906 0.004557 0.005208 0.005859 0.006510 0.007161 0.007812 0.008464 0.009115 0.009766 0.010417 0.011068 0.011719 0.012370 0.013021 0.013672 0.014323 0.014974 0.015625 0.016276 0.016927 0.017578 0.018229 0.018880 0.019531 0.020182 0.020833 0.021484 0.022135 0.022786 0.023438 0.024089 0.024740 0.025391 0.026042 0.026693 0.027344 0.027995 0.028646 0.029297 0.029948 0.030599 0.031250 0.031901 0.032552 0.033203 0.033854 0.034505 0.035156 0.035807 0.036458 0.037109 0.037760 0.038411 0.039062 0.039714 0.040365 0.041016 0.041667 0.042318 0.042969 0.043620 0.044271 0.044922 0.045573 0.046224 0.046875 0.047526 0.048177 0.048828 0.049479 0.050130 0.050781 0.051432 0.052083 0.052734 0.053385 0.054036 0.054688 0.055339 0.055990 0.056641 0.057292 0.057943 0.058594 0.059245 0.059896 0.060547 0.061198 0.061849 0.062500 0.063151 0.063802 0.064453 0.065104 0.065755 0.066406 0.067057 0.067708 0.068359 0.069010 0.069661 0.070312 0.070964 0.071615 0.072266 0.072917 0.073568 0.074219 0.074870 0.075521 0.076172 0.076823 0.077474 0.078125 0.078776 0.079427 0.080078 0.080729 0.081380 0.082031 0.082682 0.083333 0.083984 0.084635 0.085286 0.085938 0.086589 0.087240 0.087891 0.088542 0.089193 0.089844 0.090495 0.091146 0.091797 0.092448 0.093099 0.093750 0.094401 0.095052 0.095703 0.096354 0.097005 0.097656 0.098307 0.098958 0.099609 0.100260 0.100911 0.101562 0.102214 0.102865 0.103516 0.104167 0.104818 0.105469 0.106120 0.106771 0.107422 0.108073 0.108724 0.109375 0.110026 0.110677 0.111328 0.111979 0.112630 0.113281 0.113932 0.114583 0.115234 0.115885 0.116536 0.117188 0.117839 0.118490 0.119141 0.119792 0.120443 0.121094 0.121745 0.122396 0.123047 0.123698 0.124349 0.125000 0.125651 0.126302 0.126953 0.127604 0.128255 0.128906 0.129557 0.130208 0.130859 0.131510 0.132161 0.132812 0.133464 0.134115 0.134766 0.135417 0.136068 0.136719 0.137370 0.138021 0.138672 0.139323 0.139974 0.140625 0.141276 0.141927 0.142578 0.143229 0.143880 0.144531 0.145182 0.145833 0.146484 0.147135 0.147786 0.148438 0.149089 0.149740 0.150391 0.151042 0.151693 0.152344 0.152995 0.153646 0.154297 0.154948 0.155599 0.156250 0.156901 0.157552 0.158203 0.158854 0.159505 0.160156 0.160807 0.161458 0.162109 0.162760 0.163411 0.164062 0.164714 0.165365 0.166016 0.166667 0.167318 0.167969 0.168620 0.169271 0.169922 0.170573 0.171224 0.171875 0.172526 0.173177 0.173828 0.174479 0.175130 0.175781 0.176432 0.177083 0.177734 0.178385 0.179036 0.179688 0.180339 0.180990 0.181641 0.182292 0.182943 0.183594 0.184245 0.184896 0.185547 0.186198 0.186849 0.187500 0.188151 0.188802 0.189453 0.190104 0.190755 0.191406 0.192057 0.192708 0.193359 0.194010 0.194661 0.195312 0.195964 0.196615 0.197266 0.197917 0.198568 0.199219 0.199870 0.200521 0.201172 0.201823 0.202474 0.203125 0.203776 0.204427 0.205078 0.205729 0.206380 0.207031 0.207682 0.208333 0.208984 0.209635 0.210286 0.210938 0.211589 0.212240 0.212891 0.213542 0.214193 0.214844 0.215495 0.216146 0.216797 0.217448 0.218099 0.218750 0.219401 0.220052 0.220703 0.221354 0.222005 0.222656 0.223307 0.223958 0.224609 0.225260 0.225911 0.226562 0.227214 0.227865 0.228516 0.229167 0.229818 0.230469 0.231120 0.231771 0.232422 0.233073 0.233724 0.234375 0.235026 0.235677
       0.34960        0.34960        0.34960        0.34960        0.34960        0.34960        0.34960        0.34960        0.34960        0.34960        0.34960        0.34960        0.34961        0.34960        0.34961        0.34960        0.34960        0.34960        0.34960        0.34961        0.34961        0.34960        0.34960        0.34961        0.34960        0.34960        0.34960        0.34960        0.34960        0.34961        0.34960        0.34960        0.34960        0.34961        0.34960        0.34960        0.34961        0.34960        0.34960        0.34960        0.34961        0.34960        0.34960        0.34960        0.34960        0.34960        0.34960        0.34960        0.34960        0.34961        0.34960        0.48680        0.68793        0.45761       -0.10622       -0.40781       -0.56114       -0.65147       -0.72963       -0.74573       -0.87025       -0.91252       -0.74781       -0.92229       -0.86867       -1.01919       -1.08711       -0.97542       -0.94342       -0.86797       -0.82567       -0.72883       -0.62492       -0.49024       -0.41256       -0.21840       -0.10684       -0.01797        0.19677        0.24318        0.31515        0.38732        0.43179        0.51028        0.58420        0.61114        0.58746        0.50455        0.55939        0.49182        0.40444        0.33879        0.20670        0.18064        0.10300       -0.03908       -0.10679       -0.07219        0.02870       -0.00984        0.03354        0.03474        0.20063        0.22032        0.39532        0.46347        0.57506        0.71233        0.78002        0.74263        0.69937        0.68342        0.59171        0.52654        0.38903        0.29486        0.20301        0.17193        0.08473        0.04256        0.02491        0.06309        0.09499        0.28899        0.40727        0.50684        0.58491        0.63680        0.70846        0.66092        0.66401        0.67224        0.60419        0.49714        0.30267        0.25895        0.21938        0.12882        0.04888        0.10357        0.11455        0.26246        0.36447        0.42693        0.51473        0.56351        0.65117        0.59889        0.55558        0.51836        0.37311        0.20657        0.22909        0.17423        0.14807        0.13832        0.21959        0.26615        0.36484        0.44655        0.43483        0.54436        0.52474        0.47525        0.46929        0.38654        0.33105        0.25931        0.21042        0.23082        0.21269        0.22237        0.31454        0.45213        0.47836        0.48513        0.55234        0.51099        0.44881        0.40648        0.30668        0.24867        0.24560        0.24292        0.26507        0.29095        0.33787        0.44038        0.50510        0.50914        0.46372        0.39813        0.37212        0.35711        0.23743        0.23609        0.26427        0.30180        0.36452        0.36939        0.40898        0.44062        0.46475        0.38694        0.35901        0.32335        0.33186        0.28552        0.27116        0.30566        0.35282        0.41101        0.42844        0.40382        0.39083        0.41139        0.36308        0.30573        0.30611        0.30722        0.31310        0.37319        0.38420        0.41534        0.35232        0.36957        0.39322        0.35823        0.31574        0.28553        0.29280        0.33728        0.35015        0.34444        0.35686        0.39658        0.35450        0.36696        0.30426        0.30770        0.27790        0.28260        0.30715        0.33879        0.39591        0.36903        0.36157        0.32100        0.28701        0.27351        0.30893        0.29479        0.33265        0.37025        0.39960        0.34658        0.33007        0.30725        0.30853        0.30410        0.28020        0.32831        0.34863        0.33576        0.33417        0.31068        0.34894        0.33569        0.30625        0.32672        0.33062        0.35182        0.35723        0.32431        0.33811        0.31044        0.31241        0.30842        0.33169        0.40624        0.34243        0.36548        0.31529        0.32738        0.30573        0.30628        0.29153        0.31570        0.30974        0.34367        0.36106        0.30509        0.33405        0.32249        0.29797        0.31433        0.31487        0.32513        0.36310        0.36941        0.33204        0.31269        0.29104        0.25647        0.32206        0.34765        0.30882        0.31782        0.28869        0.29443        0.33232        0.32861        0.31038        0.35034        0.34209        0.32152        0.25144        0.29760        0.29978        0.31692        0.33790        0.31725        0.37218        0.36931        0.27536        0.29326        0.28988        0.28479        0.31416        0.27645        0.25361        0.26069        0.28653        0.29238        0.28115        0.28510        0.27707        0.32802        0.32405        0.30521        0.25427        0.25985        0.24656        0.23870        0.24183        0.32157        0.35892        0.25047        0.25574        0.31265        0.23539        0.24844        0.32672        0.28621        0.15626        0.19089        0.24708        0.30792        0.29586        0.13922       -0.03212       -0.48703       -0.70974
3.049742 3.011699 2.973902 2.936350 2.899043 2.861982 2.825166 2.788596 2.752271 2.716191 2.680357 2.644768 2.609424 2.574326 2.539473 2.504865 2.470503 2.436387 2.402515 2.368889 2.335509 2.302373 2.269484 2.236839 2.204440 2.172286 2.140378 2.108715 2.077297 2.046125 2.015198 1.984516 1.954080 1.923889 1.893944 1.864244 1.834789 1.805580 1.776616 1.747897 1.719424 1.691196 1.663214 1.635477 1.607985 1.580738 1.553737 1.526982 1.500471 1.474207 1.448187 1.505972 1.669549 1.603056 0.956673 0.668692 0.470565 0.417907 0.320444 0.261052 0.185230 0.001570 0.193060 0.066650 -0.028762 -0.071780 -0.211296 -0.160305 -0.089709 -0.095260 -0.086414 0.008805 0.035405 0.218935 0.147177 0.353073 0.436832 0.471758 0.691830 0.690156 0.701313 0.828619 0.807089 0.826755 0.913704 0.899149 0.925579 0.738269 0.838289 0.833405 0.625946 0.602647 0.451240 0.434868 0.362087 0.213659 0.118196 0.097224 0.215845 0.134623 0.206157 0.111576 0.289896 0.277042 0.445777 0.407505 0.586892 0.644492 0.756504 0.720174 0.652456 0.642667 0.520295 0.494664 0.330984 0.299601 0.124003 0.157248 0.009060 -0.005692 -0.042061 -0.043865 -0.005347 0.044719 0.266338 0.313532 0.386805 0.376803 0.469358 0.505947 0.475031 0.506167 0.378963 0.399562 0.155837 0.083427 0.082179 -0.014382 -0.132604 -0.041920 -0.116694 0.012600 0.137744 0.171682 0.251619 0.280744 0.372609 0.453259 0.353189 0.394537 0.291586 0.123088 0.056214 0.066039 0.036876 0.024070 0.015720 0.115436 0.128952 0.277162 0.231073 0.293699 0.359294 0.269365 0.256018 0.227637 0.133847 0.079782 0.025131 0.035704 0.024643 -0.004632 0.032725 0.175540 0.215090 0.251707 0.280463 0.237077 0.235638 0.145634 0.114074 -0.005411 -0.002247 -0.010810 0.011531 0.010405 0.035709 0.104733 0.186395 0.213956 0.218484 0.132866 0.108795 0.072466 0.047879 -0.075131 -0.007459 0.018269 0.048089 0.063129 0.084355 0.154500 0.110196 0.167960 0.059078 0.044292 0.045166 0.034868 0.003719 -0.001387 0.022036 0.076076 0.119740 0.130772 0.063737 0.110887 0.106526 0.006057 0.017931 0.009614 0.006206 0.040003 0.072611 0.093245 0.084057 0.050188 0.080200 0.074019 0.043460 0.004831 -0.012343 0.001914 0.060221 0.035716 0.046642 0.055351 0.089969 0.080932 0.040294 0.016919 0.007054 -0.015986 -0.004790 0.015640 0.058801 0.116089 0.061887 0.067736 0.017921 -0.015566 -0.000378 0.022064 0.019873 0.039631 0.096833 0.077665 0.016330 0.047936 -0.006606 0.037433 -0.009297 -0.013824 0.056011 0.052296 0.022484 0.032612 0.003746 0.054560 0.017632 0.003897 0.026635 0.031191 0.053805 0.032062 0.035561 0.021138 -0.009315 0.012997 0.005668 0.037256 0.092218 0.040791 0.008442 0.004036 0.018890 -0.019765 0.003609 -0.014569 0.014955 -0.025113 0.059669 0.035176 0.012039 0.048923 -0.012978 0.002327 0.017805 -0.005904 0.034470 0.071919 0.065123 0.023692 0.017642 -0.019067 -0.010573 0.012625 0.047415 -0.000764 0.046631 -0.018589 -0.020292 0.037079 0.037626 0.015311 0.044798 0.040752 0.040421 -0.060710 0.009545 0.025157 0.013358 0.031800 0.043924 0.081817 0.067582 -0.007268 0.015112 -0.005500 -0.003192 0.034009 -0.036313 -0.029050 -0.034862 -0.026162 -0.003277 -0.032055 0.000637 -0.089319 -0.008754 -0.010478 -0.037100 -0.097423 -0.045979 -0.106431 -0.062106 -0.081539 0.018248 0.061695 -0.094057 -0.043425 0.075448 -0.000679 -0.055237 0.066227 0.081530 -0.006464 0.006572 0.078754 0.276821 0.265164 0.081586 -0.023909 -0.626216
0.072396 0.073046 0.074995 0.078244 0.082790 0.088633 0.095769 0.104197 0.113913 0.124910 0.137183 0.150724 0.165522 0.181564 0.198835 0.217317 0.236987 0.257821 0.279786 0.302848 0.326966 0.352093 0.378175 0.405152 0.432956 0.461510 0.490730 0.520521 0.550779 0.581391 0.612232 0.643167 0.674049 0.704720 0.735012 0.764744 0.793723 0.821748 0.848603 0.874067 0.897905 0.919876 0.939732 0.957218 0.972075 0.984042 0.992857 0.998260 0.999996 0.997816 0.991483 0.980771 0.965476 0.945409 0.920410 0.890347 0.855120 0.814666 0.768965 0.718043 0.661973 0.600885 0.534962 0.464452 0.389663 0.310968 0.228810 0.143696 0.056202 0.033029 0.123290 0.213813 0.303775 0.392301 0.478472 0.561336 0.639915 0.713218 0.780255 0.840048 0.891648 0.934152 0.966720 0.988591 0.999102 0.997707 0.983996 0.957707 0.918748 0.867208 0.803371 0.727726 0.640970 0.544019 0.438001 0.324256 0.204325 0.079933 0.047022 0.174502 0.300355 0.422346 0.538202 0.645651 0.742472 0.826540 0.895884 0.948733 0.983573 0.999196 0.994743 0.969752 0.924191 0.858484 0.773533 0.670725 0.551925 0.419462 0.276098 0.124980 0.030415 0.186355 0.338935 0.484176 0.618129 0.736988 0.837204 0.915601 0.969493 0.996787 0.996080 0.966740 0.908967 0.823827 0.713274 0.580126 0.428024 0.261353 0.085137 0.095104 0.273508 0.444066 0.600822 0.738085 0.850656 0.934032 0.984613 0.999884 0.978553 0.920672 0.827688 0.702462 0.549213 0.373418 0.181642 0.018681 0.219521 0.412564 0.589561 0.742681 0.864884 0.950262 0.994360 0.994440 0.949685 0.861317 0.732635 0.568934 0.377348 0.166569 0.053512 0.272246 0.478739 0.662396 0.813479 0.923655 0.986487 0.997860 0.956296 0.863135 0.722581 0.541574 0.329511 0.097804 0.140701 0.372408 0.583749 0.761989 0.896018 0.977097 0.999471 0.960843 0.862644 0.710082 0.511950 0.280188 0.029218 0.224909 0.465521 0.676426 0.843023 0.953355 0.999030 0.975932 0.884659 0.730644 0.523938 0.278628 0.011959 0.256838 0.507913 0.722268 0.883224 0.977784 0.997754 0.940543 0.809556 0.614114 0.368900 0.092951 0.191763 0.462049 0.695383 0.871821 0.975759 0.997415 0.933843 0.789408 0.575630 0.310389 0.016530 0.280054 0.552640 0.776136 0.929406 0.997380 0.972633 0.856325 0.658338 0.396596 0.095553 0.215993 0.507621 0.750249 0.919087 0.996268 0.972861 0.850039 0.639255 0.361329 0.044540 0.278166 0.572563 0.806777 0.954813 0.999553 0.934892 0.766707 0.512534 0.199909 0.136477 0.458564 0.729200 0.916496 0.997677 0.962016 0.812427 0.565478 0.249746 0.097327 0.433777 0.718182 0.914791 0.998159 0.956593 0.794000 0.529779 0.196724 0.162881 0.502545 0.777557 0.950954 0.998630 0.912888 0.703889 0.398708 0.038047 0.329048 0.651800 0.884731 0.994215 0.963517 0.795587 0.513106 0.155686 0.225499 0.574946 0.840889 0.983087 0.979099 0.828088 0.551440 0.190025 0.201624 0.563426 0.838942 0.984316 0.975443 0.812252 0.519252 0.142165 0.258994 0.619350 0.879663 0.996209 0.948371 0.742577 0.411833 0.010707 0.393418 0.731627 0.945253 0.996258 0.874299 0.599135 0.217786 0.203208 0.589239 0.870835 0.996320 0.941556 0.714931 0.356506 0.068724 0.482388 0.807136 0.981183 0.970328 0.775036 0.431043 0.003227 0.426390 0.774245 0.971589 0.978303 0.791440 0.446562 0.011381 0.427268 0.780594 0.975958 0.972038 0.767991 0.404417 0.044315 0.484942 0.824642 0.990678 0.946291 0.699278 0.301156 0.163158 0.593158
1.000000 1.000000 1.000000 1.000000 1.000000 1.000000 1.000000 1.000000 1.000000 1.000000 1.000000 1.000000 1.000000 1.000000 1.000000 1.000000 1.000000 1.000000 1.000000 1.000000 1.000000 1.000000 1.000000 1.000000 1.000000 1.000000 1.000000 1.000000 1.000000 1.000000 1.000000 1.000000 1.000000 1.000000 1.000000 1.000000 1.000000 1.000000 1.000000 1.000000 1.000000 1.000000 1.000000 1.000000 1.000000 1.000000 1.000000 1.000000 1.000000 1.000000 1.000000 1.000000 0.937784 0.937784 0.937784 0.937784 0.937784 0.937784 0.937784 0.937784 0.937784 0.937784 0.937784 0.937784 0.937784 0.937784 0.937784 0.937784 0.937784 0.937784 0.937784 0.937784 0.937784 0.937784 0.937784 0.937784 0.937784 0.937784 0.937784 0.937784 0.937784 0.937784 0.937784 0.937784 0.937784 0.931238 0.932564 0.935210 0.936162 0.936139 0.935754 0.935499 0.935720 0.936869 0.938639 0.955164 0.957126 0.957589 0.958800 0.957569 0.960563 0.959082 0.959195 0.969896 0.968871 0.969426 0.962531 0.963923 0.963081 0.962194 0.963003 0.963222 0.961490 0.959546 0.958338 0.957493 0.957164 0.958853 0.959257 0.959255 0.959750 0.959597 0.959338 0.956044 0.954545 0.955927 0.957752 0.957042 0.962904 0.961319 0.963235 0.963135 0.961788 0.961679 0.961896 0.962103 0.957585 0.953430 0.949517 0.937913 0.927671 0.921912 0.924733 0.927961 0.926885 0.922210 0.921143 0.918806 0.914490 0.913847 0.913860 0.915188 0.909994 0.906461 0.892317 0.891842 0.895425 0.896323 0.893715 0.885345 0.881135 0.882058 0.884995 0.883119 0.880453 0.897220 0.892923 0.895963 0.899334 0.902151 0.905995 0.895596 0.889058 0.884896 0.881596 0.878087 0.879678 0.876355 0.879133 0.870569 0.859996 0.854031 0.855679 0.862720 0.870456 0.875731 0.874110 0.874526 0.873813 0.860225 0.861457 0.845686 0.846596 0.852300 0.858171 0.857431 0.855394 0.856630 0.854987 0.853260 0.855269 0.851238 0.846509 0.837723 0.835769 0.839196 0.853918 0.854636 0.837377 0.831260 0.827006 0.829818 0.834474 0.831910 0.833196 0.828317 0.829818 0.824295 0.815382 0.817892 0.823533 0.815648 0.823075 0.824578 0.829639 0.829165 0.828462 0.824944 0.823993 0.829497 0.804740 0.816427 0.819935 0.803591 0.808089 0.799885 0.794039 0.794450 0.792412 0.761962 0.768913 0.731502 0.702638 0.714362 0.721562 0.707686 0.693972 0.694170 0.695482 0.669178 0.657798 0.640789 0.637498 0.643958 0.645260 0.649611 0.649767 0.642704 0.630893 0.597207 0.614032 0.612157 0.574417 0.582831 0.575329 0.570169 0.564307 0.540362 0.542462 0.547213 0.552211 0.522724 0.509009 0.521978 0.491660 0.493511 0.494414 0.492237 0.488953 0.494059 0.476557 0.487135 0.524676 0.474487 0.454765 0.469558 0.485600 0.496810 0.505162 0.495002 0.450356 0.505499 0.466805 0.475262 0.491209 0.483555 0.455471 0.464123 0.456764 0.485553 0.470494 0.459886 0.484899 0.454986 0.445889 0.447500 0.442552 0.436754 0.419909 0.412878 0.392873 0.398862 0.375079 0.337184 0.355880 0.365829 0.355513 0.348514 0.321640 0.324461 0.288759 0.259822 0.245720 0.241427 0.206058 0.168789 0.175874 0.173805 0.154476 0.122890 0.117804 0.080396 0.074433 0.097835 0.103509 0.108873 0.101406 0.123310 0.123310 0.123310 0.123310 0.123310 0.123310 0.123310 0.123310 0.123310 0.123310 0.123310 0.123310 0.123310 0.123310 0.147446 0.147446 0.147446 0.147446 0.147446 0.147446 0.147446 0.147446 0.147446 0.147446 0.147446 0.147446
0.000000 0.000000 0.000000 0.000000 0.000000 0.000000 0.000000 0.000000 0.000000 0.000000 0.000000 0.000000 0.000000 0.000000 0.000000 0.000000 0.000000 0.000000 0.000000 0.000000 0.000000 0.000000 0.000000 0.000000 0.000000 7.000000 4.000000 0.000000 0.000000 0.000000 0.000000 0.000000 0.000000 0.000000 0.000000 0.000000 0.000000 0.000000 0.000000 0.000000 0.000000 0.000000 0.000000 0.000000 0.000000 0.000000 0.000000 0.000000 0.000000 0.000000 0.000000 0.000000 0.209657 0.209657 0.209657 0.209657 0.209657 0.209657 0.209657 0.209657 0.209657 0.209657 0.209657 0.209657 0.209657 0.209657 0.209657 0.209657 0.209657 0.209657 0.209657 0.209657 0.209657 0.209657 0.209657 0.209657 0.209657 0.209657 0.209657 0.209657 0.209657 0.209657 0.209657 0.209657 0.209657 0.244339 0.244339 0.244339 0.244339 0.244339 0.244339 0.244339 0.244339 0.244339 0.244339 0.244339 0.244339 0.244339 0.244339 0.244339 0.244339 0.244339 0.244339 0.244339 0.244339 0.244339 0.244339 0.244339 0.244339 0.244339 0.260378 0.260378 0.260378 0.260378 0.260378 0.260378 0.260378 0.260378 0.260378 0.260378 0.260378 0.260378 0.260378 0.260378 0.260378 0.260378 0.260378 0.260378 0.260378 0.260378 0.269680 0.269680 0.269680 0.269680 0.269680 0.269680 0.269680 0.269680 0.269680 0.269680 0.269680 0.269680 0.269680 0.269680 0.269680 0.269680 0.269680 0.269680 0.269680 0.269680 0.269680 0.269680 0.269680 0.269680 0.269680 0.269680 0.269680 0.269680 0.269680 0.269680 0.269680 0.269680 0.269680 0.280056 0.280056 0.280056 0.280056 0.280056 0.280056 0.280056 0.280056 0.280056 0.280056 0.280056 0.280056 0.280056 0.280056 0.280056 0.280056 0.280056 0.280056 0.280056 0.280056 0.280056 0.280056 0.280056 0.280056 0.280056 0.280056 0.280056 0.274721 0.274721 0.274721 0.274721 0.274721 0.274721 0.274721 0.274721 0.274721 0.274721 0.274721 0.274721 0.274721 0.285714 0.285714 0.285714 0.285714 0.285714 0.285714 0.285714 0.285714 0.285714 0.285714 0.285714 0.280056 0.280056 0.280056 0.280056 0.280056 0.280056 0.280056 0.280056 0.280056 0.280056 0.280056 0.274721 0.274721 0.274721 0.274721 0.274721 0.274721 0.274721 0.274721 0.274721 0.274721 0.274721 0.280056 0.280056 0.280056 0.280056 0.280056 0.280056 0.280056 0.280056 0.280056 0.280056 0.285714 0.285714 0.285714 0.285714 0.285714 0.285714 0.285714 0.285714 0.285714 0.269680 0.269680 0.269680 0.269680 0.269680 0.269680 0.269680 0.269680 0.269680 0.269680 0.274721 0.274721 0.274721 0.274721 0.274721 0.274721 0.274721 0.274721 0.274721 0.285714 0.285714 0.285714 0.285714 0.285714 0.285714 0.285714 0.285714 0.264906 0.264906 0.264906 0.264906 0.264906 0.264906 0.264906 0.264906 0.264906 0.274721 0.274721 0.274721 0.274721 0.274721 0.274721 0.274721 0.274721 0.269680 0.269680 0.269680 0.269680 0.269680 0.269680 0.269680 0.269680 0.269680 0.269680 0.269680 0.269680 0.269680 0.269680 0.269680 0.269680 0.280056 0.280056 0.280056 0.280056 0.280056 0.280056 0.280056 0.260378 0.260378 0.260378 0.260378 0.260378 0.260378 0.260378 0.260378 0.269680 0.269680 0.269680 0.269680 0.269680 0.269680 0.269680 0.264906 0.264906 0.264906 0.264906 0.264906 0.264906 0.264906 0.264906 0.264906 0.264906 0.264906 0.264906 0.264906 0.264906 0.260378 0.260378 0.260378 0.260378 0.260378 0.260378 0.260378 0.260378 0.260378 0.260378 0.260378 0.260378
