# Output from CTFFind version 4.1.9, run on 2019-11-03 20:06:05
# Input file: stack6_bm3d_averaged_1_10_0_1000_half.mrc ; Number of micrographs: 1
# Pixel size: 3.000 Angstroms ; acceleration voltage: 300.0 keV ; spherical aberration: 0.00 mm ; amplitude contrast: 0.07
# Box size: 512 pixels ; min. res.: 30.0 Angstroms ; max. res.: 5.0 Angstroms ; min. def.: 5000.0 um; max. def. 50000.0 um; num. frames averaged: 1
# 6 lines per micrograph: #1 - spatial frequency (1/Angstroms); #2 - 1D rotational average of spectrum (assuming no astigmatism); #3 - 1D rotational average of spectrum; #4 - CTF fit; #5 - cross-correlation between spectrum and CTF fit; #6 - 2sigma of expected cross correlation of noise
0.000000 0.000651 0.001302 0.001953 0.002604 0.003255 0.003906 0.004557 0.005208 0.005859 0.006510 0.007161 0.007812 0.008464 0.009115 0.009766 0.010417 0.011068 0.011719 0.012370 0.013021 0.013672 0.014323 0.014974 0.015625 0.016276 0.016927 0.017578 0.018229 0.018880 0.019531 0.020182 0.020833 0.021484 0.022135 0.022786 0.023438 0.024089 0.024740 0.025391 0.026042 0.026693 0.027344 0.027995 0.028646 0.029297 0.029948 0.030599 0.031250 0.031901 0.032552 0.033203 0.033854 0.034505 0.035156 0.035807 0.036458 0.037109 0.037760 0.038411 0.039062 0.039714 0.040365 0.041016 0.041667 0.042318 0.042969 0.043620 0.044271 0.044922 0.045573 0.046224 0.046875 0.047526 0.048177 0.048828 0.049479 0.050130 0.050781 0.051432 0.052083 0.052734 0.053385 0.054036 0.054688 0.055339 0.055990 0.056641 0.057292 0.057943 0.058594 0.059245 0.059896 0.060547 0.061198 0.061849 0.062500 0.063151 0.063802 0.064453 0.065104 0.065755 0.066406 0.067057 0.067708 0.068359 0.069010 0.069661 0.070312 0.070964 0.071615 0.072266 0.072917 0.073568 0.074219 0.074870 0.075521 0.076172 0.076823 0.077474 0.078125 0.078776 0.079427 0.080078 0.080729 0.081380 0.082031 0.082682 0.083333 0.083984 0.084635 0.085286 0.085938 0.086589 0.087240 0.087891 0.088542 0.089193 0.089844 0.090495 0.091146 0.091797 0.092448 0.093099 0.093750 0.094401 0.095052 0.095703 0.096354 0.097005 0.097656 0.098307 0.098958 0.099609 0.100260 0.100911 0.101562 0.102214 0.102865 0.103516 0.104167 0.104818 0.105469 0.106120 0.106771 0.107422 0.108073 0.108724 0.109375 0.110026 0.110677 0.111328 0.111979 0.112630 0.113281 0.113932 0.114583 0.115234 0.115885 0.116536 0.117188 0.117839 0.118490 0.119141 0.119792 0.120443 0.121094 0.121745 0.122396 0.123047 0.123698 0.124349 0.125000 0.125651 0.126302 0.126953 0.127604 0.128255 0.128906 0.129557 0.130208 0.130859 0.131510 0.132161 0.132812 0.133464 0.134115 0.134766 0.135417 0.136068 0.136719 0.137370 0.138021 0.138672 0.139323 0.139974 0.140625 0.141276 0.141927 0.142578 0.143229 0.143880 0.144531 0.145182 0.145833 0.146484 0.147135 0.147786 0.148438 0.149089 0.149740 0.150391 0.151042 0.151693 0.152344 0.152995 0.153646 0.154297 0.154948 0.155599 0.156250 0.156901 0.157552 0.158203 0.158854 0.159505 0.160156 0.160807 0.161458 0.162109 0.162760 0.163411 0.164062 0.164714 0.165365 0.166016 0.166667 0.167318 0.167969 0.168620 0.169271 0.169922 0.170573 0.171224 0.171875 0.172526 0.173177 0.173828 0.174479 0.175130 0.175781 0.176432 0.177083 0.177734 0.178385 0.179036 0.179688 0.180339 0.180990 0.181641 0.182292 0.182943 0.183594 0.184245 0.184896 0.185547 0.186198 0.186849 0.187500 0.188151 0.188802 0.189453 0.190104 0.190755 0.191406 0.192057 0.192708 0.193359 0.194010 0.194661 0.195312 0.195964 0.196615 0.197266 0.197917 0.198568 0.199219 0.199870 0.200521 0.201172 0.201823 0.202474 0.203125 0.203776 0.204427 0.205078 0.205729 0.206380 0.207031 0.207682 0.208333 0.208984 0.209635 0.210286 0.210938 0.211589 0.212240 0.212891 0.213542 0.214193 0.214844 0.215495 0.216146 0.216797 0.217448 0.218099 0.218750 0.219401 0.220052 0.220703 0.221354 0.222005 0.222656 0.223307 0.223958 0.224609 0.225260 0.225911 0.226562 0.227214 0.227865 0.228516 0.229167 0.229818 0.230469 0.231120 0.231771 0.232422 0.233073 0.233724 0.234375 0.235026 0.235677
       0.34236        0.34236        0.34236        0.34236        0.34236        0.34236        0.34236        0.34236        0.34236        0.34236        0.34236        0.34236        0.34236        0.34236        0.34236        0.34236        0.34236        0.34236        0.34236        0.34236        0.34236        0.34236        0.34236        0.34236        0.34236        0.34236        0.34236        0.34236        0.34236        0.34236        0.34236        0.34236        0.34236        0.34236        0.34236        0.34236        0.34236        0.34236        0.34236        0.34236        0.34236        0.34236        0.34236        0.34236        0.34236        0.34236        0.34236        0.34236        0.34236        0.34236        0.34236        0.58860        0.69395        0.36668        0.16024        0.14326       -0.12113        0.10989        0.04277        0.04432        0.08947        0.30746        0.29180        0.22783        0.13480       -0.04131       -0.00899        0.05497       -0.06868       -0.07714       -0.06510       -0.06320       -0.14689       -0.08701       -0.19749       -0.21593       -0.21974       -0.27430       -0.33813       -0.26263       -0.17572       -0.13258       -0.24538       -0.17828       -0.20539       -0.14402       -0.10089       -0.03788       -0.01671        0.03110        0.09061        0.16397        0.20447        0.24771        0.34987        0.41318        0.36721        0.49941        0.54687        0.55089        0.62258        0.54305        0.57635        0.60996        0.59615        0.56891        0.55893        0.60599        0.53387        0.40545        0.37031        0.38142        0.34043        0.22386        0.23129        0.19204        0.13726        0.12749        0.06420        0.14363        0.11376        0.09443        0.16574        0.21695        0.29450        0.33944        0.38050        0.42055        0.44945        0.47825        0.42568        0.61764        0.55153        0.47652        0.56217        0.50579        0.56728        0.51593        0.40231        0.34308        0.33239        0.29325        0.27926        0.22336        0.21034        0.19922        0.29251        0.27605        0.27820        0.25213        0.27585        0.34709        0.33541        0.45285        0.44647        0.44796        0.42514        0.48873        0.44291        0.41085        0.41633        0.38468        0.33583        0.28262        0.31818        0.28751        0.28284        0.23101        0.23819        0.26823        0.28748        0.29891        0.34605        0.39548        0.42521        0.42615        0.42815        0.51022        0.49250        0.42904        0.37695        0.42048        0.39767        0.33601        0.34740        0.33974        0.29173        0.29283        0.28389        0.27055        0.32745        0.31612        0.33450        0.35681        0.40483        0.43086        0.41457        0.44644        0.40672        0.44615        0.42522        0.36225        0.31153        0.30874        0.30942        0.28574        0.24737        0.31726        0.38969        0.34690        0.31932        0.38004        0.32075        0.36969        0.41701        0.40137        0.37092        0.36869        0.35683        0.36548        0.33277        0.32153        0.29625        0.29364        0.33524        0.34837        0.37502        0.38564        0.40020        0.37813        0.35428        0.33316        0.37082        0.37768        0.35713        0.33583        0.28625        0.29402        0.28597        0.33945        0.33803        0.36317        0.33449        0.35673        0.39819        0.34260        0.35937        0.35978        0.32411        0.32753        0.31066        0.30030        0.29298        0.28028        0.26464        0.28872        0.27970        0.29632        0.26821        0.31378        0.38075        0.27644        0.29983        0.28600        0.28439        0.33321        0.31824        0.31765        0.34054        0.33351        0.34368        0.32645        0.32272        0.32738        0.40494        0.36945        0.30287        0.32704        0.31648        0.36685        0.28619        0.29036        0.32101        0.31444        0.34243        0.38374        0.35044        0.29682        0.23712        0.30212        0.28386        0.27116        0.26865        0.30029        0.33038        0.26709        0.32280        0.34280        0.37925        0.29512        0.33649        0.30952        0.29653        0.29100        0.30009        0.31664        0.27286        0.26948        0.34875        0.35742        0.29312        0.35209        0.31905        0.26258        0.23884        0.21236        0.33837        0.31653        0.36390        0.36402        0.28581        0.23812        0.22765        0.31296        0.28204        0.27569        0.32829        0.30025        0.26060        0.29824        0.30821        0.30124        0.29939        0.29357        0.27782        0.23468        0.28127        0.32414        0.26218        0.21802        0.24056        0.27244        0.26350        0.21579        0.21220        0.27811        0.34549        0.30972        0.23842        0.17645        0.25445        0.18956        0.27416        0.26720        0.17651        0.17139        0.24556        0.22316        0.31781        0.03607       -0.19092       -0.68234       -0.96130
3.527471 3.489523 3.451785 3.414256 3.376935 3.339823 3.302919 3.266224 3.229738 3.193461 3.157392 3.121532 3.085881 3.050439 3.015205 2.980180 2.945363 2.910756 2.876357 2.842167 2.808185 2.774412 2.740848 2.707493 2.674346 2.641408 2.608679 2.576159 2.543847 2.511744 2.479849 2.448164 2.416687 2.385419 2.354359 2.323508 2.292866 2.262433 2.232208 2.202192 2.172385 2.142786 2.113396 2.084215 2.055243 2.026479 1.997924 1.969578 1.941440 1.913511 1.885791 2.244910 2.604824 1.869706 1.589207 1.366309 0.706822 1.167965 0.949216 1.072250 0.861581 1.675497 1.367267 1.387075 1.151910 0.677516 0.561278 0.859168 0.731855 0.381497 0.303376 0.558153 0.310526 0.330505 0.131677 0.008840 -0.021412 -0.021706 -0.370707 -0.143016 -0.009530 0.021277 -0.113695 -0.062343 -0.143450 -0.108363 0.010880 0.167093 0.212985 0.214038 0.353006 0.606734 0.517226 0.646329 0.778796 1.048503 0.765239 1.283770 1.183653 1.259324 1.362870 1.213220 1.138527 1.397523 1.150251 1.254637 1.135880 1.194282 1.161194 0.853813 0.643845 0.628974 0.682265 0.317069 0.341146 0.211816 0.097397 0.017586 -0.163521 0.103515 -0.001776 -0.095323 -0.012176 0.080099 0.211398 0.423228 0.442173 0.520165 0.525418 0.717393 0.427692 0.866328 0.867796 0.603981 0.769511 0.600688 0.765575 0.779391 0.474381 0.237287 0.260940 0.207007 0.020945 0.080568 -0.075810 -0.235217 0.061265 0.082522 0.060969 -0.023271 0.015852 0.135991 0.054519 0.315985 0.424225 0.407139 0.207209 0.495243 0.429797 0.226171 0.420513 0.264125 0.110650 0.107874 0.014522 0.081573 -0.129984 0.079041 -0.187229 -0.076486 -0.069893 0.125728 -0.117175 0.274955 0.248920 0.297742 0.260165 0.326267 0.626077 0.348303 0.284407 0.380459 0.194834 0.381470 0.056239 0.258465 0.050374 0.069281 0.051422 0.045384 0.031620 0.166497 0.050259 0.184677 0.262270 0.306494 0.306627 0.464999 0.342283 0.348988 0.381473 0.296686 0.176868 0.088613 0.095332 0.087397 0.024824 -0.022469 0.212270 0.297307 0.096582 0.170884 0.241276 0.135806 0.294916 0.307128 0.250360 0.187384 0.140543 0.245516 0.119165 0.128918 0.092600 -0.061493 0.072238 0.152053 0.141014 0.230813 0.211556 0.292580 0.121095 0.158310 0.185960 0.253705 0.140422 0.220583 0.118943 0.004910 0.037041 0.007338 0.150542 0.141535 0.206375 0.096968 0.205952 0.222201 0.034586 0.196746 0.096427 0.009354 0.054930 0.020980 -0.022096 -0.031793 -0.114994 -0.030443 -0.016135 -0.125367 -0.017764 -0.067493 0.063317 0.119790 -0.138655 -0.023201 -0.075796 -0.065484 0.066896 0.004992 -0.057892 0.031037 0.089452 0.017458 -0.048476 0.068969 -0.029663 0.284530 -0.003030 -0.120521 0.036037 0.004200 0.073701 -0.161587 -0.066264 0.013423 0.006412 0.075687 0.099184 0.073523 -0.097973 -0.144452 -0.029625 -0.078772 -0.072469 -0.081096 -0.039713 0.055492 -0.205362 0.169293 -0.020538 0.190885 -0.033603 0.068445 0.025642 -0.057495 0.059770 0.009055 -0.033056 -0.052466 -0.055942 0.113290 0.175389 -0.120382 0.156343 0.053440 -0.129409 -0.100161 -0.211006 0.177369 -0.001350 0.169055 0.190555 0.037790 -0.172667 -0.171856 0.019907 -0.047228 -0.122864 0.054876 -0.036286 -0.152421 -0.009882 -0.024146 0.101703 -0.015125 -0.072675 -0.000392 -0.253216 0.042920 0.065902 -0.113704 -0.168341 -0.163375 -0.042713 -0.031529 -0.151577 -0.200072 0.065143 0.141414 0.014824 -0.089089 -0.339046 0.077832 -0.203673 0.647065 0.579167 0.304847 0.372437 0.682881 0.544452 0.660047 -0.192658 -0.408283 -2.115269
0.072396 0.072836 0.074156 0.076356 0.079436 0.083394 0.088229 0.093942 0.100529 0.107989 0.116320 0.125518 0.135579 0.146500 0.158274 0.170896 0.184357 0.198648 0.213759 0.229679 0.246392 0.263884 0.282136 0.301129 0.320838 0.341239 0.362304 0.384000 0.406292 0.429142 0.452508 0.476344 0.500599 0.525218 0.550142 0.575307 0.600645 0.626082 0.651539 0.676932 0.702173 0.727167 0.751814 0.776009 0.799644 0.822602 0.844765 0.866007 0.886200 0.905212 0.922906 0.939143 0.953780 0.966674 0.977680 0.986650 0.993440 0.997905 0.999902 0.999292 0.995941 0.989719 0.980503 0.968179 0.952643 0.933800 0.911571 0.885887 0.856699 0.823972 0.787692 0.747864 0.704516 0.657700 0.607491 0.553994 0.497337 0.437679 0.375211 0.310149 0.242743 0.173273 0.102052 0.029421 0.044248 0.118552 0.193064 0.267328 0.340864 0.413173 0.483735 0.552018 0.617475 0.679557 0.737709 0.791381 0.840032 0.883134 0.920181 0.950695 0.974228 0.990378 0.998787 0.999152 0.991231 0.974850 0.949909 0.916387 0.874349 0.823948 0.765432 0.699142 0.625523 0.545111 0.458548 0.366567 0.269996 0.169754 0.066839 0.037677 0.142654 0.246901 0.349186 0.448250 0.542822 0.631636 0.713453 0.787072 0.851356 0.905248 0.947794 0.978158 0.995647 0.999722 0.990020 0.966366 0.928788 0.877522 0.813025 0.735974 0.647271 0.548032 0.439586 0.323461 0.201363 0.075160 0.053146 0.181444 0.307553 0.429256 0.544338 0.650630 0.746050 0.828648 0.896652 0.948508 0.982922 0.998897 0.995769 0.973233 0.931366 0.870643 0.791944 0.696554 0.586149 0.462781 0.328844 0.187038 0.040320 0.108156 0.255097 0.397152 0.530981 0.653338 0.761158 0.851631 0.922290 0.971082 0.996438 0.997330 0.973324 0.924611 0.852026 0.757052 0.641809 0.509012 0.361929 0.204305 0.040277 0.125726 0.289103 0.445205 0.589467 0.717549 0.825471 0.909749 0.967514 0.996625 0.995761 0.964493 0.903327 0.813721 0.698075 0.559683 0.402658 0.231823 0.052577 0.129268 0.307673 0.476566 0.630055 0.762641 0.869422 0.946289 0.990100 0.998826 0.971661 0.909092 0.812927 0.686263 0.533416 0.359793 0.171720 0.023774 0.219215 0.406964 0.579510 0.729787 0.851465 0.939244 0.989091 0.998457 0.966426 0.893804 0.783140 0.638662 0.466149 0.272726 0.066587 0.143340 0.347768 0.537463 0.703667 0.838513 0.935415 0.989419 0.997477 0.958648 0.874206 0.747640 0.584548 0.392420 0.180326 0.041498 0.262120 0.470457 0.655832 0.808525 0.920313 0.984936 0.998476 0.959635 0.869867 0.733380 0.556981 0.349775 0.122722 0.111915 0.341220 0.552333 0.733181 0.873185 0.963903 0.999579 0.977542 0.898449 0.766323 0.588413 0.374820 0.137991 0.108011 0.348301 0.568083 0.753570 0.892861 0.976748 0.999357 0.958612 0.856461 0.698842 0.495403 0.258955 0.004696 0.250725 0.490305 0.697807 0.858893 0.962143 0.999909 0.968932 0.870674 0.711327 0.501487 0.255503 0.009465 0.274607 0.520794 0.729959 0.886453 0.978254 0.997940 0.943349 0.817866 0.630282 0.394257 0.127370 0.150136 0.416880 0.651986 0.836723 0.956051 0.999891 0.964043 0.850647 0.668162 0.430791 0.157461 0.129643 0.406867 0.651011 0.841306 0.961210 0.999914 0.953387 0.824864 0.624720 0.369712 0.081653 0.214415 0.492373 0.727325 0.897867 0.988084 0.989109 0.900076 0.728361 0.489075 0.203813 0.101239 0.397653 0.657415 0.855592 0.972768 0.997024 0.925243 0.763577 0.527037 0.238193 0.074912 0.381437 0.650774 0.855615 0.974784
1.000000 1.000000 1.000000 1.000000 1.000000 1.000000 1.000000 1.000000 1.000000 1.000000 1.000000 1.000000 1.000000 1.000000 1.000000 1.000000 1.000000 1.000000 1.000000 1.000000 1.000000 1.000000 1.000000 1.000000 1.000000 1.000000 1.000000 1.000000 1.000000 1.000000 1.000000 1.000000 1.000000 1.000000 1.000000 1.000000 1.000000 1.000000 1.000000 1.000000 1.000000 1.000000 1.000000 1.000000 1.000000 1.000000 1.000000 1.000000 1.000000 1.000000 1.000000 1.000000 0.748796 0.748796 0.748796 0.748796 0.748796 0.748796 0.748796 0.748278 0.748278 0.748278 0.748278 0.748278 0.748278 0.748278 0.748278 0.748278 0.748278 0.748278 0.748278 0.748278 0.748278 0.748278 0.748278 0.748278 0.748278 0.748278 0.748278 0.748278 0.748278 0.748278 0.748278 0.748278 0.748278 0.748278 0.748278 0.748278 0.748278 0.748278 0.748278 0.748278 0.748278 0.748278 0.748278 0.748278 0.748278 0.748278 0.748278 0.748278 0.748278 0.748278 0.748278 0.899349 0.900419 0.903137 0.895371 0.888685 0.887543 0.882766 0.879849 0.881728 0.881218 0.882301 0.883894 0.887731 0.895127 0.904646 0.907744 0.915136 0.919063 0.919006 0.923734 0.923703 0.928739 0.925632 0.922641 0.912812 0.916316 0.915222 0.913486 0.911560 0.904664 0.916017 0.913979 0.910921 0.901422 0.896081 0.894466 0.895175 0.892977 0.894046 0.894205 0.893423 0.891329 0.892025 0.887071 0.885955 0.871550 0.869613 0.865819 0.862851 0.860174 0.857425 0.855309 0.846259 0.844751 0.841192 0.834253 0.834062 0.834029 0.834722 0.835614 0.836538 0.839286 0.833336 0.828594 0.829000 0.824785 0.816904 0.808326 0.808001 0.811467 0.819649 0.826706 0.824642 0.822495 0.812652 0.799996 0.797727 0.802253 0.778627 0.781278 0.787118 0.790073 0.787590 0.783322 0.779383 0.776622 0.772324 0.764686 0.773217 0.770745 0.762760 0.759508 0.759337 0.761437 0.770799 0.771426 0.761648 0.749646 0.742664 0.746237 0.752532 0.756867 0.749188 0.749644 0.754186 0.759507 0.764297 0.750228 0.745353 0.737457 0.730630 0.739330 0.760046 0.749565 0.755808 0.759347 0.752278 0.751578 0.744749 0.754643 0.756846 0.763985 0.764008 0.756884 0.710144 0.685053 0.645854 0.646531 0.649502 0.606797 0.607194 0.607869 0.607460 0.552415 0.513608 0.493642 0.491534 0.496683 0.501989 0.492384 0.485109 0.479839 0.477179 0.456584 0.442546 0.440077 0.443950 0.433574 0.443823 0.445199 0.442483 0.400267 0.408728 0.426894 0.435442 0.424687 0.412934 0.417103 0.403831 0.406331 0.404080 0.396476 0.350812 0.369567 0.346361 0.366181 0.326818 0.305179 0.278050 0.314822 0.307946 0.257553 0.285143 0.246825 0.245336 0.248972 0.235374 0.210538 0.228948 0.250427 0.213632 0.218953 0.216405 0.258089 0.249521 0.266024 0.285279 0.272296 0.259584 0.274772 0.258705 0.251603 0.223394 0.219205 0.213114 0.213818 0.267654 0.255181 0.256479 0.263927 0.285943 0.293481 0.304222 0.304998 0.303825 0.316870 0.286906 0.235485 0.243323 0.236987 0.244349 0.214437 0.169999 0.148971 0.154571 0.136065 0.130475 0.101118 0.096402 0.094883 0.104044 0.083565 0.089531 0.054187 0.067352 0.046303 0.073305 0.091981 0.095740 0.015548 0.015548 0.015548 0.015548 0.015548 0.015548 0.015548 0.015548 0.015548 0.015548 0.015548 -0.009679 -0.009679 -0.009679 -0.009679 -0.009679 -0.009679 -0.009679 -0.009679 -0.009679 -0.009679 -0.009679 -0.009679 -0.009679 -0.009679 -0.009679 -0.009679 -0.009679 -0.009679 -0.009679 -0.009679
0.000000 0.000000 0.000000 0.000000 0.000000 0.000000 0.000000 0.000000 0.000000 0.000000 0.000000 0.000000 0.000000 0.000000 0.000000 0.000000 0.000000 0.000000 0.000000 0.000000 0.000000 0.000000 0.000000 0.000000 0.000000 0.000000 0.000000 0.000000 0.000000 0.000000 0.000000 0.000000 0.000000 0.000000 0.000000 0.000000 0.000000 0.000000 0.000000 0.000000 0.000000 0.000000 0.000000 0.000000 0.000000 0.000000 0.000000 0.000000 0.000000 0.000000 0.000000 0.000000 0.173422 0.173422 0.173422 0.173422 0.173422 0.173422 0.173422 0.191565 0.191565 0.191565 0.191565 0.191565 0.191565 0.191565 0.191565 0.191565 0.191565 0.191565 0.191565 0.191565 0.191565 0.191565 0.191565 0.191565 0.191565 0.191565 0.191565 0.191565 0.191565 0.191565 0.191565 0.191565 0.191565 0.191565 0.191565 0.191565 0.191565 0.191565 0.191565 0.191565 0.191565 0.191565 0.191565 0.191565 0.191565 0.191565 0.191565 0.191565 0.191565 0.191565 0.191565 0.222222 0.222222 0.222222 0.222222 0.222222 0.222222 0.222222 0.222222 0.222222 0.222222 0.222222 0.222222 0.222222 0.222222 0.222222 0.222222 0.222222 0.222222 0.222222 0.222222 0.222222 0.222222 0.222222 0.222222 0.222222 0.222222 0.222222 0.222222 0.222222 0.222222 0.234082 0.234082 0.234082 0.234082 0.234082 0.234082 0.234082 0.234082 0.234082 0.234082 0.234082 0.234082 0.234082 0.234082 0.234082 0.234082 0.234082 0.234082 0.234082 0.234082 0.234082 0.234082 0.234082 0.234082 0.234082 0.244339 0.244339 0.244339 0.244339 0.244339 0.244339 0.244339 0.244339 0.244339 0.244339 0.244339 0.244339 0.244339 0.244339 0.244339 0.244339 0.244339 0.244339 0.244339 0.244339 0.244339 0.248069 0.248069 0.248069 0.248069 0.248069 0.248069 0.248069 0.248069 0.248069 0.248069 0.248069 0.248069 0.248069 0.248069 0.248069 0.248069 0.248069 0.248069 0.248069 0.256074 0.256074 0.256074 0.256074 0.256074 0.256074 0.256074 0.256074 0.256074 0.256074 0.256074 0.256074 0.256074 0.256074 0.256074 0.256074 0.256074 0.256074 0.256074 0.256074 0.256074 0.256074 0.256074 0.256074 0.256074 0.256074 0.256074 0.256074 0.256074 0.256074 0.256074 0.256074 0.256074 0.256074 0.256074 0.256074 0.256074 0.256074 0.256074 0.256074 0.256074 0.256074 0.256074 0.256074 0.256074 0.256074 0.256074 0.256074 0.256074 0.256074 0.256074 0.256074 0.256074 0.256074 0.256074 0.256074 0.256074 0.256074 0.256074 0.256074 0.256074 0.256074 0.251976 0.251976 0.251976 0.251976 0.251976 0.251976 0.251976 0.251976 0.251976 0.251976 0.251976 0.251976 0.251976 0.251976 0.264906 0.264906 0.264906 0.264906 0.264906 0.264906 0.264906 0.264906 0.264906 0.264906 0.264906 0.264906 0.248069 0.248069 0.248069 0.248069 0.248069 0.248069 0.248069 0.248069 0.248069 0.248069 0.248069 0.248069 0.248069 0.264906 0.264906 0.264906 0.264906 0.264906 0.264906 0.264906 0.264906 0.264906 0.264906 0.264906 0.248069 0.248069 0.248069 0.248069 0.248069 0.248069 0.248069 0.248069 0.248069 0.248069 0.248069 0.248069 0.264906 0.264906 0.264906 0.264906 0.264906 0.264906 0.264906 0.264906 0.264906 0.264906 0.248069 0.248069 0.248069 0.248069 0.248069 0.248069 0.248069 0.248069 0.248069 0.248069 0.248069 0.256074 0.256074 0.256074 0.256074 0.256074 0.256074 0.256074 0.256074 0.256074 0.256074 0.256074 0.256074 0.256074 0.256074 0.256074 0.256074 0.256074 0.256074 0.256074 0.256074
