# Output from CTFFind version 4.1.9, run on 2019-11-03 19:02:26
# Input file: stack16_bm3d_averaged_1_2.25_0_1000_half.mrc ; Number of micrographs: 1
# Pixel size: 3.000 Angstroms ; acceleration voltage: 300.0 keV ; spherical aberration: 0.00 mm ; amplitude contrast: 0.07
# Box size: 512 pixels ; min. res.: 30.0 Angstroms ; max. res.: 5.0 Angstroms ; min. def.: 5000.0 um; max. def. 50000.0 um; num. frames averaged: 1
# 6 lines per micrograph: #1 - spatial frequency (1/Angstroms); #2 - 1D rotational average of spectrum (assuming no astigmatism); #3 - 1D rotational average of spectrum; #4 - CTF fit; #5 - cross-correlation between spectrum and CTF fit; #6 - 2sigma of expected cross correlation of noise
0.000000 0.000651 0.001302 0.001953 0.002604 0.003255 0.003906 0.004557 0.005208 0.005859 0.006510 0.007161 0.007812 0.008464 0.009115 0.009766 0.010417 0.011068 0.011719 0.012370 0.013021 0.013672 0.014323 0.014974 0.015625 0.016276 0.016927 0.017578 0.018229 0.018880 0.019531 0.020182 0.020833 0.021484 0.022135 0.022786 0.023438 0.024089 0.024740 0.025391 0.026042 0.026693 0.027344 0.027995 0.028646 0.029297 0.029948 0.030599 0.031250 0.031901 0.032552 0.033203 0.033854 0.034505 0.035156 0.035807 0.036458 0.037109 0.037760 0.038411 0.039062 0.039714 0.040365 0.041016 0.041667 0.042318 0.042969 0.043620 0.044271 0.044922 0.045573 0.046224 0.046875 0.047526 0.048177 0.048828 0.049479 0.050130 0.050781 0.051432 0.052083 0.052734 0.053385 0.054036 0.054688 0.055339 0.055990 0.056641 0.057292 0.057943 0.058594 0.059245 0.059896 0.060547 0.061198 0.061849 0.062500 0.063151 0.063802 0.064453 0.065104 0.065755 0.066406 0.067057 0.067708 0.068359 0.069010 0.069661 0.070312 0.070964 0.071615 0.072266 0.072917 0.073568 0.074219 0.074870 0.075521 0.076172 0.076823 0.077474 0.078125 0.078776 0.079427 0.080078 0.080729 0.081380 0.082031 0.082682 0.083333 0.083984 0.084635 0.085286 0.085938 0.086589 0.087240 0.087891 0.088542 0.089193 0.089844 0.090495 0.091146 0.091797 0.092448 0.093099 0.093750 0.094401 0.095052 0.095703 0.096354 0.097005 0.097656 0.098307 0.098958 0.099609 0.100260 0.100911 0.101562 0.102214 0.102865 0.103516 0.104167 0.104818 0.105469 0.106120 0.106771 0.107422 0.108073 0.108724 0.109375 0.110026 0.110677 0.111328 0.111979 0.112630 0.113281 0.113932 0.114583 0.115234 0.115885 0.116536 0.117188 0.117839 0.118490 0.119141 0.119792 0.120443 0.121094 0.121745 0.122396 0.123047 0.123698 0.124349 0.125000 0.125651 0.126302 0.126953 0.127604 0.128255 0.128906 0.129557 0.130208 0.130859 0.131510 0.132161 0.132812 0.133464 0.134115 0.134766 0.135417 0.136068 0.136719 0.137370 0.138021 0.138672 0.139323 0.139974 0.140625 0.141276 0.141927 0.142578 0.143229 0.143880 0.144531 0.145182 0.145833 0.146484 0.147135 0.147786 0.148438 0.149089 0.149740 0.150391 0.151042 0.151693 0.152344 0.152995 0.153646 0.154297 0.154948 0.155599 0.156250 0.156901 0.157552 0.158203 0.158854 0.159505 0.160156 0.160807 0.161458 0.162109 0.162760 0.163411 0.164062 0.164714 0.165365 0.166016 0.166667 0.167318 0.167969 0.168620 0.169271 0.169922 0.170573 0.171224 0.171875 0.172526 0.173177 0.173828 0.174479 0.175130 0.175781 0.176432 0.177083 0.177734 0.178385 0.179036 0.179688 0.180339 0.180990 0.181641 0.182292 0.182943 0.183594 0.184245 0.184896 0.185547 0.186198 0.186849 0.187500 0.188151 0.188802 0.189453 0.190104 0.190755 0.191406 0.192057 0.192708 0.193359 0.194010 0.194661 0.195312 0.195964 0.196615 0.197266 0.197917 0.198568 0.199219 0.199870 0.200521 0.201172 0.201823 0.202474 0.203125 0.203776 0.204427 0.205078 0.205729 0.206380 0.207031 0.207682 0.208333 0.208984 0.209635 0.210286 0.210938 0.211589 0.212240 0.212891 0.213542 0.214193 0.214844 0.215495 0.216146 0.216797 0.217448 0.218099 0.218750 0.219401 0.220052 0.220703 0.221354 0.222005 0.222656 0.223307 0.223958 0.224609 0.225260 0.225911 0.226562 0.227214 0.227865 0.228516 0.229167 0.229818 0.230469 0.231120 0.231771 0.232422 0.233073 0.233724 0.234375 0.235026 0.235677
       0.34740        0.34740        0.34740        0.34740        0.34740        0.34740        0.34740        0.34740        0.34740        0.34740        0.34740        0.34740        0.34740        0.34740        0.34740        0.34740        0.34740        0.34740        0.34740        0.34740        0.34740        0.34740        0.34740        0.34740        0.34740        0.34740        0.34740        0.34740        0.34740        0.34740        0.34740        0.34740        0.34740        0.34740        0.34740        0.34740        0.34740        0.34740        0.34740        0.34740        0.34740        0.34740        0.34740        0.34740        0.34740        0.34740        0.34740        0.34740        0.34740        0.34740        0.34740        0.48520        0.68576        0.45575       -0.11262       -0.40926       -0.56463       -0.65562       -0.73222       -0.74892       -0.86960       -0.91539       -0.74876       -0.92284       -0.87023       -1.02162       -1.09104       -0.97822       -0.94637       -0.87019       -0.82623       -0.73097       -0.62735       -0.49177       -0.41625       -0.21913       -0.10610       -0.01784        0.19627        0.24077        0.31129        0.38379        0.43039        0.50875        0.58082        0.60697        0.58372        0.50257        0.55549        0.48975        0.40475        0.33677        0.20345        0.17761        0.09948       -0.03848       -0.10573       -0.07257        0.02818       -0.01062        0.03616        0.03298        0.19715        0.21854        0.39547        0.46096        0.57152        0.70596        0.77341        0.74332        0.69494        0.67766        0.58535        0.52267        0.38792        0.29085        0.20048        0.17060        0.08225        0.04278        0.02327        0.06195        0.09287        0.28827        0.40743        0.50677        0.58437        0.63328        0.70266        0.65713        0.66103        0.66555        0.59968        0.49572        0.30143        0.25964        0.21779        0.12701        0.04832        0.10379        0.11337        0.26124        0.36362        0.42397        0.51108        0.55892        0.64652        0.59610        0.54883        0.51728        0.36966        0.20519        0.22737        0.17166        0.14716        0.14015        0.22017        0.26194        0.35765        0.44269        0.43181        0.53549        0.51761        0.47521        0.46975        0.38300        0.33029        0.25906        0.20752        0.22727        0.21302        0.21876        0.31088        0.44989        0.47292        0.48615        0.55366        0.50772        0.44668        0.40356        0.31027        0.24776        0.24384        0.23987        0.26475        0.29247        0.33670        0.43710        0.50454        0.50523        0.46379        0.39379        0.37103        0.35639        0.23764        0.23161        0.26246        0.30035        0.36368        0.36525        0.40620        0.44033        0.45732        0.38461        0.35706        0.32057        0.33164        0.28309        0.26912        0.30064        0.35112        0.40853        0.42571        0.40092        0.38583        0.40898        0.36171        0.30326        0.30584        0.30793        0.31232        0.37005        0.38528        0.41494        0.34790        0.36778        0.39062        0.35718        0.31575        0.28306        0.29110        0.33581        0.34472        0.33952        0.35254        0.39351        0.35023        0.36345        0.30347        0.30608        0.27618        0.28289        0.30466        0.33585        0.39109        0.36604        0.35713        0.31508        0.28328        0.27219        0.30632        0.29210        0.33149        0.36808        0.39723        0.34479        0.32984        0.30553        0.30748        0.30451        0.28263        0.32745        0.34530        0.33428        0.33037        0.30588        0.34788        0.33189        0.30541        0.32545        0.33070        0.35130        0.35811        0.32361        0.33566        0.30615        0.30659        0.30226        0.32591        0.40427        0.33756        0.36344        0.31185        0.32391        0.30713        0.30876        0.29301        0.31320        0.30689        0.33997        0.35546        0.30040        0.33127        0.31939        0.29445        0.31198        0.31737        0.32363        0.36580        0.36436        0.32457        0.30625        0.29366        0.25234        0.32274        0.34337        0.30781        0.31527        0.28091        0.29462        0.33051        0.33096        0.30876        0.34734        0.33654        0.31588        0.24653        0.29742        0.29837        0.30828        0.33508        0.31421        0.36921        0.37387        0.27728        0.29324        0.28825        0.28297        0.31072        0.27938        0.25745        0.25590        0.28772        0.29338        0.28175        0.28528        0.27488        0.33424        0.31865        0.29778        0.24185        0.24795        0.25036        0.23358        0.23544        0.31589        0.36099        0.25526        0.25215        0.30644        0.22997        0.23983        0.32825        0.28891        0.16635        0.18213        0.24874        0.31277        0.28571        0.12271       -0.01548       -0.50434       -0.71463
3.018487 2.980800 2.943355 2.906154 2.869197 2.832483 2.796011 2.759784 2.723799 2.688058 2.652560 2.617305 2.582294 2.547526 2.513001 2.478719 2.444681 2.410886 2.377334 2.344025 2.310960 2.278138 2.245560 2.213224 2.181132 2.149283 2.117678 2.086316 2.055197 2.024321 1.993689 1.963299 1.933154 1.903251 1.873592 1.844176 1.815003 1.786073 1.757387 1.728944 1.700745 1.672788 1.645075 1.617605 1.590379 1.563395 1.536656 1.510159 1.483905 1.457895 1.432128 1.491198 1.649971 1.586112 0.940762 0.662398 0.464001 0.411354 0.316828 0.255853 0.186181 0.000540 0.191493 0.067096 -0.028178 -0.071282 -0.211078 -0.160338 -0.088990 -0.094586 -0.085534 0.008644 0.033493 0.217831 0.143304 0.349394 0.433624 0.467875 0.685768 0.681353 0.690869 0.817683 0.798153 0.817783 0.935320 0.859955 0.912722 0.730186 0.826555 0.821626 0.621491 0.595252 0.444859 0.428455 0.355335 0.211939 0.119026 0.096489 0.214704 0.131909 0.208390 0.110810 0.283023 0.272975 0.443168 0.401612 0.579256 0.633043 0.741388 0.715500 0.642976 0.632093 0.508257 0.486889 0.326528 0.294596 0.120740 0.154340 0.008485 -0.003999 -0.042631 -0.043087 -0.006214 0.042789 0.267070 0.309656 0.382935 0.372966 0.459026 0.484754 0.482034 0.495725 0.372580 0.392920 0.153874 0.085433 0.081787 -0.014850 -0.130667 -0.041391 -0.114363 0.012668 0.136750 0.168444 0.250188 0.272555 0.366064 0.448940 0.342454 0.391292 0.286711 0.122095 0.055088 0.064719 0.038480 0.023031 0.020923 0.114480 0.122456 0.270829 0.230013 0.289575 0.348284 0.264950 0.254892 0.226178 0.131007 0.081058 0.024535 0.034342 0.025100 -0.002967 0.030221 0.173343 0.212467 0.244433 0.286469 0.230769 0.236766 0.141616 0.117751 -0.001222 -0.001512 -0.009815 0.011092 0.017777 0.036177 0.103275 0.187599 0.208616 0.212705 0.139076 0.106638 0.072763 0.052029 -0.075647 -0.009671 0.020022 0.048971 0.054309 0.087197 0.154824 0.112981 0.161218 0.059123 0.044381 0.044914 0.036576 0.003604 -0.001747 0.019846 0.077256 0.115345 0.133167 0.058384 0.108249 0.105078 0.007386 0.016773 0.012961 0.007240 0.039366 0.071463 0.096095 0.082120 0.049858 0.079969 0.073061 0.044755 0.007332 -0.014962 0.002768 0.059786 0.032065 0.043876 0.053857 0.086781 0.080091 0.038785 0.018787 0.007626 -0.015446 -0.002118 0.014240 0.055987 0.106432 0.065858 0.063237 0.012384 -0.015504 -0.001982 0.022031 0.018379 0.040534 0.095618 0.077559 0.013772 0.049355 -0.006844 0.036313 -0.006965 -0.009757 0.053551 0.048823 0.024693 0.027616 0.000321 0.052860 0.013629 0.005074 0.025311 0.030910 0.052900 0.036548 0.032777 0.017155 -0.013624 0.007224 0.000075 0.033264 0.088260 0.038692 0.014426 -0.002229 0.020417 -0.017500 0.010126 -0.011846 0.014884 -0.024296 0.056799 0.032480 0.012126 0.049522 -0.014992 0.001959 0.016714 -0.000052 0.040507 0.058942 0.058304 0.016071 0.011319 -0.016940 -0.016245 0.011221 0.052224 0.002366 0.041911 -0.022014 -0.012651 0.037052 0.044229 0.015576 0.040947 0.042235 0.037452 -0.060846 0.014516 0.027879 0.008572 0.035646 0.045139 0.084971 0.074876 0.001281 0.020717 -0.002520 0.005812 0.024370 -0.027492 -0.018312 -0.031530 -0.017020 0.007439 -0.024989 0.024577 -0.093788 0.008737 -0.014054 -0.039997 -0.104232 -0.052566 -0.095355 -0.065639 -0.083488 0.013650 0.061356 -0.086496 -0.048048 0.068071 -0.008843 -0.066069 0.073363 0.076522 -0.004761 -0.009555 0.068124 0.276131 0.252209 0.052354 -0.008547 -0.623543
0.072396 0.073046 0.074996 0.078245 0.082792 0.088636 0.095774 0.104204 0.113921 0.124921 0.137196 0.150739 0.165540 0.181585 0.198860 0.217345 0.237019 0.257856 0.279826 0.302892 0.327014 0.352146 0.378232 0.405214 0.433022 0.461581 0.490805 0.520601 0.550863 0.581479 0.612323 0.643261 0.674146 0.704820 0.735113 0.764845 0.793824 0.821848 0.848701 0.874161 0.897995 0.919960 0.939809 0.957286 0.972133 0.984088 0.992889 0.998277 0.999995 0.997796 0.991441 0.980706 0.965385 0.945292 0.920264 0.890170 0.854911 0.814424 0.768689 0.717732 0.661627 0.600503 0.534546 0.464001 0.389179 0.310453 0.228266 0.143126 0.055610 0.033639 0.123914 0.214445 0.304409 0.392929 0.479089 0.561933 0.640484 0.713751 0.780743 0.840482 0.892020 0.934453 0.966941 0.988724 0.999140 0.997644 0.983826 0.957427 0.918355 0.866702 0.802752 0.726996 0.640136 0.543087 0.436981 0.323160 0.203167 0.078730 0.048253 0.175740 0.301578 0.423532 0.539326 0.646690 0.743401 0.827335 0.896523 0.949196 0.983842 0.999256 0.994583 0.969365 0.923575 0.857642 0.772476 0.669465 0.550485 0.417868 0.274381 0.123178 0.032261 0.188199 0.340730 0.485873 0.619679 0.738342 0.838316 0.916431 0.970006 0.996955 0.995886 0.966175 0.908032 0.822538 0.711657 0.578220 0.425878 0.259029 0.082702 0.097571 0.275926 0.446350 0.602887 0.739853 0.852052 0.934992 0.985088 0.999837 0.977970 0.919556 0.826065 0.700377 0.546734 0.370630 0.178649 0.021763 0.222565 0.415443 0.592144 0.744850 0.866528 0.951292 0.994711 0.994075 0.948598 0.859538 0.730224 0.565988 0.373991 0.162953 0.057214 0.275854 0.482068 0.665267 0.815733 0.925154 0.987130 0.997590 0.955099 0.861052 0.719701 0.538037 0.325496 0.093526 0.145000 0.376480 0.587347 0.764886 0.898023 0.978063 0.999310 0.959535 0.860241 0.706709 0.507796 0.275501 0.024291 0.229757 0.469966 0.680159 0.845773 0.954907 0.999247 0.974765 0.882157 0.726954 0.519292 0.273343 0.006409 0.262249 0.512778 0.726205 0.885913 0.978987 0.997343 0.938513 0.806028 0.609334 0.363226 0.086822 0.197853 0.467597 0.699914 0.874928 0.977147 0.996927 0.931479 0.785333 0.570164 0.303989 0.009744 0.286617 0.558384 0.780509 0.931977 0.997867 0.970948 0.852581 0.652851 0.389859 0.088195 0.223261 0.514081 0.755236 0.922069 0.996904 0.971035 0.845892 0.633166 0.353901 0.036528 0.285922 0.579224 0.811602 0.957239 0.999269 0.931875 0.761238 0.505181 0.191469 0.145062 0.466312 0.735199 0.920010 0.998246 0.959518 0.807103 0.557913 0.240812 0.106559 0.442186 0.724706 0.918584 0.998693 0.953741 0.788063 0.521465 0.187065 0.172655 0.511154 0.783843 0.954040 0.998044 0.908645 0.696501 0.389133 0.027559 0.339012 0.659832 0.889675 0.995316 0.960553 0.788911 0.503622 0.144723 0.236363 0.584107 0.846961 0.985109 0.976702 0.821561 0.541707 0.178526 0.213148 0.573182 0.845378 0.986364 0.972708 0.805092 0.508745 0.129950 0.270960 0.629107 0.885571 0.997229 0.944255 0.733937 0.400050 0.002262 0.405386 0.740520 0.949485 0.995020 0.867726 0.588300 0.204542 0.216538 0.600267 0.877536 0.997415 0.936756 0.705029 0.343256 0.082904 0.494875 0.815551 0.983876 0.966704 0.765692 0.417696 0.011604 0.439834 0.783655 0.975050 0.975045 0.782016 0.432769 0.004068 0.441267 0.790269 0.979263 0.968207 0.757717 0.389740 0.060368 0.499017 0.833729 0.992773 0.940848 0.687365 0.285255 0.179627 0.606611
1.000000 1.000000 1.000000 1.000000 1.000000 1.000000 1.000000 1.000000 1.000000 1.000000 1.000000 1.000000 1.000000 1.000000 1.000000 1.000000 1.000000 1.000000 1.000000 1.000000 1.000000 1.000000 1.000000 1.000000 1.000000 1.000000 1.000000 1.000000 1.000000 1.000000 1.000000 1.000000 1.000000 1.000000 1.000000 1.000000 1.000000 1.000000 1.000000 1.000000 1.000000 1.000000 1.000000 1.000000 1.000000 1.000000 1.000000 1.000000 1.000000 1.000000 1.000000 1.000000 0.938076 0.938076 0.938076 0.938076 0.938076 0.938076 0.938076 0.938076 0.938076 0.938076 0.938076 0.938076 0.938076 0.938076 0.938076 0.938076 0.938076 0.938076 0.938076 0.938076 0.938076 0.938076 0.938076 0.938076 0.938076 0.938076 0.938076 0.938076 0.938076 0.938076 0.938076 0.938076 0.938076 0.931320 0.932646 0.935271 0.936214 0.936190 0.935809 0.935561 0.935790 0.936951 0.938709 0.955202 0.956805 0.957629 0.958824 0.957602 0.960558 0.959081 0.959311 0.969969 0.968984 0.969569 0.962790 0.964133 0.963338 0.962483 0.963249 0.963425 0.961740 0.959841 0.958259 0.958440 0.958130 0.959818 0.960076 0.959791 0.960272 0.960131 0.959889 0.956680 0.955119 0.956484 0.958251 0.957521 0.963368 0.961823 0.963749 0.963662 0.962363 0.962238 0.962455 0.962658 0.958647 0.955304 0.952046 0.940692 0.931092 0.925238 0.927996 0.931096 0.929744 0.924476 0.923507 0.921414 0.917246 0.916630 0.915497 0.916566 0.909976 0.906555 0.893488 0.893104 0.896659 0.897944 0.895341 0.886536 0.881535 0.882312 0.885264 0.883426 0.880774 0.897456 0.894427 0.897619 0.901145 0.903537 0.907404 0.896852 0.889886 0.885579 0.881973 0.879082 0.880857 0.879522 0.882168 0.874785 0.865064 0.859375 0.860114 0.866643 0.873889 0.878446 0.877058 0.877441 0.876783 0.858570 0.860527 0.844608 0.845456 0.850477 0.856232 0.855559 0.853401 0.854353 0.852787 0.852148 0.853828 0.849248 0.843230 0.835893 0.833702 0.835975 0.850327 0.850471 0.832465 0.824988 0.820316 0.823788 0.829365 0.826308 0.827217 0.821951 0.823166 0.817033 0.807075 0.809399 0.815737 0.810868 0.817700 0.818470 0.823975 0.823884 0.823175 0.820340 0.819562 0.823495 0.793664 0.804383 0.806141 0.791685 0.797494 0.788775 0.782945 0.783417 0.780000 0.756749 0.765165 0.728528 0.700075 0.712589 0.715738 0.701937 0.687727 0.688026 0.689690 0.669342 0.658165 0.641469 0.638891 0.647813 0.651829 0.658688 0.653903 0.647635 0.635861 0.590767 0.606811 0.605953 0.567648 0.576322 0.568480 0.563563 0.559518 0.532154 0.535017 0.538928 0.544513 0.522176 0.515644 0.525023 0.495450 0.495240 0.495452 0.494436 0.493737 0.498599 0.478538 0.494016 0.522923 0.479857 0.460390 0.477800 0.493337 0.504867 0.510534 0.499837 0.448517 0.507454 0.465069 0.473137 0.488475 0.478458 0.451633 0.459967 0.450658 0.481038 0.463338 0.448422 0.472856 0.446290 0.439592 0.441643 0.431949 0.422740 0.404908 0.400962 0.373699 0.385070 0.370008 0.343288 0.370525 0.384503 0.373522 0.364190 0.334759 0.335619 0.297471 0.271674 0.249410 0.248020 0.206610 0.168030 0.173313 0.166655 0.139088 0.107663 0.097914 0.060916 0.054784 0.081188 0.084537 0.086826 0.081618 0.104724 0.104724 0.104724 0.104724 0.104724 0.104724 0.104724 0.104724 0.104724 0.104724 0.104724 0.104724 0.104724 0.104724 0.128914 0.128914 0.128914 0.128914 0.128914 0.128914 0.128914 0.128914 0.128914 0.128914 0.128914 0.128914
0.000000 0.000000 0.000000 0.000000 0.000000 0.000000 0.000000 0.000000 0.000000 0.000000 0.000000 0.000000 0.000000 0.000000 0.000000 0.000000 0.000000 0.000000 0.000000 0.000000 0.000000 0.000000 0.000000 0.000000 0.000000 7.000000 4.000000 0.000000 0.000000 0.000000 0.000000 0.000000 0.000000 0.000000 0.000000 0.000000 0.000000 0.000000 0.000000 0.000000 0.000000 0.000000 0.000000 0.000000 0.000000 0.000000 0.000000 0.000000 0.000000 0.000000 0.000000 0.000000 0.209657 0.209657 0.209657 0.209657 0.209657 0.209657 0.209657 0.209657 0.209657 0.209657 0.209657 0.209657 0.209657 0.209657 0.209657 0.209657 0.209657 0.209657 0.209657 0.209657 0.209657 0.209657 0.209657 0.209657 0.209657 0.209657 0.209657 0.209657 0.209657 0.209657 0.209657 0.209657 0.209657 0.244339 0.244339 0.244339 0.244339 0.244339 0.244339 0.244339 0.244339 0.244339 0.244339 0.244339 0.244339 0.244339 0.244339 0.244339 0.244339 0.244339 0.244339 0.244339 0.244339 0.244339 0.244339 0.244339 0.244339 0.244339 0.260378 0.260378 0.260378 0.260378 0.260378 0.260378 0.260378 0.260378 0.260378 0.260378 0.260378 0.260378 0.260378 0.260378 0.260378 0.260378 0.260378 0.260378 0.260378 0.260378 0.269680 0.269680 0.269680 0.269680 0.269680 0.269680 0.269680 0.269680 0.269680 0.269680 0.269680 0.269680 0.269680 0.269680 0.269680 0.269680 0.269680 0.269680 0.269680 0.269680 0.269680 0.269680 0.269680 0.269680 0.269680 0.269680 0.269680 0.269680 0.269680 0.269680 0.269680 0.269680 0.269680 0.280056 0.280056 0.280056 0.280056 0.280056 0.280056 0.280056 0.280056 0.280056 0.280056 0.280056 0.280056 0.280056 0.280056 0.280056 0.280056 0.280056 0.280056 0.280056 0.280056 0.280056 0.280056 0.280056 0.280056 0.280056 0.280056 0.280056 0.274721 0.274721 0.274721 0.274721 0.274721 0.274721 0.274721 0.274721 0.274721 0.274721 0.274721 0.274721 0.274721 0.285714 0.285714 0.285714 0.285714 0.285714 0.285714 0.285714 0.285714 0.285714 0.285714 0.285714 0.280056 0.280056 0.280056 0.280056 0.280056 0.280056 0.280056 0.280056 0.280056 0.280056 0.280056 0.274721 0.274721 0.274721 0.274721 0.274721 0.274721 0.274721 0.274721 0.274721 0.274721 0.274721 0.280056 0.280056 0.280056 0.280056 0.280056 0.280056 0.280056 0.280056 0.280056 0.280056 0.285714 0.285714 0.285714 0.285714 0.285714 0.285714 0.285714 0.285714 0.285714 0.269680 0.269680 0.269680 0.269680 0.269680 0.269680 0.269680 0.269680 0.269680 0.269680 0.274721 0.274721 0.274721 0.274721 0.274721 0.274721 0.274721 0.274721 0.274721 0.285714 0.285714 0.285714 0.285714 0.285714 0.285714 0.285714 0.285714 0.264906 0.264906 0.264906 0.264906 0.264906 0.264906 0.264906 0.264906 0.264906 0.274721 0.274721 0.274721 0.274721 0.274721 0.274721 0.274721 0.274721 0.269680 0.269680 0.269680 0.269680 0.269680 0.269680 0.269680 0.269680 0.269680 0.269680 0.269680 0.269680 0.269680 0.269680 0.269680 0.269680 0.280056 0.280056 0.280056 0.280056 0.280056 0.280056 0.280056 0.260378 0.260378 0.260378 0.260378 0.260378 0.260378 0.260378 0.260378 0.269680 0.269680 0.269680 0.269680 0.269680 0.269680 0.269680 0.264906 0.264906 0.264906 0.264906 0.264906 0.264906 0.264906 0.264906 0.264906 0.264906 0.264906 0.264906 0.264906 0.264906 0.260378 0.260378 0.260378 0.260378 0.260378 0.260378 0.260378 0.260378 0.260378 0.260378 0.260378 0.260378
