# Output from CTFFind version 4.1.9, run on 2019-11-03 20:08:29
# Input file: stack1_bm3d_averaged_1_7.5_0_2000_half.mrc ; Number of micrographs: 1
# Pixel size: 3.000 Angstroms ; acceleration voltage: 300.0 keV ; spherical aberration: 0.00 mm ; amplitude contrast: 0.07
# Box size: 512 pixels ; min. res.: 30.0 Angstroms ; max. res.: 5.0 Angstroms ; min. def.: 5000.0 um; max. def. 50000.0 um; num. frames averaged: 1
# 6 lines per micrograph: #1 - spatial frequency (1/Angstroms); #2 - 1D rotational average of spectrum (assuming no astigmatism); #3 - 1D rotational average of spectrum; #4 - CTF fit; #5 - cross-correlation between spectrum and CTF fit; #6 - 2sigma of expected cross correlation of noise
0.000000 0.000651 0.001302 0.001953 0.002604 0.003255 0.003906 0.004557 0.005208 0.005859 0.006510 0.007161 0.007812 0.008464 0.009115 0.009766 0.010417 0.011068 0.011719 0.012370 0.013021 0.013672 0.014323 0.014974 0.015625 0.016276 0.016927 0.017578 0.018229 0.018880 0.019531 0.020182 0.020833 0.021484 0.022135 0.022786 0.023438 0.024089 0.024740 0.025391 0.026042 0.026693 0.027344 0.027995 0.028646 0.029297 0.029948 0.030599 0.031250 0.031901 0.032552 0.033203 0.033854 0.034505 0.035156 0.035807 0.036458 0.037109 0.037760 0.038411 0.039062 0.039714 0.040365 0.041016 0.041667 0.042318 0.042969 0.043620 0.044271 0.044922 0.045573 0.046224 0.046875 0.047526 0.048177 0.048828 0.049479 0.050130 0.050781 0.051432 0.052083 0.052734 0.053385 0.054036 0.054688 0.055339 0.055990 0.056641 0.057292 0.057943 0.058594 0.059245 0.059896 0.060547 0.061198 0.061849 0.062500 0.063151 0.063802 0.064453 0.065104 0.065755 0.066406 0.067057 0.067708 0.068359 0.069010 0.069661 0.070312 0.070964 0.071615 0.072266 0.072917 0.073568 0.074219 0.074870 0.075521 0.076172 0.076823 0.077474 0.078125 0.078776 0.079427 0.080078 0.080729 0.081380 0.082031 0.082682 0.083333 0.083984 0.084635 0.085286 0.085938 0.086589 0.087240 0.087891 0.088542 0.089193 0.089844 0.090495 0.091146 0.091797 0.092448 0.093099 0.093750 0.094401 0.095052 0.095703 0.096354 0.097005 0.097656 0.098307 0.098958 0.099609 0.100260 0.100911 0.101562 0.102214 0.102865 0.103516 0.104167 0.104818 0.105469 0.106120 0.106771 0.107422 0.108073 0.108724 0.109375 0.110026 0.110677 0.111328 0.111979 0.112630 0.113281 0.113932 0.114583 0.115234 0.115885 0.116536 0.117188 0.117839 0.118490 0.119141 0.119792 0.120443 0.121094 0.121745 0.122396 0.123047 0.123698 0.124349 0.125000 0.125651 0.126302 0.126953 0.127604 0.128255 0.128906 0.129557 0.130208 0.130859 0.131510 0.132161 0.132812 0.133464 0.134115 0.134766 0.135417 0.136068 0.136719 0.137370 0.138021 0.138672 0.139323 0.139974 0.140625 0.141276 0.141927 0.142578 0.143229 0.143880 0.144531 0.145182 0.145833 0.146484 0.147135 0.147786 0.148438 0.149089 0.149740 0.150391 0.151042 0.151693 0.152344 0.152995 0.153646 0.154297 0.154948 0.155599 0.156250 0.156901 0.157552 0.158203 0.158854 0.159505 0.160156 0.160807 0.161458 0.162109 0.162760 0.163411 0.164062 0.164714 0.165365 0.166016 0.166667 0.167318 0.167969 0.168620 0.169271 0.169922 0.170573 0.171224 0.171875 0.172526 0.173177 0.173828 0.174479 0.175130 0.175781 0.176432 0.177083 0.177734 0.178385 0.179036 0.179688 0.180339 0.180990 0.181641 0.182292 0.182943 0.183594 0.184245 0.184896 0.185547 0.186198 0.186849 0.187500 0.188151 0.188802 0.189453 0.190104 0.190755 0.191406 0.192057 0.192708 0.193359 0.194010 0.194661 0.195312 0.195964 0.196615 0.197266 0.197917 0.198568 0.199219 0.199870 0.200521 0.201172 0.201823 0.202474 0.203125 0.203776 0.204427 0.205078 0.205729 0.206380 0.207031 0.207682 0.208333 0.208984 0.209635 0.210286 0.210938 0.211589 0.212240 0.212891 0.213542 0.214193 0.214844 0.215495 0.216146 0.216797 0.217448 0.218099 0.218750 0.219401 0.220052 0.220703 0.221354 0.222005 0.222656 0.223307 0.223958 0.224609 0.225260 0.225911 0.226562 0.227214 0.227865 0.228516 0.229167 0.229818 0.230469 0.231120 0.231771 0.232422 0.233073 0.233724 0.234375 0.235026 0.235677
       0.33904        0.33904        0.33904        0.33904        0.33904        0.33904        0.33904        0.33904        0.33904        0.33904        0.33904        0.33904        0.33904        0.33904        0.33904        0.33904        0.33904        0.33904        0.33904        0.33904        0.33904        0.33904        0.33904        0.33904        0.33904        0.33904        0.33904        0.33904        0.33904        0.33904        0.33904        0.33904        0.33904        0.33904        0.33904        0.33904        0.33904        0.33904        0.33904        0.33904        0.33904        0.33904        0.33904        0.33904        0.33904        0.33904        0.33904        0.33904        0.33904        0.33904        0.33904        0.32753        0.46205        0.21436        0.06712       -0.00075       -0.27246       -0.12010       -0.15404       -0.22428        0.00248       -0.14837       -0.06236       -0.06433       -0.04844       -0.12312       -0.16705       -0.24714       -0.29180       -0.40346       -0.33627       -0.23818       -0.21785       -0.31364       -0.23230       -0.28595       -0.25695       -0.27902       -0.12505       -0.14062       -0.19805       -0.03328        0.03465       -0.02177        0.06378        0.03768        0.23593        0.24511        0.33046        0.34529        0.36830        0.40453        0.48069        0.53894        0.54481        0.49623        0.48268        0.50728        0.46459        0.50561        0.42908        0.40533        0.41086        0.35322        0.29229        0.30495        0.32630        0.21580        0.19650        0.12880        0.15381        0.16083        0.17174        0.16058        0.23705        0.29765        0.31045        0.28345        0.39108        0.46809        0.39404        0.48278        0.58375        0.53351        0.51040        0.56399        0.59248        0.41489        0.47433        0.39951        0.32841        0.30510        0.28102        0.25013        0.19395        0.18364        0.15295        0.19736        0.25058        0.28083        0.33475        0.30045        0.40193        0.40797        0.44965        0.49086        0.47082        0.49643        0.44020        0.42794        0.40236        0.33478        0.30668        0.31117        0.31329        0.24625        0.24493        0.24947        0.24377        0.26936        0.31702        0.42181        0.46675        0.41352        0.42361        0.45932        0.43827        0.46233        0.45220        0.38260        0.35683        0.38970        0.35569        0.30807        0.29854        0.30695        0.27209        0.29428        0.30050        0.31766        0.36750        0.37077        0.40783        0.41498        0.35528        0.44453        0.40961        0.34434        0.30581        0.33831        0.32679        0.29447        0.31038        0.28868        0.29519        0.32148        0.32833        0.42801        0.39725        0.37331        0.39418        0.43255        0.36654        0.34673        0.33826        0.34692        0.27303        0.26966        0.30228        0.37872        0.37989        0.33656        0.34610        0.39213        0.38354        0.44924        0.37852        0.36481        0.33053        0.31331        0.31253        0.31298        0.34000        0.37621        0.36504        0.37182        0.32434        0.43066        0.34686        0.34998        0.33833        0.37625        0.36363        0.29056        0.30633        0.26455        0.31128        0.32308        0.31410        0.33578        0.31902        0.34610        0.33586        0.33657        0.31444        0.29566        0.27379        0.31751        0.33906        0.31893        0.29239        0.33442        0.32423        0.32977        0.33288        0.29726        0.28287        0.29675        0.32123        0.31229        0.31031        0.28555        0.30235        0.34717        0.32559        0.31751        0.38537        0.32486        0.26805        0.31139        0.32535        0.31320        0.34097        0.29953        0.32251        0.26902        0.31558        0.33364        0.35781        0.30032        0.31331        0.30619        0.28808        0.35962        0.35284        0.31004        0.30666        0.29365        0.28795        0.33903        0.33657        0.27840        0.32419        0.28383        0.26632        0.25701        0.30115        0.33067        0.32211        0.23665        0.27325        0.33815        0.30771        0.32541        0.33507        0.30610        0.31635        0.32329        0.30344        0.27629        0.27211        0.28411        0.32886        0.32729        0.30922        0.32504        0.35050        0.33629        0.29224        0.30414        0.29353        0.30333        0.29321        0.24243        0.25732        0.31366        0.35188        0.24540        0.21216        0.18367        0.28980        0.29739        0.28572        0.30260        0.27885        0.27437        0.24203        0.28430        0.26770        0.30424        0.23435        0.25318        0.25475        0.21448        0.25212        0.32343        0.32901        0.26579        0.22539        0.21483        0.15838        0.24236        0.24837        0.38083        0.28117        0.22031        0.30494        0.36291        0.14372       -0.07793       -0.13199       -0.61483       -0.78983
3.454533 3.415886 3.377459 3.339252 3.301265 3.263497 3.225948 3.188619 3.151510 3.114620 3.077951 3.041500 3.005269 2.969258 2.933467 2.897895 2.862542 2.827409 2.792496 2.757802 2.723329 2.689074 2.655039 2.621224 2.587629 2.554252 2.521096 2.488159 2.455442 2.422944 2.390666 2.358608 2.326769 2.295150 2.263750 2.232570 2.201610 2.170869 2.140348 2.110046 2.079964 2.050102 2.020459 1.991036 1.961832 1.932848 1.904084 1.875539 1.847214 1.819108 1.791222 1.675001 1.978325 1.718724 1.084992 1.158620 0.350696 0.898780 0.535291 0.641033 0.925042 0.662023 0.684765 0.757680 0.693105 0.652878 0.444160 0.343284 0.197403 0.001333 0.004905 0.135637 0.404362 -0.032574 0.163623 0.043080 0.170857 -0.059391 0.265449 0.177412 0.101198 0.305389 0.514059 0.303543 0.442846 0.363453 0.806996 0.658348 0.864116 0.900482 0.804181 1.031836 0.934404 1.255122 1.068078 1.112112 1.014307 1.032511 0.982693 0.901999 0.937853 0.769515 0.745773 0.671661 0.636594 0.461270 0.570139 0.440648 0.272480 0.209457 0.138319 0.179207 0.206282 0.145981 0.194877 0.395895 0.353299 0.364759 0.469196 0.561507 0.549905 0.430937 0.819759 0.812444 0.623247 0.704863 0.779679 0.562478 0.412305 0.522879 0.209263 0.267877 0.107575 0.152711 -0.009221 -0.040609 -0.109308 -0.103228 0.090181 -0.016826 0.124091 0.197874 0.156915 0.302138 0.301558 0.416580 0.318493 0.474023 0.310980 0.258588 0.244862 0.155461 0.069330 0.048159 0.027195 -0.003446 -0.051936 -0.114591 -0.116017 -0.047852 -0.073710 0.138904 0.325614 0.226552 0.199498 0.287207 0.325261 0.232198 0.353116 0.287497 0.153046 0.141264 0.262009 0.012343 0.047336 0.016790 0.052345 -0.024618 0.088536 0.004748 0.155567 0.007367 0.217937 0.245207 0.172823 0.274558 0.193773 0.153409 0.044230 0.076319 0.075876 0.034033 -0.012858 0.033309 -0.038753 0.007153 0.031840 0.108965 0.277937 0.137359 0.154324 0.267872 0.147473 0.175728 0.040873 0.099679 0.074794 -0.098251 0.002426 0.047330 0.183103 0.129008 0.048304 0.110969 0.190202 0.181493 0.280450 0.124099 0.125962 0.045831 0.008868 0.064722 0.048817 0.102811 0.170793 0.139009 0.095872 0.149962 0.204358 0.015689 0.110365 0.074414 0.159149 0.062762 -0.004686 0.000620 -0.059944 0.040341 0.057282 0.045569 0.027652 -0.022936 0.047524 0.011137 0.026223 -0.016210 -0.074247 -0.036857 -0.047511 0.076555 -0.051989 -0.015398 0.028563 0.018273 0.025809 0.048774 -0.041076 -0.036446 -0.024036 0.033713 0.002246 0.020996 -0.053484 -0.023279 0.095500 0.009221 -0.011957 0.166874 -0.071529 -0.081228 0.014422 0.008016 -0.015791 0.019723 -0.034962 0.000975 -0.105901 0.028520 0.054744 0.074088 -0.062880 -0.000132 -0.044472 -0.029903 0.073539 0.069233 -0.062777 -0.013324 -0.061623 -0.059983 0.039295 -0.005794 -0.079303 0.044880 -0.103952 -0.088131 -0.093150 -0.050257 0.035252 -0.069507 -0.228551 -0.028745 0.057667 -0.049764 -0.034522 0.048282 -0.051238 -0.017505 0.003060 -0.067256 -0.101101 -0.115747 -0.112074 0.050650 0.001258 -0.061930 0.015167 0.086011 -0.107589 0.005236 0.017854 -0.088730 0.026816 -0.014988 -0.117063 -0.070990 0.027119 0.153524 -0.063920 -0.222225 -0.122471 0.127732 0.002315 -0.005214 0.134436 0.071767 0.019253 0.002381 0.010779 0.076640 0.103502 -0.009638 0.060862 0.089431 -0.090726 0.102290 0.281161 0.157427 0.123129 0.095619 -0.042582 0.061285 0.006076 0.061125 0.435912 0.456250 0.396963 0.583421 0.849313 0.277863 -0.330292 -0.225374 -1.412883
0.072396 0.072907 0.074441 0.076996 0.080573 0.085170 0.090786 0.097419 0.105067 0.113728 0.123397 0.134071 0.145743 0.158407 0.172055 0.186678 0.202263 0.218797 0.236265 0.254648 0.273925 0.294074 0.315065 0.336868 0.359449 0.382769 0.406784 0.431446 0.456702 0.482493 0.508755 0.535418 0.562406 0.589635 0.617017 0.644456 0.671848 0.699084 0.726047 0.752612 0.778649 0.804020 0.828579 0.852176 0.874654 0.895848 0.915592 0.933711 0.950030 0.964369 0.976546 0.986379 0.993684 0.998281 0.999993 0.998645 0.994069 0.986108 0.974611 0.959440 0.940473 0.917601 0.890736 0.859808 0.824774 0.785613 0.742332 0.694970 0.643595 0.588311 0.529259 0.466615 0.400597 0.331460 0.259504 0.185069 0.108535 0.030327 0.049091 0.129216 0.209507 0.289389 0.368254 0.445470 0.520376 0.592299 0.660551 0.724439 0.783273 0.836372 0.883075 0.922745 0.954785 0.978643 0.993824 0.999897 0.996511 0.983396 0.960382 0.927400 0.884494 0.831826 0.769683 0.698483 0.618774 0.531239 0.436692 0.336077 0.230464 0.121038 0.009091 0.103991 0.216740 0.327629 0.435090 0.537532 0.633372 0.721054 0.799083 0.866045 0.920646 0.961731 0.988319 0.999624 0.995087 0.974394 0.937496 0.884627 0.816312 0.733377 0.636946 0.528438 0.409553 0.282254 0.148743 0.011426 0.127125 0.264216 0.397084 0.522951 0.639083 0.742856 0.831817 0.903747 0.956728 0.989195 0.999998 0.988442 0.954331 0.897995 0.820306 0.722681 0.607076 0.475958 0.332267 0.179358 0.020935 0.139034 0.296412 0.446997 0.586640 0.711356 0.817453 0.901640 0.961152 0.993843 0.998282 0.973827 0.920675 0.839891 0.733416 0.604040 0.455347 0.291638 0.117816 0.060746 0.238365 0.409227 0.567573 0.707905 0.825184 0.915017 0.973850 0.999113 0.989364 0.944377 0.865198 0.754157 0.614832 0.451947 0.271256 0.079338 0.116611 0.309057 0.490403 0.653293 0.790930 0.897360 0.967766 0.998694 0.988260 0.936282 0.844345 0.715797 0.555667 0.370492 0.168087 0.042774 0.252718 0.452184 0.631871 0.783165 0.898589 0.972181 0.999846 0.979607 0.911780 0.799024 0.646296 0.460663 0.251027 0.027711 0.198020 0.414518 0.610361 0.774953 0.899137 0.975717 0.999923 0.969747 0.886137 0.753035 0.577254 0.368164 0.137247 0.102515 0.337349 0.553470 0.737917 0.879331 0.968705 0.999991 0.970562 0.881474 0.737508 0.546973 0.321290 0.074343 0.178331 0.420520 0.636361 0.811404 0.933608 0.994215 0.988434 0.915873 0.780692 0.591441 0.360580 0.103727 0.161384 0.416072 0.642056 0.822762 0.944595 0.997997 0.978271 0.886058 0.727429 0.513567 0.260056 0.014198 0.288350 0.541173 0.752723 0.905929 0.988039 0.991742 0.915897 0.765782 0.552824 0.293819 0.009665 0.276275 0.540073 0.759246 0.914718 0.992530 0.985176 0.892414 0.721461 0.486545 0.207800 0.090383 0.381450 0.639036 0.839384 0.963580 0.999414 0.942680 0.797756 0.577396 0.301701 0.003605 0.309543 0.586591 0.807557 0.950295 0.999999 0.950851 0.806800 0.581387 0.296593 0.019207 0.334021 0.615442 0.834021 0.966388 0.997859 0.924173 0.752176 0.499329 0.192064 0.136885 0.451927 0.718441 0.906626 0.994914 0.972558 0.841067 0.614294 0.317136 0.017101 0.350339 0.644058 0.863755 0.983081 0.987112 0.874360 0.657225 0.360795 0.020085 0.324017 0.629613 0.858925 0.983029 0.985641 0.865401 0.636337 0.326412 0.025753 0.375595 0.678228 0.894220 0.994828 0.965969 0.810351 0.547454 0.211252 0.154013 0.499599 0.778752 0.953074
1.000000 1.000000 1.000000 1.000000 1.000000 1.000000 1.000000 1.000000 1.000000 1.000000 1.000000 1.000000 1.000000 1.000000 1.000000 1.000000 1.000000 1.000000 1.000000 1.000000 1.000000 1.000000 1.000000 1.000000 1.000000 1.000000 1.000000 1.000000 1.000000 1.000000 1.000000 1.000000 1.000000 1.000000 1.000000 1.000000 1.000000 1.000000 1.000000 1.000000 1.000000 1.000000 1.000000 1.000000 1.000000 1.000000 1.000000 1.000000 1.000000 1.000000 1.000000 1.000000 0.822065 0.822065 0.822065 0.798396 0.798396 0.798396 0.798396 0.798396 0.798396 0.798396 0.798396 0.798396 0.798396 0.798396 0.798396 0.798396 0.798396 0.798396 0.798396 0.798396 0.798396 0.798396 0.798396 0.798396 0.798396 0.798396 0.798396 0.798396 0.798396 0.798396 0.798396 0.798396 0.798396 0.798396 0.798396 0.798396 0.798396 0.798396 0.798396 0.798396 0.798396 0.798396 0.798396 0.798396 0.853925 0.860560 0.865815 0.869540 0.869820 0.866777 0.865611 0.865162 0.864571 0.865806 0.874555 0.900347 0.913788 0.914271 0.927696 0.929497 0.934420 0.935129 0.954814 0.956226 0.957548 0.956625 0.957564 0.959640 0.966215 0.966376 0.963885 0.963959 0.966743 0.967377 0.967093 0.963454 0.962067 0.961281 0.958745 0.958450 0.958062 0.958520 0.958953 0.953686 0.954058 0.954356 0.956230 0.954702 0.945028 0.939432 0.935571 0.933634 0.915957 0.913513 0.913931 0.911992 0.903772 0.904192 0.893828 0.894991 0.892988 0.883219 0.882631 0.878483 0.874276 0.862035 0.860401 0.860441 0.863686 0.869130 0.871991 0.859175 0.843341 0.823812 0.807538 0.789582 0.791088 0.789104 0.785106 0.789362 0.791134 0.789617 0.787641 0.780032 0.766996 0.775450 0.772997 0.768636 0.762165 0.760406 0.746570 0.741265 0.734344 0.710946 0.697879 0.690592 0.701125 0.694091 0.694708 0.698414 0.706357 0.706234 0.706580 0.699249 0.695259 0.687096 0.668049 0.674485 0.685067 0.678850 0.672505 0.671451 0.646061 0.675336 0.678481 0.698570 0.706738 0.708052 0.708297 0.694082 0.669164 0.643912 0.644097 0.632872 0.640412 0.640683 0.634707 0.617163 0.622015 0.627723 0.647784 0.610756 0.607412 0.590280 0.592588 0.576439 0.575703 0.538097 0.531483 0.520134 0.491883 0.470828 0.485862 0.473523 0.465458 0.486068 0.443588 0.441367 0.438939 0.438521 0.436366 0.423856 0.398507 0.403402 0.402855 0.389371 0.362404 0.306541 0.305885 0.320425 0.324262 0.326217 0.312805 0.316937 0.278519 0.254320 0.254133 0.252726 0.238333 0.239492 0.244953 0.220958 0.223913 0.130555 0.129570 0.149303 0.153837 0.148359 0.137227 0.162849 0.165128 0.148541 0.123339 0.067885 0.025215 0.008386 0.033317 0.046138 0.065444 0.046557 0.037249 0.039466 0.054591 0.008725 -0.002097 -0.014495 -0.015928 -0.007006 0.021282 0.010115 -0.009792 0.001264 0.021990 -0.012611 0.000070 0.005442 0.033149 0.014200 0.002033 -0.009841 -0.015628 -0.027855 -0.035588 -0.021274 -0.008814 0.003253 0.033008 -0.018715 -0.034718 -0.038342 -0.028435 -0.062209 -0.039095 -0.053004 -0.036571 -0.047346 -0.039339 -0.018379 0.043880 0.047001 0.044889 0.009144 0.047135 0.011751 0.003214 0.020821 -0.008484 -0.008816 0.035669 0.048761 0.059331 0.007117 -0.007754 -0.007754 -0.007754 -0.033975 -0.033975 -0.033975 -0.033975 -0.033975 -0.033975 -0.033975 -0.033975 -0.033975 -0.040116 -0.040116 -0.040116 -0.040116 -0.040116 -0.040116 -0.040116 -0.040116 -0.040116 -0.040116 -0.040116 -0.040116 -0.040116 -0.040116 -0.040116 -0.040116 -0.040116
0.000000 0.000000 0.000000 0.000000 0.000000 0.000000 0.000000 0.000000 0.000000 0.000000 0.000000 0.000000 0.000000 0.000000 0.000000 0.000000 0.000000 0.000000 0.000000 0.000000 0.000000 0.000000 0.000000 0.000000 0.000000 0.000000 0.000000 0.000000 0.000000 0.000000 0.000000 0.000000 0.000000 0.000000 0.000000 0.000000 0.000000 0.000000 0.000000 0.000000 0.000000 0.000000 0.000000 0.000000 0.000000 0.000000 0.000000 0.000000 0.000000 0.000000 0.000000 0.000000 0.180334 0.180334 0.180334 0.199007 0.199007 0.199007 0.199007 0.199007 0.199007 0.199007 0.199007 0.199007 0.199007 0.199007 0.199007 0.199007 0.199007 0.199007 0.199007 0.199007 0.199007 0.199007 0.199007 0.199007 0.199007 0.199007 0.199007 0.199007 0.199007 0.199007 0.199007 0.199007 0.199007 0.199007 0.199007 0.199007 0.199007 0.199007 0.199007 0.199007 0.199007 0.199007 0.199007 0.199007 0.230940 0.230940 0.230940 0.230940 0.230940 0.230940 0.230940 0.230940 0.230940 0.230940 0.230940 0.230940 0.230940 0.230940 0.230940 0.230940 0.230940 0.230940 0.230940 0.230940 0.230940 0.230940 0.230940 0.230940 0.230940 0.230940 0.230940 0.230940 0.248069 0.248069 0.248069 0.248069 0.248069 0.248069 0.248069 0.248069 0.248069 0.248069 0.248069 0.248069 0.248069 0.248069 0.248069 0.248069 0.248069 0.248069 0.248069 0.248069 0.248069 0.248069 0.251976 0.251976 0.251976 0.251976 0.251976 0.251976 0.251976 0.251976 0.251976 0.251976 0.251976 0.251976 0.251976 0.251976 0.251976 0.251976 0.251976 0.251976 0.251976 0.251976 0.256074 0.256074 0.256074 0.256074 0.256074 0.256074 0.256074 0.256074 0.256074 0.256074 0.256074 0.256074 0.256074 0.256074 0.256074 0.256074 0.256074 0.256074 0.264906 0.264906 0.264906 0.264906 0.264906 0.264906 0.264906 0.264906 0.264906 0.264906 0.264906 0.264906 0.264906 0.264906 0.264906 0.264906 0.264906 0.264906 0.264906 0.264906 0.264906 0.264906 0.264906 0.264906 0.264906 0.264906 0.264906 0.264906 0.264906 0.264906 0.264906 0.274721 0.274721 0.274721 0.274721 0.274721 0.274721 0.274721 0.274721 0.274721 0.274721 0.274721 0.274721 0.274721 0.256074 0.256074 0.256074 0.256074 0.256074 0.256074 0.256074 0.256074 0.256074 0.256074 0.256074 0.256074 0.256074 0.256074 0.269680 0.269680 0.269680 0.269680 0.269680 0.269680 0.269680 0.269680 0.269680 0.269680 0.269680 0.269680 0.264906 0.264906 0.264906 0.264906 0.264906 0.264906 0.264906 0.264906 0.264906 0.264906 0.264906 0.264906 0.269680 0.269680 0.269680 0.269680 0.269680 0.269680 0.269680 0.269680 0.269680 0.269680 0.269680 0.264906 0.264906 0.264906 0.264906 0.264906 0.264906 0.264906 0.264906 0.264906 0.264906 0.264906 0.269680 0.269680 0.269680 0.269680 0.269680 0.269680 0.269680 0.269680 0.269680 0.269680 0.251976 0.251976 0.251976 0.251976 0.251976 0.251976 0.251976 0.251976 0.251976 0.251976 0.251976 0.269680 0.269680 0.269680 0.269680 0.269680 0.269680 0.269680 0.269680 0.269680 0.256074 0.256074 0.256074 0.256074 0.256074 0.256074 0.256074 0.256074 0.256074 0.256074 0.260378 0.260378 0.260378 0.260378 0.260378 0.260378 0.260378 0.260378 0.260378 0.256074 0.256074 0.256074 0.256074 0.256074 0.256074 0.256074 0.256074 0.256074 0.251976 0.251976 0.251976 0.251976 0.251976 0.251976 0.251976 0.251976 0.251976 0.251976 0.251976 0.251976 0.251976 0.251976 0.251976 0.251976 0.251976
