# Output from CTFFind version 4.1.9, run on 2019-11-03 19:00:51
# Input file: stack6_bm3d_averaged_1_2.25_0_2500_half.mrc ; Number of micrographs: 1
# Pixel size: 3.000 Angstroms ; acceleration voltage: 300.0 keV ; spherical aberration: 0.00 mm ; amplitude contrast: 0.07
# Box size: 512 pixels ; min. res.: 30.0 Angstroms ; max. res.: 5.0 Angstroms ; min. def.: 5000.0 um; max. def. 50000.0 um; num. frames averaged: 1
# 6 lines per micrograph: #1 - spatial frequency (1/Angstroms); #2 - 1D rotational average of spectrum (assuming no astigmatism); #3 - 1D rotational average of spectrum; #4 - CTF fit; #5 - cross-correlation between spectrum and CTF fit; #6 - 2sigma of expected cross correlation of noise
0.000000 0.000651 0.001302 0.001953 0.002604 0.003255 0.003906 0.004557 0.005208 0.005859 0.006510 0.007161 0.007812 0.008464 0.009115 0.009766 0.010417 0.011068 0.011719 0.012370 0.013021 0.013672 0.014323 0.014974 0.015625 0.016276 0.016927 0.017578 0.018229 0.018880 0.019531 0.020182 0.020833 0.021484 0.022135 0.022786 0.023438 0.024089 0.024740 0.025391 0.026042 0.026693 0.027344 0.027995 0.028646 0.029297 0.029948 0.030599 0.031250 0.031901 0.032552 0.033203 0.033854 0.034505 0.035156 0.035807 0.036458 0.037109 0.037760 0.038411 0.039062 0.039714 0.040365 0.041016 0.041667 0.042318 0.042969 0.043620 0.044271 0.044922 0.045573 0.046224 0.046875 0.047526 0.048177 0.048828 0.049479 0.050130 0.050781 0.051432 0.052083 0.052734 0.053385 0.054036 0.054688 0.055339 0.055990 0.056641 0.057292 0.057943 0.058594 0.059245 0.059896 0.060547 0.061198 0.061849 0.062500 0.063151 0.063802 0.064453 0.065104 0.065755 0.066406 0.067057 0.067708 0.068359 0.069010 0.069661 0.070312 0.070964 0.071615 0.072266 0.072917 0.073568 0.074219 0.074870 0.075521 0.076172 0.076823 0.077474 0.078125 0.078776 0.079427 0.080078 0.080729 0.081380 0.082031 0.082682 0.083333 0.083984 0.084635 0.085286 0.085938 0.086589 0.087240 0.087891 0.088542 0.089193 0.089844 0.090495 0.091146 0.091797 0.092448 0.093099 0.093750 0.094401 0.095052 0.095703 0.096354 0.097005 0.097656 0.098307 0.098958 0.099609 0.100260 0.100911 0.101562 0.102214 0.102865 0.103516 0.104167 0.104818 0.105469 0.106120 0.106771 0.107422 0.108073 0.108724 0.109375 0.110026 0.110677 0.111328 0.111979 0.112630 0.113281 0.113932 0.114583 0.115234 0.115885 0.116536 0.117188 0.117839 0.118490 0.119141 0.119792 0.120443 0.121094 0.121745 0.122396 0.123047 0.123698 0.124349 0.125000 0.125651 0.126302 0.126953 0.127604 0.128255 0.128906 0.129557 0.130208 0.130859 0.131510 0.132161 0.132812 0.133464 0.134115 0.134766 0.135417 0.136068 0.136719 0.137370 0.138021 0.138672 0.139323 0.139974 0.140625 0.141276 0.141927 0.142578 0.143229 0.143880 0.144531 0.145182 0.145833 0.146484 0.147135 0.147786 0.148438 0.149089 0.149740 0.150391 0.151042 0.151693 0.152344 0.152995 0.153646 0.154297 0.154948 0.155599 0.156250 0.156901 0.157552 0.158203 0.158854 0.159505 0.160156 0.160807 0.161458 0.162109 0.162760 0.163411 0.164062 0.164714 0.165365 0.166016 0.166667 0.167318 0.167969 0.168620 0.169271 0.169922 0.170573 0.171224 0.171875 0.172526 0.173177 0.173828 0.174479 0.175130 0.175781 0.176432 0.177083 0.177734 0.178385 0.179036 0.179688 0.180339 0.180990 0.181641 0.182292 0.182943 0.183594 0.184245 0.184896 0.185547 0.186198 0.186849 0.187500 0.188151 0.188802 0.189453 0.190104 0.190755 0.191406 0.192057 0.192708 0.193359 0.194010 0.194661 0.195312 0.195964 0.196615 0.197266 0.197917 0.198568 0.199219 0.199870 0.200521 0.201172 0.201823 0.202474 0.203125 0.203776 0.204427 0.205078 0.205729 0.206380 0.207031 0.207682 0.208333 0.208984 0.209635 0.210286 0.210938 0.211589 0.212240 0.212891 0.213542 0.214193 0.214844 0.215495 0.216146 0.216797 0.217448 0.218099 0.218750 0.219401 0.220052 0.220703 0.221354 0.222005 0.222656 0.223307 0.223958 0.224609 0.225260 0.225911 0.226562 0.227214 0.227865 0.228516 0.229167 0.229818 0.230469 0.231120 0.231771 0.232422 0.233073 0.233724 0.234375 0.235026 0.235677
       0.30521        0.30521        0.30521        0.30521        0.30521        0.30521        0.30521        0.30521        0.30521        0.30521        0.30521        0.30521        0.30521        0.30521        0.30521        0.30521        0.30521        0.30521        0.30521        0.30521        0.30521        0.30521        0.30521        0.30521        0.30521        0.30521        0.30521        0.30521        0.30521        0.30521        0.30521        0.30521        0.30521        0.30521        0.30521        0.30521        0.30521        0.30521        0.30521        0.30521        0.30521        0.30521        0.30521        0.30521        0.30521        0.30521        0.30521        0.30521        0.30521        0.30521        0.30521        0.62726        0.79326        0.39602        0.28823        0.17308       -0.11151        0.11581        0.01112        0.03306        0.11097        0.34462        0.41564        0.38213        0.21550       -0.02015        0.03711        0.07034       -0.17464       -0.17920       -0.08830       -0.11426       -0.29906       -0.19133       -0.31353       -0.26724       -0.28422       -0.40713       -0.46875       -0.46337       -0.41067       -0.34686       -0.42593       -0.34572       -0.40933       -0.35212       -0.27487       -0.20565       -0.19401       -0.11655       -0.07002        0.03863        0.07694        0.24310        0.30374        0.37657        0.39686        0.51168        0.57665        0.60855        0.71919        0.68256        0.73762        0.64015        0.65969        0.67971        0.62526        0.61699        0.61552        0.41652        0.38156        0.35264        0.33092        0.21753        0.12998        0.05999        0.05403        0.00069       -0.07948       -0.01532       -0.03836       -0.07867        0.06655        0.16870        0.26135        0.30916        0.32451        0.40886        0.51623        0.55745        0.51322        0.66376        0.55061        0.52121        0.59732        0.60984        0.53032        0.47707        0.41333        0.37989        0.23617        0.19125        0.12367        0.12367        0.08235        0.05798        0.08423        0.14084        0.13611        0.15621        0.21962        0.24407        0.32909        0.43773        0.46525        0.47799        0.51514        0.57285        0.54862        0.52266        0.40675        0.39721        0.35383        0.27241        0.23886        0.21437        0.17945        0.18430        0.17168        0.16953        0.13628        0.19514        0.24088        0.33717        0.38095        0.40013        0.46081        0.51517        0.44727        0.47593        0.42280        0.40832        0.38994        0.36902        0.28274        0.25022        0.19376        0.21999        0.22342        0.20090        0.21032        0.20391        0.24501        0.32051        0.39928        0.37881        0.37197        0.39149        0.44768        0.44576        0.42608        0.35288        0.32003        0.28449        0.28377        0.25432        0.21590        0.28220        0.29741        0.29608        0.30340        0.31154        0.31081        0.36769        0.35184        0.35294        0.36312        0.32332        0.32340        0.30718        0.28689        0.27016        0.25688        0.22630        0.27012        0.26552        0.29725        0.31028        0.34298        0.35594        0.31901        0.30781        0.34714        0.35580        0.26116        0.29461        0.28620        0.23810        0.22458        0.27635        0.26074        0.26276        0.30110        0.29918        0.32444        0.33500        0.35293        0.30323        0.31385        0.30551        0.28368        0.26393        0.24145        0.22884        0.24935        0.27416        0.29736        0.29055        0.28499        0.31458        0.33674        0.27795        0.30147        0.27520        0.26130        0.23626        0.23672        0.24350        0.26385        0.30227        0.26551        0.29909        0.28277        0.27807        0.30393        0.26990        0.31579        0.31576        0.29659        0.25873        0.26046        0.26002        0.25469        0.30892        0.30410        0.33700        0.30338        0.29247        0.27435        0.31078        0.23829        0.20295        0.27345        0.27753        0.26801        0.27046        0.29834        0.29274        0.35045        0.30205        0.24401        0.22452        0.23072        0.28133        0.29729        0.29265        0.24825        0.26308        0.26184        0.29603        0.27152        0.23969        0.26839        0.25567        0.29370        0.23336        0.27269        0.33181        0.29705        0.22371        0.25701        0.28112        0.29234        0.21778        0.24181        0.25441        0.26666        0.28334        0.35793        0.28493        0.26646        0.26913        0.25750        0.20569        0.18029        0.22665        0.22334        0.20651        0.19346        0.21085        0.25614        0.24015        0.24870        0.21829        0.17945        0.21909        0.22115        0.17676        0.17424        0.19527        0.22190        0.16146        0.05113        0.17084        0.15571        0.09769        0.18365        0.07300        0.10345        0.13840       -0.19554       -0.48992       -0.88987
2.871381 2.843044 2.814853 2.786807 2.758908 2.731154 2.703546 2.676084 2.648768 2.621599 2.594574 2.567696 2.540964 2.514377 2.487937 2.461642 2.435493 2.409491 2.383634 2.357922 2.332357 2.306938 2.281665 2.256537 2.231556 2.206720 2.182030 2.157487 2.133089 2.108836 2.084730 2.060770 2.036956 2.013287 1.989765 1.966388 1.943157 1.920072 1.897133 1.874340 1.851693 1.829192 1.806837 1.784627 1.762564 1.740646 1.718874 1.697248 1.675768 1.654434 1.633246 1.940884 2.269226 1.688668 1.721393 1.375273 0.928816 1.207540 1.054980 1.094173 1.017699 1.529237 1.518309 1.536366 1.270051 0.944581 0.810661 1.023794 0.720019 0.477299 0.597715 0.675737 0.412516 0.480903 0.314878 0.339263 0.248164 0.167991 -0.051422 0.010397 0.039203 0.060735 0.045282 0.120028 -0.049528 0.019242 0.103052 0.220978 0.265153 0.246955 0.342630 0.576138 0.435395 0.712421 0.851578 0.896904 0.903465 1.135097 1.134478 1.198222 1.325969 1.210443 1.392010 1.184636 1.129291 1.312113 1.128627 1.073310 1.162166 0.875116 0.722079 0.674083 0.676306 0.476863 0.395622 0.269033 0.206807 0.110180 -0.023909 0.117014 0.003157 -0.069393 0.105772 0.263266 0.332445 0.460883 0.473885 0.537693 0.698363 0.774424 0.624825 0.955769 0.803236 0.653322 0.762763 0.771689 0.709974 0.673878 0.458290 0.533465 0.259780 0.179927 0.116705 -0.007913 0.014481 -0.082210 -0.037774 -0.018730 0.063924 -0.074073 0.231243 0.131511 0.192784 0.382672 0.398164 0.507627 0.411995 0.579247 0.641401 0.481131 0.393632 0.328270 0.312321 0.148973 0.110330 0.031922 0.058328 -0.018992 -0.012561 -0.033840 -0.101123 -0.015687 0.004172 0.112558 0.271784 0.215753 0.351183 0.358990 0.402748 0.389960 0.431536 0.349935 0.220488 0.344009 0.164673 0.168985 -0.003294 0.054897 0.058310 0.000761 0.002295 -0.002652 0.047912 0.108420 0.245216 0.297275 0.226597 0.228532 0.375546 0.345989 0.344126 0.243063 0.163797 0.154898 0.101154 0.094235 0.023273 0.018020 0.148022 0.052983 0.166190 0.088236 0.123648 0.200886 0.201860 0.189744 0.185717 0.223177 0.123096 0.152994 0.102601 0.078922 0.101278 -0.031214 0.058422 0.083120 0.044697 0.138662 0.118166 0.203737 0.193564 0.121689 0.122478 0.228735 0.125411 0.064094 0.114837 0.038159 0.026452 0.006339 0.083273 0.052234 0.029917 0.136593 0.101488 0.130797 0.161770 0.159073 0.134503 0.094341 0.110636 0.073821 0.027640 0.013472 0.005823 0.010642 0.068766 0.109486 0.083440 0.049435 0.107727 0.127298 0.013872 0.093525 0.042272 0.002816 -0.018260 -0.021298 -0.018809 0.061052 0.062882 -0.011791 0.072888 0.053764 0.014825 0.073735 0.009593 0.061544 0.090588 0.010396 0.004371 -0.020264 0.012681 -0.018508 0.063060 0.063870 0.095011 0.011948 0.108467 0.005824 0.083581 -0.084643 -0.049967 0.012109 0.010758 0.032625 -0.023901 0.075038 0.039658 0.108353 0.004749 -0.056749 -0.068792 -0.086819 0.067054 0.013298 0.037744 -0.050682 -0.027676 -0.023675 0.042186 -0.009392 -0.038847 0.012103 -0.065898 0.055941 -0.062312 0.035057 0.101593 0.024759 -0.054760 0.041953 0.032829 0.035390 -0.078537 0.002736 -0.016638 0.076291 0.089717 0.167336 0.058279 0.039309 0.068772 0.064564 -0.053232 -0.019774 0.031755 0.040483 -0.011652 -0.008194 0.038392 0.132546 0.031307 0.184783 0.028370 0.031020 0.082576 0.122800 -0.016992 0.047644 0.030237 0.169973 0.064621 -0.013202 0.242424 0.222756 0.141195 0.318563 0.146969 0.105669 0.291740 -0.278371 -1.266277
0.072396 0.072835 0.074150 0.076341 0.079409 0.083351 0.088169 0.093859 0.100421 0.107853 0.116151 0.125314 0.135338 0.146217 0.157946 0.170520 0.183930 0.198168 0.213223 0.229083 0.245735 0.263163 0.281349 0.300273 0.319913 0.340243 0.361235 0.382858 0.405077 0.427854 0.451147 0.474911 0.499095 0.523646 0.548504 0.573607 0.598887 0.624270 0.649680 0.675032 0.700239 0.725207 0.749838 0.774028 0.797669 0.820645 0.842840 0.864128 0.884384 0.903475 0.921266 0.937619 0.952393 0.965444 0.976629 0.985802 0.992818 0.997533 0.999806 0.999497 0.996472 0.990601 0.981762 0.969841 0.954731 0.936339 0.914582 0.889392 0.860716 0.828519 0.792782 0.753509 0.710725 0.664478 0.614839 0.561907 0.505808 0.446695 0.384751 0.320189 0.253253 0.184217 0.113384 0.041092 0.032295 0.106382 0.180747 0.254941 0.328493 0.400907 0.471672 0.540258 0.606126 0.668728 0.727514 0.781936 0.831453 0.875539 0.913686 0.945411 0.970265 0.987837 0.997763 0.999731 0.993487 0.978845 0.955689 0.923983 0.883774 0.835194 0.778470 0.713923 0.641971 0.563130 0.478014 0.387332 0.291889 0.192576 0.090370 0.013678 0.118451 0.222775 0.325434 0.425178 0.520748 0.610881 0.694338 0.769913 0.836458 0.892903 0.938270 0.971698 0.992460 0.999979 0.993851 0.973850 0.939950 0.892333 0.831395 0.757751 0.672236 0.575907 0.470027 0.356063 0.235664 0.110646 0.017034 0.145305 0.272016 0.394968 0.511953 0.620798 0.719402 0.805787 0.878132 0.934824 0.974495 0.996064 0.998765 0.982186 0.946285 0.891412 0.818318 0.728155 0.622469 0.503187 0.372586 0.233257 0.088063 0.059913 0.207438 0.351189 0.487831 0.614102 0.726881 0.823283 0.900732 0.957039 0.990473 0.999824 0.984452 0.944330 0.880064 0.792906 0.684742 0.558070 0.415949 0.261944 0.100038 0.065456 0.230013 0.389011 0.537865 0.672164 0.787802 0.881115 0.949009 0.989071 0.999671 0.980038 0.930316 0.851593 0.745897 0.616165 0.466182 0.300479 0.124220 0.056959 0.237123 0.410218 0.570292 0.711696 0.829291 0.918649 0.976231 0.999553 0.987300 0.939418 0.857158 0.743069 0.600946 0.435726 0.253336 0.060491 0.135529 0.327168 0.506861 0.667356 0.802006 0.905059 0.971923 0.999391 0.985818 0.931237 0.837409 0.707801 0.547482 0.362965 0.161947 0.046982 0.254705 0.451961 0.629775 0.779860 0.895032 0.969563 0.999503 0.982908 0.919994 0.813190 0.667077 0.488234 0.284970 0.066953 0.155216 0.370525 0.568089 0.737709 0.870411 0.958951 0.998237 0.985650 0.921258 0.807877 0.651000 0.458567 0.240599 0.008706 0.224521 0.446176 0.643761 0.805901 0.923025 0.987954 0.996385 0.947213 0.842677 0.688318 0.492728 0.267112 0.024687 0.220079 0.452315 0.657656 0.823144 0.938074 0.994722 0.988910 0.920355 0.792789 0.613807 0.394473 0.148689 0.107682 0.357795 0.584933 0.773643 0.910802 0.986575 0.995166 0.935315 0.810485 0.628742 0.402282 0.146673 0.120190 0.379303 0.611918 0.800904 0.932040 0.995132 0.984858 0.901281 0.749959 0.541655 0.291630 0.018578 0.256746 0.513079 0.730296 0.891038 0.982113 0.995659 0.929879 0.789319 0.584636 0.331872 0.051243 0.234435 0.501574 0.727780 0.893741 0.984942 0.992983 0.916435 0.761110 0.539708 0.270849 0.022415 0.314557 0.579765 0.794250 0.938404 0.998663 0.968852 0.850907 0.654849 0.398036 0.103704 0.201091 0.487928 0.729668 0.903057 0.991024 0.984433 0.883125 0.696111 0.440872 0.141812 0.172000 0.469651 0.721389 0.901661
1.000000 1.000000 1.000000 1.000000 1.000000 1.000000 1.000000 1.000000 1.000000 1.000000 1.000000 1.000000 1.000000 1.000000 1.000000 1.000000 1.000000 1.000000 1.000000 1.000000 1.000000 1.000000 1.000000 1.000000 1.000000 1.000000 1.000000 1.000000 1.000000 1.000000 1.000000 1.000000 1.000000 1.000000 1.000000 1.000000 1.000000 1.000000 1.000000 1.000000 1.000000 1.000000 1.000000 1.000000 1.000000 1.000000 1.000000 1.000000 1.000000 1.000000 1.000000 1.000000 0.835978 0.835978 0.835978 0.835978 0.835978 0.835978 0.835978 0.813730 0.813730 0.813730 0.813730 0.813730 0.813730 0.813730 0.813730 0.813730 0.813730 0.813730 0.813730 0.813730 0.813730 0.813730 0.813730 0.813730 0.813730 0.813730 0.813730 0.813730 0.813730 0.813730 0.813730 0.813730 0.813730 0.813730 0.813730 0.813730 0.813730 0.813730 0.813730 0.813730 0.813730 0.813730 0.813730 0.813730 0.813730 0.813730 0.813730 0.813730 0.813730 0.813730 0.813730 0.953251 0.953908 0.954117 0.953079 0.951486 0.948011 0.943872 0.943414 0.944742 0.944953 0.945572 0.946880 0.947829 0.949383 0.950337 0.951111 0.951888 0.959975 0.963680 0.963429 0.962618 0.962533 0.969363 0.968763 0.966488 0.966959 0.967132 0.967787 0.967764 0.967655 0.967191 0.966640 0.967131 0.967012 0.966466 0.965691 0.963827 0.963903 0.963569 0.963684 0.964520 0.965188 0.965794 0.966185 0.966126 0.966217 0.964825 0.964089 0.953276 0.953245 0.945937 0.945671 0.944620 0.941909 0.940843 0.939322 0.939398 0.939310 0.938244 0.938152 0.937039 0.923544 0.923733 0.923245 0.924042 0.919038 0.908952 0.904034 0.900556 0.902187 0.906126 0.910522 0.909434 0.905714 0.904479 0.890834 0.882977 0.866999 0.861316 0.851089 0.859519 0.860667 0.862145 0.859373 0.858540 0.857120 0.854998 0.843837 0.848619 0.841837 0.836767 0.833748 0.832039 0.831001 0.833528 0.836939 0.825935 0.809933 0.810787 0.795679 0.778738 0.776580 0.780874 0.790879 0.804858 0.803553 0.802190 0.787961 0.783183 0.770260 0.762092 0.763777 0.766823 0.764545 0.772513 0.773566 0.783328 0.775561 0.779034 0.781697 0.793739 0.804635 0.809680 0.810374 0.806275 0.809313 0.786409 0.786617 0.787966 0.761640 0.765087 0.765072 0.764568 0.768368 0.769554 0.766362 0.763129 0.759467 0.737499 0.748200 0.752914 0.732492 0.739619 0.720067 0.711421 0.673650 0.675091 0.675734 0.685513 0.687949 0.686530 0.676432 0.689030 0.703419 0.696474 0.702218 0.700032 0.684764 0.683497 0.692454 0.690026 0.668170 0.667548 0.665802 0.656055 0.652822 0.634532 0.646162 0.637495 0.626855 0.620292 0.582323 0.570619 0.560155 0.543062 0.520525 0.497237 0.503703 0.497375 0.483469 0.474664 0.454621 0.403098 0.418439 0.417057 0.399063 0.389302 0.374321 0.322606 0.343743 0.337875 0.339011 0.314675 0.293927 0.265192 0.211334 0.200254 0.169194 0.197530 0.214806 0.200643 0.185371 0.182313 0.190500 0.201781 0.225217 0.223545 0.250115 0.225651 0.184736 0.205311 0.197574 0.183602 0.171629 0.138511 0.175950 0.165947 0.171045 0.177987 0.131541 0.098685 0.066947 0.073319 0.085497 0.113421 0.138954 0.125955 0.104608 0.006735 0.041651 0.068670 0.068670 0.068670 0.068670 0.068670 0.068670 0.068670 0.068670 0.068670 0.068670 0.068670 0.001751 0.001751 0.001751 0.001751 0.001751 0.001751 0.001751 0.001751 0.001751 0.001751 0.001751 0.001751 0.001751 0.001751 0.001751 0.001751 0.001751 0.001751 0.001751
0.000000 0.000000 0.000000 0.000000 0.000000 0.000000 0.000000 0.000000 0.000000 0.000000 0.000000 0.000000 0.000000 0.000000 0.000000 0.000000 0.000000 0.000000 0.000000 0.000000 0.000000 0.000000 0.000000 0.000000 0.000000 0.000000 0.000000 0.000000 0.000000 0.000000 0.000000 0.000000 0.000000 0.000000 0.000000 0.000000 0.000000 0.000000 0.000000 0.000000 0.000000 0.000000 0.000000 0.000000 0.000000 0.000000 0.000000 0.000000 0.000000 0.000000 0.000000 0.000000 0.173422 0.173422 0.173422 0.173422 0.173422 0.173422 0.173422 0.191565 0.191565 0.191565 0.191565 0.191565 0.191565 0.191565 0.191565 0.191565 0.191565 0.191565 0.191565 0.191565 0.191565 0.191565 0.191565 0.191565 0.191565 0.191565 0.191565 0.191565 0.191565 0.191565 0.191565 0.191565 0.191565 0.191565 0.191565 0.191565 0.191565 0.191565 0.191565 0.191565 0.191565 0.191565 0.191565 0.191565 0.191565 0.191565 0.191565 0.191565 0.191565 0.191565 0.191565 0.219529 0.219529 0.219529 0.219529 0.219529 0.219529 0.219529 0.219529 0.219529 0.219529 0.219529 0.219529 0.219529 0.219529 0.219529 0.219529 0.219529 0.219529 0.219529 0.219529 0.219529 0.219529 0.219529 0.219529 0.219529 0.219529 0.219529 0.219529 0.219529 0.219529 0.219529 0.237356 0.237356 0.237356 0.237356 0.237356 0.237356 0.237356 0.237356 0.237356 0.237356 0.237356 0.237356 0.237356 0.237356 0.237356 0.237356 0.237356 0.237356 0.237356 0.237356 0.237356 0.237356 0.237356 0.237356 0.244339 0.244339 0.244339 0.244339 0.244339 0.244339 0.244339 0.244339 0.244339 0.244339 0.244339 0.244339 0.244339 0.244339 0.244339 0.244339 0.244339 0.244339 0.244339 0.244339 0.244339 0.248069 0.248069 0.248069 0.248069 0.248069 0.248069 0.248069 0.248069 0.248069 0.248069 0.248069 0.248069 0.248069 0.248069 0.248069 0.248069 0.248069 0.248069 0.248069 0.248069 0.248069 0.248069 0.248069 0.248069 0.248069 0.248069 0.248069 0.248069 0.248069 0.248069 0.248069 0.248069 0.248069 0.248069 0.248069 0.248069 0.248069 0.256074 0.256074 0.256074 0.256074 0.256074 0.256074 0.256074 0.256074 0.256074 0.256074 0.256074 0.256074 0.256074 0.256074 0.256074 0.256074 0.256074 0.256074 0.256074 0.256074 0.256074 0.256074 0.256074 0.256074 0.256074 0.256074 0.256074 0.256074 0.256074 0.256074 0.256074 0.256074 0.256074 0.256074 0.256074 0.256074 0.256074 0.256074 0.256074 0.256074 0.256074 0.256074 0.256074 0.256074 0.256074 0.260378 0.260378 0.260378 0.260378 0.260378 0.260378 0.260378 0.260378 0.260378 0.260378 0.260378 0.260378 0.260378 0.256074 0.256074 0.256074 0.256074 0.256074 0.256074 0.256074 0.256074 0.256074 0.256074 0.256074 0.256074 0.256074 0.260378 0.260378 0.260378 0.260378 0.260378 0.260378 0.260378 0.260378 0.260378 0.260378 0.260378 0.260378 0.251976 0.251976 0.251976 0.251976 0.251976 0.251976 0.251976 0.251976 0.251976 0.251976 0.251976 0.251976 0.256074 0.256074 0.256074 0.256074 0.256074 0.256074 0.256074 0.256074 0.256074 0.256074 0.256074 0.251976 0.251976 0.251976 0.251976 0.251976 0.251976 0.251976 0.251976 0.251976 0.251976 0.251976 0.248069 0.248069 0.248069 0.248069 0.248069 0.248069 0.248069 0.248069 0.248069 0.248069 0.248069 0.256074 0.256074 0.256074 0.256074 0.256074 0.256074 0.256074 0.256074 0.256074 0.256074 0.256074 0.256074 0.256074 0.256074 0.256074 0.256074 0.256074 0.256074 0.256074
