# Output from CTFFind version 4.1.9, run on 2019-11-04 22:09:04
# Input file: stack16_bm3d_averaged_1_0_0_1250_half.mrc ; Number of micrographs: 1
# Pixel size: 3.000 Angstroms ; acceleration voltage: 300.0 keV ; spherical aberration: 0.00 mm ; amplitude contrast: 0.07
# Box size: 512 pixels ; min. res.: 30.0 Angstroms ; max. res.: 5.0 Angstroms ; min. def.: 5000.0 um; max. def. 50000.0 um; num. frames averaged: 1
# 6 lines per micrograph: #1 - spatial frequency (1/Angstroms); #2 - 1D rotational average of spectrum (assuming no astigmatism); #3 - 1D rotational average of spectrum; #4 - CTF fit; #5 - cross-correlation between spectrum and CTF fit; #6 - 2sigma of expected cross correlation of noise
0.000000 0.000651 0.001302 0.001953 0.002604 0.003255 0.003906 0.004557 0.005208 0.005859 0.006510 0.007161 0.007812 0.008464 0.009115 0.009766 0.010417 0.011068 0.011719 0.012370 0.013021 0.013672 0.014323 0.014974 0.015625 0.016276 0.016927 0.017578 0.018229 0.018880 0.019531 0.020182 0.020833 0.021484 0.022135 0.022786 0.023438 0.024089 0.024740 0.025391 0.026042 0.026693 0.027344 0.027995 0.028646 0.029297 0.029948 0.030599 0.031250 0.031901 0.032552 0.033203 0.033854 0.034505 0.035156 0.035807 0.036458 0.037109 0.037760 0.038411 0.039062 0.039714 0.040365 0.041016 0.041667 0.042318 0.042969 0.043620 0.044271 0.044922 0.045573 0.046224 0.046875 0.047526 0.048177 0.048828 0.049479 0.050130 0.050781 0.051432 0.052083 0.052734 0.053385 0.054036 0.054688 0.055339 0.055990 0.056641 0.057292 0.057943 0.058594 0.059245 0.059896 0.060547 0.061198 0.061849 0.062500 0.063151 0.063802 0.064453 0.065104 0.065755 0.066406 0.067057 0.067708 0.068359 0.069010 0.069661 0.070312 0.070964 0.071615 0.072266 0.072917 0.073568 0.074219 0.074870 0.075521 0.076172 0.076823 0.077474 0.078125 0.078776 0.079427 0.080078 0.080729 0.081380 0.082031 0.082682 0.083333 0.083984 0.084635 0.085286 0.085938 0.086589 0.087240 0.087891 0.088542 0.089193 0.089844 0.090495 0.091146 0.091797 0.092448 0.093099 0.093750 0.094401 0.095052 0.095703 0.096354 0.097005 0.097656 0.098307 0.098958 0.099609 0.100260 0.100911 0.101562 0.102214 0.102865 0.103516 0.104167 0.104818 0.105469 0.106120 0.106771 0.107422 0.108073 0.108724 0.109375 0.110026 0.110677 0.111328 0.111979 0.112630 0.113281 0.113932 0.114583 0.115234 0.115885 0.116536 0.117188 0.117839 0.118490 0.119141 0.119792 0.120443 0.121094 0.121745 0.122396 0.123047 0.123698 0.124349 0.125000 0.125651 0.126302 0.126953 0.127604 0.128255 0.128906 0.129557 0.130208 0.130859 0.131510 0.132161 0.132812 0.133464 0.134115 0.134766 0.135417 0.136068 0.136719 0.137370 0.138021 0.138672 0.139323 0.139974 0.140625 0.141276 0.141927 0.142578 0.143229 0.143880 0.144531 0.145182 0.145833 0.146484 0.147135 0.147786 0.148438 0.149089 0.149740 0.150391 0.151042 0.151693 0.152344 0.152995 0.153646 0.154297 0.154948 0.155599 0.156250 0.156901 0.157552 0.158203 0.158854 0.159505 0.160156 0.160807 0.161458 0.162109 0.162760 0.163411 0.164062 0.164714 0.165365 0.166016 0.166667 0.167318 0.167969 0.168620 0.169271 0.169922 0.170573 0.171224 0.171875 0.172526 0.173177 0.173828 0.174479 0.175130 0.175781 0.176432 0.177083 0.177734 0.178385 0.179036 0.179688 0.180339 0.180990 0.181641 0.182292 0.182943 0.183594 0.184245 0.184896 0.185547 0.186198 0.186849 0.187500 0.188151 0.188802 0.189453 0.190104 0.190755 0.191406 0.192057 0.192708 0.193359 0.194010 0.194661 0.195312 0.195964 0.196615 0.197266 0.197917 0.198568 0.199219 0.199870 0.200521 0.201172 0.201823 0.202474 0.203125 0.203776 0.204427 0.205078 0.205729 0.206380 0.207031 0.207682 0.208333 0.208984 0.209635 0.210286 0.210938 0.211589 0.212240 0.212891 0.213542 0.214193 0.214844 0.215495 0.216146 0.216797 0.217448 0.218099 0.218750 0.219401 0.220052 0.220703 0.221354 0.222005 0.222656 0.223307 0.223958 0.224609 0.225260 0.225911 0.226562 0.227214 0.227865 0.228516 0.229167 0.229818 0.230469 0.231120 0.231771 0.232422 0.233073 0.233724 0.234375 0.235026 0.235677
       0.34281        0.34281        0.34281        0.34281        0.34281        0.34281        0.34281        0.34281        0.34281        0.34281        0.34281        0.34281        0.34281        0.34281        0.34281        0.34281        0.34281        0.34281        0.34281        0.34281        0.34281        0.34281        0.34281        0.34281        0.34281        0.34281        0.34281        0.34281        0.34281        0.34281        0.34281        0.34281        0.34281        0.34281        0.34281        0.34281        0.34281        0.34281        0.34281        0.34281        0.34281        0.34281        0.34281        0.34281        0.34281        0.34281        0.34281        0.34281        0.34281        0.34281        0.34281        0.48906        0.70361        0.45497       -0.11090       -0.41360       -0.57196       -0.66212       -0.74668       -0.76365       -0.86936       -0.91442       -0.76042       -0.92551       -0.87221       -1.02464       -1.09649       -0.98985       -0.96247       -0.88418       -0.86361       -0.75212       -0.64188       -0.50111       -0.42414       -0.21826       -0.11841       -0.02303        0.20379        0.24365        0.30820        0.38593        0.43963        0.51668        0.58116        0.59498        0.59226        0.50255        0.54610        0.48628        0.39066        0.32357        0.20690        0.17310        0.10316       -0.06220       -0.11181       -0.09288        0.00910       -0.01738        0.01022        0.02923        0.21050        0.21967        0.39093        0.45713        0.56209        0.70046        0.76040        0.72883        0.70699        0.70357        0.58501        0.54343        0.39993        0.27221        0.19287        0.14360        0.06551        0.02167        0.02286        0.06131        0.07756        0.27078        0.41747        0.50491        0.58730        0.63865        0.70543        0.66109        0.65124        0.67153        0.61001        0.47998        0.28361        0.23363        0.20563        0.13051        0.04717        0.09242        0.12309        0.25004        0.33861        0.41448        0.50038        0.53854        0.66341        0.61054        0.55561        0.50858        0.36640        0.21032        0.21177        0.15212        0.11194        0.12019        0.21543        0.25335        0.36001        0.44277        0.44014        0.56752        0.51103        0.44657        0.45220        0.38375        0.32372        0.27706        0.21903        0.23747        0.20954        0.21187        0.32518        0.44782        0.48615        0.47933        0.55030        0.49575        0.45630        0.39541        0.29305        0.22426        0.23203        0.24661        0.26710        0.27259        0.32370        0.44245        0.49825        0.48598        0.45951        0.41849        0.38694        0.36265        0.24828        0.22753        0.24676        0.29402        0.35328        0.36228        0.39245        0.40852        0.44344        0.37012        0.34821        0.31327        0.30327        0.26590        0.25885        0.31105        0.34551        0.41601        0.41661        0.39840        0.39406        0.40789        0.34997        0.28850        0.29044        0.27506        0.31006        0.36024        0.36551        0.41508        0.35971        0.36663        0.39035        0.34634        0.31568        0.27902        0.29699        0.34022        0.33202        0.32643        0.37667        0.39620        0.33524        0.35241        0.29439        0.30807        0.28901        0.28201        0.30055        0.33089        0.38297        0.36618        0.34731        0.32794        0.28536        0.27735        0.29647        0.28184        0.31331        0.36857        0.39406        0.33836        0.31782        0.31165        0.29709        0.28056        0.27811        0.29868        0.34119        0.33616        0.34400        0.31681        0.34659        0.32450        0.28718        0.31564        0.32193        0.33116        0.33498        0.31886        0.31643        0.30742        0.32755        0.31224        0.33501        0.38921        0.33712        0.36080        0.32190        0.31505        0.28924        0.31069        0.28971        0.31045        0.31633        0.35236        0.36261        0.31807        0.32191        0.31422        0.29252        0.29289        0.28994        0.33489        0.34217        0.35694        0.33503        0.32575        0.25812        0.26804        0.31254        0.35018        0.31621        0.29994        0.28598        0.28689        0.32519        0.30729        0.30658        0.33358        0.34512        0.31426        0.24262        0.28856        0.28174        0.28719        0.32085        0.32027        0.34591        0.34311        0.27826        0.26452        0.29135        0.26680        0.28724        0.27604        0.24691        0.26595        0.24703        0.27858        0.27884        0.27572        0.26530        0.31652        0.32756        0.31554        0.29153        0.31000        0.24505        0.27064        0.25461        0.33728        0.34191        0.23184        0.25761        0.26982        0.24532        0.25105        0.29757        0.22826        0.14585        0.17561        0.25346        0.27940        0.23073        0.14459        0.02864       -0.40846       -0.74041
3.162609 3.122912 3.083472 3.044287 3.005360 2.966688 2.928273 2.890114 2.852211 2.814565 2.777175 2.740041 2.703164 2.666543 2.630178 2.594070 2.558218 2.522623 2.487283 2.452200 2.417373 2.382803 2.348489 2.314432 2.280630 2.247085 2.213796 2.180764 2.147988 2.115468 2.083205 2.051198 2.019447 1.987953 1.956715 1.925733 1.895007 1.864538 1.834326 1.804369 1.774669 1.745225 1.716038 1.687107 1.658432 1.630013 1.601851 1.573945 1.546296 1.518903 1.491766 1.548085 1.739872 1.647912 0.994758 0.707073 0.497808 0.451474 0.338529 0.280850 0.215524 0.034141 0.211191 0.092832 0.004029 -0.049543 -0.190829 -0.144817 -0.084980 -0.085406 -0.093939 0.015623 0.036110 0.240952 0.154448 0.372421 0.453298 0.484377 0.725526 0.708572 0.715971 0.847885 0.830772 0.862818 0.930287 0.899195 0.947516 0.757670 0.841806 0.845543 0.622632 0.608998 0.456839 0.435217 0.386118 0.204401 0.114437 0.094055 0.199281 0.139847 0.186480 0.103300 0.300069 0.289929 0.452053 0.410510 0.576521 0.639918 0.762119 0.688204 0.657953 0.663963 0.526491 0.499077 0.361336 0.282654 0.105432 0.134129 -0.011993 -0.028207 -0.052569 -0.042451 -0.015914 0.019262 0.262336 0.321597 0.372597 0.389053 0.458970 0.487710 0.437842 0.486007 0.380654 0.368513 0.131566 0.042647 0.049012 -0.025146 -0.148132 -0.066941 -0.134066 -0.005305 0.112596 0.134380 0.232787 0.236170 0.365158 0.440353 0.332274 0.365976 0.259800 0.102469 0.024285 0.026354 -0.014381 -0.023435 -0.018246 0.084722 0.106223 0.241822 0.215834 0.287575 0.353956 0.217191 0.229683 0.201714 0.117687 0.066339 0.038922 0.012375 0.026298 -0.030348 0.016031 0.174328 0.211368 0.237755 0.270116 0.238755 0.246988 0.155052 0.113116 -0.016065 -0.011153 0.004557 0.025962 0.017812 0.037511 0.114639 0.199983 0.216349 0.219223 0.135582 0.146657 0.080232 0.056146 -0.060276 -0.014802 -0.008100 0.054617 0.065701 0.077794 0.152532 0.086954 0.171317 0.069718 0.049453 0.050976 0.028531 0.001427 0.010683 0.056467 0.084536 0.136838 0.140293 0.074270 0.134151 0.103662 0.020432 0.008955 0.006495 -0.004724 0.060502 0.063338 0.100518 0.098097 0.081112 0.065565 0.084283 0.035994 0.014097 -0.012670 0.014924 0.057866 0.030512 0.042717 0.081133 0.088922 0.059177 0.030769 0.007320 0.015924 -0.005918 -0.012034 0.015487 0.057056 0.103242 0.060631 0.058503 0.040970 -0.014247 0.000033 0.014737 0.012193 0.027240 0.105983 0.060918 0.024369 0.044680 0.003192 0.026548 -0.012574 -0.003267 0.023340 0.066107 0.039074 0.044180 0.032092 0.056774 0.029081 -0.004265 0.031652 0.044445 0.039323 0.037345 0.027766 0.007142 -0.005746 0.028492 0.009763 0.046169 0.079726 0.049252 0.025779 0.014347 0.003652 -0.003212 0.008027 0.003238 0.013642 -0.003381 0.088265 0.052771 0.036716 0.039952 0.004796 0.009593 0.011068 -0.006268 0.058071 0.063140 0.087640 0.047891 0.051260 -0.025893 0.016212 0.037056 0.077399 0.027802 0.037293 0.008876 0.005276 0.051430 0.046576 0.035329 0.070514 0.072191 0.060700 -0.022718 0.020727 0.041662 0.026201 0.046992 0.069225 0.081717 0.073732 0.016537 0.003194 0.016430 0.000402 0.017533 -0.013715 -0.029776 -0.006991 -0.048473 0.002614 -0.005730 0.004700 -0.071656 0.005634 0.016517 0.001620 -0.031695 0.033361 -0.091687 -0.024107 -0.036575 0.038837 0.068532 -0.104778 -0.016171 0.035604 0.018071 -0.039706 0.045495 0.031475 0.004843 -0.044197 0.084441 0.244528 0.203710 0.107506 0.028461 -0.656571
0.072396 0.073046 0.074994 0.078241 0.082784 0.088624 0.095757 0.104181 0.113891 0.124883 0.137149 0.150683 0.165473 0.181506 0.198769 0.217241 0.236902 0.257724 0.279679 0.302729 0.326835 0.351950 0.378020 0.404985 0.432776 0.461318 0.490526 0.520306 0.550553 0.581155 0.611987 0.642913 0.673788 0.704454 0.734742 0.764471 0.793451 0.821478 0.848340 0.873811 0.897661 0.919648 0.939523 0.957033 0.971918 0.983917 0.992770 0.998215 0.999998 0.997870 0.991595 0.980946 0.965718 0.945725 0.920803 0.890822 0.855680 0.815316 0.769707 0.718879 0.662904 0.601911 0.536083 0.465665 0.390965 0.312354 0.230273 0.145229 0.057796 0.031386 0.121611 0.212113 0.302070 0.390608 0.476811 0.559728 0.638381 0.711782 0.778940 0.838877 0.890646 0.933342 0.966124 0.988230 0.998996 0.997873 0.984447 0.958455 0.919800 0.868567 0.805033 0.729683 0.643210 0.546521 0.440741 0.327201 0.207437 0.083170 0.043710 0.171170 0.297060 0.419151 0.535172 0.642850 0.739966 0.824392 0.894154 0.947476 0.982838 0.999023 0.995162 0.970782 0.925836 0.860736 0.776369 0.674104 0.555793 0.423747 0.280714 0.129829 0.025446 0.181386 0.334096 0.479600 0.613948 0.733332 0.834194 0.913348 0.968091 0.996310 0.996579 0.968239 0.911457 0.827273 0.717604 0.585239 0.433786 0.267602 0.091685 0.088462 0.266993 0.437906 0.595243 0.733304 0.846871 0.931415 0.983301 0.999970 0.980083 0.923636 0.832022 0.708042 0.555860 0.380902 0.189686 0.010389 0.211318 0.404798 0.582578 0.736810 0.860414 0.947438 0.993358 0.995364 0.952551 0.866054 0.739076 0.576824 0.386352 0.176280 0.043548 0.262520 0.469749 0.654620 0.807357 0.919552 0.984679 0.998509 0.959436 0.868667 0.730267 0.551046 0.340285 0.109300 0.129122 0.361418 0.574011 0.754116 0.890535 0.974400 0.999799 0.964256 0.869010 0.719076 0.523066 0.292762 0.042471 0.211835 0.453500 0.666295 0.835516 0.949053 0.998311 0.978935 0.891265 0.740472 0.536358 0.292801 0.026890 0.242237 0.494742 0.711553 0.875843 0.974381 0.998688 0.945844 0.818906 0.626861 0.384098 0.109421 0.175339 0.447032 0.683059 0.863285 0.971822 0.998518 0.940004 0.800202 0.590209 0.327548 0.034784 0.262324 0.537062 0.764182 0.922265 0.995820 0.976920 0.866177 0.672930 0.414619 0.115328 0.196374 0.490102 0.736616 0.910795 0.994266 0.977482 0.860942 0.655435 0.381202 0.066082 0.257213 0.554456 0.793526 0.947956 0.999972 0.942681 0.781142 0.532125 0.222541 0.113326 0.437540 0.712781 0.906684 0.995749 0.968350 0.826425 0.585601 0.273673 0.072439 0.410968 0.700311 0.904178 0.996268 0.963823 0.809597 0.551895 0.222620 0.136506 0.479135 0.760258 0.942171 0.999690 0.923823 0.723389 0.424261 0.066244 0.302071 0.629821 0.870927 0.990678 0.970927 0.813070 0.538314 0.185088 0.196135 0.549942 0.824023 0.977012 0.984909 0.845101 0.577255 0.220835 0.170490 0.536788 0.821038 0.978101 0.982091 0.830914 0.547133 0.174916 0.226609 0.592625 0.863079 0.992671 0.958675 0.765218 0.443185 0.045604 0.360889 0.707079 0.933050 0.998713 0.891208 0.627744 0.253219 0.167163 0.559022 0.851985 0.992424 0.953550 0.740856 0.391788 0.030489 0.448309 0.783664 0.972915 0.979060 0.799347 0.466492 0.043123 0.389750 0.748068 0.961179 0.985947 0.815882 0.483149 0.052914 0.389112 0.753637 0.965871 0.981143 0.794674 0.443370 0.001071 0.446450 0.799115 0.983729 0.959665 0.730377 0.343495 0.118621 0.556146
1.000000 1.000000 1.000000 1.000000 1.000000 1.000000 1.000000 1.000000 1.000000 1.000000 1.000000 1.000000 1.000000 1.000000 1.000000 1.000000 1.000000 1.000000 1.000000 1.000000 1.000000 1.000000 1.000000 1.000000 1.000000 1.000000 1.000000 1.000000 1.000000 1.000000 1.000000 1.000000 1.000000 1.000000 1.000000 1.000000 1.000000 1.000000 1.000000 1.000000 1.000000 1.000000 1.000000 1.000000 1.000000 1.000000 1.000000 1.000000 1.000000 1.000000 1.000000 1.000000 0.943084 0.943084 0.943084 0.943084 0.943084 0.943084 0.943084 0.943084 0.943084 0.943084 0.943084 0.943084 0.943084 0.943084 0.943084 0.943084 0.943084 0.943084 0.943084 0.943084 0.943084 0.943084 0.943084 0.943084 0.943084 0.943084 0.943084 0.943084 0.943084 0.943084 0.943084 0.943084 0.943084 0.924059 0.925511 0.928455 0.929518 0.929482 0.929030 0.928712 0.928917 0.930612 0.932909 0.949561 0.951690 0.952351 0.953653 0.954094 0.957028 0.955901 0.958861 0.967748 0.966724 0.967048 0.967518 0.968997 0.969374 0.969353 0.968099 0.968379 0.967991 0.967172 0.966342 0.966049 0.965760 0.967376 0.967700 0.967638 0.968927 0.968817 0.968501 0.964914 0.963569 0.964860 0.966551 0.966196 0.972406 0.972706 0.980037 0.979887 0.978366 0.978262 0.978360 0.978482 0.967404 0.961116 0.955388 0.943880 0.934537 0.932296 0.934640 0.935632 0.934436 0.930197 0.929293 0.927058 0.922308 0.921560 0.921527 0.923026 0.919222 0.915510 0.898199 0.896903 0.898994 0.898249 0.896270 0.888470 0.883991 0.884675 0.887754 0.890699 0.887900 0.890168 0.885918 0.887129 0.887842 0.889827 0.893126 0.889557 0.888526 0.884509 0.880926 0.875845 0.877222 0.864485 0.867659 0.861654 0.850268 0.842808 0.845912 0.856017 0.864459 0.872690 0.871593 0.871620 0.870735 0.865736 0.866189 0.858815 0.859954 0.865435 0.871783 0.867022 0.864423 0.869111 0.867149 0.870681 0.872702 0.868217 0.866403 0.856848 0.857136 0.859372 0.876994 0.876104 0.864882 0.859509 0.851554 0.858757 0.862420 0.861732 0.862449 0.854405 0.856023 0.846637 0.835151 0.837007 0.841695 0.836631 0.837911 0.835744 0.838852 0.840805 0.839599 0.834829 0.833708 0.840608 0.817339 0.825243 0.829907 0.825350 0.829504 0.822322 0.816109 0.811456 0.811076 0.809380 0.818340 0.816864 0.786455 0.776032 0.784220 0.766187 0.758139 0.753743 0.753924 0.726301 0.703554 0.676407 0.670602 0.661911 0.664643 0.660073 0.649264 0.635295 0.620876 0.618963 0.635120 0.636061 0.601855 0.602264 0.594325 0.589395 0.584617 0.584053 0.580500 0.587521 0.593184 0.558186 0.554305 0.560355 0.535174 0.534853 0.533403 0.525536 0.497125 0.504653 0.501038 0.518593 0.539896 0.503657 0.498387 0.506703 0.523421 0.535946 0.536010 0.520625 0.498238 0.506538 0.480311 0.462732 0.478455 0.490576 0.476674 0.494885 0.486576 0.519094 0.513458 0.499110 0.524574 0.543121 0.542342 0.524835 0.537671 0.513724 0.516790 0.499664 0.457790 0.471412 0.459164 0.412812 0.405754 0.422078 0.408962 0.409858 0.384034 0.384175 0.361835 0.327073 0.342548 0.336495 0.304066 0.262644 0.263598 0.266034 0.234217 0.206354 0.225796 0.174054 0.165462 0.183687 0.195881 0.199377 0.190047 0.210920 0.210920 0.210920 0.210920 0.210920 0.210920 0.210920 0.210920 0.210920 0.210920 0.210920 0.210920 0.210920 0.210920 0.237500 0.237500 0.237500 0.237500 0.237500 0.237500 0.237500 0.237500 0.237500 0.237500 0.237500 0.237500
0.000000 0.000000 0.000000 0.000000 0.000000 0.000000 0.000000 0.000000 0.000000 0.000000 0.000000 0.000000 0.000000 0.000000 0.000000 0.000000 0.000000 0.000000 0.000000 0.000000 0.000000 0.000000 0.000000 0.000000 0.000000 0.000000 0.000000 0.000000 0.000000 0.000000 0.000000 0.000000 0.000000 0.000000 0.000000 0.000000 0.000000 0.000000 0.000000 0.000000 0.000000 0.000000 0.000000 0.000000 0.000000 0.000000 0.000000 0.000000 0.000000 0.000000 0.000000 0.000000 0.209657 0.209657 0.209657 0.209657 0.209657 0.209657 0.209657 0.209657 0.209657 0.209657 0.209657 0.209657 0.209657 0.209657 0.209657 0.209657 0.209657 0.209657 0.209657 0.209657 0.209657 0.209657 0.209657 0.209657 0.209657 0.209657 0.209657 0.209657 0.209657 0.209657 0.209657 0.209657 0.209657 0.244339 0.244339 0.244339 0.244339 0.244339 0.244339 0.244339 0.244339 0.244339 0.244339 0.244339 0.244339 0.244339 0.244339 0.244339 0.244339 0.244339 0.244339 0.244339 0.244339 0.244339 0.244339 0.244339 0.244339 0.244339 0.260378 0.260378 0.260378 0.260378 0.260378 0.260378 0.260378 0.260378 0.260378 0.260378 0.260378 0.260378 0.260378 0.260378 0.260378 0.260378 0.260378 0.260378 0.260378 0.260378 0.269680 0.269680 0.269680 0.269680 0.269680 0.269680 0.269680 0.269680 0.269680 0.269680 0.269680 0.269680 0.269680 0.269680 0.269680 0.269680 0.269680 0.269680 0.269680 0.269680 0.269680 0.269680 0.269680 0.269680 0.269680 0.269680 0.269680 0.269680 0.269680 0.269680 0.269680 0.269680 0.269680 0.280056 0.280056 0.280056 0.280056 0.280056 0.280056 0.280056 0.280056 0.280056 0.280056 0.280056 0.280056 0.280056 0.280056 0.280056 0.280056 0.280056 0.280056 0.280056 0.280056 0.280056 0.280056 0.280056 0.280056 0.280056 0.280056 0.280056 0.274721 0.274721 0.274721 0.274721 0.274721 0.274721 0.274721 0.274721 0.274721 0.274721 0.274721 0.274721 0.274721 0.285714 0.285714 0.285714 0.285714 0.285714 0.285714 0.285714 0.285714 0.285714 0.285714 0.285714 0.280056 0.280056 0.280056 0.280056 0.280056 0.280056 0.280056 0.280056 0.280056 0.280056 0.280056 0.274721 0.274721 0.274721 0.274721 0.274721 0.274721 0.274721 0.274721 0.274721 0.274721 0.274721 0.280056 0.280056 0.280056 0.280056 0.280056 0.280056 0.280056 0.280056 0.280056 0.280056 0.285714 0.285714 0.285714 0.285714 0.285714 0.285714 0.285714 0.285714 0.285714 0.269680 0.269680 0.269680 0.269680 0.269680 0.269680 0.269680 0.269680 0.269680 0.269680 0.274721 0.274721 0.274721 0.274721 0.274721 0.274721 0.274721 0.274721 0.274721 0.285714 0.285714 0.285714 0.285714 0.285714 0.285714 0.285714 0.285714 0.264906 0.264906 0.264906 0.264906 0.264906 0.264906 0.264906 0.264906 0.264906 0.274721 0.274721 0.274721 0.274721 0.274721 0.274721 0.274721 0.274721 0.269680 0.269680 0.269680 0.269680 0.269680 0.269680 0.269680 0.269680 0.269680 0.269680 0.269680 0.269680 0.269680 0.269680 0.269680 0.269680 0.280056 0.280056 0.280056 0.280056 0.280056 0.280056 0.280056 0.260378 0.260378 0.260378 0.260378 0.260378 0.260378 0.260378 0.260378 0.269680 0.269680 0.269680 0.269680 0.269680 0.269680 0.269680 0.264906 0.264906 0.264906 0.264906 0.264906 0.264906 0.264906 0.264906 0.264906 0.264906 0.264906 0.264906 0.264906 0.264906 0.260378 0.260378 0.260378 0.260378 0.260378 0.260378 0.260378 0.260378 0.260378 0.260378 0.260378 0.260378
