# Output from CTFFind version 4.1.9, run on 2019-11-03 19:42:01
# Input file: stack1_bm3d_averaged_1_4.75_0_2000_half.mrc ; Number of micrographs: 1
# Pixel size: 3.000 Angstroms ; acceleration voltage: 300.0 keV ; spherical aberration: 0.00 mm ; amplitude contrast: 0.07
# Box size: 512 pixels ; min. res.: 30.0 Angstroms ; max. res.: 5.0 Angstroms ; min. def.: 5000.0 um; max. def. 50000.0 um; num. frames averaged: 1
# 6 lines per micrograph: #1 - spatial frequency (1/Angstroms); #2 - 1D rotational average of spectrum (assuming no astigmatism); #3 - 1D rotational average of spectrum; #4 - CTF fit; #5 - cross-correlation between spectrum and CTF fit; #6 - 2sigma of expected cross correlation of noise
0.000000 0.000651 0.001302 0.001953 0.002604 0.003255 0.003906 0.004557 0.005208 0.005859 0.006510 0.007161 0.007812 0.008464 0.009115 0.009766 0.010417 0.011068 0.011719 0.012370 0.013021 0.013672 0.014323 0.014974 0.015625 0.016276 0.016927 0.017578 0.018229 0.018880 0.019531 0.020182 0.020833 0.021484 0.022135 0.022786 0.023438 0.024089 0.024740 0.025391 0.026042 0.026693 0.027344 0.027995 0.028646 0.029297 0.029948 0.030599 0.031250 0.031901 0.032552 0.033203 0.033854 0.034505 0.035156 0.035807 0.036458 0.037109 0.037760 0.038411 0.039062 0.039714 0.040365 0.041016 0.041667 0.042318 0.042969 0.043620 0.044271 0.044922 0.045573 0.046224 0.046875 0.047526 0.048177 0.048828 0.049479 0.050130 0.050781 0.051432 0.052083 0.052734 0.053385 0.054036 0.054688 0.055339 0.055990 0.056641 0.057292 0.057943 0.058594 0.059245 0.059896 0.060547 0.061198 0.061849 0.062500 0.063151 0.063802 0.064453 0.065104 0.065755 0.066406 0.067057 0.067708 0.068359 0.069010 0.069661 0.070312 0.070964 0.071615 0.072266 0.072917 0.073568 0.074219 0.074870 0.075521 0.076172 0.076823 0.077474 0.078125 0.078776 0.079427 0.080078 0.080729 0.081380 0.082031 0.082682 0.083333 0.083984 0.084635 0.085286 0.085938 0.086589 0.087240 0.087891 0.088542 0.089193 0.089844 0.090495 0.091146 0.091797 0.092448 0.093099 0.093750 0.094401 0.095052 0.095703 0.096354 0.097005 0.097656 0.098307 0.098958 0.099609 0.100260 0.100911 0.101562 0.102214 0.102865 0.103516 0.104167 0.104818 0.105469 0.106120 0.106771 0.107422 0.108073 0.108724 0.109375 0.110026 0.110677 0.111328 0.111979 0.112630 0.113281 0.113932 0.114583 0.115234 0.115885 0.116536 0.117188 0.117839 0.118490 0.119141 0.119792 0.120443 0.121094 0.121745 0.122396 0.123047 0.123698 0.124349 0.125000 0.125651 0.126302 0.126953 0.127604 0.128255 0.128906 0.129557 0.130208 0.130859 0.131510 0.132161 0.132812 0.133464 0.134115 0.134766 0.135417 0.136068 0.136719 0.137370 0.138021 0.138672 0.139323 0.139974 0.140625 0.141276 0.141927 0.142578 0.143229 0.143880 0.144531 0.145182 0.145833 0.146484 0.147135 0.147786 0.148438 0.149089 0.149740 0.150391 0.151042 0.151693 0.152344 0.152995 0.153646 0.154297 0.154948 0.155599 0.156250 0.156901 0.157552 0.158203 0.158854 0.159505 0.160156 0.160807 0.161458 0.162109 0.162760 0.163411 0.164062 0.164714 0.165365 0.166016 0.166667 0.167318 0.167969 0.168620 0.169271 0.169922 0.170573 0.171224 0.171875 0.172526 0.173177 0.173828 0.174479 0.175130 0.175781 0.176432 0.177083 0.177734 0.178385 0.179036 0.179688 0.180339 0.180990 0.181641 0.182292 0.182943 0.183594 0.184245 0.184896 0.185547 0.186198 0.186849 0.187500 0.188151 0.188802 0.189453 0.190104 0.190755 0.191406 0.192057 0.192708 0.193359 0.194010 0.194661 0.195312 0.195964 0.196615 0.197266 0.197917 0.198568 0.199219 0.199870 0.200521 0.201172 0.201823 0.202474 0.203125 0.203776 0.204427 0.205078 0.205729 0.206380 0.207031 0.207682 0.208333 0.208984 0.209635 0.210286 0.210938 0.211589 0.212240 0.212891 0.213542 0.214193 0.214844 0.215495 0.216146 0.216797 0.217448 0.218099 0.218750 0.219401 0.220052 0.220703 0.221354 0.222005 0.222656 0.223307 0.223958 0.224609 0.225260 0.225911 0.226562 0.227214 0.227865 0.228516 0.229167 0.229818 0.230469 0.231120 0.231771 0.232422 0.233073 0.233724 0.234375 0.235026 0.235677
       0.35722        0.35722        0.35722        0.35722        0.35722        0.35722        0.35722        0.35722        0.35722        0.35722        0.35722        0.35722        0.35722        0.35722        0.35722        0.35722        0.35722        0.35722        0.35722        0.35722        0.35722        0.35722        0.35722        0.35722        0.35722        0.35722        0.35722        0.35722        0.35722        0.35722        0.35722        0.35722        0.35722        0.35722        0.35722        0.35722        0.35722        0.35722        0.35722        0.35722        0.35722        0.35722        0.35722        0.35722        0.35722        0.35722        0.35722        0.35722        0.35722        0.35722        0.35722        0.43655        0.63600        0.31608        0.15602       -0.01502       -0.25841       -0.07642       -0.15790       -0.17119        0.02376       -0.11209       -0.11074       -0.04577       -0.02451       -0.11966       -0.15081       -0.29689       -0.42172       -0.51233       -0.46537       -0.37156       -0.28026       -0.41740       -0.32640       -0.43732       -0.35407       -0.40325       -0.23280       -0.22069       -0.26123       -0.11370       -0.06762       -0.04575        0.08556        0.03875        0.20485        0.20625        0.33075        0.37785        0.48324        0.51287        0.55988        0.61159        0.70490        0.60165        0.56081        0.51468        0.50773        0.59348        0.49911        0.45955        0.41680        0.32913        0.28939        0.30844        0.30062        0.20610        0.19127        0.07420        0.13126        0.12690        0.13263        0.11774        0.16892        0.23178        0.30042        0.29998        0.32733        0.46954        0.46011        0.49874        0.64331        0.64046        0.57545        0.57707        0.58622        0.45230        0.48419        0.37614        0.33523        0.29783        0.23646        0.24211        0.20493        0.16910        0.18392        0.24027        0.24626        0.27946        0.33855        0.35560        0.39872        0.47857        0.49065        0.47110        0.47773        0.57189        0.50050        0.50237        0.45087        0.37733        0.35006        0.26719        0.29945        0.23569        0.22899        0.28120        0.22730        0.24842        0.32426        0.39507        0.42281        0.47009        0.44773        0.51238        0.49381        0.46579        0.42421        0.40812        0.38164        0.38468        0.40419        0.38195        0.28358        0.32453        0.29304        0.29440        0.30193        0.35606        0.38786        0.41562        0.46538        0.49952        0.44621        0.43445        0.45335        0.40194        0.35762        0.37828        0.33107        0.33810        0.31926        0.33116        0.30379        0.34359        0.35639        0.39509        0.43731        0.43921        0.41885        0.39958        0.38655        0.38764        0.30421        0.32425        0.35368        0.28424        0.33659        0.32353        0.34199        0.35477        0.35343        0.38036        0.38888        0.46132        0.39180        0.35979        0.37356        0.32672        0.32999        0.34184        0.33022        0.36191        0.33658        0.36257        0.35108        0.40465        0.37905        0.39026        0.41465        0.39807        0.35987        0.34338        0.34664        0.32019        0.36549        0.33152        0.34191        0.35444        0.37805        0.34396        0.35460        0.34074        0.30006        0.29748        0.28528        0.31423        0.35302        0.35486        0.34477        0.31549        0.36372        0.34753        0.34534        0.31855        0.33246        0.35009        0.33124        0.30883        0.35748        0.33953        0.33914        0.31658        0.33227        0.35637        0.33409        0.31385        0.33688        0.30290        0.30900        0.36199        0.33162        0.32773        0.36496        0.32859        0.33091        0.37213        0.34610        0.29173        0.29682        0.27748        0.33815        0.34508        0.35605        0.32304        0.30070        0.34210        0.32441        0.28720        0.32457        0.33285        0.33300        0.35401        0.31869        0.28859        0.32832        0.31874        0.35374        0.32935        0.29912        0.35558        0.38725        0.39455        0.31880        0.34792        0.31828        0.33301        0.29420        0.35091        0.33734        0.25651        0.28695        0.36323        0.33449        0.32645        0.30548        0.34119        0.31961        0.29912        0.29484        0.32223        0.30709        0.26451        0.26590        0.29832        0.33018        0.28543        0.28973        0.31140        0.32915        0.28634        0.35021        0.31520        0.30749        0.30428        0.25346        0.31481        0.28413        0.24648        0.21320        0.21076        0.22115        0.24360        0.30181        0.26342        0.34608        0.28723        0.30442        0.28653        0.23384        0.27231        0.29215        0.23546        0.16909        0.22940        0.31468        0.44557        0.35716       -0.04215        0.03291       -0.41818       -0.73645
3.098042 3.064065 3.030276 2.996676 2.963263 2.930039 2.897003 2.864155 2.831496 2.799024 2.766741 2.734646 2.702740 2.671021 2.639491 2.608149 2.576996 2.546030 2.515253 2.484664 2.454263 2.424050 2.394026 2.364190 2.334542 2.305083 2.275811 2.246728 2.217833 2.189126 2.160608 2.132277 2.104135 2.076181 2.048416 2.020838 1.993449 1.966248 1.939236 1.912411 1.885775 1.859327 1.833067 1.806996 1.781112 1.755417 1.729910 1.704592 1.679461 1.654519 1.629765 1.612899 1.986653 1.485621 1.306560 1.038593 0.491640 0.955698 0.575655 0.731299 0.924938 0.726926 0.613365 0.801273 0.752576 0.644347 0.570362 0.351076 0.088742 -0.002560 -0.013021 -0.016276 0.392754 -0.037945 0.104960 -0.032037 0.039777 -0.054438 0.168952 0.165526 0.085581 0.249843 0.350650 0.296824 0.489789 0.405345 0.678013 0.555354 0.811244 0.764205 0.921998 1.062904 0.965377 1.128636 1.215145 1.027572 0.975089 0.895562 0.897034 0.961031 0.861008 0.790902 0.679501 0.585373 0.497693 0.480782 0.489097 0.312113 0.324812 0.147405 0.115995 0.171089 0.142560 0.089320 0.149014 0.205067 0.329719 0.322563 0.375187 0.388853 0.589515 0.385401 0.758507 0.755586 0.601369 0.632868 0.662977 0.462308 0.411246 0.381939 0.210868 0.229848 0.036619 0.122456 -0.013378 -0.005571 -0.071443 -0.018529 0.077248 0.026309 0.092693 0.176856 0.215951 0.255329 0.352927 0.328840 0.304514 0.410258 0.370181 0.344163 0.293801 0.217775 0.122891 0.047552 -0.028941 -0.016438 -0.133599 -0.003911 -0.027062 -0.107097 -0.072692 0.070011 0.207856 0.198308 0.254939 0.187430 0.335378 0.223237 0.218537 0.239742 0.112306 0.081004 0.225901 0.084718 0.048163 -0.002035 0.050242 -0.047444 0.032772 -0.020014 0.152317 0.072855 0.166013 0.280161 0.262864 0.104692 0.194509 0.150438 0.110627 0.055143 0.056911 0.027849 -0.003813 0.019596 -0.027581 -0.052346 0.085419 0.022658 0.146336 0.123483 0.137388 0.060754 0.071392 0.083847 0.005157 -0.078854 -0.012073 -0.011518 -0.076348 -0.013220 -0.035632 0.029160 -0.022693 0.054259 0.095018 0.114405 0.206899 0.023339 0.098088 0.063149 -0.030621 0.039699 0.021263 0.022662 0.089546 0.023441 0.046640 0.005342 0.114748 0.086327 0.098641 0.158536 0.053832 0.059496 0.027085 0.027498 0.003353 0.075956 0.019273 0.047951 0.016674 0.088574 0.017223 0.051854 0.018439 -0.034237 -0.038233 -0.046253 0.007445 0.066564 0.067371 0.040052 0.017048 0.103183 0.000117 0.072202 0.012879 0.025630 0.064964 0.010550 0.030964 0.073700 0.034135 0.021513 0.062667 0.065766 0.063603 0.060767 0.035683 0.056230 -0.031539 0.035017 0.103093 0.046815 0.034592 0.109486 0.002841 -0.002145 0.088562 0.012746 -0.010729 -0.054872 -0.066193 0.061189 0.050535 0.033888 0.006134 -0.046845 0.089764 -0.044626 -0.022706 0.012666 0.035615 0.048456 0.043948 -0.008077 -0.009170 0.021883 0.034876 0.014615 0.040899 -0.008893 0.092528 0.125903 0.090541 -0.013666 0.022682 0.042349 -0.009745 -0.036025 0.032441 0.032637 -0.097081 -0.025379 0.085435 0.002884 0.028760 -0.061190 0.159593 -0.013704 0.039709 -0.039094 0.080114 -0.017437 -0.025597 -0.052567 0.005245 0.079695 0.000938 0.049538 0.007859 0.136259 -0.045804 0.132456 0.049746 0.003373 0.045573 -0.068102 0.106624 -0.049902 -0.066500 -0.117595 -0.111458 -0.105191 -0.215262 0.023492 -0.073586 0.066446 -0.140053 0.002105 -0.094520 -0.250723 -0.064031 0.367304 0.296065 0.157736 0.316261 0.556615 0.684671 0.542529 -0.317838 0.052498 -1.042850
0.072396 0.072911 0.074456 0.077030 0.080632 0.085263 0.090920 0.097601 0.105305 0.114029 0.123768 0.134519 0.146276 0.159031 0.172777 0.187504 0.203200 0.219851 0.237442 0.255953 0.275364 0.295649 0.316782 0.338730 0.361458 0.384927 0.409092 0.433904 0.459308 0.485245 0.511649 0.538449 0.565567 0.592919 0.620412 0.647951 0.675429 0.702735 0.729749 0.756345 0.782389 0.807741 0.832254 0.855773 0.878140 0.899187 0.918744 0.936636 0.952684 0.966705 0.978516 0.987932 0.994768 0.998842 0.999975 0.997992 0.992726 0.984017 0.971718 0.955690 0.935813 0.911982 0.884111 0.852137 0.816018 0.775742 0.731322 0.682804 0.630267 0.573825 0.513627 0.449863 0.382763 0.312597 0.239678 0.164361 0.087043 0.008164 0.071796 0.152317 0.232843 0.312781 0.391509 0.468380 0.542721 0.613846 0.681057 0.743654 0.800942 0.852237 0.896878 0.934234 0.963714 0.984778 0.996947 0.999812 0.993044 0.976405 0.949758 0.913073 0.866436 0.810056 0.744273 0.669555 0.586509 0.495874 0.398525 0.295465 0.187822 0.076837 0.036142 0.149681 0.262271 0.372346 0.478309 0.578554 0.671486 0.755557 0.829285 0.891291 0.940321 0.975282 0.995265 0.999576 0.987754 0.959603 0.915200 0.854915 0.779419 0.689687 0.586996 0.472915 0.349294 0.218235 0.082069 0.056685 0.195360 0.331192 0.461372 0.583107 0.693681 0.790522 0.871260 0.933804 0.976391 0.997653 0.996663 0.972983 0.926693 0.858422 0.769348 0.661204 0.536253 0.397261 0.247438 0.090384 0.069996 0.229580 0.384135 0.529431 0.661352 0.776027 0.869949 0.940087 0.984006 0.999957 0.986963 0.944881 0.874439 0.777258 0.655829 0.513477 0.354286 0.183000 0.004892 0.174391 0.348994 0.513056 0.660900 0.787244 0.887397 0.957452 0.994456 0.996550 0.963085 0.894687 0.793291 0.662106 0.505554 0.329138 0.139269 0.056946 0.251962 0.438089 0.607785 0.753978 0.870373 0.951739 0.994172 0.995305 0.954465 0.872764 0.753111 0.600150 0.420111 0.220584 0.010224 0.201603 0.405245 0.591188 0.750521 0.875370 0.959319 0.997770 0.988219 0.930461 0.826665 0.681354 0.501240 0.294968 0.072714 0.154278 0.374266 0.575606 0.747386 0.880029 0.965865 0.999603 0.978706 0.903609 0.777797 0.607693 0.402384 0.173176 0.066995 0.304273 0.524680 0.714938 0.863297 0.960286 0.999371 0.977433 0.895070 0.756665 0.570220 0.346950 0.100658 0.153089 0.397919 0.617715 0.797688 0.925405 0.991690 0.991339 0.923589 0.792292 0.605778 0.376389 0.119727 0.146367 0.403043 0.631757 0.815637 0.940762 0.997274 0.980214 0.890025 0.732664 0.519294 0.265562 0.009483 0.284787 0.538893 0.751602 0.905641 0.988092 0.991563 0.914920 0.763540 0.549042 0.288462 0.002993 0.283717 0.547490 0.765673 0.919122 0.993938 0.982814 0.885829 0.710629 0.471924 0.190349 0.109251 0.399972 0.655268 0.851386 0.969636 0.998255 0.933669 0.781029 0.553921 0.273266 0.034516 0.339953 0.613310 0.827508 0.960862 0.999360 0.938243 0.782691 0.547526 0.255924 0.062792 0.376025 0.651232 0.859321 0.977803 0.993313 0.903238 0.716234 0.451544 0.137129 0.193178 0.503282 0.758767 0.930757 0.999270 0.955661 0.803849 0.560134 0.251593 0.086820 0.416157 0.697955 0.898741 0.994117 0.971836 0.833522 0.594762 0.283513 0.063051 0.402892 0.694187 0.900507 0.995473 0.966254 0.815462 0.561133 0.234733 0.122588 0.465121 0.748419 0.935126 0.999998 0.933483 0.743287 0.453686 0.102621 0.263193 0.594386 0.845607 0.981841 0.983412
1.000000 1.000000 1.000000 1.000000 1.000000 1.000000 1.000000 1.000000 1.000000 1.000000 1.000000 1.000000 1.000000 1.000000 1.000000 1.000000 1.000000 1.000000 1.000000 1.000000 1.000000 1.000000 1.000000 1.000000 1.000000 1.000000 1.000000 1.000000 1.000000 1.000000 1.000000 1.000000 1.000000 1.000000 1.000000 1.000000 1.000000 1.000000 1.000000 1.000000 1.000000 1.000000 1.000000 1.000000 1.000000 1.000000 1.000000 1.000000 1.000000 1.000000 1.000000 1.000000 0.845748 0.845748 0.873818 0.873818 0.873818 0.873818 0.873818 0.873818 0.873818 0.873818 0.873818 0.873818 0.873818 0.873818 0.873818 0.873818 0.873818 0.873818 0.873818 0.873818 0.873818 0.873818 0.873818 0.873818 0.873818 0.873818 0.873818 0.873818 0.873818 0.873818 0.873818 0.873818 0.873818 0.873818 0.873818 0.873818 0.873818 0.873818 0.873818 0.873818 0.873818 0.873818 0.873818 0.862615 0.869791 0.875567 0.878014 0.879823 0.881511 0.879467 0.877685 0.877684 0.878156 0.879947 0.890653 0.913700 0.928155 0.932166 0.939356 0.940469 0.945412 0.945148 0.951606 0.959674 0.959205 0.959744 0.958216 0.959742 0.949023 0.948321 0.940962 0.963037 0.950315 0.949141 0.939390 0.930892 0.929593 0.928489 0.927661 0.929835 0.919609 0.920434 0.920342 0.919823 0.917026 0.915488 0.909367 0.883974 0.885720 0.890292 0.879700 0.858438 0.844273 0.844950 0.841166 0.841038 0.828348 0.829703 0.830982 0.819630 0.820532 0.820281 0.802445 0.798635 0.796000 0.793128 0.793194 0.793581 0.797452 0.801672 0.801452 0.785119 0.747630 0.735972 0.745600 0.708814 0.697244 0.664781 0.670313 0.673412 0.674404 0.666220 0.660342 0.655546 0.649660 0.656364 0.652343 0.654167 0.653853 0.651802 0.635932 0.622364 0.592234 0.549111 0.561382 0.563495 0.563104 0.559184 0.556522 0.553201 0.569726 0.562506 0.566761 0.550684 0.539478 0.513041 0.494729 0.451185 0.459565 0.500117 0.502193 0.454196 0.476272 0.508017 0.519109 0.531199 0.532900 0.525324 0.487748 0.465021 0.444456 0.446305 0.447941 0.445997 0.445493 0.458197 0.475156 0.497809 0.494774 0.475960 0.475668 0.483381 0.475467 0.493211 0.474798 0.461463 0.442004 0.429116 0.385813 0.398511 0.407448 0.405613 0.382447 0.369382 0.382791 0.383495 0.390282 0.396850 0.392234 0.417001 0.390068 0.414991 0.396780 0.377700 0.384366 0.388244 0.379575 0.369852 0.356962 0.354411 0.352316 0.383736 0.415834 0.417405 0.462694 0.457712 0.445789 0.398282 0.423906 0.407085 0.413338 0.393395 0.359521 0.357413 0.369238 0.388428 0.376961 0.311317 0.287461 0.271380 0.261274 0.247930 0.241597 0.162224 0.124111 0.101166 0.112057 0.122973 0.118604 0.136767 0.100381 0.108984 0.145832 0.149463 0.140650 0.128034 0.122027 0.125431 0.095219 0.133173 0.118398 0.107507 0.130705 0.113138 0.118275 0.081317 0.081024 0.045527 0.042702 0.055256 0.063336 0.001711 -0.013716 -0.006892 -0.000050 0.018106 -0.004093 -0.006682 -0.001802 -0.019943 -0.029136 -0.026697 -0.047736 -0.082443 -0.058893 -0.062405 -0.032665 -0.090206 -0.087357 -0.102030 -0.088447 -0.063085 -0.045896 -0.045411 -0.044630 -0.005952 -0.034706 -0.056964 -0.059095 -0.105062 -0.105150 -0.133107 -0.154167 -0.154167 -0.147238 -0.147238 -0.147238 -0.147238 -0.147238 -0.147238 -0.147238 -0.147238 -0.147238 -0.131242 -0.131242 -0.131242 -0.131242 -0.131242 -0.131242 -0.131242 -0.131242 -0.165365 -0.165365 -0.165365 -0.165365 -0.165365 -0.165365 -0.165365 -0.165365 -0.165365 -0.165365
0.000000 0.000000 0.000000 0.000000 0.000000 0.000000 0.000000 0.000000 0.000000 0.000000 0.000000 0.000000 0.000000 0.000000 0.000000 0.000000 0.000000 0.000000 0.000000 0.000000 0.000000 0.000000 0.000000 0.000000 0.000000 0.000000 0.000000 0.000000 0.000000 0.000000 0.000000 0.000000 0.000000 0.000000 0.000000 0.000000 0.000000 0.000000 0.000000 0.000000 0.000000 0.000000 0.000000 0.000000 0.000000 0.000000 0.000000 0.000000 0.000000 0.000000 0.000000 0.000000 0.181818 0.181818 0.199007 0.199007 0.199007 0.199007 0.199007 0.199007 0.199007 0.199007 0.199007 0.199007 0.199007 0.199007 0.199007 0.199007 0.199007 0.199007 0.199007 0.199007 0.199007 0.199007 0.199007 0.199007 0.199007 0.199007 0.199007 0.199007 0.199007 0.199007 0.199007 0.199007 0.199007 0.199007 0.199007 0.199007 0.199007 0.199007 0.199007 0.199007 0.199007 0.199007 0.199007 0.230940 0.230940 0.230940 0.230940 0.230940 0.230940 0.230940 0.230940 0.230940 0.230940 0.230940 0.230940 0.230940 0.230940 0.230940 0.230940 0.230940 0.230940 0.230940 0.230940 0.230940 0.230940 0.230940 0.230940 0.230940 0.230940 0.230940 0.230940 0.244339 0.244339 0.244339 0.244339 0.244339 0.244339 0.244339 0.244339 0.244339 0.244339 0.244339 0.244339 0.244339 0.244339 0.244339 0.244339 0.244339 0.244339 0.244339 0.244339 0.244339 0.244339 0.244339 0.251976 0.251976 0.251976 0.251976 0.251976 0.251976 0.251976 0.251976 0.251976 0.251976 0.251976 0.251976 0.251976 0.251976 0.251976 0.251976 0.251976 0.251976 0.251976 0.251976 0.264906 0.264906 0.264906 0.264906 0.264906 0.264906 0.264906 0.264906 0.264906 0.264906 0.264906 0.264906 0.264906 0.264906 0.264906 0.264906 0.264906 0.264906 0.264906 0.264906 0.264906 0.264906 0.264906 0.264906 0.264906 0.264906 0.264906 0.264906 0.264906 0.264906 0.264906 0.264906 0.264906 0.264906 0.264906 0.264906 0.264906 0.264906 0.264906 0.264906 0.264906 0.264906 0.264906 0.264906 0.264906 0.264906 0.264906 0.264906 0.264906 0.264906 0.264906 0.264906 0.264906 0.264906 0.264906 0.264906 0.264906 0.264906 0.264906 0.264906 0.264906 0.264906 0.264906 0.264906 0.264906 0.264906 0.264906 0.264906 0.264906 0.264906 0.264906 0.264906 0.264906 0.264906 0.264906 0.269680 0.269680 0.269680 0.269680 0.269680 0.269680 0.269680 0.269680 0.269680 0.269680 0.269680 0.269680 0.264906 0.264906 0.264906 0.264906 0.264906 0.264906 0.264906 0.264906 0.264906 0.264906 0.264906 0.264906 0.269680 0.269680 0.269680 0.269680 0.269680 0.269680 0.269680 0.269680 0.269680 0.269680 0.269680 0.264906 0.264906 0.264906 0.264906 0.264906 0.264906 0.264906 0.264906 0.264906 0.264906 0.264906 0.269680 0.269680 0.269680 0.269680 0.269680 0.269680 0.269680 0.269680 0.269680 0.269680 0.264906 0.264906 0.264906 0.264906 0.264906 0.264906 0.264906 0.264906 0.264906 0.264906 0.260378 0.260378 0.260378 0.260378 0.260378 0.260378 0.260378 0.260378 0.260378 0.260378 0.256074 0.256074 0.256074 0.256074 0.256074 0.256074 0.256074 0.256074 0.256074 0.256074 0.260378 0.260378 0.260378 0.260378 0.260378 0.260378 0.260378 0.260378 0.260378 0.256074 0.256074 0.256074 0.256074 0.256074 0.256074 0.256074 0.256074 0.256074 0.269680 0.269680 0.269680 0.269680 0.269680 0.269680 0.269680 0.269680 0.248069 0.248069 0.248069 0.248069 0.248069 0.248069 0.248069 0.248069 0.248069 0.248069
