# Output from CTFFind version 4.1.9, run on 2019-11-03 19:01:38
# Input file: stack11_bm3d_averaged_1_2.25_0_1250_half.mrc ; Number of micrographs: 1
# Pixel size: 3.000 Angstroms ; acceleration voltage: 300.0 keV ; spherical aberration: 0.00 mm ; amplitude contrast: 0.07
# Box size: 512 pixels ; min. res.: 30.0 Angstroms ; max. res.: 5.0 Angstroms ; min. def.: 5000.0 um; max. def. 50000.0 um; num. frames averaged: 1
# 6 lines per micrograph: #1 - spatial frequency (1/Angstroms); #2 - 1D rotational average of spectrum (assuming no astigmatism); #3 - 1D rotational average of spectrum; #4 - CTF fit; #5 - cross-correlation between spectrum and CTF fit; #6 - 2sigma of expected cross correlation of noise
0.000000 0.000651 0.001302 0.001953 0.002604 0.003255 0.003906 0.004557 0.005208 0.005859 0.006510 0.007161 0.007812 0.008464 0.009115 0.009766 0.010417 0.011068 0.011719 0.012370 0.013021 0.013672 0.014323 0.014974 0.015625 0.016276 0.016927 0.017578 0.018229 0.018880 0.019531 0.020182 0.020833 0.021484 0.022135 0.022786 0.023438 0.024089 0.024740 0.025391 0.026042 0.026693 0.027344 0.027995 0.028646 0.029297 0.029948 0.030599 0.031250 0.031901 0.032552 0.033203 0.033854 0.034505 0.035156 0.035807 0.036458 0.037109 0.037760 0.038411 0.039062 0.039714 0.040365 0.041016 0.041667 0.042318 0.042969 0.043620 0.044271 0.044922 0.045573 0.046224 0.046875 0.047526 0.048177 0.048828 0.049479 0.050130 0.050781 0.051432 0.052083 0.052734 0.053385 0.054036 0.054688 0.055339 0.055990 0.056641 0.057292 0.057943 0.058594 0.059245 0.059896 0.060547 0.061198 0.061849 0.062500 0.063151 0.063802 0.064453 0.065104 0.065755 0.066406 0.067057 0.067708 0.068359 0.069010 0.069661 0.070312 0.070964 0.071615 0.072266 0.072917 0.073568 0.074219 0.074870 0.075521 0.076172 0.076823 0.077474 0.078125 0.078776 0.079427 0.080078 0.080729 0.081380 0.082031 0.082682 0.083333 0.083984 0.084635 0.085286 0.085938 0.086589 0.087240 0.087891 0.088542 0.089193 0.089844 0.090495 0.091146 0.091797 0.092448 0.093099 0.093750 0.094401 0.095052 0.095703 0.096354 0.097005 0.097656 0.098307 0.098958 0.099609 0.100260 0.100911 0.101562 0.102214 0.102865 0.103516 0.104167 0.104818 0.105469 0.106120 0.106771 0.107422 0.108073 0.108724 0.109375 0.110026 0.110677 0.111328 0.111979 0.112630 0.113281 0.113932 0.114583 0.115234 0.115885 0.116536 0.117188 0.117839 0.118490 0.119141 0.119792 0.120443 0.121094 0.121745 0.122396 0.123047 0.123698 0.124349 0.125000 0.125651 0.126302 0.126953 0.127604 0.128255 0.128906 0.129557 0.130208 0.130859 0.131510 0.132161 0.132812 0.133464 0.134115 0.134766 0.135417 0.136068 0.136719 0.137370 0.138021 0.138672 0.139323 0.139974 0.140625 0.141276 0.141927 0.142578 0.143229 0.143880 0.144531 0.145182 0.145833 0.146484 0.147135 0.147786 0.148438 0.149089 0.149740 0.150391 0.151042 0.151693 0.152344 0.152995 0.153646 0.154297 0.154948 0.155599 0.156250 0.156901 0.157552 0.158203 0.158854 0.159505 0.160156 0.160807 0.161458 0.162109 0.162760 0.163411 0.164062 0.164714 0.165365 0.166016 0.166667 0.167318 0.167969 0.168620 0.169271 0.169922 0.170573 0.171224 0.171875 0.172526 0.173177 0.173828 0.174479 0.175130 0.175781 0.176432 0.177083 0.177734 0.178385 0.179036 0.179688 0.180339 0.180990 0.181641 0.182292 0.182943 0.183594 0.184245 0.184896 0.185547 0.186198 0.186849 0.187500 0.188151 0.188802 0.189453 0.190104 0.190755 0.191406 0.192057 0.192708 0.193359 0.194010 0.194661 0.195312 0.195964 0.196615 0.197266 0.197917 0.198568 0.199219 0.199870 0.200521 0.201172 0.201823 0.202474 0.203125 0.203776 0.204427 0.205078 0.205729 0.206380 0.207031 0.207682 0.208333 0.208984 0.209635 0.210286 0.210938 0.211589 0.212240 0.212891 0.213542 0.214193 0.214844 0.215495 0.216146 0.216797 0.217448 0.218099 0.218750 0.219401 0.220052 0.220703 0.221354 0.222005 0.222656 0.223307 0.223958 0.224609 0.225260 0.225911 0.226562 0.227214 0.227865 0.228516 0.229167 0.229818 0.230469 0.231120 0.231771 0.232422 0.233073 0.233724 0.234375 0.235026 0.235677
       0.31597        0.31597        0.31597        0.31597        0.31597        0.31597        0.31597        0.31597        0.31597        0.31597        0.31597        0.31597        0.31597        0.31597        0.31597        0.31597        0.31597        0.31597        0.31597        0.31597        0.31597        0.31597        0.31597        0.31597        0.31597        0.31597        0.31597        0.31597        0.31597        0.31597        0.31597        0.31597        0.31597        0.31597        0.31597        0.31597        0.31597        0.31597        0.31597        0.31597        0.31597        0.31597        0.31597        0.31597        0.31597        0.31597        0.31597        0.31597        0.31597        0.31597        0.31597        0.68046        0.86353        0.52234        0.08764       -0.06160       -0.42620       -0.20396       -0.29972       -0.11909       -0.07659       -0.12011       -0.06946       -0.20716       -0.23470       -0.25503       -0.33114       -0.34099       -0.48528       -0.38197       -0.46253       -0.44986       -0.42261       -0.46459       -0.53129       -0.55746       -0.58641       -0.61754       -0.57625       -0.41128       -0.37815       -0.33133       -0.31465       -0.20910       -0.19982        0.02072        0.08112        0.11279        0.22630        0.36700        0.44002        0.51000        0.55717        0.55326        0.56570        0.69099        0.80751        0.73153        0.73045        0.65559        0.57046        0.48183        0.40677        0.49408        0.37785        0.20772        0.07628        0.04873        0.01791       -0.06107       -0.03283       -0.01204       -0.06468       -0.00942       -0.02014        0.21460        0.25082        0.28622        0.42201        0.45105        0.40210        0.54175        0.62223        0.68734        0.75293        0.68375        0.65078        0.68909        0.57555        0.49075        0.41513        0.28753        0.19646        0.15506        0.10804        0.03819        0.01006        0.00405        0.07263        0.12851        0.20603        0.27307        0.39340        0.42179        0.49991        0.59778        0.62770        0.62099        0.62301        0.55143        0.44375        0.45119        0.35150        0.22715        0.17949        0.14436        0.11839        0.12820        0.08330        0.11132        0.23661        0.26471        0.34707        0.36319        0.44308        0.50951        0.53649        0.54288        0.46734        0.43026        0.38559        0.35463        0.30113        0.25244        0.20648        0.19180        0.16849        0.19834        0.18140        0.27420        0.33370        0.36708        0.42609        0.45741        0.47588        0.43120        0.38672        0.41069        0.36836        0.27759        0.26171        0.22027        0.21964        0.19375        0.22071        0.22991        0.32516        0.37002        0.37126        0.46260        0.42994        0.43405        0.42679        0.39248        0.33999        0.32004        0.27678        0.25193        0.23765        0.27078        0.27446        0.30136        0.30386        0.32971        0.32153        0.40308        0.41651        0.37396        0.34473        0.36287        0.28049        0.28015        0.25915        0.27971        0.26124        0.28026        0.29144        0.30841        0.34472        0.36125        0.36367        0.34098        0.35043        0.28979        0.32116        0.26897        0.24086        0.29084        0.28760        0.31020        0.30717        0.32147        0.32709        0.31463        0.31727        0.28769        0.29106        0.26516        0.28457        0.26256        0.29801        0.28367        0.27035        0.30417        0.31064        0.31641        0.27566        0.30055        0.27593        0.25938        0.24894        0.21612        0.27802        0.27656        0.32772        0.30668        0.31593        0.31530        0.31173        0.27558        0.29451        0.32634        0.26440        0.25730        0.29573        0.28388        0.33756        0.33072        0.34130        0.32700        0.30030        0.27863        0.27090        0.24772        0.22460        0.27711        0.30500        0.29242        0.27877        0.29298        0.27226        0.32779        0.32755        0.25024        0.22075        0.27800        0.32125        0.27506        0.30762        0.32932        0.32350        0.30097        0.31269        0.33600        0.29549        0.27920        0.24839        0.29116        0.35514        0.36333        0.27052        0.26131        0.25509        0.29103        0.21714        0.28587        0.23637        0.24880        0.33426        0.32565        0.34601        0.29680        0.24059        0.23880        0.24098        0.23170        0.20270        0.23161        0.27947        0.29973        0.24409        0.31523        0.31515        0.25952        0.25725        0.19820        0.16074        0.20895        0.21579        0.19737        0.21439        0.22510        0.19124        0.25582        0.35143        0.31264        0.33061        0.23191        0.21448        0.20176        0.27450        0.28194        0.14987        0.23164        0.24157        0.11081        0.18569        0.12709        0.13680        0.22589        0.14335       -0.09723       -0.58934
2.610155 2.582860 2.555713 2.528714 2.501863 2.475161 2.448606 2.422200 2.395942 2.369832 2.343870 2.318057 2.292391 2.266873 2.241504 2.216283 2.191210 2.166285 2.141508 2.116879 2.092399 2.068066 2.043882 2.019846 1.995958 1.972218 1.948626 1.925183 1.901887 1.878740 1.855741 1.832889 1.810187 1.787632 1.765225 1.742966 1.720856 1.698893 1.677079 1.655413 1.633895 1.612525 1.591304 1.570230 1.549305 1.528527 1.507898 1.487417 1.467084 1.446899 1.426863 1.646588 2.057083 1.629276 1.138678 0.998869 0.421825 0.821751 0.559498 0.838662 0.778174 0.795562 0.752704 0.715388 0.567955 0.522178 0.487616 0.438896 0.214029 0.381231 0.204148 0.311742 0.233569 0.185532 0.141050 0.012958 0.038156 -0.007305 -0.057884 0.108974 0.209770 0.191606 0.154988 0.335618 0.197688 0.498323 0.588586 0.564698 0.602289 0.875377 0.815187 0.942933 0.891056 0.981490 0.947678 1.079172 1.143100 1.074194 1.130661 0.942667 0.936795 0.789295 0.653291 0.778315 0.711636 0.465532 0.312013 0.248618 0.225334 0.146248 0.095505 0.134939 0.080513 0.145970 0.056139 0.262447 0.379455 0.358171 0.478443 0.570728 0.456986 0.559337 0.703347 0.736417 0.770596 0.730930 0.732566 0.704829 0.624335 0.560245 0.423098 0.283810 0.214243 0.081645 0.129954 -0.046096 -0.036970 -0.073266 -0.043827 -0.005606 0.150894 0.080026 0.289445 0.284993 0.358412 0.452678 0.523066 0.512283 0.512261 0.503066 0.331346 0.310536 0.280694 0.095483 0.047228 -0.020454 -0.025622 -0.038743 -0.081933 -0.098561 0.003256 0.057305 0.131154 0.156694 0.227877 0.320209 0.316414 0.418737 0.390899 0.276521 0.231240 0.234843 0.188383 0.105757 0.086609 0.013867 0.003714 0.015503 -0.011935 0.062422 0.150583 0.139238 0.239344 0.252998 0.309536 0.237075 0.218057 0.170206 0.215759 0.129237 0.039596 0.025007 -0.008873 -0.010364 -0.036221 0.021315 0.016708 0.158730 0.137795 0.177723 0.236170 0.195546 0.188377 0.192491 0.144029 0.092324 0.055533 0.056842 -0.022200 0.004652 0.023553 0.059662 0.057656 0.073466 0.087168 0.117021 0.140103 0.187935 0.083451 0.094681 0.073075 0.006187 0.003994 0.009031 -0.000494 0.016159 0.011016 0.028785 0.065001 0.080545 0.131891 0.057818 0.109468 0.060108 0.020414 0.061282 -0.031823 -0.011737 0.039430 0.006565 0.060610 0.052316 0.046540 0.068258 0.058359 0.043486 0.032207 0.004168 0.024539 0.013555 -0.005471 0.065597 -0.008713 0.021075 0.061508 0.051605 0.046033 0.047799 0.041862 0.024241 0.000937 -0.023704 -0.016111 0.030765 0.044136 0.088883 0.061257 0.072587 0.088702 0.072329 0.042120 0.084542 0.094544 0.017794 0.029251 0.071248 0.058184 0.108402 0.113349 0.099419 0.126094 0.079591 0.042935 0.053582 -0.002216 0.016114 0.070175 0.089607 0.055198 0.045090 0.041740 0.027981 0.113614 0.065466 -0.030434 -0.041295 0.040379 0.094331 0.014773 0.031388 0.088243 0.084704 0.035485 0.060099 0.082839 0.037908 0.031519 -0.044265 0.046977 0.123139 0.091358 -0.033347 -0.021201 -0.033894 0.047108 -0.103633 0.040878 -0.071382 -0.026974 0.063100 0.058557 0.033283 -0.018300 -0.062346 -0.056399 -0.078809 -0.051325 -0.089879 -0.079922 -0.007094 0.066854 -0.054530 0.065602 0.008958 -0.050766 0.035267 -0.106423 -0.107880 -0.062813 -0.027268 -0.045296 -0.048504 0.008081 -0.032676 0.025131 0.204859 -0.013917 0.166041 0.024064 0.222775 0.217684 0.315307 0.268627 0.128549 0.234668 0.283776 0.063391 0.198130 0.131991 0.114006 0.316135 0.148209 -0.615538
0.072396 0.072899 0.074406 0.076918 0.080434 0.084953 0.090473 0.096994 0.104513 0.113027 0.122533 0.133027 0.144502 0.156954 0.170374 0.184752 0.200079 0.216340 0.233522 0.251606 0.270573 0.290401 0.311062 0.332527 0.354764 0.377735 0.401399 0.425710 0.450617 0.476065 0.501992 0.528331 0.555009 0.581949 0.609063 0.636262 0.663445 0.690509 0.717342 0.743824 0.769831 0.795229 0.819881 0.843641 0.866357 0.887873 0.908027 0.926651 0.943576 0.958627 0.971627 0.982400 0.990766 0.996549 0.999574 0.999669 0.996668 0.990413 0.980751 0.967544 0.950664 0.929998 0.905450 0.876941 0.844416 0.807842 0.767210 0.722542 0.673886 0.621325 0.564973 0.504983 0.441541 0.374874 0.305248 0.232969 0.158382 0.081875 0.003874 0.075155 0.154710 0.234252 0.313211 0.390986 0.466953 0.540463 0.610856 0.677459 0.739597 0.796599 0.847805 0.892575 0.930298 0.960399 0.982352 0.995685 0.999995 0.994950 0.980307 0.955914 0.921722 0.877790 0.824293 0.761529 0.689919 0.610014 0.522493 0.428161 0.327952 0.222917 0.114219 0.003124 0.109012 0.220756 0.330616 0.437064 0.538550 0.633529 0.720487 0.797965 0.864585 0.919082 0.960328 0.987357 0.999397 0.995889 0.976511 0.941198 0.890154 0.823868 0.743114 0.648957 0.542750 0.426116 0.300937 0.169326 0.033603 0.103747 0.240116 0.372818 0.499144 0.616417 0.722054 0.813623 0.888907 0.945965 0.983188 0.999352 0.993665 0.965807 0.915961 0.844828 0.753643 0.644157 0.518629 0.379786 0.230777 0.075109 0.083427 0.240845 0.393059 0.535992 0.665690 0.778429 0.870841 0.940013 0.983599 0.999908 0.987982 0.947657 0.879600 0.785323 0.667172 0.528292 0.372555 0.204475 0.029081 0.148216 0.321793 0.485983 0.635271 0.764482 0.868974 0.944812 0.988939 0.999314 0.975026 0.916368 0.824873 0.703307 0.555603 0.386776 0.202753 0.010196 0.183732 0.371635 0.546153 0.700263 0.827577 0.922611 0.981052 0.999975 0.978011 0.915461 0.814342 0.678363 0.512815 0.324403 0.120997 0.088683 0.295426 0.489932 0.663231 0.807117 0.914547 0.980013 0.999858 0.972507 0.898614 0.781103 0.625094 0.437725 0.227854 0.005672 0.217777 0.431138 0.623318 0.784078 0.904603 0.978010 0.999776 0.968061 0.883888 0.751170 0.576587 0.369298 0.140487 0.097201 0.330348 0.545507 0.730002 0.872680 0.964623 0.999748 0.975254 0.891885 0.753992 0.569366 0.348849 0.105744 0.144953 0.387465 0.606224 0.786877 0.917271 0.988291 0.994568 0.934929 0.812595 0.635083 0.413805 0.163404 0.099197 0.355891 0.588645 0.780774 0.918170 0.990379 0.991468 0.920564 0.782058 0.585416 0.344605 0.077156 0.197059 0.457300 0.683512 0.857905 0.966391 0.999787 0.954663 0.833761 0.645922 0.405541 0.131521 0.154154 0.428157 0.667723 0.852550 0.966583 0.999473 0.947591 0.814507 0.610858 0.353586 0.064604 0.231006 0.507153 0.739046 0.905448 0.990689 0.986216 0.891554 0.714530 0.470742 0.182279 0.124209 0.419937 0.676666 0.869448 0.979093 0.994171 0.912308 0.740621 0.495230 0.199839 0.116455 0.421991 0.685702 0.880303 0.985184 0.988681 0.889495 0.697051 0.430731 0.118046 0.208137 0.512990 0.763471 0.931923 0.999236 0.957113 0.809226 0.571053 0.268408 0.065273 0.392534 0.676101 0.883152 0.989190 0.981062 0.858720 0.635502 0.336821 0.002588 0.342636 0.642581 0.865933 0.984965 0.984281 0.862953 0.634920 0.327559 0.021474 0.368766 0.670505 0.888060 0.992992 0.970916 0.823631 0.569201 0.239919 0.121680
1.000000 1.000000 1.000000 1.000000 1.000000 1.000000 1.000000 1.000000 1.000000 1.000000 1.000000 1.000000 1.000000 1.000000 1.000000 1.000000 1.000000 1.000000 1.000000 1.000000 1.000000 1.000000 1.000000 1.000000 1.000000 1.000000 1.000000 1.000000 1.000000 1.000000 1.000000 1.000000 1.000000 1.000000 1.000000 1.000000 1.000000 1.000000 1.000000 1.000000 1.000000 1.000000 1.000000 1.000000 1.000000 1.000000 1.000000 1.000000 1.000000 1.000000 1.000000 1.000000 0.926052 0.926052 0.926052 0.915091 0.915091 0.915091 0.915091 0.915091 0.915091 0.915091 0.915091 0.915091 0.915091 0.915091 0.915091 0.915091 0.915091 0.915091 0.915091 0.915091 0.915091 0.915091 0.915091 0.915091 0.915091 0.915091 0.915091 0.915091 0.915091 0.915091 0.915091 0.915091 0.915091 0.915091 0.915091 0.915091 0.915091 0.915091 0.915091 0.915091 0.915091 0.915091 0.915091 0.915091 0.943166 0.944590 0.952649 0.952491 0.951939 0.949771 0.948740 0.948281 0.948167 0.948476 0.949155 0.950085 0.958863 0.960041 0.962847 0.963710 0.964433 0.965057 0.965689 0.966314 0.965480 0.964894 0.964374 0.960399 0.963139 0.962481 0.962555 0.963572 0.963452 0.965221 0.965421 0.964797 0.963863 0.963065 0.962294 0.961836 0.961552 0.962071 0.962393 0.963740 0.966949 0.966403 0.966109 0.966267 0.966368 0.966565 0.967051 0.968813 0.965053 0.965598 0.965556 0.963490 0.970113 0.967324 0.967833 0.968347 0.969778 0.969994 0.966850 0.962691 0.954692 0.953803 0.949629 0.940353 0.937917 0.939097 0.941256 0.941819 0.941015 0.934224 0.934724 0.929588 0.929105 0.932380 0.928639 0.926740 0.928070 0.926851 0.925186 0.924343 0.921554 0.917014 0.914202 0.913816 0.917201 0.919326 0.920678 0.920420 0.914635 0.903788 0.887191 0.883996 0.879229 0.882783 0.873434 0.872798 0.872867 0.869314 0.873261 0.874522 0.875632 0.871259 0.855395 0.835031 0.825709 0.828979 0.834775 0.832064 0.831163 0.824407 0.837618 0.821549 0.834745 0.847310 0.841002 0.842031 0.841849 0.838897 0.829331 0.828146 0.831027 0.832945 0.833242 0.832239 0.823714 0.810396 0.812779 0.758362 0.742565 0.738881 0.743850 0.748136 0.747509 0.745673 0.754035 0.759322 0.760707 0.747334 0.739532 0.729772 0.734485 0.739232 0.744810 0.735221 0.720309 0.706338 0.667778 0.684550 0.712082 0.665777 0.687749 0.695750 0.689763 0.689474 0.681255 0.675297 0.667616 0.670938 0.682441 0.700249 0.716342 0.739317 0.733026 0.722553 0.724124 0.703639 0.695119 0.684448 0.690531 0.671234 0.664696 0.686122 0.686443 0.678393 0.670350 0.653827 0.638232 0.640984 0.645252 0.639774 0.640600 0.625247 0.598368 0.595559 0.628772 0.647695 0.665701 0.639420 0.625046 0.618887 0.599913 0.616032 0.569741 0.569498 0.590826 0.596655 0.575204 0.544942 0.550571 0.570268 0.577660 0.569864 0.542360 0.532871 0.546562 0.573713 0.564258 0.534700 0.541016 0.538591 0.537677 0.482420 0.481580 0.450005 0.426134 0.355795 0.329998 0.328866 0.316823 0.311822 0.281594 0.276981 0.285242 0.297491 0.303438 0.299948 0.283773 0.286176 0.277053 0.264871 0.205457 0.191435 0.182283 0.171904 0.173596 0.147318 0.165346 0.225012 0.227258 0.227258 0.227258 0.227258 0.227258 0.227258 0.237660 0.237660 0.237660 0.237660 0.237660 0.237660 0.237660 0.237660 0.237660 0.250239 0.250239 0.250239 0.250239 0.250239 0.250239 0.250239 0.250239 0.250239 0.250239 0.250239 0.250239 0.250239 0.250239
0.000000 0.000000 0.000000 0.000000 0.000000 0.000000 0.000000 0.000000 0.000000 0.000000 0.000000 0.000000 0.000000 0.000000 0.000000 0.000000 0.000000 0.000000 0.000000 0.000000 0.000000 0.000000 0.000000 0.000000 0.000000 7.000000 4.000000 0.000000 0.000000 0.000000 0.000000 0.000000 0.000000 0.000000 0.000000 0.000000 0.000000 0.000000 0.000000 0.000000 0.000000 0.000000 0.000000 0.000000 0.000000 0.000000 0.000000 0.000000 0.000000 0.000000 0.000000 0.000000 0.180334 0.180334 0.180334 0.199007 0.199007 0.199007 0.199007 0.199007 0.199007 0.199007 0.199007 0.199007 0.199007 0.199007 0.199007 0.199007 0.199007 0.199007 0.199007 0.199007 0.199007 0.199007 0.199007 0.199007 0.199007 0.199007 0.199007 0.199007 0.199007 0.199007 0.199007 0.199007 0.199007 0.199007 0.199007 0.199007 0.199007 0.199007 0.199007 0.199007 0.199007 0.199007 0.199007 0.199007 0.225018 0.225018 0.225018 0.225018 0.225018 0.225018 0.225018 0.225018 0.225018 0.225018 0.225018 0.225018 0.225018 0.225018 0.225018 0.225018 0.225018 0.225018 0.225018 0.225018 0.225018 0.225018 0.225018 0.225018 0.225018 0.225018 0.225018 0.225018 0.225018 0.244339 0.244339 0.244339 0.244339 0.244339 0.244339 0.244339 0.244339 0.244339 0.244339 0.244339 0.244339 0.244339 0.244339 0.244339 0.244339 0.244339 0.244339 0.244339 0.244339 0.244339 0.244339 0.244339 0.251976 0.251976 0.251976 0.251976 0.251976 0.251976 0.251976 0.251976 0.251976 0.251976 0.251976 0.251976 0.251976 0.251976 0.251976 0.251976 0.251976 0.251976 0.251976 0.251976 0.264906 0.264906 0.264906 0.264906 0.264906 0.264906 0.264906 0.264906 0.264906 0.264906 0.264906 0.264906 0.264906 0.264906 0.264906 0.264906 0.264906 0.264906 0.264906 0.264906 0.264906 0.264906 0.264906 0.264906 0.264906 0.264906 0.264906 0.264906 0.264906 0.264906 0.264906 0.264906 0.264906 0.264906 0.264906 0.264906 0.264906 0.264906 0.264906 0.264906 0.264906 0.264906 0.264906 0.264906 0.264906 0.264906 0.264906 0.264906 0.264906 0.264906 0.264906 0.264906 0.264906 0.264906 0.264906 0.264906 0.264906 0.264906 0.264906 0.264906 0.264906 0.264906 0.256074 0.256074 0.256074 0.256074 0.256074 0.256074 0.256074 0.256074 0.256074 0.256074 0.256074 0.256074 0.256074 0.256074 0.269680 0.269680 0.269680 0.269680 0.269680 0.269680 0.269680 0.269680 0.269680 0.269680 0.269680 0.269680 0.264906 0.264906 0.264906 0.264906 0.264906 0.264906 0.264906 0.264906 0.264906 0.264906 0.264906 0.264906 0.269680 0.269680 0.269680 0.269680 0.269680 0.269680 0.269680 0.269680 0.269680 0.269680 0.269680 0.264906 0.264906 0.264906 0.264906 0.264906 0.264906 0.264906 0.264906 0.264906 0.264906 0.264906 0.256074 0.256074 0.256074 0.256074 0.256074 0.256074 0.256074 0.256074 0.256074 0.256074 0.256074 0.264906 0.264906 0.264906 0.264906 0.264906 0.264906 0.264906 0.264906 0.264906 0.264906 0.260378 0.260378 0.260378 0.260378 0.260378 0.260378 0.260378 0.260378 0.260378 0.260378 0.256074 0.256074 0.256074 0.256074 0.256074 0.256074 0.256074 0.256074 0.256074 0.256074 0.260378 0.260378 0.260378 0.260378 0.260378 0.260378 0.260378 0.260378 0.260378 0.256074 0.256074 0.256074 0.256074 0.256074 0.256074 0.256074 0.256074 0.256074 0.251976 0.251976 0.251976 0.251976 0.251976 0.251976 0.251976 0.251976 0.251976 0.251976 0.251976 0.251976 0.251976 0.251976
