# Output from CTFFind version 4.1.9, run on 2019-11-03 20:03:08
# Input file: stack16_bm3d_averaged_1_5.5_0_50_half.mrc ; Number of micrographs: 1
# Pixel size: 3.000 Angstroms ; acceleration voltage: 300.0 keV ; spherical aberration: 0.00 mm ; amplitude contrast: 0.07
# Box size: 512 pixels ; min. res.: 30.0 Angstroms ; max. res.: 5.0 Angstroms ; min. def.: 5000.0 um; max. def. 50000.0 um; num. frames averaged: 1
# 6 lines per micrograph: #1 - spatial frequency (1/Angstroms); #2 - 1D rotational average of spectrum (assuming no astigmatism); #3 - 1D rotational average of spectrum; #4 - CTF fit; #5 - cross-correlation between spectrum and CTF fit; #6 - 2sigma of expected cross correlation of noise
0.000000 0.000651 0.001302 0.001953 0.002604 0.003255 0.003906 0.004557 0.005208 0.005859 0.006510 0.007161 0.007812 0.008464 0.009115 0.009766 0.010417 0.011068 0.011719 0.012370 0.013021 0.013672 0.014323 0.014974 0.015625 0.016276 0.016927 0.017578 0.018229 0.018880 0.019531 0.020182 0.020833 0.021484 0.022135 0.022786 0.023438 0.024089 0.024740 0.025391 0.026042 0.026693 0.027344 0.027995 0.028646 0.029297 0.029948 0.030599 0.031250 0.031901 0.032552 0.033203 0.033854 0.034505 0.035156 0.035807 0.036458 0.037109 0.037760 0.038411 0.039062 0.039714 0.040365 0.041016 0.041667 0.042318 0.042969 0.043620 0.044271 0.044922 0.045573 0.046224 0.046875 0.047526 0.048177 0.048828 0.049479 0.050130 0.050781 0.051432 0.052083 0.052734 0.053385 0.054036 0.054688 0.055339 0.055990 0.056641 0.057292 0.057943 0.058594 0.059245 0.059896 0.060547 0.061198 0.061849 0.062500 0.063151 0.063802 0.064453 0.065104 0.065755 0.066406 0.067057 0.067708 0.068359 0.069010 0.069661 0.070312 0.070964 0.071615 0.072266 0.072917 0.073568 0.074219 0.074870 0.075521 0.076172 0.076823 0.077474 0.078125 0.078776 0.079427 0.080078 0.080729 0.081380 0.082031 0.082682 0.083333 0.083984 0.084635 0.085286 0.085938 0.086589 0.087240 0.087891 0.088542 0.089193 0.089844 0.090495 0.091146 0.091797 0.092448 0.093099 0.093750 0.094401 0.095052 0.095703 0.096354 0.097005 0.097656 0.098307 0.098958 0.099609 0.100260 0.100911 0.101562 0.102214 0.102865 0.103516 0.104167 0.104818 0.105469 0.106120 0.106771 0.107422 0.108073 0.108724 0.109375 0.110026 0.110677 0.111328 0.111979 0.112630 0.113281 0.113932 0.114583 0.115234 0.115885 0.116536 0.117188 0.117839 0.118490 0.119141 0.119792 0.120443 0.121094 0.121745 0.122396 0.123047 0.123698 0.124349 0.125000 0.125651 0.126302 0.126953 0.127604 0.128255 0.128906 0.129557 0.130208 0.130859 0.131510 0.132161 0.132812 0.133464 0.134115 0.134766 0.135417 0.136068 0.136719 0.137370 0.138021 0.138672 0.139323 0.139974 0.140625 0.141276 0.141927 0.142578 0.143229 0.143880 0.144531 0.145182 0.145833 0.146484 0.147135 0.147786 0.148438 0.149089 0.149740 0.150391 0.151042 0.151693 0.152344 0.152995 0.153646 0.154297 0.154948 0.155599 0.156250 0.156901 0.157552 0.158203 0.158854 0.159505 0.160156 0.160807 0.161458 0.162109 0.162760 0.163411 0.164062 0.164714 0.165365 0.166016 0.166667 0.167318 0.167969 0.168620 0.169271 0.169922 0.170573 0.171224 0.171875 0.172526 0.173177 0.173828 0.174479 0.175130 0.175781 0.176432 0.177083 0.177734 0.178385 0.179036 0.179688 0.180339 0.180990 0.181641 0.182292 0.182943 0.183594 0.184245 0.184896 0.185547 0.186198 0.186849 0.187500 0.188151 0.188802 0.189453 0.190104 0.190755 0.191406 0.192057 0.192708 0.193359 0.194010 0.194661 0.195312 0.195964 0.196615 0.197266 0.197917 0.198568 0.199219 0.199870 0.200521 0.201172 0.201823 0.202474 0.203125 0.203776 0.204427 0.205078 0.205729 0.206380 0.207031 0.207682 0.208333 0.208984 0.209635 0.210286 0.210938 0.211589 0.212240 0.212891 0.213542 0.214193 0.214844 0.215495 0.216146 0.216797 0.217448 0.218099 0.218750 0.219401 0.220052 0.220703 0.221354 0.222005 0.222656 0.223307 0.223958 0.224609 0.225260 0.225911 0.226562 0.227214 0.227865 0.228516 0.229167 0.229818 0.230469 0.231120 0.231771 0.232422 0.233073 0.233724 0.234375 0.235026 0.235677
       0.34612        0.34612        0.34612        0.34612        0.34612        0.34612        0.34612        0.34612        0.34612        0.34612        0.34612        0.34612        0.34612        0.34612        0.34612        0.34612        0.34612        0.34612        0.34612        0.34612        0.34612        0.34612        0.34612        0.34612        0.34612        0.34612        0.34612        0.34612        0.34612        0.34612        0.34612        0.34612        0.34612        0.34612        0.34612        0.34612        0.34612        0.34612        0.34612        0.34612        0.34612        0.34612        0.34612        0.34612        0.34612        0.34612        0.34612        0.34612        0.34612        0.34612        0.34612        0.42646        0.55710        0.34335       -0.21289       -0.45346       -0.54689       -0.64783       -0.71763       -0.72620       -0.82179       -0.89385       -0.68654       -0.84223       -0.82411       -0.96797       -1.00616       -0.88827       -0.84737       -0.80239       -0.71719       -0.64781       -0.55904       -0.46513       -0.39946       -0.17082       -0.06835        0.03281        0.25539        0.25555        0.31290        0.37044        0.40062        0.51802        0.53736        0.57302        0.53260        0.47320        0.50599        0.52394        0.44650        0.33014        0.21211        0.17941        0.10975        0.00653       -0.00997       -0.01913        0.05369        0.01930        0.07244        0.04597        0.16178        0.19485        0.40674        0.45842        0.54892        0.65740        0.68725        0.71369        0.63628        0.61103        0.53881        0.43940        0.38693        0.27435        0.21617        0.21138        0.09901        0.10726        0.10399        0.08413        0.09469        0.30437        0.41418        0.52061        0.53292        0.57028        0.60722        0.58727        0.57395        0.58335        0.56612        0.46672        0.30395        0.26317        0.25199        0.14736        0.08913        0.16512        0.20333        0.28326        0.35167        0.42409        0.47205        0.53035        0.60102        0.54556        0.50565        0.50062        0.35511        0.27187        0.25651        0.17412        0.19233        0.23194        0.27236        0.28043        0.32423        0.42619        0.45932        0.49847        0.45174        0.44313        0.48474        0.39177        0.32841        0.28543        0.25742        0.23066        0.22723        0.23731        0.33555        0.44216        0.42979        0.48882        0.55294        0.44596        0.41048        0.35528        0.31337        0.26805        0.27972        0.26966        0.28806        0.34607        0.35560        0.43383        0.47166        0.43726        0.45915        0.37338        0.37743        0.35339        0.26863        0.24911        0.24689        0.32692        0.37669        0.36517        0.38866        0.43260        0.43890        0.37476        0.33768        0.32010        0.35035        0.31249        0.28000        0.28287        0.35275        0.37115        0.38741        0.38876        0.38783        0.41701        0.40242        0.32081        0.28767        0.31424        0.34222        0.37491        0.36004        0.40357        0.34215        0.36970        0.39162        0.33632        0.35409        0.31887        0.29941        0.33686        0.34069        0.32700        0.35235        0.37065        0.32668        0.34513        0.31789        0.31473        0.29344        0.31881        0.31619        0.32622        0.36537        0.37045        0.35274        0.30686        0.29769        0.28586        0.32907        0.31079        0.31399        0.36852        0.35824        0.34098        0.31274        0.30353        0.30954        0.27432        0.31267        0.32625        0.33575        0.36783        0.34810        0.30819        0.33419        0.34328        0.32760        0.35617        0.34537        0.31155        0.33247        0.29167        0.32051        0.29467        0.31170        0.28673        0.31997        0.35305        0.33095        0.35412        0.31143        0.32740        0.35004        0.33831        0.31343        0.31743        0.35720        0.33931        0.33521        0.32440        0.31102        0.31177        0.31387        0.32335        0.32180        0.35325        0.33851        0.33652        0.29027        0.28378        0.26623        0.26987        0.36356        0.31149        0.34569        0.29708        0.26230        0.27729        0.36299        0.30744        0.28219        0.30776        0.31604        0.29356        0.26444        0.30505        0.26860        0.28811        0.30481        0.33329        0.33304        0.31999        0.30580        0.26610        0.27216        0.26512        0.27245        0.29476        0.35984        0.29334        0.19823        0.30358        0.28611        0.32340        0.25116        0.29985        0.29970        0.33388        0.28925        0.27741        0.26545        0.24113        0.29961        0.34264        0.34320        0.24779        0.29425        0.24028        0.23080        0.21343        0.33275        0.25144        0.18029        0.12308        0.21010        0.32717        0.22867        0.18960        0.10769       -0.48189       -0.59601
3.180726 3.140455 3.100446 3.060697 3.021210 2.981983 2.943018 2.904314 2.865871 2.827688 2.789767 2.752107 2.714708 2.677570 2.640692 2.604076 2.567721 2.531627 2.495794 2.460223 2.424912 2.389862 2.355073 2.320545 2.286278 2.252272 2.218528 2.185044 2.151821 2.118860 2.086159 2.053720 2.021541 1.989624 1.957967 1.926572 1.895438 1.864564 1.833952 1.803601 1.773510 1.743681 1.714113 1.684806 1.655760 1.626975 1.598451 1.570188 1.542186 1.514445 1.486965 1.522434 1.601986 1.542283 0.846138 0.595204 0.456072 0.386903 0.291244 0.215717 0.181530 -0.051604 0.204096 0.069469 -0.032249 -0.111804 -0.239578 -0.146982 -0.058393 -0.094032 -0.076521 0.034740 0.031876 0.226542 0.106226 0.355413 0.461956 0.490822 0.767516 0.685268 0.693488 0.826484 0.797506 0.840282 0.919460 0.859799 0.890367 0.727747 0.792147 0.845775 0.685672 0.605685 0.436965 0.426820 0.337816 0.189028 0.185839 0.114658 0.209295 0.119276 0.209777 0.105430 0.217669 0.230684 0.443967 0.404770 0.576667 0.615662 0.643738 0.723528 0.609645 0.584387 0.461386 0.413059 0.292803 0.263916 0.095695 0.156323 -0.026917 0.036642 -0.032590 -0.042100 -0.052658 0.029606 0.270961 0.293821 0.363812 0.305987 0.388394 0.398333 0.423550 0.404841 0.359323 0.334764 0.126249 0.078042 0.064218 -0.017298 -0.153092 -0.048757 -0.066307 0.039024 0.080187 0.153624 0.220838 0.228728 0.320290 0.410386 0.291782 0.364355 0.237931 0.141042 0.065430 0.038778 0.001468 0.048907 0.070561 0.098298 0.117512 0.175778 0.240028 0.305515 0.276316 0.216506 0.255625 0.228197 0.110704 0.066231 0.050863 0.028388 0.006542 -0.016076 0.032254 0.169665 0.190990 0.192012 0.302670 0.188248 0.197575 0.075828 0.069096 0.006874 -0.006599 0.000337 -0.007767 0.043662 0.065554 0.096970 0.157713 0.141418 0.222738 0.133555 0.077999 0.100434 0.044942 -0.054331 -0.023375 0.023571 0.062746 0.074088 0.069737 0.153138 0.121292 0.151951 0.037106 0.051644 0.046738 0.048897 0.026655 -0.020797 0.039989 0.047365 0.090426 0.104316 0.089186 0.111217 0.125921 0.079683 0.013343 -0.006148 0.028193 0.078370 0.068680 0.094583 0.092217 0.049591 0.107963 0.066452 0.042666 0.081065 -0.016984 0.017101 0.063057 0.038320 0.043113 0.061980 0.075438 0.049505 0.063386 0.013145 0.020316 0.002510 0.052071 0.007325 0.042143 0.068110 0.076487 0.041308 -0.007603 -0.004814 -0.018668 0.039246 0.000783 0.012450 0.070515 0.054635 -0.002316 0.008971 -0.014769 0.008371 -0.042417 0.002426 0.009097 0.036713 0.046466 0.024268 -0.010922 0.005745 0.021790 0.004950 0.041862 0.012838 -0.015778 0.031280 -0.045934 -0.023780 -0.052318 -0.013234 -0.056610 0.011702 0.027776 -0.004613 -0.004034 -0.003810 0.002616 0.027523 0.019648 -0.012112 0.005003 0.027550 0.039305 0.020598 0.009168 0.023886 -0.000248 -0.000273 0.019139 -0.002896 0.083849 0.050633 0.031224 0.000713 -0.009603 -0.034272 0.001431 0.080247 0.000198 0.065933 -0.016940 -0.024393 -0.021020 0.096765 0.000157 -0.020612 0.046735 0.049214 0.008549 0.006601 0.023962 0.003257 0.029949 0.031124 0.084540 0.063362 0.050945 0.039541 -0.004038 0.009417 -0.008344 -0.009557 0.010399 0.102501 -0.018896 -0.093936 0.052015 -0.003074 0.057096 -0.057303 0.002508 0.009362 0.024067 0.000973 -0.019365 -0.022691 -0.072866 0.034740 0.048397 0.061001 -0.124712 0.009640 -0.011974 -0.012089 -0.110860 0.105165 0.016693 -0.029281 -0.098908 0.192043 0.276065 0.163648 0.142302 0.110573 -0.568866
0.072396 0.073047 0.074998 0.078250 0.082801 0.088649 0.095794 0.104230 0.113956 0.124964 0.137250 0.150805 0.165617 0.181676 0.198964 0.217465 0.237155 0.258009 0.279996 0.303080 0.327221 0.352371 0.378477 0.405478 0.433305 0.461883 0.491127 0.520940 0.551220 0.581852 0.612712 0.643663 0.674559 0.705241 0.735540 0.765276 0.794254 0.822273 0.849118 0.874564 0.898379 0.920320 0.940138 0.957578 0.972380 0.984284 0.993026 0.998347 0.999990 0.997708 0.991262 0.980428 0.964999 0.944791 0.919640 0.889417 0.854022 0.813394 0.767514 0.716408 0.660153 0.598879 0.532772 0.462082 0.387119 0.308261 0.225951 0.140702 0.053091 0.036235 0.126566 0.217130 0.307101 0.395601 0.481709 0.564469 0.642901 0.716013 0.782813 0.842322 0.893592 0.935721 0.967870 0.989279 0.999292 0.997366 0.983095 0.956227 0.916675 0.864538 0.800109 0.723887 0.636581 0.539119 0.432640 0.318497 0.198241 0.073612 0.053485 0.181001 0.306775 0.428567 0.544098 0.651094 0.747335 0.830699 0.899222 0.951143 0.984962 0.999485 0.993875 0.967692 0.920929 0.854039 0.767954 0.664088 0.544341 0.411071 0.267068 0.115507 0.040112 0.196038 0.348354 0.493070 0.626241 0.744064 0.843007 0.919917 0.972140 0.997622 0.995008 0.963718 0.904009 0.817012 0.704741 0.570079 0.416727 0.249125 0.072344 0.108056 0.286187 0.456030 0.611628 0.747313 0.857919 0.938998 0.987022 0.999555 0.975406 0.914729 0.819085 0.691444 0.536136 0.358738 0.165903 0.034865 0.235490 0.427638 0.603065 0.753981 0.873415 0.955557 0.996080 0.992395 0.943852 0.851853 0.719870 0.553380 0.359666 0.147561 0.072947 0.291152 0.496145 0.677369 0.825175 0.931367 0.989692 0.996258 0.949835 0.852032 0.707316 0.522885 0.308355 0.075321 0.163252 0.393712 0.602517 0.777035 0.906339 0.981936 0.998385 0.953741 0.849813 0.692186 0.490002 0.255500 0.003335 0.250311 0.488736 0.695837 0.857213 0.961219 0.999863 0.969501 0.871238 0.711019 0.499370 0.250784 0.017194 0.285171 0.533285 0.742688 0.897020 0.983734 0.995211 0.929508 0.790702 0.588765 0.338950 0.060729 0.223666 0.490983 0.718862 0.887742 0.982599 0.994383 0.920981 0.767620 0.546638 0.276612 0.019117 0.314384 0.582501 0.798679 0.942389 0.999381 0.963230 0.836169 0.629134 0.360978 0.056854 0.254033 0.541221 0.775956 0.934152 0.998944 0.962618 0.827672 0.606843 0.322069 0.002440 0.318682 0.607112 0.831504 0.966827 0.997285 0.918311 0.737382 0.473514 0.155428 0.181449 0.498858 0.760063 0.934141 0.999775 0.948025 0.783714 0.525221 0.202605 0.145720 0.477500 0.751725 0.933785 0.999945 0.940631 0.762000 0.485562 0.145790 0.214020 0.547184 0.809679 0.966061 0.994394 0.889538 0.664262 0.347942 0.017061 0.380931 0.693149 0.909550 0.998703 0.946684 0.759483 0.462621 0.097919 0.282212 0.622225 0.871557 0.992280 0.965077 0.792588 0.499512 0.129365 0.261800 0.613751 0.871387 0.993481 0.959497 0.773330 0.463227 0.077811 0.321354 0.669482 0.909121 0.999787 0.925060 0.695862 0.349227 0.057406 0.455487 0.776891 0.965616 0.987794 0.838042 0.541046 0.147820 0.272750 0.645875 0.904156 0.999917 0.914323 0.661409 0.286188 0.143008 0.546811 0.849431 0.993020 0.949001 0.724138 0.359946 0.074600 0.495884 0.821673 0.987281 0.958688 0.739921 0.373006 0.069708 0.499551 0.829214 0.990607 0.949217 0.711902 0.326286 0.128416 0.557374 0.869887 0.998712 0.914876 0.634633 0.216834 0.249056 0.661851
1.000000 1.000000 1.000000 1.000000 1.000000 1.000000 1.000000 1.000000 1.000000 1.000000 1.000000 1.000000 1.000000 1.000000 1.000000 1.000000 1.000000 1.000000 1.000000 1.000000 1.000000 1.000000 1.000000 1.000000 1.000000 1.000000 1.000000 1.000000 1.000000 1.000000 1.000000 1.000000 1.000000 1.000000 1.000000 1.000000 1.000000 1.000000 1.000000 1.000000 1.000000 1.000000 1.000000 1.000000 1.000000 1.000000 1.000000 1.000000 1.000000 1.000000 1.000000 1.000000 0.923267 0.923267 0.923267 0.923267 0.923267 0.923267 0.923267 0.923267 0.923267 0.923267 0.923267 0.923267 0.923267 0.923267 0.923267 0.923267 0.923267 0.923267 0.923267 0.923267 0.923267 0.923267 0.923267 0.923267 0.923267 0.923267 0.923267 0.923267 0.923267 0.923267 0.923267 0.923267 0.923267 0.913320 0.911412 0.912574 0.911134 0.909667 0.909079 0.908688 0.909729 0.911335 0.913408 0.935035 0.938142 0.939385 0.940705 0.942074 0.944353 0.942199 0.949793 0.956304 0.955253 0.956400 0.950265 0.951659 0.951015 0.950285 0.951624 0.951743 0.950058 0.948048 0.946480 0.945934 0.945625 0.949202 0.949796 0.949960 0.950552 0.950500 0.951217 0.951830 0.950000 0.952274 0.944432 0.943090 0.948355 0.946284 0.947665 0.947630 0.948318 0.949126 0.949445 0.949714 0.946617 0.946203 0.945345 0.937259 0.930451 0.930157 0.932564 0.935762 0.933166 0.929835 0.931117 0.933361 0.932497 0.936098 0.926668 0.922437 0.897225 0.884597 0.874265 0.874587 0.878150 0.880660 0.878311 0.871371 0.862091 0.858342 0.858127 0.854261 0.846476 0.862312 0.856631 0.854344 0.858175 0.861367 0.866807 0.864439 0.860077 0.855436 0.850787 0.842263 0.843913 0.848022 0.852125 0.835531 0.825928 0.842900 0.833181 0.823881 0.831490 0.833450 0.830447 0.829374 0.829986 0.827899 0.821240 0.814368 0.817925 0.826911 0.826782 0.816146 0.813346 0.810112 0.809903 0.802131 0.806343 0.807075 0.803208 0.796359 0.813291 0.778597 0.800861 0.800802 0.785302 0.769144 0.757131 0.766074 0.776798 0.778043 0.772026 0.772446 0.771880 0.763947 0.737325 0.734658 0.741713 0.739909 0.727286 0.711104 0.718361 0.721280 0.717587 0.713425 0.716492 0.717943 0.692586 0.705892 0.710178 0.698188 0.712720 0.715078 0.705862 0.708509 0.711592 0.714384 0.711408 0.674040 0.677356 0.656962 0.649761 0.599088 0.597390 0.595175 0.536434 0.540542 0.510330 0.493265 0.493679 0.480003 0.532839 0.467575 0.455714 0.487099 0.413300 0.353431 0.369563 0.369479 0.383256 0.390565 0.375454 0.376415 0.361716 0.342547 0.342489 0.365745 0.381954 0.348482 0.351883 0.341408 0.316001 0.283411 0.299799 0.303560 0.328464 0.330166 0.307953 0.334360 0.379053 0.319409 0.297147 0.276149 0.299367 0.312485 0.314603 0.302745 0.295031 0.266600 0.251123 0.274588 0.275458 0.291905 0.312633 0.342886 0.337951 0.343208 0.372033 0.321030 0.338072 0.341539 0.330608 0.342403 0.345797 0.346528 0.338639 0.365543 0.345762 0.356239 0.343774 0.336079 0.384057 0.363445 0.336534 0.323503 0.329789 0.329468 0.311129 0.258071 0.243531 0.242085 0.186360 0.155524 0.156979 0.157118 0.113133 0.092119 0.075893 0.037457 0.037011 0.042360 0.074772 0.044361 0.064467 0.071837 0.071837 0.071837 0.071837 0.071837 0.071837 0.071837 0.071837 0.071837 0.071837 0.071837 0.071837 0.071837 0.071837 0.094810 0.094810 0.094810 0.094810 0.094810 0.094810 0.094810 0.094810 0.094810 0.094810 0.094810 0.094810
0.000000 0.000000 0.000000 0.000000 0.000000 0.000000 0.000000 0.000000 0.000000 0.000000 0.000000 0.000000 0.000000 0.000000 0.000000 0.000000 0.000000 0.000000 0.000000 0.000000 0.000000 0.000000 0.000000 0.000000 0.000000 0.000000 0.000000 0.000000 0.000000 0.000000 0.000000 0.000000 0.000000 0.000000 0.000000 0.000000 0.000000 0.000000 0.000000 0.000000 0.000000 0.000000 0.000000 0.000000 0.000000 0.000000 0.000000 0.000000 0.000000 0.000000 0.000000 0.000000 0.209657 0.209657 0.209657 0.209657 0.209657 0.209657 0.209657 0.209657 0.209657 0.209657 0.209657 0.209657 0.209657 0.209657 0.209657 0.209657 0.209657 0.209657 0.209657 0.209657 0.209657 0.209657 0.209657 0.209657 0.209657 0.209657 0.209657 0.209657 0.209657 0.209657 0.209657 0.209657 0.209657 0.244339 0.244339 0.244339 0.244339 0.244339 0.244339 0.244339 0.244339 0.244339 0.244339 0.244339 0.244339 0.244339 0.244339 0.244339 0.244339 0.244339 0.244339 0.244339 0.244339 0.244339 0.244339 0.244339 0.244339 0.244339 0.260378 0.260378 0.260378 0.260378 0.260378 0.260378 0.260378 0.260378 0.260378 0.260378 0.260378 0.260378 0.260378 0.260378 0.260378 0.260378 0.260378 0.260378 0.260378 0.260378 0.269680 0.269680 0.269680 0.269680 0.269680 0.269680 0.269680 0.269680 0.269680 0.269680 0.269680 0.269680 0.269680 0.269680 0.269680 0.269680 0.269680 0.269680 0.269680 0.269680 0.269680 0.269680 0.269680 0.269680 0.269680 0.269680 0.269680 0.269680 0.269680 0.269680 0.269680 0.269680 0.269680 0.280056 0.280056 0.280056 0.280056 0.280056 0.280056 0.280056 0.280056 0.280056 0.280056 0.280056 0.280056 0.280056 0.280056 0.280056 0.280056 0.280056 0.280056 0.280056 0.280056 0.280056 0.280056 0.280056 0.280056 0.280056 0.280056 0.280056 0.274721 0.274721 0.274721 0.274721 0.274721 0.274721 0.274721 0.274721 0.274721 0.274721 0.274721 0.274721 0.274721 0.285714 0.285714 0.285714 0.285714 0.285714 0.285714 0.285714 0.285714 0.285714 0.285714 0.285714 0.280056 0.280056 0.280056 0.280056 0.280056 0.280056 0.280056 0.280056 0.280056 0.280056 0.280056 0.274721 0.274721 0.274721 0.274721 0.274721 0.274721 0.274721 0.274721 0.274721 0.274721 0.274721 0.280056 0.280056 0.280056 0.280056 0.280056 0.280056 0.280056 0.280056 0.280056 0.280056 0.285714 0.285714 0.285714 0.285714 0.285714 0.285714 0.285714 0.285714 0.285714 0.269680 0.269680 0.269680 0.269680 0.269680 0.269680 0.269680 0.269680 0.269680 0.269680 0.274721 0.274721 0.274721 0.274721 0.274721 0.274721 0.274721 0.274721 0.274721 0.285714 0.285714 0.285714 0.285714 0.285714 0.285714 0.285714 0.285714 0.264906 0.264906 0.264906 0.264906 0.264906 0.264906 0.264906 0.264906 0.264906 0.274721 0.274721 0.274721 0.274721 0.274721 0.274721 0.274721 0.274721 0.269680 0.269680 0.269680 0.269680 0.269680 0.269680 0.269680 0.269680 0.269680 0.269680 0.269680 0.269680 0.269680 0.269680 0.269680 0.269680 0.280056 0.280056 0.280056 0.280056 0.280056 0.280056 0.280056 0.260378 0.260378 0.260378 0.260378 0.260378 0.260378 0.260378 0.260378 0.269680 0.269680 0.269680 0.269680 0.269680 0.269680 0.269680 0.264906 0.264906 0.264906 0.264906 0.264906 0.264906 0.264906 0.264906 0.264906 0.264906 0.264906 0.264906 0.264906 0.264906 0.260378 0.260378 0.260378 0.260378 0.260378 0.260378 0.260378 0.260378 0.260378 0.260378 0.260378 0.260378
