# Output from CTFFind version 4.1.9, run on 2019-11-02 17:47:16
# Input file: stack1_bm3d_averaged_1_1.0_0_1500_half.mrc ; Number of micrographs: 1
# Pixel size: 3.000 Angstroms ; acceleration voltage: 300.0 keV ; spherical aberration: 0.00 mm ; amplitude contrast: 0.07
# Box size: 512 pixels ; min. res.: 30.0 Angstroms ; max. res.: 5.0 Angstroms ; min. def.: 5000.0 um; max. def. 50000.0 um; num. frames averaged: 1
# 6 lines per micrograph: #1 - spatial frequency (1/Angstroms); #2 - 1D rotational average of spectrum (assuming no astigmatism); #3 - 1D rotational average of spectrum; #4 - CTF fit; #5 - cross-correlation between spectrum and CTF fit; #6 - 2sigma of expected cross correlation of noise
0.000000 0.000651 0.001302 0.001953 0.002604 0.003255 0.003906 0.004557 0.005208 0.005859 0.006510 0.007161 0.007812 0.008464 0.009115 0.009766 0.010417 0.011068 0.011719 0.012370 0.013021 0.013672 0.014323 0.014974 0.015625 0.016276 0.016927 0.017578 0.018229 0.018880 0.019531 0.020182 0.020833 0.021484 0.022135 0.022786 0.023438 0.024089 0.024740 0.025391 0.026042 0.026693 0.027344 0.027995 0.028646 0.029297 0.029948 0.030599 0.031250 0.031901 0.032552 0.033203 0.033854 0.034505 0.035156 0.035807 0.036458 0.037109 0.037760 0.038411 0.039062 0.039714 0.040365 0.041016 0.041667 0.042318 0.042969 0.043620 0.044271 0.044922 0.045573 0.046224 0.046875 0.047526 0.048177 0.048828 0.049479 0.050130 0.050781 0.051432 0.052083 0.052734 0.053385 0.054036 0.054688 0.055339 0.055990 0.056641 0.057292 0.057943 0.058594 0.059245 0.059896 0.060547 0.061198 0.061849 0.062500 0.063151 0.063802 0.064453 0.065104 0.065755 0.066406 0.067057 0.067708 0.068359 0.069010 0.069661 0.070312 0.070964 0.071615 0.072266 0.072917 0.073568 0.074219 0.074870 0.075521 0.076172 0.076823 0.077474 0.078125 0.078776 0.079427 0.080078 0.080729 0.081380 0.082031 0.082682 0.083333 0.083984 0.084635 0.085286 0.085938 0.086589 0.087240 0.087891 0.088542 0.089193 0.089844 0.090495 0.091146 0.091797 0.092448 0.093099 0.093750 0.094401 0.095052 0.095703 0.096354 0.097005 0.097656 0.098307 0.098958 0.099609 0.100260 0.100911 0.101562 0.102214 0.102865 0.103516 0.104167 0.104818 0.105469 0.106120 0.106771 0.107422 0.108073 0.108724 0.109375 0.110026 0.110677 0.111328 0.111979 0.112630 0.113281 0.113932 0.114583 0.115234 0.115885 0.116536 0.117188 0.117839 0.118490 0.119141 0.119792 0.120443 0.121094 0.121745 0.122396 0.123047 0.123698 0.124349 0.125000 0.125651 0.126302 0.126953 0.127604 0.128255 0.128906 0.129557 0.130208 0.130859 0.131510 0.132161 0.132812 0.133464 0.134115 0.134766 0.135417 0.136068 0.136719 0.137370 0.138021 0.138672 0.139323 0.139974 0.140625 0.141276 0.141927 0.142578 0.143229 0.143880 0.144531 0.145182 0.145833 0.146484 0.147135 0.147786 0.148438 0.149089 0.149740 0.150391 0.151042 0.151693 0.152344 0.152995 0.153646 0.154297 0.154948 0.155599 0.156250 0.156901 0.157552 0.158203 0.158854 0.159505 0.160156 0.160807 0.161458 0.162109 0.162760 0.163411 0.164062 0.164714 0.165365 0.166016 0.166667 0.167318 0.167969 0.168620 0.169271 0.169922 0.170573 0.171224 0.171875 0.172526 0.173177 0.173828 0.174479 0.175130 0.175781 0.176432 0.177083 0.177734 0.178385 0.179036 0.179688 0.180339 0.180990 0.181641 0.182292 0.182943 0.183594 0.184245 0.184896 0.185547 0.186198 0.186849 0.187500 0.188151 0.188802 0.189453 0.190104 0.190755 0.191406 0.192057 0.192708 0.193359 0.194010 0.194661 0.195312 0.195964 0.196615 0.197266 0.197917 0.198568 0.199219 0.199870 0.200521 0.201172 0.201823 0.202474 0.203125 0.203776 0.204427 0.205078 0.205729 0.206380 0.207031 0.207682 0.208333 0.208984 0.209635 0.210286 0.210938 0.211589 0.212240 0.212891 0.213542 0.214193 0.214844 0.215495 0.216146 0.216797 0.217448 0.218099 0.218750 0.219401 0.220052 0.220703 0.221354 0.222005 0.222656 0.223307 0.223958 0.224609 0.225260 0.225911 0.226562 0.227214 0.227865 0.228516 0.229167 0.229818 0.230469 0.231120 0.231771 0.232422 0.233073 0.233724 0.234375 0.235026 0.235677
       0.33160        0.33160        0.33160        0.33160        0.33160        0.33160        0.33160        0.33160        0.33160        0.33160        0.33160        0.33160        0.33160        0.33160        0.33160        0.33160        0.33160        0.33160        0.33160        0.33160        0.33160        0.33160        0.33160        0.33160        0.33160        0.33160        0.33160        0.33160        0.33160        0.33160        0.33160        0.33160        0.33160        0.33160        0.33160        0.33160        0.33160        0.33160        0.33160        0.33160        0.33160        0.33160        0.33160        0.33160        0.33160        0.33160        0.33160        0.33160        0.33160        0.33160        0.33160        0.50125        0.71764        0.42634        0.18998       -0.08180       -0.26402       -0.07079       -0.13367       -0.05616       -0.00280       -0.14942       -0.09551       -0.05076       -0.00283       -0.15322       -0.22255       -0.34705       -0.46522       -0.56321       -0.52223       -0.45127       -0.37419       -0.55135       -0.45180       -0.62353       -0.50600       -0.47660       -0.39306       -0.38452       -0.34036       -0.25131       -0.16403       -0.13820        0.03070       -0.01408        0.11647        0.16828        0.30384        0.40909        0.46283        0.49542        0.53965        0.54940        0.69182        0.64390        0.67633        0.59035        0.55625        0.65343        0.52593        0.42793        0.38438        0.31856        0.22602        0.26207        0.24949        0.10428        0.08342       -0.00009       -0.00793        0.03190       -0.00657        0.07192        0.09308        0.22883        0.28102        0.30071        0.38171        0.56087        0.53727        0.57650        0.66922        0.69821        0.62879        0.63248        0.63237        0.55092        0.57316        0.39352        0.34467        0.26490        0.18464        0.07091        0.14427        0.11708        0.09114        0.10769        0.20889        0.20891        0.31496        0.35638        0.41114        0.48965        0.57937        0.54297        0.55467        0.60701        0.53837        0.46108        0.47821        0.32201        0.24977        0.25507        0.24235        0.14068        0.14227        0.15074        0.21995        0.24812        0.32876        0.36447        0.39173        0.46581        0.44575        0.47528        0.45045        0.46795        0.44317        0.40428        0.37942        0.35522        0.31030        0.28425        0.20344        0.19906        0.22214        0.26892        0.26432        0.34785        0.37429        0.35541        0.41060        0.45626        0.44674        0.42462        0.43720        0.36468        0.33355        0.28111        0.26267        0.28610        0.26607        0.29292        0.30006        0.34605        0.33702        0.39748        0.39821        0.42391        0.41035        0.43184        0.40431        0.36425        0.28069        0.28987        0.30418        0.27412        0.25654        0.33027        0.36963        0.33947        0.35385        0.35893        0.35170        0.40629        0.39859        0.35777        0.33907        0.30900        0.31027        0.31530        0.31292        0.30016        0.28687        0.33537        0.35676        0.37352        0.33190        0.32947        0.33377        0.34409        0.30630        0.28182        0.30589        0.31629        0.33315        0.31989        0.33227        0.35445        0.33009        0.31402        0.32878        0.30178        0.26102        0.24732        0.26330        0.30482        0.32197        0.35176        0.30017        0.31266        0.33381        0.29137        0.31589        0.28976        0.27859        0.29043        0.29704        0.30875        0.34223        0.32213        0.32527        0.33035        0.31324        0.33139        0.31870        0.32052        0.31143        0.27876        0.29085        0.30933        0.28855        0.32496        0.33311        0.33504        0.31804        0.34107        0.31749        0.27618        0.25073        0.27083        0.32875        0.35725        0.34624        0.31661        0.29401        0.29824        0.31306        0.24687        0.29467        0.30151        0.32351        0.29358        0.31031        0.28127        0.33310        0.34178        0.34207        0.32568        0.29593        0.30944        0.39282        0.32992        0.31074        0.30305        0.29509        0.28545        0.29502        0.27133        0.31166        0.23501        0.27365        0.29684        0.31400        0.29353        0.27534        0.29545        0.23735        0.22736        0.26414        0.30937        0.30531        0.28503        0.28494        0.33117        0.25387        0.21549        0.30581        0.26323        0.25577        0.27910        0.38951        0.28567        0.28401        0.25017        0.25026        0.26367        0.23743        0.23216        0.17056        0.24550        0.22891        0.25023        0.31678        0.27546        0.34627        0.28625        0.25628        0.23744        0.21561        0.23848        0.29065        0.22248        0.13384        0.16145        0.23695        0.23640        0.33132        0.30404        0.03823       -0.42386       -0.90470
2.688244 2.659873 2.631654 2.603587 2.575673 2.547910 2.520300 2.492842 2.465536 2.438382 2.411381 2.384531 2.357834 2.331289 2.304896 2.278656 2.252567 2.226630 2.200846 2.175214 2.149734 2.124406 2.099231 2.074207 2.049336 2.024617 2.000050 1.975635 1.951372 1.927262 1.903304 1.879497 1.855843 1.832342 1.808992 1.785794 1.762749 1.739856 1.717115 1.694526 1.672089 1.649805 1.627672 1.605692 1.583864 1.562188 1.540664 1.519293 1.498073 1.477006 1.456091 1.525899 1.827145 1.511118 1.194926 0.939681 0.543379 0.910280 0.635158 0.871678 0.926738 0.589999 0.706759 0.782266 0.821508 0.628345 0.536868 0.349026 0.102720 0.077577 0.041163 0.079801 0.300934 -0.035145 0.080052 -0.133982 -0.013719 -0.018211 0.080701 0.065209 0.103180 0.177574 0.281783 0.251056 0.482774 0.396981 0.546698 0.528920 0.769244 0.787404 0.879374 0.921405 0.937853 0.945657 1.105939 0.946972 1.139602 0.948392 0.851756 1.016703 0.846520 0.759945 0.620267 0.594476 0.455181 0.417392 0.508718 0.264760 0.200857 0.161416 0.013081 0.203890 -0.005027 0.121407 0.175075 0.257045 0.332483 0.347351 0.427065 0.539839 0.667257 0.539273 0.746260 0.852137 0.638590 0.695406 0.666900 0.591894 0.538871 0.460221 0.299668 0.214345 0.120458 -0.040649 -0.018111 0.058524 -0.094587 -0.056483 0.052063 0.054827 0.110717 0.220085 0.238625 0.308132 0.428799 0.437730 0.452392 0.477286 0.450631 0.329773 0.332645 0.240823 0.053920 0.062487 0.016680 -0.041628 -0.099849 -0.095766 -0.013352 -0.046118 0.075202 0.123023 0.124056 0.263245 0.227905 0.245436 0.290586 0.247359 0.241889 0.215979 0.167941 0.116449 0.107127 0.025941 0.010080 -0.114498 -0.047519 0.010392 -0.002156 0.022684 0.099787 0.083991 0.137202 0.189765 0.259890 0.179275 0.184681 0.106444 0.133865 0.025540 -0.033613 0.020535 -0.022390 0.005304 -0.006636 0.036738 0.080059 0.051069 0.153709 0.093841 0.168436 0.065158 0.148571 0.096013 -0.009172 -0.061223 -0.016934 -0.036062 -0.066055 -0.067126 0.059199 0.058390 -0.008375 0.052403 0.059121 0.072964 0.142094 0.064887 0.061996 0.051893 -0.024094 0.026161 -0.001839 0.010811 0.003885 -0.003884 0.035097 0.063549 0.067010 0.028888 0.044574 0.020520 0.055484 -0.008853 -0.019424 0.021864 0.010972 0.055835 0.038394 0.042905 0.050609 0.049134 0.017907 0.034839 -0.002602 -0.051556 -0.036321 -0.029353 0.024213 0.039288 0.100448 -0.005942 0.055366 0.059775 -0.009709 0.066719 0.017107 0.007359 0.038218 0.055649 0.040787 0.092784 0.052614 0.069089 0.084824 0.065743 0.063275 0.072352 0.088206 0.037193 -0.009819 0.051216 0.041191 0.043814 0.072779 0.095669 -0.003834 0.063286 0.080291 0.009406 0.007138 -0.062521 -0.020064 0.111201 0.081209 0.054534 0.042139 -0.014938 0.054915 0.028578 -0.063834 0.053277 0.034584 0.062946 0.035721 0.005778 0.005493 0.052616 0.048961 0.017906 0.046619 -0.033454 0.061500 0.114620 0.007904 -0.007554 -0.008036 -0.001451 -0.028058 -0.028519 -0.042494 -0.009128 -0.095687 -0.022337 -0.030719 0.023847 -0.032009 -0.067189 0.027704 -0.074000 -0.048769 -0.079888 0.057837 0.011638 0.007577 -0.005795 0.078623 -0.051180 -0.060946 0.039538 -0.020968 0.006930 -0.000385 0.192158 -0.042682 0.019411 0.009209 -0.024817 -0.003940 -0.041009 -0.022549 -0.160516 0.008238 -0.044270 0.003631 0.014387 0.002188 0.127527 0.001009 -0.001288 -0.035882 -0.028696 -0.058392 0.034590 0.266916 0.164313 0.205256 0.241341 0.320757 0.356766 0.360818 0.047173 -1.058618
0.072396 0.072910 0.074451 0.077020 0.080615 0.085236 0.090881 0.097548 0.105236 0.113942 0.123661 0.134390 0.146122 0.158851 0.172569 0.187265 0.202929 0.219546 0.237101 0.255576 0.274948 0.295194 0.316286 0.338192 0.360878 0.384304 0.408425 0.433194 0.458555 0.484450 0.510813 0.537574 0.564654 0.591970 0.619432 0.646942 0.674396 0.701681 0.728681 0.755268 0.781311 0.806669 0.831196 0.854738 0.877137 0.898227 0.917839 0.935797 0.951924 0.966038 0.977955 0.987492 0.994465 0.998691 0.999992 0.998194 0.993128 0.984637 0.972570 0.956791 0.937177 0.913624 0.886045 0.854373 0.818569 0.778615 0.734524 0.686340 0.634139 0.578031 0.518163 0.454722 0.387933 0.318063 0.245419 0.170354 0.093260 0.014571 0.065237 0.145648 0.226111 0.306038 0.384813 0.461789 0.536300 0.607663 0.675183 0.738161 0.795904 0.847728 0.892973 0.931005 0.961232 0.983110 0.996156 0.999953 0.994167 0.978550 0.952955 0.917341 0.871781 0.816471 0.751735 0.678027 0.595936 0.506185 0.409632 0.307262 0.200187 0.089633 0.023072 0.136503 0.249165 0.359504 0.465929 0.566838 0.660640 0.745784 0.820783 0.884248 0.934912 0.971664 0.993573 0.999918 0.990210 0.964217 0.921979 0.863827 0.790390 0.702597 0.601683 0.489173 0.366875 0.236849 0.101392 0.037011 0.175720 0.311987 0.443016 0.566019 0.678270 0.777182 0.860359 0.925670 0.971306 0.995840 0.998279 0.978109 0.935329 0.870480 0.784653 0.679487 0.557159 0.420346 0.272186 0.116207 0.043740 0.203575 0.359090 0.506058 0.640350 0.758058 0.855614 0.929912 0.978414 0.999253 0.991318 0.954318 0.888828 0.796304 0.679082 0.540332 0.383997 0.214697 0.037601 0.141713 0.317435 0.483707 0.634821 0.765425 0.870715 0.946637 0.990056 0.998900 0.972287 0.910593 0.815493 0.689947 0.538133 0.365335 0.177786 0.017551 0.213219 0.401558 0.574994 0.726356 0.849187 0.938034 0.988714 0.998534 0.966465 0.893238 0.781380 0.635165 0.460485 0.264636 0.056055 0.156050 0.362074 0.552472 0.718186 0.851105 0.944481 0.993299 0.994580 0.947595 0.853973 0.717703 0.545001 0.344074 0.124757 0.101937 0.324368 0.530850 0.710279 0.852743 0.950103 0.996487 0.988687 0.926421 0.812437 0.652455 0.454923 0.230626 0.007872 0.246916 0.472523 0.671207 0.830804 0.941244 0.995229 0.988759 0.921481 0.796818 0.621858 0.407016 0.165462 0.087650 0.336109 0.563679 0.755169 0.897480 0.980534 0.998045 0.948053 0.833176 0.660562 0.441503 0.190773 0.074336 0.335172 0.573033 0.770513 0.912814 0.988895 0.992400 0.922252 0.782872 0.583995 0.340064 0.069242 0.207892 0.469890 0.696097 0.868295 0.972234 0.998864 0.945206 0.814749 0.617323 0.368453 0.088209 0.200361 0.473104 0.706772 0.881044 0.980352 0.995333 0.923810 0.771153 0.549994 0.279265 0.017324 0.313345 0.581955 0.798365 0.942172 0.999344 0.963690 0.837627 0.632151 0.365992 0.063993 0.245130 0.531501 0.766981 0.927961 0.997817 0.968723 0.842637 0.631325 0.355385 0.042352 0.276000 0.566832 0.799649 0.949549 0.999975 0.944654 0.788497 0.547318 0.246355 0.082258 0.402865 0.680154 0.883054 0.988307 0.983239 0.867425 0.652986 0.363491 0.031466 0.305155 0.607336 0.839485 0.973712 0.993292 0.894889 0.689232 0.400119 0.061792 0.285008 0.597906 0.838100 0.975224 0.991314 0.883322 0.663792 0.359580 0.008729 0.344199 0.653754 0.879454 0.991185 0.973354 0.827232 0.571112 0.238215 0.127487 0.476983 0.762806 0.945489 0.999169
1.000000 1.000000 1.000000 1.000000 1.000000 1.000000 1.000000 1.000000 1.000000 1.000000 1.000000 1.000000 1.000000 1.000000 1.000000 1.000000 1.000000 1.000000 1.000000 1.000000 1.000000 1.000000 1.000000 1.000000 1.000000 1.000000 1.000000 1.000000 1.000000 1.000000 1.000000 1.000000 1.000000 1.000000 1.000000 1.000000 1.000000 1.000000 1.000000 1.000000 1.000000 1.000000 1.000000 1.000000 1.000000 1.000000 1.000000 1.000000 1.000000 1.000000 1.000000 1.000000 0.919063 0.919063 0.905368 0.905368 0.905368 0.905368 0.905368 0.905368 0.905368 0.905368 0.905368 0.905368 0.905368 0.905368 0.905368 0.905368 0.905368 0.905368 0.905368 0.905368 0.905368 0.905368 0.905368 0.905368 0.905368 0.905368 0.905368 0.905368 0.905368 0.905368 0.905368 0.905368 0.905368 0.905368 0.905368 0.905368 0.905368 0.905368 0.905368 0.905368 0.905368 0.905368 0.905368 0.901873 0.906604 0.908477 0.906842 0.910409 0.910486 0.909779 0.910102 0.909741 0.910046 0.911426 0.921960 0.933021 0.944108 0.944649 0.949773 0.954169 0.956516 0.957468 0.958983 0.968784 0.966328 0.965885 0.966591 0.968127 0.970321 0.968958 0.968660 0.971788 0.972490 0.970797 0.968664 0.968046 0.967430 0.967517 0.967124 0.967015 0.966902 0.967406 0.967620 0.967810 0.967952 0.967995 0.969017 0.970174 0.972483 0.973463 0.973278 0.972129 0.966632 0.970490 0.971170 0.970813 0.970747 0.970285 0.970600 0.958258 0.953484 0.953426 0.950249 0.949151 0.945695 0.944430 0.942937 0.943146 0.941977 0.942325 0.939481 0.926476 0.913442 0.902303 0.922121 0.907698 0.896240 0.871273 0.871454 0.865425 0.866040 0.857623 0.851912 0.847321 0.843949 0.845156 0.844308 0.848785 0.846464 0.832289 0.835587 0.831838 0.801589 0.786100 0.769733 0.771412 0.768845 0.770037 0.769685 0.764539 0.772880 0.763871 0.762403 0.753997 0.735248 0.703940 0.688192 0.698791 0.708744 0.708081 0.704608 0.689750 0.658637 0.669914 0.698246 0.689823 0.692189 0.684602 0.679441 0.682116 0.681611 0.678997 0.671819 0.671192 0.670618 0.678004 0.682912 0.677694 0.667807 0.653082 0.640364 0.627227 0.641265 0.650183 0.618490 0.613412 0.606619 0.599919 0.586921 0.549130 0.545966 0.522968 0.511483 0.510294 0.511012 0.507326 0.515939 0.517096 0.498190 0.521831 0.528437 0.556223 0.530043 0.528040 0.528983 0.537742 0.522476 0.492661 0.484142 0.485130 0.496830 0.530766 0.570910 0.563546 0.550244 0.538093 0.553343 0.528247 0.538297 0.556421 0.533476 0.460245 0.414541 0.411122 0.372816 0.368030 0.361459 0.352825 0.353648 0.346697 0.334711 0.321372 0.307745 0.255489 0.219532 0.201229 0.174757 0.180930 0.197001 0.182662 0.175756 0.210744 0.257166 0.257605 0.249096 0.221027 0.221119 0.193852 0.208840 0.237679 0.194608 0.190209 0.183416 0.156998 0.149401 0.105885 0.138926 0.049001 0.034127 0.034717 0.054285 0.067087 0.066049 0.076136 0.044879 0.063925 0.059364 0.037181 0.024128 0.042325 0.033421 0.002288 0.010946 0.019334 0.002398 -0.012755 0.006146 0.008645 0.020702 0.013350 0.015157 0.068750 0.100614 0.089153 0.090109 0.081655 0.082364 0.058243 0.045569 0.037870 0.028661 -0.015111 -0.044746 -0.044746 -0.039926 -0.039926 -0.039926 -0.039926 -0.039926 -0.039926 -0.039926 -0.039926 -0.039926 -0.043259 -0.043259 -0.043259 -0.043259 -0.043259 -0.043259 -0.043259 -0.043259 -0.043259 -0.017213 -0.017213 -0.017213 -0.017213 -0.017213 -0.017213 -0.017213 -0.017213 -0.017213
0.000000 0.000000 0.000000 0.000000 0.000000 0.000000 0.000000 0.000000 0.000000 0.000000 0.000000 0.000000 0.000000 0.000000 0.000000 0.000000 0.000000 0.000000 0.000000 0.000000 0.000000 0.000000 0.000000 0.000000 0.000000 0.000000 0.000000 0.000000 0.000000 0.000000 0.000000 0.000000 0.000000 0.000000 0.000000 0.000000 0.000000 0.000000 0.000000 0.000000 0.000000 0.000000 0.000000 0.000000 0.000000 0.000000 0.000000 0.000000 0.000000 0.000000 0.000000 0.000000 0.181818 0.181818 0.199007 0.199007 0.199007 0.199007 0.199007 0.199007 0.199007 0.199007 0.199007 0.199007 0.199007 0.199007 0.199007 0.199007 0.199007 0.199007 0.199007 0.199007 0.199007 0.199007 0.199007 0.199007 0.199007 0.199007 0.199007 0.199007 0.199007 0.199007 0.199007 0.199007 0.199007 0.199007 0.199007 0.199007 0.199007 0.199007 0.199007 0.199007 0.199007 0.199007 0.199007 0.230940 0.230940 0.230940 0.230940 0.230940 0.230940 0.230940 0.230940 0.230940 0.230940 0.230940 0.230940 0.230940 0.230940 0.230940 0.230940 0.230940 0.230940 0.230940 0.230940 0.230940 0.230940 0.230940 0.230940 0.230940 0.230940 0.230940 0.230940 0.244339 0.244339 0.244339 0.244339 0.244339 0.244339 0.244339 0.244339 0.244339 0.244339 0.244339 0.244339 0.244339 0.244339 0.244339 0.244339 0.244339 0.244339 0.244339 0.244339 0.244339 0.244339 0.244339 0.251976 0.251976 0.251976 0.251976 0.251976 0.251976 0.251976 0.251976 0.251976 0.251976 0.251976 0.251976 0.251976 0.251976 0.251976 0.251976 0.251976 0.251976 0.251976 0.251976 0.264906 0.264906 0.264906 0.264906 0.264906 0.264906 0.264906 0.264906 0.264906 0.264906 0.264906 0.264906 0.264906 0.264906 0.264906 0.264906 0.264906 0.264906 0.264906 0.264906 0.264906 0.264906 0.264906 0.264906 0.264906 0.264906 0.264906 0.264906 0.264906 0.264906 0.264906 0.264906 0.264906 0.264906 0.264906 0.264906 0.264906 0.264906 0.264906 0.264906 0.264906 0.264906 0.264906 0.264906 0.264906 0.264906 0.264906 0.264906 0.264906 0.264906 0.264906 0.264906 0.264906 0.264906 0.264906 0.264906 0.264906 0.264906 0.264906 0.264906 0.264906 0.264906 0.264906 0.264906 0.264906 0.264906 0.264906 0.264906 0.264906 0.264906 0.264906 0.264906 0.264906 0.264906 0.264906 0.269680 0.269680 0.269680 0.269680 0.269680 0.269680 0.269680 0.269680 0.269680 0.269680 0.269680 0.269680 0.264906 0.264906 0.264906 0.264906 0.264906 0.264906 0.264906 0.264906 0.264906 0.264906 0.264906 0.264906 0.269680 0.269680 0.269680 0.269680 0.269680 0.269680 0.269680 0.269680 0.269680 0.269680 0.269680 0.264906 0.264906 0.264906 0.264906 0.264906 0.264906 0.264906 0.264906 0.264906 0.264906 0.264906 0.256074 0.256074 0.256074 0.256074 0.256074 0.256074 0.256074 0.256074 0.256074 0.256074 0.256074 0.264906 0.264906 0.264906 0.264906 0.264906 0.264906 0.264906 0.264906 0.264906 0.264906 0.269680 0.269680 0.269680 0.269680 0.269680 0.269680 0.269680 0.269680 0.269680 0.256074 0.256074 0.256074 0.256074 0.256074 0.256074 0.256074 0.256074 0.256074 0.256074 0.260378 0.260378 0.260378 0.260378 0.260378 0.260378 0.260378 0.260378 0.260378 0.256074 0.256074 0.256074 0.256074 0.256074 0.256074 0.256074 0.256074 0.256074 0.251976 0.251976 0.251976 0.251976 0.251976 0.251976 0.251976 0.251976 0.251976 0.264906 0.264906 0.264906 0.264906 0.264906 0.264906 0.264906 0.264906 0.264906
