# Output from CTFFind version 4.1.9, run on 2019-11-03 19:36:43
# Input file: stack11_bm3d_averaged_1_4.25_0_2500_half.mrc ; Number of micrographs: 1
# Pixel size: 3.000 Angstroms ; acceleration voltage: 300.0 keV ; spherical aberration: 0.00 mm ; amplitude contrast: 0.07
# Box size: 512 pixels ; min. res.: 30.0 Angstroms ; max. res.: 5.0 Angstroms ; min. def.: 5000.0 um; max. def. 50000.0 um; num. frames averaged: 1
# 6 lines per micrograph: #1 - spatial frequency (1/Angstroms); #2 - 1D rotational average of spectrum (assuming no astigmatism); #3 - 1D rotational average of spectrum; #4 - CTF fit; #5 - cross-correlation between spectrum and CTF fit; #6 - 2sigma of expected cross correlation of noise
0.000000 0.000651 0.001302 0.001953 0.002604 0.003255 0.003906 0.004557 0.005208 0.005859 0.006510 0.007161 0.007812 0.008464 0.009115 0.009766 0.010417 0.011068 0.011719 0.012370 0.013021 0.013672 0.014323 0.014974 0.015625 0.016276 0.016927 0.017578 0.018229 0.018880 0.019531 0.020182 0.020833 0.021484 0.022135 0.022786 0.023438 0.024089 0.024740 0.025391 0.026042 0.026693 0.027344 0.027995 0.028646 0.029297 0.029948 0.030599 0.031250 0.031901 0.032552 0.033203 0.033854 0.034505 0.035156 0.035807 0.036458 0.037109 0.037760 0.038411 0.039062 0.039714 0.040365 0.041016 0.041667 0.042318 0.042969 0.043620 0.044271 0.044922 0.045573 0.046224 0.046875 0.047526 0.048177 0.048828 0.049479 0.050130 0.050781 0.051432 0.052083 0.052734 0.053385 0.054036 0.054688 0.055339 0.055990 0.056641 0.057292 0.057943 0.058594 0.059245 0.059896 0.060547 0.061198 0.061849 0.062500 0.063151 0.063802 0.064453 0.065104 0.065755 0.066406 0.067057 0.067708 0.068359 0.069010 0.069661 0.070312 0.070964 0.071615 0.072266 0.072917 0.073568 0.074219 0.074870 0.075521 0.076172 0.076823 0.077474 0.078125 0.078776 0.079427 0.080078 0.080729 0.081380 0.082031 0.082682 0.083333 0.083984 0.084635 0.085286 0.085938 0.086589 0.087240 0.087891 0.088542 0.089193 0.089844 0.090495 0.091146 0.091797 0.092448 0.093099 0.093750 0.094401 0.095052 0.095703 0.096354 0.097005 0.097656 0.098307 0.098958 0.099609 0.100260 0.100911 0.101562 0.102214 0.102865 0.103516 0.104167 0.104818 0.105469 0.106120 0.106771 0.107422 0.108073 0.108724 0.109375 0.110026 0.110677 0.111328 0.111979 0.112630 0.113281 0.113932 0.114583 0.115234 0.115885 0.116536 0.117188 0.117839 0.118490 0.119141 0.119792 0.120443 0.121094 0.121745 0.122396 0.123047 0.123698 0.124349 0.125000 0.125651 0.126302 0.126953 0.127604 0.128255 0.128906 0.129557 0.130208 0.130859 0.131510 0.132161 0.132812 0.133464 0.134115 0.134766 0.135417 0.136068 0.136719 0.137370 0.138021 0.138672 0.139323 0.139974 0.140625 0.141276 0.141927 0.142578 0.143229 0.143880 0.144531 0.145182 0.145833 0.146484 0.147135 0.147786 0.148438 0.149089 0.149740 0.150391 0.151042 0.151693 0.152344 0.152995 0.153646 0.154297 0.154948 0.155599 0.156250 0.156901 0.157552 0.158203 0.158854 0.159505 0.160156 0.160807 0.161458 0.162109 0.162760 0.163411 0.164062 0.164714 0.165365 0.166016 0.166667 0.167318 0.167969 0.168620 0.169271 0.169922 0.170573 0.171224 0.171875 0.172526 0.173177 0.173828 0.174479 0.175130 0.175781 0.176432 0.177083 0.177734 0.178385 0.179036 0.179688 0.180339 0.180990 0.181641 0.182292 0.182943 0.183594 0.184245 0.184896 0.185547 0.186198 0.186849 0.187500 0.188151 0.188802 0.189453 0.190104 0.190755 0.191406 0.192057 0.192708 0.193359 0.194010 0.194661 0.195312 0.195964 0.196615 0.197266 0.197917 0.198568 0.199219 0.199870 0.200521 0.201172 0.201823 0.202474 0.203125 0.203776 0.204427 0.205078 0.205729 0.206380 0.207031 0.207682 0.208333 0.208984 0.209635 0.210286 0.210938 0.211589 0.212240 0.212891 0.213542 0.214193 0.214844 0.215495 0.216146 0.216797 0.217448 0.218099 0.218750 0.219401 0.220052 0.220703 0.221354 0.222005 0.222656 0.223307 0.223958 0.224609 0.225260 0.225911 0.226562 0.227214 0.227865 0.228516 0.229167 0.229818 0.230469 0.231120 0.231771 0.232422 0.233073 0.233724 0.234375 0.235026 0.235677
       0.33359        0.33359        0.33359        0.33359        0.33359        0.33359        0.33359        0.33359        0.33359        0.33359        0.33359        0.33359        0.33359        0.33359        0.33359        0.33359        0.33359        0.33359        0.33359        0.33359        0.33359        0.33359        0.33359        0.33359        0.33359        0.33359        0.33359        0.33359        0.33359        0.33359        0.33359        0.33359        0.33359        0.33359        0.33359        0.33359        0.33359        0.33359        0.33359        0.33359        0.33359        0.33359        0.33359        0.33359        0.33359        0.33359        0.33359        0.33359        0.33359        0.33359        0.33359        0.69172        0.86040        0.53191        0.10260       -0.03655       -0.40207       -0.18562       -0.28898       -0.11326       -0.05917       -0.11063       -0.05517       -0.18049       -0.21415       -0.22861       -0.31517       -0.32707       -0.45724       -0.36791       -0.43799       -0.43176       -0.40459       -0.43095       -0.47733       -0.52489       -0.56536       -0.57488       -0.54711       -0.37585       -0.34897       -0.30907       -0.28775       -0.19385       -0.18451        0.04735        0.12221        0.15378        0.25055        0.37740        0.45290        0.51711        0.58248        0.58070        0.57285        0.69368        0.80611        0.71371        0.73787        0.63353        0.56735        0.48340        0.42344        0.50825        0.39077        0.24563        0.10237        0.08878        0.06557       -0.03305        0.01298        0.02890       -0.01725        0.01409        0.00636        0.23559        0.26413        0.29138        0.42567        0.44874        0.40806        0.57557        0.62654        0.65699        0.73578        0.68137        0.65084        0.67144        0.56566        0.47084        0.41755        0.29685        0.24126        0.16954        0.12774        0.05280        0.04333        0.04497        0.08659        0.14359        0.22987        0.28012        0.40339        0.45435        0.48588        0.58385        0.61352        0.63703        0.62222        0.56096        0.45404        0.46620        0.37180        0.25411        0.19844        0.15588        0.15596        0.14264        0.13130        0.15768        0.29182        0.30300        0.38402        0.41900        0.43013        0.49685        0.55246        0.55223        0.48910        0.45132        0.40197        0.35296        0.32267        0.28730        0.23466        0.23013        0.21703        0.23572        0.21355        0.29973        0.35738        0.38777        0.43821        0.45495        0.47347        0.42151        0.39881        0.40532        0.36056        0.30443        0.26837        0.25175        0.25131        0.22008        0.26711        0.26927        0.33979        0.37343        0.40660        0.47493        0.41699        0.42976        0.43120        0.40378        0.34321        0.31986        0.28874        0.30289        0.26530        0.30216        0.29801        0.31834        0.32594        0.34691        0.31910        0.40059        0.41632        0.37922        0.34433        0.37138        0.30513        0.28735        0.28769        0.31560        0.29403        0.30554        0.32193        0.33526        0.34032        0.36719        0.37064        0.39100        0.37334        0.32411        0.33208        0.29063        0.27301        0.31822        0.31101        0.32173        0.32798        0.32562        0.36454        0.32684        0.32534        0.31899        0.32765        0.29547        0.30462        0.26939        0.29688        0.31370        0.29641        0.31743        0.33837        0.34324        0.28006        0.31539        0.28496        0.30029        0.27763        0.23527        0.28984        0.29324        0.34080        0.32977        0.32916        0.32111        0.33967        0.29868        0.33725        0.32117        0.29623        0.27382        0.32004        0.30574        0.35115        0.32522        0.33275        0.33955        0.29283        0.27379        0.30714        0.24392        0.22199        0.32477        0.31654        0.33353        0.32597        0.33920        0.31367        0.34302        0.33915        0.26302        0.24248        0.30394        0.30206        0.30507        0.32099        0.33779        0.33593        0.30272        0.28909        0.33659        0.31600        0.28936        0.27125        0.31951        0.35096        0.39288        0.32084        0.28912        0.27374        0.30781        0.26721        0.29163        0.26854        0.24511        0.31012        0.33310        0.34319        0.34071        0.30231        0.27667        0.28752        0.25640        0.25492        0.24488        0.31639        0.28584        0.22297        0.32310        0.31919        0.26167        0.27777        0.20446        0.21355        0.25178        0.18011        0.24550        0.29519        0.22844        0.20811        0.30632        0.33471        0.32694        0.32977        0.25281        0.21314        0.18261        0.22066        0.19167        0.18195        0.20652        0.25150        0.26926        0.24393        0.19472        0.10849        0.08657        0.01213       -0.09365       -0.61438
2.702072 2.673518 2.645120 2.616878 2.588791 2.560860 2.533085 2.505466 2.478003 2.450695 2.423543 2.396547 2.369707 2.343023 2.316494 2.290121 2.263904 2.237842 2.211937 2.186187 2.160593 2.135154 2.109872 2.084745 2.059774 2.034959 2.010299 1.985796 1.961448 1.937256 1.913219 1.889339 1.865614 1.842045 1.818632 1.795374 1.772272 1.749327 1.726536 1.703902 1.681423 1.659101 1.636934 1.614922 1.593067 1.571367 1.549823 1.528435 1.507202 1.486126 1.465205 1.680945 2.097401 1.661075 1.164915 1.030814 0.437724 0.838496 0.561856 0.842311 0.798745 0.810383 0.756896 0.735073 0.586644 0.544857 0.495473 0.429988 0.238751 0.372836 0.203608 0.324172 0.227047 0.198686 0.169267 0.035771 0.023538 0.014141 -0.065631 0.125507 0.223752 0.186824 0.168065 0.332442 0.186032 0.507941 0.611861 0.606851 0.625268 0.871183 0.825378 0.935020 0.908684 1.007207 0.971291 1.069324 1.155307 1.044913 1.140926 0.915560 0.924149 0.787824 0.649004 0.791104 0.701233 0.475944 0.324962 0.250272 0.253357 0.148052 0.117111 0.153354 0.100852 0.132632 0.067217 0.257721 0.364071 0.345193 0.469444 0.547380 0.423482 0.577685 0.716910 0.686080 0.742438 0.706395 0.721813 0.665056 0.601501 0.518349 0.385454 0.277396 0.220886 0.080495 0.121610 -0.077222 -0.043047 -0.061347 -0.069695 -0.019954 0.142755 0.068077 0.245586 0.303453 0.341833 0.405153 0.506761 0.487341 0.486819 0.496431 0.310954 0.295444 0.282729 0.086762 0.043587 -0.057713 -0.009830 -0.055450 -0.086865 -0.090126 0.034126 0.073691 0.121010 0.201811 0.227940 0.255228 0.299377 0.430209 0.390569 0.270050 0.240515 0.217135 0.156048 0.136573 0.107596 0.003038 0.016249 0.054586 -0.001396 0.065713 0.146212 0.147857 0.239100 0.246424 0.286898 0.185251 0.219335 0.146036 0.181341 0.111741 0.049063 -0.004859 0.006754 -0.004181 -0.046040 0.053221 0.022144 0.128858 0.149072 0.182687 0.204798 0.169150 0.156318 0.177569 0.130859 0.062971 0.007844 0.054369 0.017072 -0.013058 0.030058 0.043293 0.059041 0.051821 0.062045 0.085898 0.126780 0.159639 0.059333 0.060799 0.057972 0.012601 -0.022540 0.015028 0.019716 0.005682 0.011356 0.036872 0.056578 0.051931 0.111128 0.058452 0.135256 0.060339 0.024335 0.039638 -0.032045 -0.000465 0.043838 0.001498 0.041519 0.050291 0.021014 0.102033 0.040261 0.010910 0.049603 0.007208 0.017941 0.006879 -0.019826 0.036260 0.006155 0.007724 0.058659 0.058330 0.048194 0.032105 0.034775 0.038367 0.028170 -0.010774 -0.022888 0.033513 0.056462 0.088110 0.085693 0.068852 0.081155 0.109294 0.057292 0.116011 0.094530 0.032968 0.042177 0.097145 0.079079 0.111496 0.108347 0.064350 0.141497 0.067484 0.025304 0.100830 -0.022642 0.006250 0.112763 0.069024 0.134080 0.093023 0.093613 0.049536 0.114749 0.090661 -0.004797 -0.027783 0.062360 0.075626 0.052443 0.043801 0.100928 0.088589 0.012656 0.046175 0.074861 0.059735 0.038948 -0.019767 0.078926 0.096399 0.129275 0.015821 0.004402 -0.019435 0.034391 -0.033815 0.012389 -0.034194 -0.040349 0.013844 0.060979 0.009940 0.028057 -0.021525 -0.034925 -0.047394 -0.032327 -0.074341 -0.069967 0.013719 0.027211 -0.093769 0.034555 -0.011209 -0.062555 0.010418 -0.123780 -0.068104 -0.067951 -0.147845 -0.024312 0.029435 -0.029431 -0.135017 0.053739 0.125141 -0.016754 0.112771 -0.015179 0.231187 0.154675 0.234919 0.234572 0.198662 0.216771 0.286203 0.260644 0.276026 0.178544 0.185534 0.124448 0.009008 -0.659811
0.072396 0.072899 0.074406 0.076918 0.080434 0.084954 0.090475 0.096996 0.104515 0.113030 0.122537 0.133031 0.144508 0.156960 0.170381 0.184760 0.200088 0.216351 0.233533 0.251619 0.270588 0.290416 0.311078 0.332545 0.354784 0.377756 0.401422 0.425734 0.450643 0.476092 0.502020 0.528361 0.555041 0.581981 0.609097 0.636296 0.663481 0.690546 0.717379 0.743862 0.769868 0.795267 0.819918 0.843677 0.866392 0.887907 0.908059 0.926682 0.943604 0.958652 0.971649 0.982418 0.990780 0.996558 0.999577 0.999666 0.996659 0.990396 0.980727 0.967512 0.950624 0.929948 0.905390 0.876871 0.844336 0.807751 0.767108 0.722428 0.673761 0.621188 0.564825 0.504823 0.441370 0.374693 0.305057 0.232768 0.158173 0.081659 0.003652 0.075383 0.154941 0.234486 0.313445 0.391218 0.467181 0.540686 0.611070 0.677663 0.739788 0.796774 0.847962 0.892712 0.930412 0.960487 0.982412 0.995716 0.999993 0.994915 0.980238 0.955809 0.921580 0.877610 0.824077 0.761277 0.689632 0.609694 0.522142 0.427782 0.327549 0.222493 0.113778 0.002672 0.109469 0.221211 0.331066 0.437500 0.538965 0.633917 0.720841 0.798277 0.864850 0.919294 0.960479 0.987444 0.999416 0.995837 0.976386 0.940998 0.889881 0.823522 0.742699 0.648479 0.542214 0.425529 0.300309 0.168668 0.032926 0.104430 0.240792 0.373474 0.499766 0.616991 0.722565 0.814058 0.889254 0.946215 0.983330 0.999380 0.993574 0.965596 0.915630 0.844382 0.753086 0.643501 0.517886 0.378973 0.229910 0.074209 0.084338 0.241743 0.393921 0.536793 0.666407 0.779040 0.871324 0.940352 0.983780 0.999921 0.987822 0.947323 0.879097 0.784659 0.666365 0.527361 0.371527 0.203377 0.027947 0.149351 0.322890 0.487007 0.636186 0.765255 0.869574 0.945213 0.989122 0.999267 0.974744 0.915855 0.824142 0.702376 0.554504 0.385543 0.201430 0.008833 0.185088 0.372928 0.547331 0.701279 0.828382 0.923169 0.981335 0.999964 0.977698 0.914852 0.813456 0.677231 0.511480 0.322919 0.119424 0.090277 0.296969 0.491351 0.664462 0.808097 0.915224 0.980348 0.999827 0.972104 0.897850 0.780005 0.623710 0.436116 0.226097 0.003850 0.219571 0.432810 0.624778 0.785248 0.905414 0.978409 0.999733 0.967570 0.882963 0.749855 0.574948 0.367419 0.138468 0.099249 0.332304 0.547260 0.731442 0.873717 0.965187 0.999795 0.974769 0.890888 0.752535 0.567528 0.346737 0.103485 0.147217 0.389591 0.608073 0.788323 0.918208 0.988652 0.994316 0.934068 0.811172 0.633183 0.411549 0.160942 0.101698 0.358257 0.590706 0.782380 0.919193 0.990737 0.991122 0.919526 0.780391 0.583233 0.342061 0.074436 0.199754 0.459761 0.685545 0.859344 0.967114 0.999724 0.953805 0.832161 0.643698 0.402858 0.128594 0.157093 0.430865 0.669966 0.854133 0.967363 0.999368 0.946596 0.812693 0.608366 0.350622 0.061421 0.234126 0.509935 0.741234 0.906834 0.991132 0.985662 0.890036 0.712175 0.467754 0.178928 0.127611 0.423068 0.679221 0.871171 0.979803 0.993782 0.910842 0.738207 0.492088 0.196279 0.120084 0.425322 0.688393 0.882065 0.985820 0.988108 0.887754 0.694305 0.427257 0.114200 0.211941 0.516349 0.766010 0.933354 0.999384 0.955942 0.806846 0.567716 0.264470 0.069372 0.396331 0.679159 0.885105 0.989798 0.980233 0.856531 0.632188 0.332759 0.006921 0.346729 0.645936 0.868131 0.985721 0.983484 0.860678 0.631427 0.323270 0.026039 0.373027 0.673922 0.890185 0.993533 0.969780 0.820944 0.565293 0.235280 0.126442
1.000000 1.000000 1.000000 1.000000 1.000000 1.000000 1.000000 1.000000 1.000000 1.000000 1.000000 1.000000 1.000000 1.000000 1.000000 1.000000 1.000000 1.000000 1.000000 1.000000 1.000000 1.000000 1.000000 1.000000 1.000000 1.000000 1.000000 1.000000 1.000000 1.000000 1.000000 1.000000 1.000000 1.000000 1.000000 1.000000 1.000000 1.000000 1.000000 1.000000 1.000000 1.000000 1.000000 1.000000 1.000000 1.000000 1.000000 1.000000 1.000000 1.000000 1.000000 1.000000 0.917957 0.917957 0.917957 0.909852 0.909852 0.909852 0.909852 0.909852 0.909852 0.909852 0.909852 0.909852 0.909852 0.909852 0.909852 0.909852 0.909852 0.909852 0.909852 0.909852 0.909852 0.909852 0.909852 0.909852 0.909852 0.909852 0.909852 0.909852 0.909852 0.909852 0.909852 0.909852 0.909852 0.909852 0.909852 0.909852 0.909852 0.909852 0.909852 0.909852 0.909852 0.909852 0.909852 0.909852 0.938602 0.940146 0.948304 0.948012 0.947374 0.945190 0.944016 0.943512 0.943392 0.943729 0.944467 0.945477 0.954327 0.955549 0.958417 0.960078 0.960816 0.961434 0.962043 0.962568 0.953344 0.953140 0.951777 0.951160 0.953685 0.952902 0.952784 0.953750 0.953611 0.954496 0.954374 0.953634 0.952499 0.951492 0.950517 0.949934 0.949708 0.950448 0.950869 0.952376 0.955725 0.956293 0.956415 0.956571 0.956668 0.957969 0.956778 0.956382 0.952311 0.952553 0.952102 0.952341 0.955866 0.955774 0.956325 0.956885 0.958457 0.958751 0.951496 0.949593 0.940496 0.938817 0.934389 0.928572 0.924384 0.926257 0.927687 0.928594 0.929151 0.924626 0.924602 0.922040 0.920009 0.922848 0.922063 0.922379 0.923753 0.922460 0.919775 0.919190 0.916675 0.907638 0.895456 0.895019 0.897422 0.902122 0.903728 0.902623 0.904048 0.891012 0.872496 0.858904 0.860109 0.863956 0.855140 0.852926 0.853579 0.854236 0.857850 0.851269 0.849110 0.845201 0.834488 0.824053 0.816170 0.810347 0.817010 0.813050 0.803619 0.802793 0.813466 0.806002 0.820517 0.825911 0.823210 0.822761 0.821119 0.816515 0.793928 0.792529 0.787719 0.771348 0.771811 0.770699 0.767657 0.762949 0.769883 0.755964 0.752602 0.738268 0.740756 0.744343 0.746005 0.744404 0.737429 0.740746 0.745367 0.727920 0.714099 0.700488 0.705791 0.712897 0.714576 0.710578 0.689382 0.653949 0.623875 0.643746 0.661601 0.623164 0.648017 0.659617 0.642670 0.640589 0.632351 0.635574 0.623790 0.627218 0.630711 0.635621 0.635342 0.652136 0.637880 0.629085 0.638750 0.637534 0.645879 0.640984 0.641099 0.614753 0.610863 0.634922 0.638435 0.625352 0.642322 0.630952 0.635715 0.669349 0.676363 0.651455 0.645454 0.623248 0.580290 0.577663 0.573422 0.585540 0.617531 0.591446 0.553272 0.529132 0.535109 0.556184 0.560774 0.563626 0.543608 0.546638 0.537208 0.511001 0.516663 0.530867 0.533602 0.522921 0.500333 0.505795 0.509823 0.533595 0.523187 0.482958 0.497246 0.492773 0.488449 0.434122 0.448801 0.430156 0.416290 0.368608 0.374519 0.387977 0.376649 0.321450 0.304430 0.303896 0.303619 0.304588 0.291693 0.266464 0.259060 0.256529 0.258731 0.247447 0.221821 0.216995 0.203062 0.191231 0.193210 0.152346 0.190014 0.250792 0.252059 0.252059 0.252059 0.252059 0.252059 0.252059 0.257376 0.257376 0.257376 0.257376 0.257376 0.257376 0.257376 0.257376 0.257376 0.277772 0.277772 0.277772 0.277772 0.277772 0.277772 0.277772 0.277772 0.277772 0.277772 0.277772 0.277772 0.277772 0.277772
0.000000 0.000000 0.000000 0.000000 0.000000 0.000000 0.000000 0.000000 0.000000 0.000000 0.000000 0.000000 0.000000 0.000000 0.000000 0.000000 0.000000 0.000000 0.000000 0.000000 0.000000 0.000000 0.000000 0.000000 0.000000 7.000000 4.000000 0.000000 0.000000 0.000000 0.000000 0.000000 0.000000 0.000000 0.000000 0.000000 0.000000 0.000000 0.000000 0.000000 0.000000 0.000000 0.000000 0.000000 0.000000 0.000000 0.000000 0.000000 0.000000 0.000000 0.000000 0.000000 0.180334 0.180334 0.180334 0.199007 0.199007 0.199007 0.199007 0.199007 0.199007 0.199007 0.199007 0.199007 0.199007 0.199007 0.199007 0.199007 0.199007 0.199007 0.199007 0.199007 0.199007 0.199007 0.199007 0.199007 0.199007 0.199007 0.199007 0.199007 0.199007 0.199007 0.199007 0.199007 0.199007 0.199007 0.199007 0.199007 0.199007 0.199007 0.199007 0.199007 0.199007 0.199007 0.199007 0.199007 0.225018 0.225018 0.225018 0.225018 0.225018 0.225018 0.225018 0.225018 0.225018 0.225018 0.225018 0.225018 0.225018 0.225018 0.225018 0.225018 0.225018 0.225018 0.225018 0.225018 0.225018 0.225018 0.225018 0.225018 0.225018 0.225018 0.225018 0.225018 0.225018 0.244339 0.244339 0.244339 0.244339 0.244339 0.244339 0.244339 0.244339 0.244339 0.244339 0.244339 0.244339 0.244339 0.244339 0.244339 0.244339 0.244339 0.244339 0.244339 0.244339 0.244339 0.244339 0.244339 0.251976 0.251976 0.251976 0.251976 0.251976 0.251976 0.251976 0.251976 0.251976 0.251976 0.251976 0.251976 0.251976 0.251976 0.251976 0.251976 0.251976 0.251976 0.251976 0.251976 0.264906 0.264906 0.264906 0.264906 0.264906 0.264906 0.264906 0.264906 0.264906 0.264906 0.264906 0.264906 0.264906 0.264906 0.264906 0.264906 0.264906 0.264906 0.264906 0.264906 0.264906 0.264906 0.264906 0.264906 0.264906 0.264906 0.264906 0.264906 0.264906 0.264906 0.264906 0.264906 0.264906 0.264906 0.264906 0.264906 0.264906 0.264906 0.264906 0.264906 0.264906 0.264906 0.264906 0.264906 0.264906 0.264906 0.264906 0.264906 0.264906 0.264906 0.264906 0.264906 0.264906 0.264906 0.264906 0.264906 0.264906 0.264906 0.264906 0.264906 0.264906 0.264906 0.256074 0.256074 0.256074 0.256074 0.256074 0.256074 0.256074 0.256074 0.256074 0.256074 0.256074 0.256074 0.256074 0.256074 0.269680 0.269680 0.269680 0.269680 0.269680 0.269680 0.269680 0.269680 0.269680 0.269680 0.269680 0.269680 0.264906 0.264906 0.264906 0.264906 0.264906 0.264906 0.264906 0.264906 0.264906 0.264906 0.264906 0.264906 0.269680 0.269680 0.269680 0.269680 0.269680 0.269680 0.269680 0.269680 0.269680 0.269680 0.269680 0.264906 0.264906 0.264906 0.264906 0.264906 0.264906 0.264906 0.264906 0.264906 0.264906 0.264906 0.256074 0.256074 0.256074 0.256074 0.256074 0.256074 0.256074 0.256074 0.256074 0.256074 0.256074 0.264906 0.264906 0.264906 0.264906 0.264906 0.264906 0.264906 0.264906 0.264906 0.264906 0.260378 0.260378 0.260378 0.260378 0.260378 0.260378 0.260378 0.260378 0.260378 0.260378 0.256074 0.256074 0.256074 0.256074 0.256074 0.256074 0.256074 0.256074 0.256074 0.256074 0.260378 0.260378 0.260378 0.260378 0.260378 0.260378 0.260378 0.260378 0.260378 0.256074 0.256074 0.256074 0.256074 0.256074 0.256074 0.256074 0.256074 0.256074 0.251976 0.251976 0.251976 0.251976 0.251976 0.251976 0.251976 0.251976 0.251976 0.251976 0.251976 0.251976 0.251976 0.251976
