# Output from CTFFind version 4.1.9, run on 2019-11-03 20:07:31
# Input file: stack1_bm3d_averaged_1_6.0_0_1500_half.mrc ; Number of micrographs: 1
# Pixel size: 3.000 Angstroms ; acceleration voltage: 300.0 keV ; spherical aberration: 0.00 mm ; amplitude contrast: 0.07
# Box size: 512 pixels ; min. res.: 30.0 Angstroms ; max. res.: 5.0 Angstroms ; min. def.: 5000.0 um; max. def. 50000.0 um; num. frames averaged: 1
# 6 lines per micrograph: #1 - spatial frequency (1/Angstroms); #2 - 1D rotational average of spectrum (assuming no astigmatism); #3 - 1D rotational average of spectrum; #4 - CTF fit; #5 - cross-correlation between spectrum and CTF fit; #6 - 2sigma of expected cross correlation of noise
0.000000 0.000651 0.001302 0.001953 0.002604 0.003255 0.003906 0.004557 0.005208 0.005859 0.006510 0.007161 0.007812 0.008464 0.009115 0.009766 0.010417 0.011068 0.011719 0.012370 0.013021 0.013672 0.014323 0.014974 0.015625 0.016276 0.016927 0.017578 0.018229 0.018880 0.019531 0.020182 0.020833 0.021484 0.022135 0.022786 0.023438 0.024089 0.024740 0.025391 0.026042 0.026693 0.027344 0.027995 0.028646 0.029297 0.029948 0.030599 0.031250 0.031901 0.032552 0.033203 0.033854 0.034505 0.035156 0.035807 0.036458 0.037109 0.037760 0.038411 0.039062 0.039714 0.040365 0.041016 0.041667 0.042318 0.042969 0.043620 0.044271 0.044922 0.045573 0.046224 0.046875 0.047526 0.048177 0.048828 0.049479 0.050130 0.050781 0.051432 0.052083 0.052734 0.053385 0.054036 0.054688 0.055339 0.055990 0.056641 0.057292 0.057943 0.058594 0.059245 0.059896 0.060547 0.061198 0.061849 0.062500 0.063151 0.063802 0.064453 0.065104 0.065755 0.066406 0.067057 0.067708 0.068359 0.069010 0.069661 0.070312 0.070964 0.071615 0.072266 0.072917 0.073568 0.074219 0.074870 0.075521 0.076172 0.076823 0.077474 0.078125 0.078776 0.079427 0.080078 0.080729 0.081380 0.082031 0.082682 0.083333 0.083984 0.084635 0.085286 0.085938 0.086589 0.087240 0.087891 0.088542 0.089193 0.089844 0.090495 0.091146 0.091797 0.092448 0.093099 0.093750 0.094401 0.095052 0.095703 0.096354 0.097005 0.097656 0.098307 0.098958 0.099609 0.100260 0.100911 0.101562 0.102214 0.102865 0.103516 0.104167 0.104818 0.105469 0.106120 0.106771 0.107422 0.108073 0.108724 0.109375 0.110026 0.110677 0.111328 0.111979 0.112630 0.113281 0.113932 0.114583 0.115234 0.115885 0.116536 0.117188 0.117839 0.118490 0.119141 0.119792 0.120443 0.121094 0.121745 0.122396 0.123047 0.123698 0.124349 0.125000 0.125651 0.126302 0.126953 0.127604 0.128255 0.128906 0.129557 0.130208 0.130859 0.131510 0.132161 0.132812 0.133464 0.134115 0.134766 0.135417 0.136068 0.136719 0.137370 0.138021 0.138672 0.139323 0.139974 0.140625 0.141276 0.141927 0.142578 0.143229 0.143880 0.144531 0.145182 0.145833 0.146484 0.147135 0.147786 0.148438 0.149089 0.149740 0.150391 0.151042 0.151693 0.152344 0.152995 0.153646 0.154297 0.154948 0.155599 0.156250 0.156901 0.157552 0.158203 0.158854 0.159505 0.160156 0.160807 0.161458 0.162109 0.162760 0.163411 0.164062 0.164714 0.165365 0.166016 0.166667 0.167318 0.167969 0.168620 0.169271 0.169922 0.170573 0.171224 0.171875 0.172526 0.173177 0.173828 0.174479 0.175130 0.175781 0.176432 0.177083 0.177734 0.178385 0.179036 0.179688 0.180339 0.180990 0.181641 0.182292 0.182943 0.183594 0.184245 0.184896 0.185547 0.186198 0.186849 0.187500 0.188151 0.188802 0.189453 0.190104 0.190755 0.191406 0.192057 0.192708 0.193359 0.194010 0.194661 0.195312 0.195964 0.196615 0.197266 0.197917 0.198568 0.199219 0.199870 0.200521 0.201172 0.201823 0.202474 0.203125 0.203776 0.204427 0.205078 0.205729 0.206380 0.207031 0.207682 0.208333 0.208984 0.209635 0.210286 0.210938 0.211589 0.212240 0.212891 0.213542 0.214193 0.214844 0.215495 0.216146 0.216797 0.217448 0.218099 0.218750 0.219401 0.220052 0.220703 0.221354 0.222005 0.222656 0.223307 0.223958 0.224609 0.225260 0.225911 0.226562 0.227214 0.227865 0.228516 0.229167 0.229818 0.230469 0.231120 0.231771 0.232422 0.233073 0.233724 0.234375 0.235026 0.235677
       0.34985        0.34985        0.34985        0.34985        0.34985        0.34985        0.34985        0.34985        0.34985        0.34985        0.34985        0.34985        0.34985        0.34985        0.34985        0.34985        0.34985        0.34985        0.34985        0.34985        0.34985        0.34985        0.34985        0.34985        0.34985        0.34985        0.34985        0.34985        0.34985        0.34985        0.34985        0.34985        0.34985        0.34985        0.34985        0.34985        0.34985        0.34985        0.34985        0.34985        0.34985        0.34985        0.34985        0.34985        0.34985        0.34985        0.34985        0.34985        0.34985        0.34985        0.34985        0.37566        0.54233        0.25034        0.09857       -0.00641       -0.27097       -0.10678       -0.17213       -0.21912        0.01544       -0.13788       -0.09379       -0.05807       -0.03998       -0.12836       -0.15545       -0.27660       -0.35363       -0.46713       -0.40355       -0.29983       -0.24660       -0.35058       -0.26693       -0.34761       -0.30527       -0.33838       -0.16427       -0.16732       -0.22940       -0.05941       -0.00372       -0.03682        0.08318        0.03013        0.21409        0.23808        0.34088        0.35943        0.41837        0.45729        0.52349        0.58445        0.62053        0.53765        0.50324        0.50944        0.46914        0.55065        0.46860        0.41578        0.40969        0.34160        0.29459        0.31178        0.33605        0.23251        0.19893        0.11294        0.14062        0.15019        0.18142        0.14667        0.21511        0.26248        0.30912        0.30151        0.35953        0.46851        0.40542        0.48731        0.62150        0.59814        0.53706        0.55263        0.59249        0.42380        0.48800        0.37975        0.31658        0.29500        0.26842        0.25669        0.18301        0.17848        0.14382        0.21521        0.26125        0.28754        0.35044        0.31375        0.41788        0.45696        0.46582        0.46325        0.49212        0.53732        0.48429        0.45488        0.41921        0.34182        0.33656        0.29132        0.31342        0.24496        0.23189        0.27590        0.24753        0.27190        0.32990        0.43063        0.43137        0.43346        0.41399        0.49060        0.48777        0.47177        0.45466        0.38225        0.37916        0.40906        0.38428        0.31459        0.28785        0.32432        0.29403        0.30183        0.29598        0.32852        0.36097        0.38881        0.45241        0.47949        0.38185        0.44623        0.43126        0.37373        0.30778        0.36357        0.32370        0.31442        0.33674        0.27288        0.26146        0.31873        0.33760        0.44170        0.41835        0.38515        0.38744        0.41333        0.36127        0.36377        0.33142        0.33093        0.31345        0.30469        0.29688        0.35679        0.36675        0.34597        0.35228        0.40410        0.39991        0.45924        0.40971        0.35440        0.35224        0.35615        0.33465        0.32253        0.34363        0.39011        0.35192        0.36188        0.34181        0.43430        0.37594        0.35183        0.34519        0.37611        0.37670        0.33244        0.33092        0.30180        0.32271        0.33494        0.31304        0.32738        0.34728        0.36088        0.34659        0.33976        0.30463        0.30107        0.28719        0.33457        0.32195        0.35844        0.32431        0.34619        0.36580        0.33700        0.33180        0.31641        0.28655        0.33728        0.32226        0.32989        0.32116        0.31940        0.32558        0.31801        0.34081        0.35794        0.35592        0.33657        0.29711        0.33479        0.30798        0.34043        0.33111        0.26999        0.32162        0.30184        0.33616        0.32530        0.39194        0.33162        0.31141        0.26711        0.31620        0.38554        0.35099        0.31910        0.33651        0.31635        0.32619        0.32329        0.32530        0.29998        0.31480        0.26975        0.28243        0.31502        0.30023        0.29988        0.31240        0.24305        0.31179        0.34252        0.36436        0.35370        0.31432        0.31910        0.28750        0.30782        0.31126        0.29004        0.32413        0.28253        0.30101        0.33517        0.37094        0.35433        0.28620        0.27721        0.33076        0.30759        0.31663        0.35556        0.36545        0.28842        0.28270        0.32640        0.32338        0.26451        0.21936        0.23563        0.26449        0.30226        0.31581        0.27320        0.34233        0.29574        0.25972        0.28944        0.28675        0.21501        0.27300        0.31865        0.26427        0.20112        0.22657        0.31207        0.41869        0.30561        0.24240        0.15457        0.22721        0.27870        0.28427        0.40400        0.22837        0.16479        0.26190        0.31318        0.28410        0.18779       -0.02750       -0.58228       -0.92821
3.134057 3.099660 3.065455 3.031442 2.997621 2.963991 2.930553 2.897307 2.864252 2.831389 2.798719 2.766239 2.733952 2.701856 2.669952 2.638240 2.606720 2.575391 2.544254 2.513309 2.482555 2.451994 2.421624 2.391446 2.361459 2.331664 2.302061 2.272650 2.243431 2.214403 2.185567 2.156923 2.128470 2.100209 2.072140 2.044263 2.016578 1.989084 1.961782 1.934672 1.907753 1.881026 1.854491 1.828148 1.801997 1.776037 1.750269 1.724692 1.699308 1.674115 1.649114 1.584280 1.912379 1.647112 1.186229 1.034163 0.385067 0.890445 0.510000 0.632482 0.898450 0.674889 0.601642 0.753721 0.687988 0.622833 0.495878 0.330905 0.146435 -0.024394 -0.020057 0.052377 0.399405 -0.029256 0.151585 0.030099 0.098631 -0.062805 0.236197 0.185853 0.092630 0.283290 0.444512 0.278259 0.471347 0.382264 0.704894 0.601848 0.835084 0.803164 0.837368 1.032830 0.929121 1.178658 1.131373 1.086376 0.917098 0.947980 0.899618 0.894034 0.903717 0.743287 0.670728 0.617794 0.561635 0.469146 0.540153 0.415638 0.314354 0.180779 0.136547 0.173407 0.222055 0.152437 0.169084 0.303762 0.335009 0.351462 0.426353 0.466473 0.530221 0.391010 0.773255 0.757666 0.667407 0.607757 0.709140 0.481900 0.436394 0.435636 0.194088 0.219054 0.083757 0.175285 -0.023730 -0.016852 -0.088275 -0.086179 0.125055 0.033449 0.133383 0.172340 0.194208 0.316138 0.337841 0.318253 0.358597 0.409938 0.384452 0.293468 0.275147 0.156732 0.136291 0.060098 0.019878 0.012986 -0.094902 -0.029005 -0.009408 -0.074218 -0.029203 0.133672 0.278084 0.172164 0.230529 0.211325 0.443509 0.268643 0.300413 0.280986 0.160214 0.129017 0.303544 0.032444 0.056773 0.024956 0.076794 0.009398 0.084687 -0.005238 0.145847 0.005208 0.231446 0.286681 0.244025 0.175426 0.218456 0.157698 0.051838 0.077121 0.093778 -0.006447 0.018781 0.056418 -0.113832 -0.046973 0.010106 0.099308 0.254052 0.112322 0.121131 0.114743 0.122885 0.050936 0.053493 -0.017685 0.018206 -0.042361 -0.044900 0.000775 0.051239 0.064198 -0.002445 0.055225 0.132924 0.109606 0.254137 0.051172 0.043967 0.044645 0.006317 0.022531 -0.016363 0.060820 0.106042 0.010492 0.043834 0.034971 0.191731 0.024686 0.017678 0.026916 0.058369 0.058245 -0.028155 0.006890 -0.058783 -0.022080 0.005139 -0.022547 -0.027259 0.041911 -0.013504 0.016129 -0.025798 -0.087090 -0.048239 -0.080094 -0.023077 -0.019962 0.018559 -0.018379 0.006461 0.051358 -0.018686 0.024328 -0.036907 -0.053145 0.030256 -0.019101 0.027238 0.008979 -0.000435 0.005834 -0.011743 0.064284 0.070504 0.085058 0.001813 0.001931 0.028103 0.017828 0.052264 0.041605 -0.054875 0.044267 0.013808 0.046141 0.016182 0.148089 0.024544 -0.029222 -0.068279 0.037893 0.141952 0.028934 0.005883 0.019730 0.076324 0.027755 0.011734 0.029163 0.006575 0.015413 -0.057524 -0.043357 0.024641 -0.005749 -0.018563 -0.050329 -0.156677 0.033932 0.058935 0.061151 0.021976 0.002312 -0.021110 -0.041512 -0.044995 -0.058476 -0.050586 -0.026194 -0.117289 -0.067174 0.012884 0.044797 0.004985 -0.084474 -0.155252 -0.076162 -0.047003 -0.114863 0.019843 0.004248 -0.106943 -0.092228 -0.037743 -0.047761 -0.098019 -0.145752 -0.151079 -0.009927 0.037463 -0.033383 -0.076988 0.106451 0.042603 -0.192080 0.060502 0.005594 -0.108453 0.040551 0.094678 0.001379 -0.070101 -0.016976 0.056364 0.263894 0.088909 0.077520 -0.203564 -0.000643 0.184203 0.094353 0.348500 0.297266 0.259534 0.455811 0.552510 0.299700 0.271423 -0.034067 -1.429646
0.072396 0.072906 0.074435 0.076983 0.080549 0.085132 0.090732 0.097346 0.104972 0.113607 0.123248 0.133891 0.145529 0.158157 0.171765 0.186345 0.201886 0.218373 0.235792 0.254123 0.273347 0.293440 0.314375 0.336120 0.358642 0.381902 0.405856 0.430458 0.455654 0.481386 0.507591 0.534198 0.561133 0.588313 0.615649 0.643047 0.670404 0.697612 0.724553 0.751106 0.777139 0.802516 0.827093 0.850720 0.873240 0.894492 0.914309 0.932518 0.948944 0.963409 0.975731 0.985728 0.993220 0.998025 0.999967 0.998871 0.994571 0.986907 0.975730 0.960901 0.942297 0.919809 0.893346 0.862838 0.828238 0.789525 0.746702 0.699803 0.648897 0.594081 0.535491 0.473301 0.407721 0.339004 0.267441 0.193367 0.117158 0.039230 0.039959 0.119912 0.200095 0.279939 0.358843 0.436179 0.511294 0.583518 0.652168 0.716553 0.775987 0.829790 0.877299 0.917878 0.950927 0.975890 0.992263 0.999611 0.997571 0.985863 0.964303 0.932808 0.891403 0.840234 0.779568 0.709800 0.631458 0.545200 0.451816 0.352228 0.247480 0.138737 0.027267 0.085563 0.198303 0.309444 0.417427 0.520672 0.617598 0.706652 0.786331 0.855213 0.911985 0.955472 0.984664 0.998742 0.997108 0.979403 0.945529 0.895665 0.830282 0.750143 0.656314 0.550150 0.433293 0.307647 0.175364 0.038798 0.099516 0.236918 0.370666 0.497991 0.616160 0.722531 0.814622 0.890171 0.947200 0.984072 0.999550 0.992842 0.963645 0.912170 0.839167 0.745930 0.634289 0.506590 0.365657 0.214745 0.057469 0.102273 0.260390 0.412706 0.555065 0.683453 0.794111 0.883662 0.949216 0.988480 0.999852 0.982494 0.936394 0.862401 0.762232 0.638458 0.494457 0.334341 0.162850 0.014771 0.192925 0.365840 0.527751 0.673097 0.796720 0.894061 0.961341 0.995731 0.995480 0.960032 0.890082 0.787603 0.655825 0.499148 0.323036 0.133831 0.061452 0.255375 0.440365 0.608996 0.754314 0.870119 0.951261 0.993888 0.995652 0.955865 0.875586 0.757633 0.606531 0.428362 0.230553 0.021590 0.189336 0.392718 0.579166 0.739851 0.866932 0.953969 0.996271 0.991189 0.938305 0.839531 0.699088 0.523370 0.320691 0.100924 0.124963 0.345431 0.548967 0.724687 0.862938 0.955854 0.997841 0.985952 0.920133 0.803312 0.641330 0.442694 0.218180 0.019721 0.257484 0.481298 0.677879 0.835276 0.943626 0.995810 0.987972 0.919848 0.794887 0.620146 0.405946 0.165313 0.086774 0.334303 0.561228 0.752530 0.895227 0.979308 0.998471 0.950666 0.838343 0.668418 0.451905 0.203271 0.060490 0.320989 0.559716 0.759361 0.905112 0.985784 0.994748 0.930539 0.797100 0.603638 0.364049 0.095997 0.180351 0.443817 0.673836 0.852078 0.963964 0.999911 0.956235 0.835591 0.646924 0.404885 0.128787 0.158909 0.434373 0.674375 0.858283 0.969879 0.998859 0.941870 0.802973 0.593466 0.331063 0.038467 0.258526 0.533298 0.760779 0.919793 0.995085 0.978877 0.871762 0.682852 0.429111 0.133931 0.174956 0.468044 0.716880 0.896841 0.989659 0.985352 0.883416 0.693077 0.432604 0.127636 0.191245 0.491549 0.742187 0.916726 0.996263 0.971565 0.844274 0.626953 0.342001 0.019432 0.306207 0.599489 0.828006 0.965990 0.997324 0.917551 0.734621 0.468259 0.147961 0.190165 0.507417 0.766942 0.938052 0.999951 0.944399 0.776943 0.516538 0.193563 0.153626 0.483189 0.754814 0.934720 0.999948 0.941434 0.765420 0.492973 0.157636 0.198605 0.530501 0.795278 0.958235 0.997388 0.906604 0.696710 0.394400 0.039003 0.322547 0.641823 0.875442
1.000000 1.000000 1.000000 1.000000 1.000000 1.000000 1.000000 1.000000 1.000000 1.000000 1.000000 1.000000 1.000000 1.000000 1.000000 1.000000 1.000000 1.000000 1.000000 1.000000 1.000000 1.000000 1.000000 1.000000 1.000000 1.000000 1.000000 1.000000 1.000000 1.000000 1.000000 1.000000 1.000000 1.000000 1.000000 1.000000 1.000000 1.000000 1.000000 1.000000 1.000000 1.000000 1.000000 1.000000 1.000000 1.000000 1.000000 1.000000 1.000000 1.000000 1.000000 1.000000 0.826050 0.826050 0.826050 0.820635 0.820635 0.820635 0.820635 0.820635 0.820635 0.820635 0.820635 0.820635 0.820635 0.820635 0.820635 0.820635 0.820635 0.820635 0.820635 0.820635 0.820635 0.820635 0.820635 0.820635 0.820635 0.820635 0.820635 0.820635 0.820635 0.820635 0.820635 0.820635 0.820635 0.820635 0.820635 0.820635 0.820635 0.820635 0.820635 0.820635 0.820635 0.820635 0.820635 0.820635 0.851647 0.858968 0.861785 0.864731 0.866123 0.863467 0.862269 0.861766 0.861609 0.862561 0.868669 0.893811 0.910754 0.915255 0.928634 0.932386 0.937603 0.940593 0.949334 0.953038 0.954558 0.953450 0.953820 0.955869 0.955936 0.945593 0.943664 0.943965 0.958162 0.947196 0.943188 0.942018 0.940373 0.936972 0.938064 0.937807 0.935176 0.935607 0.930121 0.930833 0.931322 0.929222 0.928035 0.911052 0.911984 0.911306 0.914249 0.893169 0.888129 0.876571 0.862582 0.883301 0.876264 0.858440 0.857301 0.846379 0.848949 0.849106 0.847341 0.840800 0.839505 0.836090 0.829867 0.830818 0.827680 0.836899 0.836115 0.836475 0.826100 0.807979 0.786335 0.771264 0.770344 0.774141 0.777394 0.781043 0.782308 0.779026 0.777014 0.773613 0.770911 0.780559 0.783064 0.780083 0.775965 0.774524 0.752427 0.750191 0.741996 0.723487 0.710096 0.707382 0.708370 0.686069 0.677141 0.679608 0.684890 0.690044 0.700215 0.694485 0.692853 0.666375 0.641088 0.611110 0.624005 0.631121 0.609223 0.601807 0.579525 0.613135 0.624689 0.640077 0.657418 0.660362 0.656172 0.628322 0.586765 0.587684 0.585960 0.587626 0.586618 0.577773 0.580924 0.605958 0.578032 0.574546 0.566689 0.563467 0.571368 0.586199 0.567341 0.561032 0.532874 0.507400 0.480307 0.474842 0.434104 0.429314 0.424819 0.429199 0.391085 0.390510 0.406331 0.424959 0.423135 0.430645 0.420130 0.409193 0.368601 0.338642 0.332643 0.318908 0.313919 0.284212 0.252247 0.238858 0.250134 0.258026 0.303256 0.305986 0.299343 0.272951 0.278993 0.298846 0.330221 0.335238 0.335680 0.313417 0.296116 0.252065 0.247406 0.295682 0.330303 0.308423 0.293635 0.280448 0.274617 0.246697 0.240249 0.175837 0.123178 0.084630 0.087466 0.094430 0.083951 0.059587 0.022613 0.039929 0.054511 0.090818 0.072163 0.062514 0.005874 0.006294 -0.012571 -0.003356 -0.036233 -0.075959 -0.048642 -0.033344 -0.064559 -0.083217 -0.127813 -0.108103 -0.126177 -0.127228 -0.124620 -0.129422 -0.161063 -0.145611 -0.142131 -0.119769 -0.130746 -0.127881 -0.121034 -0.129765 -0.204606 -0.244710 -0.234562 -0.237980 -0.235250 -0.235772 -0.241511 -0.249975 -0.246224 -0.251979 -0.200013 -0.229066 -0.244074 -0.246869 -0.248143 -0.273374 -0.226762 -0.203438 -0.209488 -0.233744 -0.230126 -0.230126 -0.230126 -0.230126 -0.230126 -0.230126 -0.220103 -0.220103 -0.220103 -0.220103 -0.220103 -0.220103 -0.220103 -0.220103 -0.220103 -0.154452 -0.154452 -0.154452 -0.154452 -0.154452 -0.154452 -0.154452 -0.154452 -0.154452 -0.154452 -0.154452 -0.154452 -0.154452 -0.154452 -0.154452 -0.154452
0.000000 0.000000 0.000000 0.000000 0.000000 0.000000 0.000000 0.000000 0.000000 0.000000 0.000000 0.000000 0.000000 0.000000 0.000000 0.000000 0.000000 0.000000 0.000000 0.000000 0.000000 0.000000 0.000000 0.000000 0.000000 0.000000 0.000000 0.000000 0.000000 0.000000 0.000000 0.000000 0.000000 0.000000 0.000000 0.000000 0.000000 0.000000 0.000000 0.000000 0.000000 0.000000 0.000000 0.000000 0.000000 0.000000 0.000000 0.000000 0.000000 0.000000 0.000000 0.000000 0.180334 0.180334 0.180334 0.199007 0.199007 0.199007 0.199007 0.199007 0.199007 0.199007 0.199007 0.199007 0.199007 0.199007 0.199007 0.199007 0.199007 0.199007 0.199007 0.199007 0.199007 0.199007 0.199007 0.199007 0.199007 0.199007 0.199007 0.199007 0.199007 0.199007 0.199007 0.199007 0.199007 0.199007 0.199007 0.199007 0.199007 0.199007 0.199007 0.199007 0.199007 0.199007 0.199007 0.199007 0.230940 0.230940 0.230940 0.230940 0.230940 0.230940 0.230940 0.230940 0.230940 0.230940 0.230940 0.230940 0.230940 0.230940 0.230940 0.230940 0.230940 0.230940 0.230940 0.230940 0.230940 0.230940 0.230940 0.230940 0.230940 0.230940 0.230940 0.230940 0.244339 0.244339 0.244339 0.244339 0.244339 0.244339 0.244339 0.244339 0.244339 0.244339 0.244339 0.244339 0.244339 0.244339 0.244339 0.244339 0.244339 0.244339 0.244339 0.244339 0.244339 0.244339 0.244339 0.256074 0.256074 0.256074 0.256074 0.256074 0.256074 0.256074 0.256074 0.256074 0.256074 0.256074 0.256074 0.256074 0.256074 0.256074 0.256074 0.256074 0.256074 0.256074 0.256074 0.256074 0.256074 0.256074 0.256074 0.256074 0.256074 0.256074 0.256074 0.256074 0.256074 0.256074 0.256074 0.256074 0.256074 0.256074 0.256074 0.256074 0.264906 0.264906 0.264906 0.264906 0.264906 0.264906 0.264906 0.264906 0.264906 0.264906 0.264906 0.264906 0.264906 0.264906 0.264906 0.264906 0.264906 0.264906 0.264906 0.264906 0.264906 0.264906 0.264906 0.264906 0.264906 0.264906 0.264906 0.264906 0.264906 0.264906 0.264906 0.264906 0.264906 0.264906 0.264906 0.264906 0.264906 0.264906 0.264906 0.264906 0.264906 0.264906 0.264906 0.264906 0.264906 0.264906 0.264906 0.264906 0.264906 0.264906 0.264906 0.264906 0.264906 0.264906 0.264906 0.264906 0.264906 0.264906 0.269680 0.269680 0.269680 0.269680 0.269680 0.269680 0.269680 0.269680 0.269680 0.269680 0.269680 0.269680 0.264906 0.264906 0.264906 0.264906 0.264906 0.264906 0.264906 0.264906 0.264906 0.264906 0.264906 0.264906 0.269680 0.269680 0.269680 0.269680 0.269680 0.269680 0.269680 0.269680 0.269680 0.269680 0.269680 0.264906 0.264906 0.264906 0.264906 0.264906 0.264906 0.264906 0.264906 0.264906 0.264906 0.264906 0.256074 0.256074 0.256074 0.256074 0.256074 0.256074 0.256074 0.256074 0.256074 0.256074 0.256074 0.264906 0.264906 0.264906 0.264906 0.264906 0.264906 0.264906 0.264906 0.264906 0.264906 0.260378 0.260378 0.260378 0.260378 0.260378 0.260378 0.260378 0.260378 0.260378 0.260378 0.264906 0.264906 0.264906 0.264906 0.264906 0.264906 0.264906 0.264906 0.264906 0.251976 0.251976 0.251976 0.251976 0.251976 0.251976 0.251976 0.251976 0.251976 0.251976 0.256074 0.256074 0.256074 0.256074 0.256074 0.256074 0.256074 0.256074 0.256074 0.269680 0.269680 0.269680 0.269680 0.269680 0.269680 0.269680 0.269680 0.269680 0.269680 0.269680 0.269680 0.269680 0.269680 0.269680 0.269680
