# Output from CTFFind version 4.1.9, run on 2019-11-03 19:00:54
# Input file: stack6_bm3d_averaged_1_2.25_0_1000_half.mrc ; Number of micrographs: 1
# Pixel size: 3.000 Angstroms ; acceleration voltage: 300.0 keV ; spherical aberration: 0.00 mm ; amplitude contrast: 0.07
# Box size: 512 pixels ; min. res.: 30.0 Angstroms ; max. res.: 5.0 Angstroms ; min. def.: 5000.0 um; max. def. 50000.0 um; num. frames averaged: 1
# 6 lines per micrograph: #1 - spatial frequency (1/Angstroms); #2 - 1D rotational average of spectrum (assuming no astigmatism); #3 - 1D rotational average of spectrum; #4 - CTF fit; #5 - cross-correlation between spectrum and CTF fit; #6 - 2sigma of expected cross correlation of noise
0.000000 0.000651 0.001302 0.001953 0.002604 0.003255 0.003906 0.004557 0.005208 0.005859 0.006510 0.007161 0.007812 0.008464 0.009115 0.009766 0.010417 0.011068 0.011719 0.012370 0.013021 0.013672 0.014323 0.014974 0.015625 0.016276 0.016927 0.017578 0.018229 0.018880 0.019531 0.020182 0.020833 0.021484 0.022135 0.022786 0.023438 0.024089 0.024740 0.025391 0.026042 0.026693 0.027344 0.027995 0.028646 0.029297 0.029948 0.030599 0.031250 0.031901 0.032552 0.033203 0.033854 0.034505 0.035156 0.035807 0.036458 0.037109 0.037760 0.038411 0.039062 0.039714 0.040365 0.041016 0.041667 0.042318 0.042969 0.043620 0.044271 0.044922 0.045573 0.046224 0.046875 0.047526 0.048177 0.048828 0.049479 0.050130 0.050781 0.051432 0.052083 0.052734 0.053385 0.054036 0.054688 0.055339 0.055990 0.056641 0.057292 0.057943 0.058594 0.059245 0.059896 0.060547 0.061198 0.061849 0.062500 0.063151 0.063802 0.064453 0.065104 0.065755 0.066406 0.067057 0.067708 0.068359 0.069010 0.069661 0.070312 0.070964 0.071615 0.072266 0.072917 0.073568 0.074219 0.074870 0.075521 0.076172 0.076823 0.077474 0.078125 0.078776 0.079427 0.080078 0.080729 0.081380 0.082031 0.082682 0.083333 0.083984 0.084635 0.085286 0.085938 0.086589 0.087240 0.087891 0.088542 0.089193 0.089844 0.090495 0.091146 0.091797 0.092448 0.093099 0.093750 0.094401 0.095052 0.095703 0.096354 0.097005 0.097656 0.098307 0.098958 0.099609 0.100260 0.100911 0.101562 0.102214 0.102865 0.103516 0.104167 0.104818 0.105469 0.106120 0.106771 0.107422 0.108073 0.108724 0.109375 0.110026 0.110677 0.111328 0.111979 0.112630 0.113281 0.113932 0.114583 0.115234 0.115885 0.116536 0.117188 0.117839 0.118490 0.119141 0.119792 0.120443 0.121094 0.121745 0.122396 0.123047 0.123698 0.124349 0.125000 0.125651 0.126302 0.126953 0.127604 0.128255 0.128906 0.129557 0.130208 0.130859 0.131510 0.132161 0.132812 0.133464 0.134115 0.134766 0.135417 0.136068 0.136719 0.137370 0.138021 0.138672 0.139323 0.139974 0.140625 0.141276 0.141927 0.142578 0.143229 0.143880 0.144531 0.145182 0.145833 0.146484 0.147135 0.147786 0.148438 0.149089 0.149740 0.150391 0.151042 0.151693 0.152344 0.152995 0.153646 0.154297 0.154948 0.155599 0.156250 0.156901 0.157552 0.158203 0.158854 0.159505 0.160156 0.160807 0.161458 0.162109 0.162760 0.163411 0.164062 0.164714 0.165365 0.166016 0.166667 0.167318 0.167969 0.168620 0.169271 0.169922 0.170573 0.171224 0.171875 0.172526 0.173177 0.173828 0.174479 0.175130 0.175781 0.176432 0.177083 0.177734 0.178385 0.179036 0.179688 0.180339 0.180990 0.181641 0.182292 0.182943 0.183594 0.184245 0.184896 0.185547 0.186198 0.186849 0.187500 0.188151 0.188802 0.189453 0.190104 0.190755 0.191406 0.192057 0.192708 0.193359 0.194010 0.194661 0.195312 0.195964 0.196615 0.197266 0.197917 0.198568 0.199219 0.199870 0.200521 0.201172 0.201823 0.202474 0.203125 0.203776 0.204427 0.205078 0.205729 0.206380 0.207031 0.207682 0.208333 0.208984 0.209635 0.210286 0.210938 0.211589 0.212240 0.212891 0.213542 0.214193 0.214844 0.215495 0.216146 0.216797 0.217448 0.218099 0.218750 0.219401 0.220052 0.220703 0.221354 0.222005 0.222656 0.223307 0.223958 0.224609 0.225260 0.225911 0.226562 0.227214 0.227865 0.228516 0.229167 0.229818 0.230469 0.231120 0.231771 0.232422 0.233073 0.233724 0.234375 0.235026 0.235677
       0.30497        0.30497        0.30497        0.30497        0.30497        0.30497        0.30497        0.30497        0.30497        0.30497        0.30497        0.30497        0.30497        0.30497        0.30497        0.30497        0.30497        0.30497        0.30497        0.30497        0.30497        0.30497        0.30497        0.30497        0.30497        0.30497        0.30497        0.30497        0.30497        0.30497        0.30497        0.30497        0.30497        0.30497        0.30497        0.30497        0.30497        0.30497        0.30497        0.30497        0.30497        0.30497        0.30497        0.30497        0.30497        0.30497        0.30497        0.30497        0.30497        0.30497        0.30497        0.62453        0.79102        0.39673        0.28629        0.17009       -0.11308        0.11628        0.01449        0.03297        0.11111        0.34566        0.41420        0.37826        0.21558       -0.02140        0.03574        0.06851       -0.17736       -0.18027       -0.08694       -0.11508       -0.29848       -0.19153       -0.31101       -0.26488       -0.28691       -0.40540       -0.46636       -0.46472       -0.41255       -0.34528       -0.42492       -0.34216       -0.40851       -0.35172       -0.27669       -0.20778       -0.19286       -0.11491       -0.06740        0.03774        0.07375        0.24091        0.30213        0.37294        0.39717        0.51547        0.57786        0.61109        0.71435        0.68415        0.74240        0.64094        0.66026        0.67563        0.62511        0.61573        0.61658        0.41205        0.38411        0.35427        0.32827        0.21406        0.12471        0.05680        0.05753        0.00325       -0.08155       -0.01153       -0.04023       -0.08021        0.06432        0.16825        0.26360        0.31053        0.32204        0.40930        0.51726        0.55823        0.51635        0.66439        0.55297        0.52384        0.59602        0.61206        0.53477        0.48028        0.41838        0.37771        0.22950        0.18687        0.12258        0.12413        0.08443        0.05119        0.08083        0.14490        0.12968        0.15613        0.21744        0.24288        0.32845        0.44328        0.46682        0.47536        0.51066        0.57278        0.54448        0.52400        0.41128        0.39830        0.35478        0.27486        0.23734        0.20940        0.17284        0.18184        0.17245        0.16849        0.13857        0.19936        0.24581        0.33782        0.38245        0.40027        0.46093        0.50924        0.44428        0.47558        0.42215        0.40785        0.39195        0.36826        0.28275        0.25258        0.18752        0.21444        0.22118        0.19786        0.21052        0.20494        0.24436        0.32116        0.40205        0.38497        0.37120        0.38864        0.44689        0.44303        0.42264        0.34914        0.31896        0.28086        0.28481        0.25559        0.22239        0.28329        0.29254        0.29121        0.29963        0.31726        0.31517        0.36855        0.35151        0.35023        0.36561        0.32506        0.32151        0.30609        0.28383        0.27058        0.25671        0.22409        0.27047        0.26105        0.29746        0.30983        0.34604        0.36242        0.32241        0.30885        0.35063        0.35526        0.25908        0.29206        0.28731        0.24109        0.22190        0.27640        0.26749        0.26174        0.30068        0.29974        0.32361        0.33397        0.35132        0.30149        0.31116        0.30860        0.28297        0.26579        0.24402        0.22876        0.24931        0.27769        0.29591        0.28944        0.28869        0.31400        0.33392        0.27420        0.29870        0.27372        0.25855        0.24164        0.24306        0.24717        0.25792        0.29857        0.26319        0.29866        0.28060        0.27844        0.31047        0.27454        0.31026        0.31419        0.29128        0.25401        0.25963        0.25482        0.24823        0.30748        0.30574        0.33912        0.30559        0.30317        0.26811        0.30377        0.23167        0.20472        0.27369        0.26613        0.26170        0.26601        0.30124        0.29617        0.35774        0.30062        0.23288        0.22299        0.23253        0.28495        0.30890        0.29282        0.25171        0.26776        0.26700        0.29601        0.27103        0.25003        0.26999        0.25211        0.28164        0.23172        0.26951        0.33697        0.29593        0.22570        0.25755        0.27771        0.29159        0.20811        0.24535        0.25747        0.27484        0.28238        0.35804        0.27559        0.26584        0.26704        0.23974        0.21024        0.18821        0.22853        0.21139        0.20284        0.18814        0.20783        0.26107        0.23635        0.24568        0.22331        0.19803        0.22735        0.22926        0.17579        0.16074        0.18023        0.23127        0.15822        0.05028        0.20179        0.15919        0.09140        0.18468        0.09217        0.11907        0.12430       -0.14521       -0.54131       -0.97254
2.848098 2.820076 2.792199 2.764465 2.736876 2.709430 2.682129 2.654971 2.627958 2.601088 2.574363 2.547781 2.521344 2.495050 2.468901 2.442895 2.417034 2.391316 2.365743 2.340313 2.315028 2.289886 2.264889 2.240035 2.215326 2.190760 2.166339 2.142061 2.117928 2.093938 2.070093 2.046391 2.022834 1.999421 1.976151 1.953026 1.930044 1.907207 1.884513 1.861964 1.839558 1.817297 1.795179 1.773206 1.751376 1.729691 1.708150 1.686752 1.665499 1.644389 1.623424 1.927924 2.254449 1.683463 1.708375 1.364533 0.916784 1.198793 1.053127 1.088732 1.009269 1.524069 1.511657 1.520581 1.264980 0.936730 0.801969 1.017777 0.710116 0.469002 0.597149 0.668515 0.409573 0.475921 0.313851 0.340569 0.240266 0.167008 -0.050226 0.007485 0.030195 0.061248 0.043441 0.124556 -0.051203 0.018249 0.102299 0.215547 0.258865 0.252379 0.339912 0.577565 0.431383 0.703156 0.849868 0.889681 0.900853 1.138136 1.137414 1.201699 1.317124 1.208224 1.398246 1.182634 1.130783 1.306544 1.126820 1.071646 1.167209 0.863373 0.724938 0.676903 0.679343 0.469225 0.392208 0.260829 0.210651 0.118000 -0.023369 0.123577 0.000461 -0.066212 0.105327 0.261185 0.339503 0.461894 0.476381 0.537099 0.704593 0.773491 0.629776 0.963125 0.806797 0.658881 0.762662 0.780021 0.716539 0.685134 0.464399 0.540382 0.252222 0.175743 0.115360 -0.003991 0.020352 -0.084811 -0.044915 -0.003665 0.054115 -0.068609 0.232098 0.129649 0.195739 0.391117 0.408167 0.510582 0.404802 0.583379 0.633551 0.482879 0.404134 0.333506 0.312946 0.159369 0.113044 0.026386 0.053506 -0.023661 -0.007021 -0.034716 -0.097271 -0.005637 0.009715 0.124034 0.274250 0.219556 0.355921 0.356255 0.398850 0.386940 0.432996 0.351247 0.229233 0.343260 0.166670 0.176220 -0.006131 0.050933 0.051587 0.002533 0.001467 0.001308 0.050555 0.113298 0.245824 0.309284 0.233802 0.227550 0.370972 0.345071 0.340206 0.237460 0.160160 0.146873 0.103847 0.090351 0.030591 0.023757 0.145476 0.047333 0.153006 0.092070 0.127598 0.208492 0.202376 0.189897 0.186286 0.228812 0.128724 0.148059 0.103902 0.077505 0.105037 -0.034672 0.062301 0.085268 0.038564 0.140913 0.121985 0.207911 0.204952 0.127092 0.127411 0.235199 0.122927 0.060826 0.113142 0.044435 0.029056 0.002645 0.091629 0.055722 0.030960 0.141365 0.102632 0.134347 0.161583 0.158420 0.133589 0.094597 0.118597 0.070454 0.043350 0.013534 0.009973 0.013339 0.076720 0.108259 0.080333 0.065468 0.105642 0.125737 0.009220 0.096755 0.042598 -0.002156 -0.002204 -0.012057 -0.012937 0.049898 0.060036 -0.018905 0.079449 0.054762 0.005878 0.077510 0.009652 0.054280 0.083865 -0.003133 -0.005498 -0.025905 0.000003 -0.036479 0.062124 0.060580 0.092446 0.013254 0.122446 -0.017057 0.067198 -0.094022 -0.051931 0.009091 -0.019417 0.023362 -0.034044 0.076529 0.039505 0.105684 -0.004840 -0.084096 -0.072221 -0.089671 0.059158 0.028184 0.026128 -0.045406 -0.029149 -0.024041 0.034545 -0.015824 -0.039871 0.008280 -0.087698 0.035507 -0.074878 0.022675 0.099976 0.004628 -0.054767 0.028028 0.028501 0.027142 -0.092603 0.010766 -0.017280 0.084454 0.086445 0.161864 0.036630 0.045124 0.058834 0.035714 -0.041243 -0.009204 0.038803 0.017281 -0.016568 -0.016853 0.030973 0.140370 0.024361 0.166851 0.031185 0.069788 0.084752 0.137064 -0.028457 0.021352 0.000107 0.198283 0.044555 -0.032683 0.285808 0.224057 0.132361 0.319918 0.163723 0.136535 0.225200 -0.204707 -1.382492
0.072396 0.072835 0.074150 0.076341 0.079409 0.083352 0.088169 0.093860 0.100422 0.107854 0.116153 0.125316 0.135340 0.146220 0.157950 0.170524 0.183935 0.198173 0.213228 0.229089 0.245742 0.263171 0.281357 0.300282 0.319923 0.340254 0.361247 0.382870 0.405090 0.427868 0.451162 0.474926 0.499111 0.523662 0.548522 0.573625 0.598906 0.624290 0.649700 0.675052 0.700260 0.725228 0.749860 0.774050 0.797690 0.820666 0.842860 0.864148 0.884403 0.903494 0.921284 0.937635 0.952408 0.965457 0.976640 0.985811 0.992825 0.997537 0.999807 0.999495 0.996466 0.990592 0.981749 0.969823 0.954709 0.936312 0.914550 0.889355 0.860674 0.828470 0.792728 0.753450 0.710660 0.664406 0.614761 0.561823 0.505718 0.446599 0.384650 0.320083 0.253142 0.184100 0.113264 0.040968 0.032422 0.106511 0.180878 0.255073 0.328625 0.401038 0.471801 0.540384 0.606247 0.668844 0.727623 0.782037 0.831546 0.875621 0.913756 0.945468 0.970308 0.987866 0.997776 0.999726 0.993465 0.978804 0.955629 0.923904 0.883675 0.835076 0.778333 0.713768 0.641798 0.562940 0.477808 0.387112 0.291657 0.192334 0.090120 0.013934 0.118709 0.223033 0.325687 0.425425 0.520984 0.611104 0.694544 0.770098 0.836620 0.893038 0.938375 0.971771 0.992498 0.999982 0.993815 0.973775 0.939836 0.892181 0.831204 0.757523 0.671974 0.575614 0.469707 0.355718 0.235301 0.110269 0.017418 0.145690 0.272396 0.395336 0.512301 0.621120 0.719692 0.806037 0.878337 0.934978 0.974594 0.996103 0.998743 0.982100 0.946135 0.891200 0.818046 0.727826 0.622090 0.502763 0.372124 0.232767 0.087556 0.060427 0.207948 0.351682 0.488298 0.614528 0.727256 0.823597 0.900975 0.957202 0.990551 0.999813 0.984349 0.944135 0.879780 0.792538 0.684297 0.557557 0.415382 0.261335 0.099404 0.066099 0.230646 0.389617 0.538426 0.672661 0.788221 0.881440 0.949228 0.989174 0.999653 0.979896 0.930052 0.851211 0.745407 0.615579 0.465517 0.299757 0.123460 0.057732 0.237880 0.410936 0.570947 0.712260 0.829744 0.918972 0.976410 0.999578 0.987166 0.939127 0.856716 0.742490 0.600248 0.434932 0.252476 0.059597 0.136427 0.328031 0.507655 0.668048 0.802566 0.905461 0.972147 0.999424 0.985655 0.930880 0.836869 0.707096 0.546641 0.362021 0.160938 0.048011 0.255708 0.452897 0.630596 0.780527 0.895510 0.969828 0.999537 0.982704 0.919559 0.812537 0.666237 0.487242 0.283871 0.065802 0.156365 0.371614 0.569061 0.738512 0.871001 0.959294 0.998309 0.985442 0.920775 0.807141 0.650045 0.457439 0.239359 0.007418 0.225785 0.447345 0.644768 0.806687 0.923538 0.988161 0.996269 0.946774 0.841937 0.687316 0.491516 0.265759 0.023273 0.221467 0.453594 0.658745 0.823970 0.938581 0.994872 0.988688 0.919769 0.791867 0.612607 0.393071 0.147165 0.109225 0.359252 0.586207 0.774643 0.911457 0.986835 0.995007 0.934738 0.809525 0.627459 0.400765 0.145024 0.121856 0.380863 0.613262 0.801929 0.932663 0.995301 0.984554 0.900519 0.748790 0.540159 0.289918 0.016774 0.258497 0.514643 0.731551 0.891875 0.982462 0.995484 0.929184 0.788153 0.583091 0.330065 0.049315 0.236322 0.503263 0.729126 0.894628 0.985284 0.992744 0.915629 0.759797 0.537992 0.268877 0.024478 0.316526 0.581464 0.795523 0.939130 0.998770 0.968321 0.849777 0.653213 0.396044 0.101533 0.203243 0.489855 0.731184 0.904015 0.991323 0.984033 0.882056 0.694466 0.438806 0.139523 0.174292 0.471714 0.723017 0.902682
1.000000 1.000000 1.000000 1.000000 1.000000 1.000000 1.000000 1.000000 1.000000 1.000000 1.000000 1.000000 1.000000 1.000000 1.000000 1.000000 1.000000 1.000000 1.000000 1.000000 1.000000 1.000000 1.000000 1.000000 1.000000 1.000000 1.000000 1.000000 1.000000 1.000000 1.000000 1.000000 1.000000 1.000000 1.000000 1.000000 1.000000 1.000000 1.000000 1.000000 1.000000 1.000000 1.000000 1.000000 1.000000 1.000000 1.000000 1.000000 1.000000 1.000000 1.000000 1.000000 0.834395 0.834395 0.834395 0.834395 0.834395 0.834395 0.834395 0.811866 0.811866 0.811866 0.811866 0.811866 0.811866 0.811866 0.811866 0.811866 0.811866 0.811866 0.811866 0.811866 0.811866 0.811866 0.811866 0.811866 0.811866 0.811866 0.811866 0.811866 0.811866 0.811866 0.811866 0.811866 0.811866 0.811866 0.811866 0.811866 0.811866 0.811866 0.811866 0.811866 0.811866 0.811866 0.811866 0.811866 0.811866 0.811866 0.811866 0.811866 0.811866 0.811866 0.811866 0.951249 0.951965 0.952221 0.951197 0.949600 0.946122 0.941970 0.941495 0.942814 0.943032 0.943666 0.945007 0.945987 0.947575 0.948562 0.949737 0.950530 0.958644 0.962357 0.962088 0.961814 0.960560 0.970179 0.969597 0.967320 0.967768 0.967933 0.967911 0.967799 0.967691 0.967232 0.966676 0.967163 0.967042 0.966497 0.965725 0.963870 0.963945 0.963613 0.963728 0.964563 0.965233 0.965837 0.966227 0.966170 0.966259 0.964875 0.964131 0.953350 0.953317 0.945979 0.945713 0.946739 0.946387 0.945474 0.944075 0.944144 0.944060 0.942979 0.942866 0.941756 0.927476 0.927658 0.927281 0.928086 0.922650 0.911859 0.906026 0.902571 0.904070 0.907985 0.912273 0.911476 0.906777 0.904920 0.891684 0.884089 0.868862 0.864518 0.854475 0.862555 0.863392 0.864808 0.862536 0.861808 0.860445 0.858413 0.846479 0.851110 0.843316 0.837968 0.834641 0.832937 0.832135 0.834676 0.838176 0.828637 0.813843 0.814921 0.799566 0.782633 0.780698 0.785118 0.794354 0.808091 0.805251 0.804108 0.790637 0.786038 0.773168 0.765275 0.766931 0.769920 0.767841 0.775779 0.776772 0.786443 0.777595 0.772904 0.777130 0.790471 0.801482 0.806309 0.806604 0.802705 0.805199 0.789129 0.789157 0.790464 0.754607 0.758318 0.758227 0.755821 0.758774 0.760118 0.756975 0.757334 0.754443 0.723416 0.734820 0.742402 0.723708 0.730984 0.717779 0.709259 0.672341 0.673777 0.671792 0.680177 0.682281 0.679876 0.669278 0.683186 0.696941 0.689269 0.695076 0.689498 0.679809 0.677372 0.685707 0.682402 0.663741 0.669616 0.668991 0.658190 0.655826 0.638524 0.652444 0.642575 0.623713 0.617527 0.582097 0.561541 0.552738 0.536492 0.514427 0.492494 0.498224 0.494462 0.484331 0.479377 0.457979 0.413956 0.427051 0.426330 0.410886 0.394503 0.379135 0.334217 0.362432 0.358179 0.359984 0.334693 0.316562 0.286485 0.222024 0.208453 0.179911 0.199341 0.203750 0.195157 0.177339 0.170096 0.189779 0.204665 0.226964 0.225325 0.253804 0.234192 0.193672 0.215923 0.213699 0.206990 0.192088 0.153436 0.189397 0.181744 0.190553 0.198051 0.149967 0.120320 0.091617 0.097001 0.101376 0.126337 0.150093 0.139409 0.118803 0.016267 0.050453 0.076256 0.076256 0.076256 0.076256 0.076256 0.076256 0.076256 0.076256 0.076256 0.076256 0.076256 0.012867 0.012867 0.012867 0.012867 0.012867 0.012867 0.012867 0.012867 0.012867 0.012867 0.012867 0.012867 0.012867 0.012867 0.012867 0.012867 0.012867 0.012867 0.012867
0.000000 0.000000 0.000000 0.000000 0.000000 0.000000 0.000000 0.000000 0.000000 0.000000 0.000000 0.000000 0.000000 0.000000 0.000000 0.000000 0.000000 0.000000 0.000000 0.000000 0.000000 0.000000 0.000000 0.000000 0.000000 0.000000 0.000000 0.000000 0.000000 0.000000 0.000000 0.000000 0.000000 0.000000 0.000000 0.000000 0.000000 0.000000 0.000000 0.000000 0.000000 0.000000 0.000000 0.000000 0.000000 0.000000 0.000000 0.000000 0.000000 0.000000 0.000000 0.000000 0.173422 0.173422 0.173422 0.173422 0.173422 0.173422 0.173422 0.191565 0.191565 0.191565 0.191565 0.191565 0.191565 0.191565 0.191565 0.191565 0.191565 0.191565 0.191565 0.191565 0.191565 0.191565 0.191565 0.191565 0.191565 0.191565 0.191565 0.191565 0.191565 0.191565 0.191565 0.191565 0.191565 0.191565 0.191565 0.191565 0.191565 0.191565 0.191565 0.191565 0.191565 0.191565 0.191565 0.191565 0.191565 0.191565 0.191565 0.191565 0.191565 0.191565 0.191565 0.219529 0.219529 0.219529 0.219529 0.219529 0.219529 0.219529 0.219529 0.219529 0.219529 0.219529 0.219529 0.219529 0.219529 0.219529 0.219529 0.219529 0.219529 0.219529 0.219529 0.219529 0.219529 0.219529 0.219529 0.219529 0.219529 0.219529 0.219529 0.219529 0.219529 0.219529 0.237356 0.237356 0.237356 0.237356 0.237356 0.237356 0.237356 0.237356 0.237356 0.237356 0.237356 0.237356 0.237356 0.237356 0.237356 0.237356 0.237356 0.237356 0.237356 0.237356 0.237356 0.237356 0.237356 0.237356 0.244339 0.244339 0.244339 0.244339 0.244339 0.244339 0.244339 0.244339 0.244339 0.244339 0.244339 0.244339 0.244339 0.244339 0.244339 0.244339 0.244339 0.244339 0.244339 0.244339 0.244339 0.248069 0.248069 0.248069 0.248069 0.248069 0.248069 0.248069 0.248069 0.248069 0.248069 0.248069 0.248069 0.248069 0.248069 0.248069 0.248069 0.248069 0.248069 0.248069 0.248069 0.248069 0.248069 0.248069 0.248069 0.248069 0.248069 0.248069 0.248069 0.248069 0.248069 0.248069 0.248069 0.248069 0.248069 0.248069 0.248069 0.248069 0.256074 0.256074 0.256074 0.256074 0.256074 0.256074 0.256074 0.256074 0.256074 0.256074 0.256074 0.256074 0.256074 0.256074 0.256074 0.256074 0.256074 0.256074 0.256074 0.256074 0.256074 0.256074 0.256074 0.256074 0.256074 0.256074 0.256074 0.256074 0.256074 0.256074 0.256074 0.256074 0.256074 0.256074 0.256074 0.256074 0.256074 0.256074 0.256074 0.256074 0.256074 0.256074 0.256074 0.256074 0.256074 0.260378 0.260378 0.260378 0.260378 0.260378 0.260378 0.260378 0.260378 0.260378 0.260378 0.260378 0.260378 0.260378 0.256074 0.256074 0.256074 0.256074 0.256074 0.256074 0.256074 0.256074 0.256074 0.256074 0.256074 0.256074 0.256074 0.260378 0.260378 0.260378 0.260378 0.260378 0.260378 0.260378 0.260378 0.260378 0.260378 0.260378 0.260378 0.251976 0.251976 0.251976 0.251976 0.251976 0.251976 0.251976 0.251976 0.251976 0.251976 0.251976 0.251976 0.256074 0.256074 0.256074 0.256074 0.256074 0.256074 0.256074 0.256074 0.256074 0.256074 0.256074 0.251976 0.251976 0.251976 0.251976 0.251976 0.251976 0.251976 0.251976 0.251976 0.251976 0.251976 0.248069 0.248069 0.248069 0.248069 0.248069 0.248069 0.248069 0.248069 0.248069 0.248069 0.248069 0.256074 0.256074 0.256074 0.256074 0.256074 0.256074 0.256074 0.256074 0.256074 0.256074 0.256074 0.256074 0.256074 0.256074 0.256074 0.256074 0.256074 0.256074 0.256074
