# Output from CTFFind version 4.1.9, run on 2019-11-02 17:49:02
# Input file: stack1_bm3d_averaged_1_1.5_0_2500_half.mrc ; Number of micrographs: 1
# Pixel size: 3.000 Angstroms ; acceleration voltage: 300.0 keV ; spherical aberration: 0.00 mm ; amplitude contrast: 0.07
# Box size: 512 pixels ; min. res.: 30.0 Angstroms ; max. res.: 5.0 Angstroms ; min. def.: 5000.0 um; max. def. 50000.0 um; num. frames averaged: 1
# 6 lines per micrograph: #1 - spatial frequency (1/Angstroms); #2 - 1D rotational average of spectrum (assuming no astigmatism); #3 - 1D rotational average of spectrum; #4 - CTF fit; #5 - cross-correlation between spectrum and CTF fit; #6 - 2sigma of expected cross correlation of noise
0.000000 0.000651 0.001302 0.001953 0.002604 0.003255 0.003906 0.004557 0.005208 0.005859 0.006510 0.007161 0.007812 0.008464 0.009115 0.009766 0.010417 0.011068 0.011719 0.012370 0.013021 0.013672 0.014323 0.014974 0.015625 0.016276 0.016927 0.017578 0.018229 0.018880 0.019531 0.020182 0.020833 0.021484 0.022135 0.022786 0.023438 0.024089 0.024740 0.025391 0.026042 0.026693 0.027344 0.027995 0.028646 0.029297 0.029948 0.030599 0.031250 0.031901 0.032552 0.033203 0.033854 0.034505 0.035156 0.035807 0.036458 0.037109 0.037760 0.038411 0.039062 0.039714 0.040365 0.041016 0.041667 0.042318 0.042969 0.043620 0.044271 0.044922 0.045573 0.046224 0.046875 0.047526 0.048177 0.048828 0.049479 0.050130 0.050781 0.051432 0.052083 0.052734 0.053385 0.054036 0.054688 0.055339 0.055990 0.056641 0.057292 0.057943 0.058594 0.059245 0.059896 0.060547 0.061198 0.061849 0.062500 0.063151 0.063802 0.064453 0.065104 0.065755 0.066406 0.067057 0.067708 0.068359 0.069010 0.069661 0.070312 0.070964 0.071615 0.072266 0.072917 0.073568 0.074219 0.074870 0.075521 0.076172 0.076823 0.077474 0.078125 0.078776 0.079427 0.080078 0.080729 0.081380 0.082031 0.082682 0.083333 0.083984 0.084635 0.085286 0.085938 0.086589 0.087240 0.087891 0.088542 0.089193 0.089844 0.090495 0.091146 0.091797 0.092448 0.093099 0.093750 0.094401 0.095052 0.095703 0.096354 0.097005 0.097656 0.098307 0.098958 0.099609 0.100260 0.100911 0.101562 0.102214 0.102865 0.103516 0.104167 0.104818 0.105469 0.106120 0.106771 0.107422 0.108073 0.108724 0.109375 0.110026 0.110677 0.111328 0.111979 0.112630 0.113281 0.113932 0.114583 0.115234 0.115885 0.116536 0.117188 0.117839 0.118490 0.119141 0.119792 0.120443 0.121094 0.121745 0.122396 0.123047 0.123698 0.124349 0.125000 0.125651 0.126302 0.126953 0.127604 0.128255 0.128906 0.129557 0.130208 0.130859 0.131510 0.132161 0.132812 0.133464 0.134115 0.134766 0.135417 0.136068 0.136719 0.137370 0.138021 0.138672 0.139323 0.139974 0.140625 0.141276 0.141927 0.142578 0.143229 0.143880 0.144531 0.145182 0.145833 0.146484 0.147135 0.147786 0.148438 0.149089 0.149740 0.150391 0.151042 0.151693 0.152344 0.152995 0.153646 0.154297 0.154948 0.155599 0.156250 0.156901 0.157552 0.158203 0.158854 0.159505 0.160156 0.160807 0.161458 0.162109 0.162760 0.163411 0.164062 0.164714 0.165365 0.166016 0.166667 0.167318 0.167969 0.168620 0.169271 0.169922 0.170573 0.171224 0.171875 0.172526 0.173177 0.173828 0.174479 0.175130 0.175781 0.176432 0.177083 0.177734 0.178385 0.179036 0.179688 0.180339 0.180990 0.181641 0.182292 0.182943 0.183594 0.184245 0.184896 0.185547 0.186198 0.186849 0.187500 0.188151 0.188802 0.189453 0.190104 0.190755 0.191406 0.192057 0.192708 0.193359 0.194010 0.194661 0.195312 0.195964 0.196615 0.197266 0.197917 0.198568 0.199219 0.199870 0.200521 0.201172 0.201823 0.202474 0.203125 0.203776 0.204427 0.205078 0.205729 0.206380 0.207031 0.207682 0.208333 0.208984 0.209635 0.210286 0.210938 0.211589 0.212240 0.212891 0.213542 0.214193 0.214844 0.215495 0.216146 0.216797 0.217448 0.218099 0.218750 0.219401 0.220052 0.220703 0.221354 0.222005 0.222656 0.223307 0.223958 0.224609 0.225260 0.225911 0.226562 0.227214 0.227865 0.228516 0.229167 0.229818 0.230469 0.231120 0.231771 0.232422 0.233073 0.233724 0.234375 0.235026 0.235677
       0.33277        0.33277        0.33277        0.33277        0.33277        0.33277        0.33277        0.33277        0.33277        0.33277        0.33277        0.33277        0.33277        0.33277        0.33277        0.33277        0.33277        0.33277        0.33277        0.33277        0.33277        0.33277        0.33277        0.33277        0.33277        0.33277        0.33277        0.33277        0.33277        0.33277        0.33277        0.33277        0.33277        0.33277        0.33277        0.33277        0.33277        0.33277        0.33277        0.33277        0.33277        0.33277        0.33277        0.33277        0.33277        0.33277        0.33277        0.33277        0.33277        0.33277        0.33277        0.49984        0.71514        0.42619        0.18998       -0.08020       -0.26199       -0.06923       -0.13049       -0.05850       -0.00194       -0.14643       -0.09648       -0.04561        0.00118       -0.15143       -0.22000       -0.34176       -0.46384       -0.56433       -0.51892       -0.45375       -0.37215       -0.55090       -0.44949       -0.62176       -0.50247       -0.47353       -0.39326       -0.38110       -0.33884       -0.24506       -0.16228       -0.14128        0.03124       -0.01368        0.11795        0.16946        0.30566        0.41067        0.46376        0.49442        0.53985        0.54790        0.69403        0.64603        0.67993        0.58667        0.55392        0.65283        0.52653        0.42965        0.38889        0.31808        0.23060        0.26540        0.25208        0.10295        0.08423       -0.00081       -0.00819        0.03455       -0.00608        0.07344        0.09256        0.23150        0.28277        0.30530        0.38810        0.56021        0.53794        0.57770        0.66998        0.69209        0.62903        0.63682        0.63446        0.54424        0.57199        0.39215        0.34870        0.26599        0.18618        0.07325        0.14365        0.11718        0.09576        0.10876        0.20566        0.20320        0.31508        0.35574        0.41326        0.49381        0.57803        0.54453        0.55725        0.60666        0.54107        0.46704        0.48141        0.32448        0.24926        0.25499        0.24278        0.14138        0.14564        0.15307        0.22505        0.25179        0.33148        0.36891        0.39336        0.46446        0.44794        0.47731        0.44577        0.47192        0.44470        0.40240        0.37588        0.35818        0.31775        0.28839        0.20684        0.20591        0.22624        0.26922        0.26188        0.34250        0.37354        0.35412        0.41036        0.45702        0.44753        0.42393        0.43851        0.36150        0.33556        0.28192        0.25958        0.28804        0.26414        0.29467        0.30067        0.34819        0.33666        0.40394        0.40062        0.42537        0.40904        0.43325        0.40511        0.36811        0.28522        0.29130        0.30366        0.28005        0.25893        0.33302        0.37188        0.33591        0.35621        0.36572        0.35149        0.40438        0.40154        0.36186        0.34172        0.31063        0.31198        0.31801        0.31032        0.29704        0.28327        0.33843        0.35632        0.37551        0.33650        0.32897        0.33477        0.34635        0.30719        0.27864        0.30704        0.32022        0.33003        0.32187        0.33396        0.35459        0.33315        0.31884        0.33167        0.30072        0.26047        0.25039        0.26351        0.30348        0.32114        0.35333        0.29995        0.31015        0.33455        0.29504        0.32227        0.29443        0.28289        0.28920        0.29668        0.30812        0.34599        0.31873        0.32858        0.32820        0.32456        0.33642        0.31718        0.32219        0.31547        0.27594        0.29344        0.31012        0.28945        0.32591        0.33097        0.33339        0.31528        0.34645        0.32784        0.27619        0.24554        0.27164        0.33133        0.36385        0.35326        0.31979        0.29474        0.29704        0.31630        0.25122        0.29054        0.29872        0.31740        0.29435        0.30540        0.27214        0.33438        0.34321        0.34111        0.32417        0.29540        0.31004        0.39211        0.33354        0.31665        0.30850        0.30452        0.28483        0.29835        0.27908        0.30330        0.23263        0.27481        0.29678        0.31161        0.29669        0.27932        0.29161        0.23909        0.23149        0.27233        0.31457        0.30549        0.31232        0.28483        0.33372        0.25236        0.22362        0.30512        0.26099        0.26671        0.27378        0.37089        0.28334        0.28670        0.26409        0.23387        0.26041        0.25024        0.22791        0.16012        0.22646        0.22673        0.25005        0.31242        0.28270        0.33712        0.30051        0.27648        0.26484        0.22686        0.24368        0.26886        0.21539        0.12619        0.17141        0.24693        0.22178        0.32550        0.28339        0.06502       -0.41265       -0.96270
2.712874 2.684186 2.655652 2.627274 2.599049 2.570979 2.543064 2.515303 2.487697 2.460245 2.432948 2.405805 2.378817 2.351983 2.325304 2.298779 2.272409 2.246193 2.220132 2.194226 2.168473 2.142876 2.117433 2.092144 2.067010 2.042030 2.017205 1.992535 1.968019 1.943657 1.919450 1.895398 1.871500 1.847756 1.824167 1.800733 1.777453 1.754327 1.731357 1.708540 1.685878 1.663371 1.641018 1.618820 1.596776 1.574886 1.553152 1.531571 1.510146 1.488874 1.467758 1.536024 1.838352 1.530206 1.197196 0.945871 0.545989 0.917717 0.642139 0.872922 0.930563 0.597101 0.707439 0.791420 0.831796 0.629882 0.543056 0.354054 0.102035 0.072630 0.044202 0.070629 0.301553 -0.037558 0.079098 -0.136930 -0.017081 -0.015229 0.074015 0.068907 0.100320 0.181591 0.284467 0.247937 0.482000 0.399948 0.549990 0.532020 0.775597 0.794301 0.883258 0.929636 0.941559 0.954282 1.127353 0.945912 1.154220 0.950999 0.854239 1.023195 0.852452 0.766357 0.629371 0.597250 0.458881 0.425384 0.511642 0.264809 0.203516 0.159818 0.008974 0.206387 -0.005616 0.121669 0.176563 0.257464 0.337785 0.352322 0.439485 0.544989 0.672198 0.539712 0.747886 0.857332 0.641338 0.707441 0.676270 0.586495 0.543692 0.461851 0.306259 0.217370 0.121526 -0.039458 -0.014782 0.053967 -0.089381 -0.058708 0.054391 0.045460 0.112466 0.217243 0.243159 0.316397 0.446748 0.453375 0.443877 0.472149 0.460859 0.340386 0.338250 0.249058 0.051269 0.063435 0.017116 -0.042735 -0.096770 -0.093786 -0.012309 -0.040208 0.082361 0.128335 0.127622 0.265963 0.232377 0.245091 0.281607 0.239534 0.239088 0.213185 0.157921 0.114234 0.108879 0.025831 0.010304 -0.114085 -0.044986 0.006212 -0.005453 0.017565 0.094331 0.076290 0.124626 0.211967 0.267837 0.177036 0.191511 0.110762 0.142004 0.026377 -0.037538 0.025088 -0.022146 0.011979 -0.002945 0.041328 0.083934 0.060820 0.168460 0.105243 0.184805 0.080193 0.167503 0.104248 0.012217 -0.045269 -0.006406 -0.018617 -0.051002 -0.053184 0.080976 0.071588 -0.001460 0.101460 0.084667 0.073550 0.157135 0.086895 0.083970 0.068779 -0.004429 0.042498 0.012587 0.023920 0.011316 0.008650 0.061181 0.075303 0.085302 0.046788 0.056696 0.034212 0.077095 -0.001598 -0.006631 0.035261 0.032565 0.062601 0.050133 0.069211 0.069133 0.059285 0.027561 0.041503 0.001831 -0.043851 -0.030665 -0.017814 0.026580 0.040608 0.108853 0.001326 0.059998 0.056767 -0.000705 0.072489 0.021890 0.006104 0.034735 0.048653 0.037114 0.094292 0.041363 0.072548 0.077302 0.085824 0.070140 0.076446 0.093411 0.045846 -0.008953 0.059564 0.045417 0.044539 0.083591 0.084943 0.028951 0.062411 0.096328 0.023384 0.006874 -0.064653 -0.008025 0.117285 0.095611 0.078633 0.039990 -0.002751 0.061847 0.033427 -0.057344 0.048552 0.032181 0.056794 0.047256 -0.001095 0.043400 0.014348 0.057713 0.033222 0.043776 -0.044563 0.068133 0.112906 0.016391 -0.001078 0.012978 -0.000654 -0.041076 -0.018573 -0.039681 -0.027476 -0.100961 -0.030955 -0.032667 0.004709 -0.027326 -0.069863 0.021064 -0.068477 -0.043001 -0.072716 0.059118 0.014957 0.038210 -0.013657 0.077120 -0.055951 -0.064838 0.038463 -0.038596 0.008463 -0.018626 0.163286 -0.049773 0.015795 0.012131 -0.051023 -0.007638 -0.024020 -0.031518 -0.175596 -0.013059 -0.043732 -0.013546 0.039985 0.018558 0.126672 0.045597 0.038465 0.019283 0.011509 -0.026804 0.301525 0.262536 0.155611 0.219316 0.261108 0.301968 0.352193 0.320919 0.078852 -1.138064
0.072396 0.072910 0.074453 0.077024 0.080623 0.085248 0.090898 0.097572 0.105267 0.113980 0.123708 0.134446 0.146189 0.158930 0.172660 0.187370 0.203047 0.219679 0.237250 0.255741 0.275130 0.295393 0.316502 0.338427 0.361131 0.384576 0.408716 0.433504 0.458884 0.484797 0.511179 0.537956 0.565053 0.592385 0.619861 0.647383 0.674847 0.702142 0.729148 0.755739 0.781782 0.807138 0.831658 0.855191 0.877576 0.898647 0.918235 0.936165 0.952257 0.966330 0.978201 0.987685 0.994598 0.998758 0.999986 0.998107 0.992954 0.984368 0.972199 0.956311 0.936583 0.912908 0.885202 0.853398 0.817456 0.777361 0.733127 0.684797 0.632449 0.576195 0.516183 0.452601 0.385676 0.315676 0.242912 0.167736 0.090544 0.011772 0.068103 0.148563 0.229053 0.308986 0.387741 0.464672 0.539110 0.610369 0.677755 0.740567 0.798112 0.849706 0.894687 0.932425 0.962326 0.983850 0.996513 0.999903 0.993688 0.977625 0.951571 0.915489 0.869458 0.813680 0.748486 0.674336 0.591827 0.501689 0.404786 0.302113 0.194788 0.084044 0.028783 0.142264 0.254897 0.365123 0.471350 0.571971 0.665397 0.750074 0.824521 0.887351 0.937303 0.973275 0.994344 0.999801 0.989171 0.962235 0.919051 0.859965 0.785627 0.696984 0.595290 0.482091 0.359209 0.228726 0.092953 0.045610 0.184311 0.320395 0.451060 0.573516 0.685042 0.783055 0.865173 0.929280 0.973588 0.996696 0.997638 0.975935 0.931620 0.865273 0.778022 0.671548 0.548067 0.410292 0.261394 0.104933 0.055217 0.214957 0.370067 0.516318 0.649588 0.765983 0.861963 0.934453 0.980959 0.999667 0.989523 0.950301 0.882642 0.788075 0.669002 0.528663 0.371062 0.200873 0.023312 0.156012 0.331270 0.496601 0.646310 0.775073 0.878136 0.951510 0.992135 0.998034 0.968426 0.903796 0.805931 0.677901 0.523992 0.349583 0.160986 0.034770 0.230192 0.417603 0.589442 0.738578 0.858626 0.944227 0.991318 0.997348 0.961443 0.884499 0.769213 0.620017 0.442953 0.245451 0.036040 0.176000 0.381041 0.569545 0.732519 0.861953 0.951241 0.995547 0.992100 0.940397 0.842304 0.702043 0.526051 0.322723 0.102051 0.124850 0.346292 0.550602 0.726755 0.864984 0.957349 0.998229 0.984708 0.916816 0.797623 0.633155 0.432146 0.205611 0.033719 0.272097 0.495534 0.690629 0.845391 0.950010 0.997514 0.984287 0.910390 0.779663 0.599599 0.380966 0.137218 0.116305 0.363313 0.587614 0.774183 0.910201 0.985980 0.995701 0.937924 0.815806 0.637016 0.413308 0.159831 0.105879 0.365068 0.599092 0.790766 0.925661 0.993249 0.987775 0.908824 0.761490 0.556136 0.307740 0.034871 0.241682 0.500435 0.720926 0.885330 0.979969 0.996504 0.932761 0.793053 0.587997 0.333795 0.051017 0.237002 0.506073 0.733194 0.898534 0.987238 0.990828 0.908110 0.745453 0.516403 0.240657 0.057554 0.351570 0.614652 0.822428 0.955226 0.999985 0.951650 0.813828 0.598663 0.325856 0.020972 0.286914 0.567949 0.794418 0.943526 0.999767 0.956640 0.817513 0.595497 0.312341 0.003602 0.320153 0.604557 0.826894 0.963275 0.998512 0.927919 0.758045 0.506228 0.198929 0.130931 0.447446 0.715641 0.905352 0.994711 0.972785 0.841040 0.613442 0.315127 0.020259 0.354281 0.648079 0.866929 0.984410 0.985720 0.869681 0.649164 0.349823 0.007246 0.337179 0.641241 0.867097 0.986056 0.982362 0.855428 0.620217 0.305664 0.048762 0.397901 0.696644 0.905781 0.997261 0.958091 0.792351 0.520994 0.179379 0.187239 0.529558 0.800924 0.963727 0.994736
1.000000 1.000000 1.000000 1.000000 1.000000 1.000000 1.000000 1.000000 1.000000 1.000000 1.000000 1.000000 1.000000 1.000000 1.000000 1.000000 1.000000 1.000000 1.000000 1.000000 1.000000 1.000000 1.000000 1.000000 1.000000 1.000000 1.000000 1.000000 1.000000 1.000000 1.000000 1.000000 1.000000 1.000000 1.000000 1.000000 1.000000 1.000000 1.000000 1.000000 1.000000 1.000000 1.000000 1.000000 1.000000 1.000000 1.000000 1.000000 1.000000 1.000000 1.000000 1.000000 0.917744 0.917744 0.904082 0.904082 0.904082 0.904082 0.904082 0.904082 0.904082 0.904082 0.904082 0.904082 0.904082 0.904082 0.904082 0.904082 0.904082 0.904082 0.904082 0.904082 0.904082 0.904082 0.904082 0.904082 0.904082 0.904082 0.904082 0.904082 0.904082 0.904082 0.904082 0.904082 0.904082 0.904082 0.904082 0.904082 0.904082 0.904082 0.904082 0.904082 0.904082 0.904082 0.904082 0.902389 0.907393 0.909363 0.907924 0.911412 0.911463 0.909458 0.908926 0.908602 0.908961 0.910368 0.920829 0.931790 0.942746 0.943280 0.948500 0.952730 0.955240 0.955976 0.957580 0.967789 0.965101 0.964641 0.965342 0.966788 0.968881 0.967728 0.967143 0.970196 0.970845 0.969347 0.966931 0.966278 0.965645 0.965738 0.965387 0.965264 0.965126 0.965656 0.965892 0.965517 0.965669 0.965731 0.966736 0.967898 0.970449 0.971564 0.971473 0.970387 0.965241 0.968730 0.969651 0.969095 0.969105 0.968762 0.969046 0.953721 0.951125 0.951030 0.947284 0.946234 0.943401 0.941712 0.940808 0.941558 0.940271 0.940370 0.937718 0.924661 0.911451 0.899474 0.919170 0.907418 0.895199 0.871535 0.872209 0.865185 0.865597 0.857334 0.850760 0.846524 0.843992 0.846037 0.845856 0.850226 0.846810 0.830774 0.834486 0.829897 0.795399 0.782150 0.768799 0.764738 0.761705 0.762843 0.761237 0.755578 0.764386 0.757281 0.755207 0.744806 0.719810 0.684616 0.672670 0.683591 0.694083 0.694414 0.690478 0.674722 0.636663 0.650915 0.678895 0.672600 0.672966 0.668525 0.662064 0.669994 0.668753 0.666108 0.659798 0.659118 0.658676 0.669041 0.674849 0.667722 0.662244 0.650170 0.639882 0.626451 0.638646 0.644033 0.612594 0.605865 0.599968 0.594665 0.586868 0.565540 0.567081 0.545502 0.530470 0.530967 0.533776 0.536749 0.547023 0.546299 0.523142 0.545561 0.541716 0.573497 0.545046 0.542342 0.544223 0.554900 0.537253 0.523821 0.515754 0.516796 0.533766 0.565747 0.605630 0.597215 0.587181 0.579915 0.592982 0.576121 0.584879 0.607126 0.585466 0.514990 0.472229 0.469350 0.438385 0.427233 0.417413 0.395104 0.377994 0.377135 0.372809 0.358691 0.347080 0.289713 0.256280 0.238891 0.223501 0.236069 0.252973 0.250835 0.252383 0.291738 0.337160 0.337045 0.327669 0.309828 0.309345 0.308824 0.262609 0.261673 0.222943 0.212717 0.242839 0.191220 0.195973 0.134148 0.127269 0.142933 0.168471 0.181950 0.137464 0.124521 0.146187 0.165126 0.155705 0.147573 0.106319 0.080252 0.067306 0.079477 0.062847 0.031914 0.037087 0.044382 0.025827 0.009155 0.017252 0.005749 0.008719 -0.003382 -0.004309 0.033134 0.058707 0.049243 0.052296 0.068816 0.058547 0.040594 0.033079 0.018735 0.013911 -0.036252 -0.061065 -0.061065 -0.056545 -0.056545 -0.056545 -0.056545 -0.056545 -0.056545 -0.056545 -0.056545 -0.056545 -0.056890 -0.056890 -0.056890 -0.056890 -0.056890 -0.056890 -0.056890 -0.056890 -0.056890 -0.036380 -0.036380 -0.036380 -0.036380 -0.036380 -0.036380 -0.036380 -0.036380 -0.036380
0.000000 0.000000 0.000000 0.000000 0.000000 0.000000 0.000000 0.000000 0.000000 0.000000 0.000000 0.000000 0.000000 0.000000 0.000000 0.000000 0.000000 0.000000 0.000000 0.000000 0.000000 0.000000 0.000000 0.000000 0.000000 0.000000 0.000000 0.000000 0.000000 0.000000 0.000000 0.000000 0.000000 0.000000 0.000000 0.000000 0.000000 0.000000 0.000000 0.000000 0.000000 0.000000 0.000000 0.000000 0.000000 0.000000 0.000000 0.000000 0.000000 0.000000 0.000000 0.000000 0.181818 0.181818 0.199007 0.199007 0.199007 0.199007 0.199007 0.199007 0.199007 0.199007 0.199007 0.199007 0.199007 0.199007 0.199007 0.199007 0.199007 0.199007 0.199007 0.199007 0.199007 0.199007 0.199007 0.199007 0.199007 0.199007 0.199007 0.199007 0.199007 0.199007 0.199007 0.199007 0.199007 0.199007 0.199007 0.199007 0.199007 0.199007 0.199007 0.199007 0.199007 0.199007 0.199007 0.230940 0.230940 0.230940 0.230940 0.230940 0.230940 0.230940 0.230940 0.230940 0.230940 0.230940 0.230940 0.230940 0.230940 0.230940 0.230940 0.230940 0.230940 0.230940 0.230940 0.230940 0.230940 0.230940 0.230940 0.230940 0.230940 0.230940 0.230940 0.244339 0.244339 0.244339 0.244339 0.244339 0.244339 0.244339 0.244339 0.244339 0.244339 0.244339 0.244339 0.244339 0.244339 0.244339 0.244339 0.244339 0.244339 0.244339 0.244339 0.244339 0.244339 0.244339 0.251976 0.251976 0.251976 0.251976 0.251976 0.251976 0.251976 0.251976 0.251976 0.251976 0.251976 0.251976 0.251976 0.251976 0.251976 0.251976 0.251976 0.251976 0.251976 0.251976 0.264906 0.264906 0.264906 0.264906 0.264906 0.264906 0.264906 0.264906 0.264906 0.264906 0.264906 0.264906 0.264906 0.264906 0.264906 0.264906 0.264906 0.264906 0.264906 0.264906 0.264906 0.264906 0.264906 0.264906 0.264906 0.264906 0.264906 0.264906 0.264906 0.264906 0.264906 0.264906 0.264906 0.264906 0.264906 0.264906 0.264906 0.264906 0.264906 0.264906 0.264906 0.264906 0.264906 0.264906 0.264906 0.264906 0.264906 0.264906 0.264906 0.264906 0.264906 0.264906 0.264906 0.264906 0.264906 0.264906 0.264906 0.264906 0.264906 0.264906 0.264906 0.264906 0.264906 0.264906 0.264906 0.264906 0.264906 0.264906 0.264906 0.264906 0.264906 0.264906 0.264906 0.264906 0.264906 0.269680 0.269680 0.269680 0.269680 0.269680 0.269680 0.269680 0.269680 0.269680 0.269680 0.269680 0.269680 0.264906 0.264906 0.264906 0.264906 0.264906 0.264906 0.264906 0.264906 0.264906 0.264906 0.264906 0.264906 0.269680 0.269680 0.269680 0.269680 0.269680 0.269680 0.269680 0.269680 0.269680 0.269680 0.269680 0.264906 0.264906 0.264906 0.264906 0.264906 0.264906 0.264906 0.264906 0.264906 0.264906 0.264906 0.269680 0.269680 0.269680 0.269680 0.269680 0.269680 0.269680 0.269680 0.269680 0.269680 0.251976 0.251976 0.251976 0.251976 0.251976 0.251976 0.251976 0.251976 0.251976 0.251976 0.251976 0.269680 0.269680 0.269680 0.269680 0.269680 0.269680 0.269680 0.269680 0.269680 0.256074 0.256074 0.256074 0.256074 0.256074 0.256074 0.256074 0.256074 0.256074 0.256074 0.260378 0.260378 0.260378 0.260378 0.260378 0.260378 0.260378 0.260378 0.260378 0.256074 0.256074 0.256074 0.256074 0.256074 0.256074 0.256074 0.256074 0.256074 0.251976 0.251976 0.251976 0.251976 0.251976 0.251976 0.251976 0.251976 0.251976 0.264906 0.264906 0.264906 0.264906 0.264906 0.264906 0.264906 0.264906 0.264906
