# Output from CTFFind version 4.1.9, run on 2019-11-03 19:36:22
# Input file: stack1_bm3d_averaged_1_4.25_0_2500_half.mrc ; Number of micrographs: 1
# Pixel size: 3.000 Angstroms ; acceleration voltage: 300.0 keV ; spherical aberration: 0.00 mm ; amplitude contrast: 0.07
# Box size: 512 pixels ; min. res.: 30.0 Angstroms ; max. res.: 5.0 Angstroms ; min. def.: 5000.0 um; max. def. 50000.0 um; num. frames averaged: 1
# 6 lines per micrograph: #1 - spatial frequency (1/Angstroms); #2 - 1D rotational average of spectrum (assuming no astigmatism); #3 - 1D rotational average of spectrum; #4 - CTF fit; #5 - cross-correlation between spectrum and CTF fit; #6 - 2sigma of expected cross correlation of noise
0.000000 0.000651 0.001302 0.001953 0.002604 0.003255 0.003906 0.004557 0.005208 0.005859 0.006510 0.007161 0.007812 0.008464 0.009115 0.009766 0.010417 0.011068 0.011719 0.012370 0.013021 0.013672 0.014323 0.014974 0.015625 0.016276 0.016927 0.017578 0.018229 0.018880 0.019531 0.020182 0.020833 0.021484 0.022135 0.022786 0.023438 0.024089 0.024740 0.025391 0.026042 0.026693 0.027344 0.027995 0.028646 0.029297 0.029948 0.030599 0.031250 0.031901 0.032552 0.033203 0.033854 0.034505 0.035156 0.035807 0.036458 0.037109 0.037760 0.038411 0.039062 0.039714 0.040365 0.041016 0.041667 0.042318 0.042969 0.043620 0.044271 0.044922 0.045573 0.046224 0.046875 0.047526 0.048177 0.048828 0.049479 0.050130 0.050781 0.051432 0.052083 0.052734 0.053385 0.054036 0.054688 0.055339 0.055990 0.056641 0.057292 0.057943 0.058594 0.059245 0.059896 0.060547 0.061198 0.061849 0.062500 0.063151 0.063802 0.064453 0.065104 0.065755 0.066406 0.067057 0.067708 0.068359 0.069010 0.069661 0.070312 0.070964 0.071615 0.072266 0.072917 0.073568 0.074219 0.074870 0.075521 0.076172 0.076823 0.077474 0.078125 0.078776 0.079427 0.080078 0.080729 0.081380 0.082031 0.082682 0.083333 0.083984 0.084635 0.085286 0.085938 0.086589 0.087240 0.087891 0.088542 0.089193 0.089844 0.090495 0.091146 0.091797 0.092448 0.093099 0.093750 0.094401 0.095052 0.095703 0.096354 0.097005 0.097656 0.098307 0.098958 0.099609 0.100260 0.100911 0.101562 0.102214 0.102865 0.103516 0.104167 0.104818 0.105469 0.106120 0.106771 0.107422 0.108073 0.108724 0.109375 0.110026 0.110677 0.111328 0.111979 0.112630 0.113281 0.113932 0.114583 0.115234 0.115885 0.116536 0.117188 0.117839 0.118490 0.119141 0.119792 0.120443 0.121094 0.121745 0.122396 0.123047 0.123698 0.124349 0.125000 0.125651 0.126302 0.126953 0.127604 0.128255 0.128906 0.129557 0.130208 0.130859 0.131510 0.132161 0.132812 0.133464 0.134115 0.134766 0.135417 0.136068 0.136719 0.137370 0.138021 0.138672 0.139323 0.139974 0.140625 0.141276 0.141927 0.142578 0.143229 0.143880 0.144531 0.145182 0.145833 0.146484 0.147135 0.147786 0.148438 0.149089 0.149740 0.150391 0.151042 0.151693 0.152344 0.152995 0.153646 0.154297 0.154948 0.155599 0.156250 0.156901 0.157552 0.158203 0.158854 0.159505 0.160156 0.160807 0.161458 0.162109 0.162760 0.163411 0.164062 0.164714 0.165365 0.166016 0.166667 0.167318 0.167969 0.168620 0.169271 0.169922 0.170573 0.171224 0.171875 0.172526 0.173177 0.173828 0.174479 0.175130 0.175781 0.176432 0.177083 0.177734 0.178385 0.179036 0.179688 0.180339 0.180990 0.181641 0.182292 0.182943 0.183594 0.184245 0.184896 0.185547 0.186198 0.186849 0.187500 0.188151 0.188802 0.189453 0.190104 0.190755 0.191406 0.192057 0.192708 0.193359 0.194010 0.194661 0.195312 0.195964 0.196615 0.197266 0.197917 0.198568 0.199219 0.199870 0.200521 0.201172 0.201823 0.202474 0.203125 0.203776 0.204427 0.205078 0.205729 0.206380 0.207031 0.207682 0.208333 0.208984 0.209635 0.210286 0.210938 0.211589 0.212240 0.212891 0.213542 0.214193 0.214844 0.215495 0.216146 0.216797 0.217448 0.218099 0.218750 0.219401 0.220052 0.220703 0.221354 0.222005 0.222656 0.223307 0.223958 0.224609 0.225260 0.225911 0.226562 0.227214 0.227865 0.228516 0.229167 0.229818 0.230469 0.231120 0.231771 0.232422 0.233073 0.233724 0.234375 0.235026 0.235677
       0.34533        0.34533        0.34533        0.34533        0.34533        0.34533        0.34533        0.34533        0.34533        0.34533        0.34533        0.34533        0.34533        0.34533        0.34533        0.34533        0.34533        0.34533        0.34533        0.34533        0.34533        0.34533        0.34533        0.34533        0.34533        0.34533        0.34533        0.34533        0.34533        0.34533        0.34533        0.34533        0.34533        0.34533        0.34533        0.34533        0.34533        0.34533        0.34533        0.34533        0.34533        0.34533        0.34533        0.34533        0.34533        0.34533        0.34533        0.34533        0.34533        0.34533        0.34533        0.44975        0.65630        0.33589        0.16570       -0.03625       -0.25978       -0.07077       -0.15820       -0.15190        0.00753       -0.11552       -0.12382       -0.05043       -0.03675       -0.13591       -0.16270       -0.31077       -0.46303       -0.54702       -0.50856       -0.41922       -0.31569       -0.47424       -0.36861       -0.49055       -0.39838       -0.43986       -0.28578       -0.26913       -0.27978       -0.16118       -0.10217       -0.07199        0.06123        0.02340        0.18822        0.17477        0.31208        0.37661        0.49858        0.51763        0.55447        0.59642        0.72397        0.62132        0.59092        0.52171        0.51709        0.60191        0.49550        0.46859        0.40425        0.31027        0.27599        0.28892        0.25894        0.16005        0.16147        0.02776        0.09546        0.08961        0.07254        0.09611        0.13282        0.21193        0.28763        0.28934        0.32301        0.46831        0.48186        0.50218        0.63983        0.63284        0.58337        0.60154        0.59807        0.46774        0.47941        0.37520        0.34313        0.28629        0.22188        0.20807        0.17965        0.14134        0.19037        0.22324        0.23365        0.25707        0.32423        0.36596        0.38266        0.47379        0.50706        0.50368        0.48546        0.58077        0.49647        0.49266        0.47275        0.38309        0.32858        0.27428        0.29218        0.21626        0.22716        0.23886        0.21873        0.22668        0.30658        0.37021        0.41313        0.45261        0.44332        0.48628        0.45498        0.46333        0.40275        0.38926        0.35350        0.37462        0.37548        0.36829        0.26518        0.31575        0.26851        0.26971        0.28713        0.34531        0.37797        0.41617        0.43933        0.46832        0.43854        0.42059        0.45570        0.37666        0.35304        0.35873        0.31150        0.33572        0.28290        0.32076        0.31426        0.32665        0.36370        0.39019        0.41461        0.43652        0.39147        0.39786        0.37842        0.39492        0.29775        0.31544        0.30928        0.24934        0.33138        0.31633        0.33424        0.35078        0.36228        0.37446        0.37576        0.44706        0.38543        0.36098        0.35595        0.30578        0.29369        0.31552        0.31480        0.35003        0.33325        0.35154        0.33239        0.39416        0.36599        0.37860        0.40155        0.38528        0.34305        0.31696        0.34205        0.32020        0.34456        0.30757        0.35124        0.35204        0.34842        0.32365        0.34644        0.32598        0.28474        0.28922        0.28803        0.31370        0.33059        0.35616        0.33438        0.32186        0.33864        0.33381        0.31533        0.29210        0.32519        0.33739        0.31963        0.29848        0.32921        0.32863        0.33989        0.31558        0.33515        0.35121        0.33232        0.33420        0.30686        0.26940        0.30499        0.34001        0.32696        0.31875        0.35879        0.32625        0.29499        0.33607        0.32399        0.30647        0.29743        0.27562        0.33003        0.34946        0.35664        0.29534        0.28397        0.29160        0.26938        0.26393        0.32184        0.31496        0.31033        0.32003        0.30362        0.27859        0.34728        0.33604        0.33872        0.31708        0.30155        0.32834        0.36966        0.39838        0.30748        0.32912        0.33064        0.34722        0.29581        0.32431        0.32582        0.25198        0.32873        0.36457        0.32367        0.33971        0.30238        0.27911        0.25983        0.30016        0.30611        0.35580        0.32666        0.28211        0.23156        0.29870        0.31348        0.27484        0.26751        0.24345        0.29450        0.26702        0.31490        0.27643        0.30026        0.31405        0.24369        0.30075        0.27025        0.19396        0.20014        0.23958        0.19233        0.24366        0.23202        0.22625        0.35581        0.26186        0.29374        0.28831        0.19082        0.24337        0.33048        0.22584        0.13237        0.26030        0.20307        0.23843        0.32643        0.10365        0.06827       -0.38457       -0.57041
2.880401 2.849249 2.818267 2.787455 2.756814 2.726343 2.696043 2.665914 2.635955 2.606166 2.576548 2.547101 2.517824 2.488717 2.459781 2.431016 2.402421 2.373997 2.345743 2.317659 2.289746 2.262004 2.234432 2.207030 2.179799 2.152739 2.125849 2.099130 2.072581 2.046202 2.019995 1.993957 1.968090 1.942394 1.916868 1.891513 1.866328 1.841313 1.816470 1.791796 1.767293 1.742961 1.718799 1.694808 1.670987 1.647337 1.623857 1.600548 1.577409 1.554441 1.531643 1.537117 1.898106 1.697408 1.030126 1.105158 0.474468 0.930175 0.577034 0.740978 0.881830 0.690024 0.599241 0.780193 0.737544 0.604402 0.568548 0.349396 0.056193 0.003293 -0.017401 -0.037996 0.350530 -0.047634 0.070900 -0.051964 0.011190 -0.042135 0.121777 0.133491 0.100068 0.214674 0.311505 0.293893 0.462624 0.387355 0.640205 0.520880 0.768649 0.738046 0.921473 1.016611 0.939434 1.049314 1.132477 1.118867 1.023057 0.867449 0.868518 0.960459 0.816043 0.794376 0.661239 0.550799 0.479717 0.464653 0.452776 0.256230 0.307100 0.113368 0.090021 0.166948 0.080304 0.079612 0.153850 0.185615 0.321626 0.325270 0.374237 0.398299 0.594506 0.428898 0.669742 0.822193 0.604062 0.668048 0.672373 0.487757 0.410885 0.379850 0.248347 0.238145 0.062481 0.096646 -0.006720 -0.007508 -0.049352 0.028373 0.066008 0.047180 0.087939 0.203953 0.227877 0.239564 0.381341 0.335825 0.364727 0.402225 0.378125 0.326134 0.300220 0.254708 0.096459 0.061872 0.003588 -0.025735 -0.088061 -0.041643 -0.048209 -0.089989 -0.060329 0.064908 0.175921 0.190520 0.196553 0.237452 0.297311 0.208516 0.201243 0.204953 0.093092 0.073664 0.179336 0.079624 0.024544 -0.002153 0.043559 -0.060213 0.004130 0.002368 0.118551 0.101881 0.135918 0.201977 0.241246 0.096347 0.170625 0.162039 0.090218 0.050428 0.034807 0.043402 -0.017790 -0.006985 -0.010709 -0.006559 0.053440 0.059552 0.099610 0.163166 0.124318 0.062633 0.069869 0.111638 0.040341 -0.076401 0.002020 -0.050918 -0.074657 0.005631 -0.023851 0.050596 0.005489 0.037748 0.090019 0.135303 0.167487 0.042987 0.071854 0.068425 -0.065926 -0.001176 0.012836 0.014731 0.060864 0.052600 0.029757 0.059598 0.089356 0.084795 0.113846 0.139959 0.054554 0.047521 0.032987 0.032155 0.015994 0.065583 0.007814 0.073976 0.062428 0.010242 -0.000389 0.051725 0.001015 -0.062453 -0.025226 -0.041095 -0.017378 0.035980 0.066044 0.022266 -0.005444 0.035292 0.022860 0.027400 -0.013736 0.023182 0.036379 0.022253 -0.011476 0.030234 0.023465 0.039861 0.021103 0.080277 0.058103 0.050840 0.045110 -0.000897 -0.072217 0.023528 0.051505 0.052431 0.011409 0.094033 0.016913 -0.032800 0.030069 0.004667 0.009929 -0.067946 -0.053945 0.066400 0.027165 0.020516 -0.052468 -0.043120 -0.036815 -0.107159 -0.036855 -0.028731 0.009767 -0.005313 -0.014873 -0.048346 -0.059032 0.021264 -0.025234 -0.084156 -0.001613 -0.097057 -0.013565 0.031585 0.041893 -0.078124 -0.070229 -0.005173 -0.063271 -0.134026 -0.058204 -0.054313 -0.150489 -0.039933 0.037142 -0.065790 -0.069102 -0.058372 -0.088608 -0.094546 -0.011961 -0.082281 0.075127 -0.050692 -0.040719 -0.108673 0.001832 -0.030502 -0.065148 0.002421 -0.123909 0.080408 -0.048492 0.075170 -0.027156 0.013109 0.122551 -0.071530 0.110450 -0.013773 -0.105336 -0.050875 -0.032310 -0.059907 -0.093696 0.031543 -0.011052 0.190393 -0.027641 0.124506 0.043045 -0.061189 0.017336 0.151859 0.263337 0.059257 0.335487 0.307279 0.241768 0.449497 -0.004953 0.096926 -0.745373
0.072396 0.072908 0.074445 0.077005 0.080589 0.085196 0.090823 0.097470 0.105134 0.113812 0.123501 0.134197 0.145893 0.158582 0.172258 0.186909 0.202525 0.219092 0.236595 0.255014 0.274329 0.294515 0.315546 0.337391 0.360013 0.383375 0.407432 0.432136 0.457433 0.483265 0.509567 0.536269 0.563293 0.590557 0.617970 0.645437 0.672854 0.700110 0.727087 0.753662 0.779701 0.805067 0.829614 0.853189 0.875636 0.896790 0.916482 0.934538 0.950782 0.965032 0.977107 0.986824 0.993998 0.998450 1.000000 0.998474 0.993706 0.985536 0.973815 0.958405 0.939183 0.916043 0.888896 0.857676 0.822338 0.782864 0.739264 0.691578 0.639876 0.584267 0.524893 0.461934 0.395610 0.326183 0.253955 0.179269 0.102513 0.024113 0.055461 0.135702 0.216064 0.295967 0.374800 0.451925 0.526680 0.598386 0.666353 0.729887 0.788295 0.840896 0.887028 0.926057 0.957386 0.980467 0.994809 0.999988 0.995657 0.981558 0.957527 0.923507 0.879553 0.825841 0.762673 0.690479 0.609825 0.521410 0.426063 0.324747 0.218546 0.108663 0.003597 0.116831 0.229561 0.340249 0.447318 0.549173 0.644227 0.730925 0.807775 0.873373 0.926436 0.965824 0.990577 0.999933 0.993362 0.970579 0.931573 0.876615 0.806269 0.721404 0.623186 0.513077 0.392818 0.264413 0.130099 0.007684 0.146337 0.283145 0.415331 0.540110 0.654754 0.756650 0.843366 0.912718 0.962828 0.992187 0.999703 0.984754 0.947219 0.887510 0.806585 0.705951 0.587649 0.454230 0.308712 0.154521 0.004581 0.164579 0.321307 0.470550 0.608165 0.730194 0.832991 0.913337 0.968553 0.996600 0.996173 0.966765 0.908722 0.823263 0.712483 0.579325 0.427515 0.261482 0.086237 0.092762 0.269777 0.438973 0.594607 0.731231 0.843894 0.928333 0.981151 0.999975 0.983578 0.931970 0.846443 0.729578 0.585189 0.418226 0.234637 0.041158 0.154905 0.345957 0.524404 0.682952 0.814930 0.914570 0.977298 0.999954 0.980985 0.920566 0.820655 0.684965 0.518870 0.329217 0.124072 0.087604 0.296335 0.492549 0.667022 0.811329 0.918261 0.982219 0.999537 0.968722 0.890606 0.768374 0.607483 0.415464 0.201600 0.023495 0.248386 0.461385 0.651171 0.807396 0.921276 0.986122 0.997764 0.954866 0.859081 0.715062 0.530274 0.314671 0.080181 0.159913 0.391718 0.601536 0.776676 0.906260 0.981921 0.998399 0.953952 0.850566 0.693939 0.493235 0.260593 0.010441 0.241372 0.478575 0.685513 0.848217 0.955379 0.999180 0.975922 0.886393 0.735943 0.534223 0.294657 0.033568 0.230872 0.479906 0.695526 0.861787 0.966040 0.999947 0.960211 0.848965 0.673737 0.447048 0.185560 0.091079 0.361689 0.605169 0.802163 0.936623 0.997193 0.978226 0.880398 0.710801 0.482531 0.213764 0.073654 0.355915 0.609235 0.811854 0.945971 0.999354 0.966552 0.849529 0.657676 0.407157 0.119633 0.179547 0.463550 0.706468 0.885709 0.984160 0.991901 0.907306 0.737389 0.497344 0.209287 0.099703 0.400089 0.662675 0.861482 0.976377 0.995196 0.915140 0.743273 0.496025 0.197741 0.121632 0.429508 0.693970 0.887116 0.988067 0.985333 0.878237 0.677226 0.402989 0.084446 0.244215 0.547185 0.790920 0.947924 0.999937 0.940187 0.774392 0.520389 0.206335 0.132286 0.456631 0.728935 0.916943 0.997834 0.961109 0.810100 0.561860 0.245377 0.101663 0.437319 0.720427 0.915700 0.998219 0.956747 0.795416 0.533520 0.203361 0.153590 0.491859 0.767716 0.944919 0.999561 0.923467 0.725570 0.431074 0.078391 0.285730 0.612351 0.856951 0.985558
1.000000 1.000000 1.000000 1.000000 1.000000 1.000000 1.000000 1.000000 1.000000 1.000000 1.000000 1.000000 1.000000 1.000000 1.000000 1.000000 1.000000 1.000000 1.000000 1.000000 1.000000 1.000000 1.000000 1.000000 1.000000 1.000000 1.000000 1.000000 1.000000 1.000000 1.000000 1.000000 1.000000 1.000000 1.000000 1.000000 1.000000 1.000000 1.000000 1.000000 1.000000 1.000000 1.000000 1.000000 1.000000 1.000000 1.000000 1.000000 1.000000 1.000000 1.000000 1.000000 0.872691 0.872691 0.872691 0.879668 0.879668 0.879668 0.879668 0.879668 0.879668 0.879668 0.879668 0.879668 0.879668 0.879668 0.879668 0.879668 0.879668 0.879668 0.879668 0.879668 0.879668 0.879668 0.879668 0.879668 0.879668 0.879668 0.879668 0.879668 0.879668 0.879668 0.879668 0.879668 0.879668 0.879668 0.879668 0.879668 0.879668 0.879668 0.879668 0.879668 0.879668 0.879668 0.879668 0.879668 0.886230 0.889049 0.890720 0.892552 0.893967 0.891312 0.890391 0.889815 0.890047 0.891347 0.901940 0.916885 0.930369 0.947022 0.954345 0.956007 0.959562 0.959500 0.965935 0.973868 0.972547 0.973171 0.973502 0.974868 0.959875 0.958101 0.952892 0.948085 0.977416 0.960050 0.957469 0.949983 0.943419 0.942139 0.941902 0.941691 0.942063 0.942778 0.943778 0.943643 0.942544 0.942140 0.939509 0.928462 0.924265 0.924094 0.924493 0.916792 0.900112 0.893810 0.891780 0.891119 0.890557 0.890810 0.891124 0.892178 0.889865 0.890361 0.868061 0.864852 0.862859 0.858690 0.856859 0.859184 0.859689 0.863938 0.861752 0.849176 0.825935 0.811754 0.797655 0.770644 0.755402 0.765116 0.766907 0.762997 0.762262 0.758961 0.756278 0.756436 0.751407 0.754048 0.752421 0.747445 0.735353 0.731792 0.716186 0.710746 0.705814 0.683125 0.710807 0.722990 0.722659 0.720748 0.720731 0.713017 0.721315 0.711970 0.703798 0.695695 0.687875 0.681122 0.669464 0.660276 0.675419 0.676873 0.659213 0.667927 0.693454 0.690537 0.693786 0.699475 0.706575 0.704450 0.696425 0.655701 0.643649 0.661306 0.659014 0.657001 0.657903 0.655158 0.653278 0.653327 0.651122 0.615910 0.592359 0.598109 0.605015 0.625189 0.642464 0.651794 0.615160 0.596836 0.544475 0.501084 0.517851 0.502862 0.493236 0.498247 0.478441 0.474335 0.478007 0.486332 0.486300 0.513055 0.509983 0.499233 0.493723 0.480043 0.483090 0.476243 0.446589 0.454692 0.430171 0.413909 0.432608 0.454352 0.425757 0.452744 0.479285 0.435016 0.433613 0.435925 0.392965 0.363410 0.338549 0.288634 0.287526 0.189385 0.171623 0.166305 0.186033 0.184374 0.140635 0.143707 0.159864 0.141840 0.102472 0.074002 0.051720 -0.012246 -0.023189 -0.017894 -0.025712 -0.040485 -0.066436 -0.074994 -0.037980 -0.030990 -0.043887 -0.023223 -0.052119 -0.051232 -0.054022 -0.096143 -0.116598 -0.144601 -0.144737 -0.200337 -0.186760 -0.188367 -0.177732 -0.224718 -0.232661 -0.218097 -0.197316 -0.232406 -0.246227 -0.257597 -0.245500 -0.251273 -0.221222 -0.203824 -0.201398 -0.207361 -0.222907 -0.193699 -0.196133 -0.221813 -0.207371 -0.220481 -0.215241 -0.195235 -0.181389 -0.155289 -0.114509 -0.088780 -0.094177 -0.102405 -0.127369 -0.095442 -0.092782 -0.101362 -0.120209 -0.153153 -0.163579 -0.163579 -0.163579 -0.163579 -0.163579 -0.158617 -0.158617 -0.158617 -0.158617 -0.158617 -0.158617 -0.158617 -0.158617 -0.158617 -0.084927 -0.084927 -0.084927 -0.084927 -0.084927 -0.084927 -0.084927 -0.084927 -0.084927 -0.084927 -0.084927 -0.084927 -0.084927 -0.084927 -0.084927 -0.084927 -0.084927
0.000000 0.000000 0.000000 0.000000 0.000000 0.000000 0.000000 0.000000 0.000000 0.000000 0.000000 0.000000 0.000000 0.000000 0.000000 0.000000 0.000000 0.000000 0.000000 0.000000 0.000000 0.000000 0.000000 0.000000 0.000000 0.000000 0.000000 0.000000 0.000000 0.000000 0.000000 0.000000 0.000000 0.000000 0.000000 0.000000 0.000000 0.000000 0.000000 0.000000 0.000000 0.000000 0.000000 0.000000 0.000000 0.000000 0.000000 0.000000 0.000000 0.000000 0.000000 0.000000 0.180334 0.180334 0.180334 0.199007 0.199007 0.199007 0.199007 0.199007 0.199007 0.199007 0.199007 0.199007 0.199007 0.199007 0.199007 0.199007 0.199007 0.199007 0.199007 0.199007 0.199007 0.199007 0.199007 0.199007 0.199007 0.199007 0.199007 0.199007 0.199007 0.199007 0.199007 0.199007 0.199007 0.199007 0.199007 0.199007 0.199007 0.199007 0.199007 0.199007 0.199007 0.199007 0.199007 0.199007 0.230940 0.230940 0.230940 0.230940 0.230940 0.230940 0.230940 0.230940 0.230940 0.230940 0.230940 0.230940 0.230940 0.230940 0.230940 0.230940 0.230940 0.230940 0.230940 0.230940 0.230940 0.230940 0.230940 0.230940 0.230940 0.230940 0.230940 0.230940 0.248069 0.248069 0.248069 0.248069 0.248069 0.248069 0.248069 0.248069 0.248069 0.248069 0.248069 0.248069 0.248069 0.248069 0.248069 0.248069 0.248069 0.248069 0.248069 0.248069 0.248069 0.248069 0.251976 0.251976 0.251976 0.251976 0.251976 0.251976 0.251976 0.251976 0.251976 0.251976 0.251976 0.251976 0.251976 0.251976 0.251976 0.251976 0.251976 0.251976 0.251976 0.251976 0.256074 0.256074 0.256074 0.256074 0.256074 0.256074 0.256074 0.256074 0.256074 0.256074 0.256074 0.256074 0.256074 0.256074 0.256074 0.256074 0.256074 0.256074 0.264906 0.264906 0.264906 0.264906 0.264906 0.264906 0.264906 0.264906 0.264906 0.264906 0.264906 0.264906 0.264906 0.264906 0.264906 0.264906 0.269680 0.269680 0.269680 0.269680 0.269680 0.269680 0.269680 0.269680 0.269680 0.269680 0.269680 0.269680 0.269680 0.269680 0.264906 0.264906 0.264906 0.264906 0.264906 0.264906 0.264906 0.264906 0.264906 0.264906 0.264906 0.264906 0.264906 0.264906 0.264906 0.264906 0.264906 0.264906 0.264906 0.264906 0.264906 0.264906 0.264906 0.264906 0.264906 0.264906 0.264906 0.260378 0.260378 0.260378 0.260378 0.260378 0.260378 0.260378 0.260378 0.260378 0.260378 0.260378 0.260378 0.260378 0.274721 0.274721 0.274721 0.274721 0.274721 0.274721 0.274721 0.274721 0.274721 0.274721 0.274721 0.260378 0.260378 0.260378 0.260378 0.260378 0.260378 0.260378 0.260378 0.260378 0.260378 0.260378 0.260378 0.264906 0.264906 0.264906 0.264906 0.264906 0.264906 0.264906 0.264906 0.264906 0.264906 0.264906 0.269680 0.269680 0.269680 0.269680 0.269680 0.269680 0.269680 0.269680 0.269680 0.269680 0.264906 0.264906 0.264906 0.264906 0.264906 0.264906 0.264906 0.264906 0.264906 0.264906 0.260378 0.260378 0.260378 0.260378 0.260378 0.260378 0.260378 0.260378 0.260378 0.260378 0.264906 0.264906 0.264906 0.264906 0.264906 0.264906 0.264906 0.264906 0.264906 0.251976 0.251976 0.251976 0.251976 0.251976 0.251976 0.251976 0.251976 0.251976 0.251976 0.256074 0.256074 0.256074 0.256074 0.256074 0.256074 0.256074 0.256074 0.256074 0.269680 0.269680 0.269680 0.269680 0.269680 0.269680 0.269680 0.269680 0.269680 0.269680 0.269680 0.269680 0.269680 0.269680 0.269680 0.269680 0.269680
