# Output from CTFFind version 4.1.9, run on 2019-11-02 17:46:00
# Input file: stack11_bm3d_averaged_1_1.25_0_1000_half.mrc ; Number of micrographs: 1
# Pixel size: 3.000 Angstroms ; acceleration voltage: 300.0 keV ; spherical aberration: 0.00 mm ; amplitude contrast: 0.07
# Box size: 512 pixels ; min. res.: 30.0 Angstroms ; max. res.: 5.0 Angstroms ; min. def.: 5000.0 um; max. def. 50000.0 um; num. frames averaged: 1
# 6 lines per micrograph: #1 - spatial frequency (1/Angstroms); #2 - 1D rotational average of spectrum (assuming no astigmatism); #3 - 1D rotational average of spectrum; #4 - CTF fit; #5 - cross-correlation between spectrum and CTF fit; #6 - 2sigma of expected cross correlation of noise
0.000000 0.000651 0.001302 0.001953 0.002604 0.003255 0.003906 0.004557 0.005208 0.005859 0.006510 0.007161 0.007812 0.008464 0.009115 0.009766 0.010417 0.011068 0.011719 0.012370 0.013021 0.013672 0.014323 0.014974 0.015625 0.016276 0.016927 0.017578 0.018229 0.018880 0.019531 0.020182 0.020833 0.021484 0.022135 0.022786 0.023438 0.024089 0.024740 0.025391 0.026042 0.026693 0.027344 0.027995 0.028646 0.029297 0.029948 0.030599 0.031250 0.031901 0.032552 0.033203 0.033854 0.034505 0.035156 0.035807 0.036458 0.037109 0.037760 0.038411 0.039062 0.039714 0.040365 0.041016 0.041667 0.042318 0.042969 0.043620 0.044271 0.044922 0.045573 0.046224 0.046875 0.047526 0.048177 0.048828 0.049479 0.050130 0.050781 0.051432 0.052083 0.052734 0.053385 0.054036 0.054688 0.055339 0.055990 0.056641 0.057292 0.057943 0.058594 0.059245 0.059896 0.060547 0.061198 0.061849 0.062500 0.063151 0.063802 0.064453 0.065104 0.065755 0.066406 0.067057 0.067708 0.068359 0.069010 0.069661 0.070312 0.070964 0.071615 0.072266 0.072917 0.073568 0.074219 0.074870 0.075521 0.076172 0.076823 0.077474 0.078125 0.078776 0.079427 0.080078 0.080729 0.081380 0.082031 0.082682 0.083333 0.083984 0.084635 0.085286 0.085938 0.086589 0.087240 0.087891 0.088542 0.089193 0.089844 0.090495 0.091146 0.091797 0.092448 0.093099 0.093750 0.094401 0.095052 0.095703 0.096354 0.097005 0.097656 0.098307 0.098958 0.099609 0.100260 0.100911 0.101562 0.102214 0.102865 0.103516 0.104167 0.104818 0.105469 0.106120 0.106771 0.107422 0.108073 0.108724 0.109375 0.110026 0.110677 0.111328 0.111979 0.112630 0.113281 0.113932 0.114583 0.115234 0.115885 0.116536 0.117188 0.117839 0.118490 0.119141 0.119792 0.120443 0.121094 0.121745 0.122396 0.123047 0.123698 0.124349 0.125000 0.125651 0.126302 0.126953 0.127604 0.128255 0.128906 0.129557 0.130208 0.130859 0.131510 0.132161 0.132812 0.133464 0.134115 0.134766 0.135417 0.136068 0.136719 0.137370 0.138021 0.138672 0.139323 0.139974 0.140625 0.141276 0.141927 0.142578 0.143229 0.143880 0.144531 0.145182 0.145833 0.146484 0.147135 0.147786 0.148438 0.149089 0.149740 0.150391 0.151042 0.151693 0.152344 0.152995 0.153646 0.154297 0.154948 0.155599 0.156250 0.156901 0.157552 0.158203 0.158854 0.159505 0.160156 0.160807 0.161458 0.162109 0.162760 0.163411 0.164062 0.164714 0.165365 0.166016 0.166667 0.167318 0.167969 0.168620 0.169271 0.169922 0.170573 0.171224 0.171875 0.172526 0.173177 0.173828 0.174479 0.175130 0.175781 0.176432 0.177083 0.177734 0.178385 0.179036 0.179688 0.180339 0.180990 0.181641 0.182292 0.182943 0.183594 0.184245 0.184896 0.185547 0.186198 0.186849 0.187500 0.188151 0.188802 0.189453 0.190104 0.190755 0.191406 0.192057 0.192708 0.193359 0.194010 0.194661 0.195312 0.195964 0.196615 0.197266 0.197917 0.198568 0.199219 0.199870 0.200521 0.201172 0.201823 0.202474 0.203125 0.203776 0.204427 0.205078 0.205729 0.206380 0.207031 0.207682 0.208333 0.208984 0.209635 0.210286 0.210938 0.211589 0.212240 0.212891 0.213542 0.214193 0.214844 0.215495 0.216146 0.216797 0.217448 0.218099 0.218750 0.219401 0.220052 0.220703 0.221354 0.222005 0.222656 0.223307 0.223958 0.224609 0.225260 0.225911 0.226562 0.227214 0.227865 0.228516 0.229167 0.229818 0.230469 0.231120 0.231771 0.232422 0.233073 0.233724 0.234375 0.235026 0.235677
       0.31692        0.31692        0.31692        0.31692        0.31692        0.31692        0.31692        0.31692        0.31692        0.31692        0.31692        0.31692        0.31692        0.31692        0.31692        0.31692        0.31692        0.31692        0.31692        0.31692        0.31692        0.31692        0.31692        0.31692        0.31692        0.31692        0.31692        0.31692        0.31692        0.31692        0.31692        0.31692        0.31692        0.31692        0.31692        0.31692        0.31692        0.31692        0.31692        0.31692        0.31692        0.31692        0.31692        0.31692        0.31692        0.31692        0.31692        0.31692        0.31692        0.31692        0.31692        0.68352        0.86980        0.52284        0.08790       -0.06495       -0.42534       -0.20729       -0.29657       -0.11774       -0.07705       -0.11833       -0.06841       -0.20802       -0.23524       -0.25797       -0.33009       -0.33733       -0.48999       -0.38271       -0.46626       -0.44823       -0.42178       -0.46998       -0.54441       -0.56223       -0.58848       -0.62496       -0.57872       -0.41578       -0.37920       -0.33113       -0.31555       -0.21199       -0.20062        0.01729        0.07193        0.10547        0.22595        0.37242        0.44282        0.51625        0.55893        0.55409        0.57086        0.69836        0.81240        0.74159        0.73304        0.66993        0.58119        0.48550        0.40767        0.49378        0.37576        0.20331        0.07751        0.04667        0.01148       -0.06156       -0.03938       -0.02352       -0.07307       -0.00739       -0.02033        0.21217        0.25037        0.29066        0.43123        0.46386        0.40368        0.53633        0.62728        0.70026        0.76440        0.69037        0.65791        0.69912        0.58558        0.50272        0.41902        0.29027        0.18694        0.15602        0.10668        0.03797        0.01193       -0.00170        0.07557        0.13150        0.20386        0.28171        0.40014        0.41659        0.50998        0.60133        0.63412        0.61629        0.63031        0.55340        0.44703        0.44616        0.35172        0.22884        0.18449        0.14883        0.10910        0.12215        0.06851        0.10024        0.22524        0.26265        0.34060        0.35156        0.45286        0.51398        0.53696        0.54925        0.47054        0.42982        0.39077        0.36842        0.30692        0.25065        0.20080        0.18633        0.16130        0.19303        0.17804        0.26938        0.33234        0.36402        0.42365        0.46093        0.47786        0.44413        0.39384        0.41525        0.37460        0.28703        0.27221        0.22503        0.21323        0.19523        0.21453        0.22949        0.32796        0.37392        0.36726        0.46089        0.43859        0.43845        0.43078        0.39443        0.34491        0.32836        0.27695        0.23795        0.23709        0.27001        0.27126        0.30173        0.30229        0.33903        0.32894        0.40823        0.41612        0.37544        0.34531        0.36474        0.28012        0.28136        0.26107        0.27655        0.26089        0.28061        0.29127        0.31314        0.35051        0.35978        0.35962        0.33275        0.35157        0.28557        0.32188        0.26939        0.24762        0.28533        0.28287        0.30702        0.31225        0.33144        0.32701        0.31445        0.31748        0.28734        0.28712        0.25959        0.28118        0.26656        0.30948        0.28380        0.26470        0.30750        0.31069        0.31553        0.28704        0.29907        0.28777        0.24726        0.24014        0.21900        0.27982        0.27535        0.31537        0.31469        0.32077        0.31737        0.30631        0.27720        0.28505        0.33083        0.27025        0.26172        0.29479        0.29289        0.34136        0.33524        0.35797        0.33314        0.31244        0.28128        0.26503        0.26126        0.22800        0.27036        0.30250        0.29577        0.27840        0.29442        0.26943        0.32370        0.32932        0.25161        0.21962        0.27462        0.33734        0.27612        0.31063        0.32497        0.32556        0.29970        0.32394        0.34324        0.29709        0.29049        0.25912        0.28060        0.35281        0.35281        0.26082        0.26753        0.25529        0.28389        0.22198        0.29295        0.22309        0.25029        0.33339        0.32103        0.34749        0.29570        0.24177        0.23965        0.24054        0.23745        0.18552        0.22533        0.26293        0.29882        0.27447        0.30528        0.29792        0.27608        0.27762        0.20943        0.17214        0.19207        0.22985        0.19950        0.21305        0.22922        0.20650        0.24994        0.33986        0.29833        0.30953        0.22280        0.25476        0.23349        0.28036        0.29779        0.14446        0.22352        0.22554        0.11801        0.22232        0.10998        0.15653        0.20243        0.11669       -0.12300       -0.60267
2.587815 2.560799 2.533930 2.507208 2.480632 2.454202 2.427919 2.401782 2.375792 2.349948 2.324250 2.298699 2.273295 2.248037 2.222926 2.197961 2.173142 2.148470 2.123944 2.099565 2.075333 2.051246 2.027307 2.003513 1.979867 1.956366 1.933012 1.909805 1.886744 1.863830 1.841062 1.818440 1.795966 1.773637 1.751455 1.729419 1.707530 1.685787 1.664191 1.642742 1.621438 1.600282 1.579271 1.558408 1.537690 1.517119 1.496695 1.476417 1.456286 1.436301 1.416462 1.637348 2.043921 1.617560 1.130152 0.988341 0.422710 0.811519 0.562045 0.834635 0.773395 0.787898 0.752499 0.710546 0.563228 0.514578 0.485474 0.444679 0.206602 0.380129 0.203134 0.308095 0.237811 0.180301 0.131144 0.005545 0.041726 -0.014468 -0.055721 0.104812 0.206611 0.194603 0.153547 0.332133 0.197508 0.494442 0.577305 0.550331 0.594473 0.877811 0.809851 0.945775 0.888811 0.974009 0.941912 1.079770 1.139405 1.074896 1.126422 0.950512 0.943545 0.785527 0.652304 0.770406 0.706126 0.462954 0.307388 0.253589 0.215601 0.147548 0.089313 0.127565 0.067787 0.151494 0.053369 0.262279 0.378938 0.357884 0.481608 0.581939 0.466198 0.547061 0.697950 0.744315 0.781776 0.731780 0.733024 0.714708 0.626738 0.568737 0.428793 0.287422 0.206695 0.078002 0.130481 -0.044375 -0.030158 -0.080870 -0.038205 0.003064 0.146085 0.088890 0.300034 0.277702 0.363578 0.455591 0.521679 0.507151 0.519959 0.504932 0.332945 0.310212 0.277348 0.099401 0.048300 -0.004619 -0.033581 -0.039756 -0.090428 -0.104474 -0.012984 0.056795 0.132487 0.139940 0.228804 0.332374 0.310381 0.417844 0.391512 0.284482 0.230726 0.245440 0.203392 0.103132 0.073096 0.017476 0.001110 0.006563 -0.015499 0.057555 0.147588 0.141576 0.226360 0.253984 0.304265 0.258460 0.222168 0.185353 0.213184 0.145171 0.044613 0.042949 -0.010752 -0.010991 -0.030234 0.016757 0.015475 0.170364 0.127314 0.182151 0.238138 0.200144 0.191640 0.197095 0.139250 0.103446 0.064360 0.046085 -0.035983 0.007879 0.022874 0.054953 0.051927 0.079351 0.096287 0.119970 0.134192 0.188407 0.078566 0.097605 0.072380 -0.000554 0.005490 0.008145 -0.010468 0.019672 0.004054 0.029422 0.067539 0.081184 0.120368 0.048263 0.100005 0.054565 0.011557 0.062857 -0.034802 -0.012993 0.025640 0.000294 0.053278 0.051971 0.051838 0.055614 0.054500 0.047609 0.020794 -0.000266 0.008690 0.013791 -0.011526 0.070972 -0.014552 0.010571 0.057020 0.047079 0.035475 0.044069 0.036746 0.016457 -0.020214 -0.042350 -0.016435 0.019584 0.025857 0.068036 0.058650 0.064401 0.079147 0.064328 0.023767 0.063879 0.086912 0.017355 0.019441 0.059778 0.053262 0.103497 0.107819 0.112642 0.116632 0.067533 0.041949 0.031486 0.005164 0.000349 0.050565 0.079276 0.044993 0.032447 0.031661 0.017280 0.091923 0.059769 -0.045924 -0.051587 0.032292 0.095822 0.004484 0.027099 0.063873 0.082055 0.025409 0.059053 0.080568 0.031198 0.037024 -0.040991 0.020250 0.110833 0.068448 -0.052584 -0.021874 -0.048942 0.025489 -0.109641 0.039295 -0.105969 -0.035144 0.057016 0.032144 0.032351 -0.043813 -0.063306 -0.085530 -0.084552 -0.069776 -0.121145 -0.097347 -0.035395 0.027208 -0.031319 0.040305 -0.017045 -0.046100 0.050102 -0.108979 -0.100907 -0.088749 -0.015397 -0.050334 -0.043955 -0.000570 0.008523 0.017392 0.186096 -0.010514 0.147417 0.011323 0.262137 0.251789 0.321025 0.273341 0.109783 0.226356 0.268451 0.039923 0.244857 0.117133 0.122075 0.277726 0.119237 -0.623351
0.072396 0.072899 0.074406 0.076917 0.080433 0.084951 0.090472 0.096992 0.104510 0.113023 0.122528 0.133021 0.144495 0.156946 0.170364 0.184741 0.200066 0.216326 0.233506 0.251589 0.270555 0.290380 0.311039 0.332502 0.354737 0.377706 0.401368 0.425678 0.450583 0.476028 0.501953 0.528291 0.554967 0.581905 0.609018 0.636215 0.663397 0.690461 0.717292 0.743774 0.769781 0.795179 0.819831 0.843592 0.866309 0.887827 0.907983 0.926610 0.943538 0.958593 0.971598 0.982376 0.990748 0.996538 0.999570 0.999673 0.996681 0.990435 0.980784 0.967588 0.950719 0.930066 0.905530 0.877035 0.844524 0.807965 0.767348 0.722695 0.674055 0.621509 0.565173 0.505197 0.441770 0.375118 0.305505 0.233239 0.158664 0.082167 0.004175 0.074848 0.154398 0.233937 0.312896 0.390674 0.466645 0.540163 0.610567 0.677184 0.739340 0.796363 0.847593 0.892391 0.930145 0.960280 0.982270 0.995644 0.999996 0.994997 0.980401 0.956056 0.921913 0.878030 0.824583 0.761868 0.690305 0.610445 0.522965 0.428672 0.328496 0.223488 0.114812 0.003732 0.108397 0.220141 0.330012 0.436478 0.537991 0.633007 0.720011 0.797544 0.864228 0.918798 0.960123 0.987238 0.999370 0.995958 0.976680 0.941467 0.890522 0.824332 0.743671 0.649601 0.543472 0.426905 0.301780 0.170212 0.034515 0.102826 0.239204 0.371934 0.498306 0.615645 0.721365 0.813036 0.888438 0.945628 0.982996 0.999313 0.993786 0.966091 0.916406 0.845430 0.754391 0.645040 0.519629 0.380882 0.231945 0.076321 0.082200 0.239635 0.391897 0.534912 0.664723 0.777606 0.870188 0.939554 0.983353 0.999888 0.988196 0.948106 0.880278 0.786215 0.668259 0.529545 0.373941 0.205953 0.030608 0.146688 0.320311 0.484600 0.634035 0.763440 0.868165 0.944270 0.988690 0.999375 0.975404 0.917057 0.825859 0.704557 0.557084 0.388434 0.204532 0.012033 0.181908 0.369894 0.544565 0.698896 0.826490 0.921856 0.980668 0.999987 0.978428 0.916276 0.815532 0.679883 0.514610 0.326403 0.123116 0.086536 0.293348 0.488015 0.661571 0.805794 0.913630 0.979557 0.999894 0.973045 0.899640 0.782579 0.626956 0.439890 0.230221 0.008125 0.215362 0.428884 0.621345 0.782498 0.903508 0.977467 0.999828 0.968718 0.885126 0.752935 0.578794 0.371828 0.143207 0.094443 0.327709 0.543144 0.728058 0.871278 0.963858 0.999679 0.975899 0.893220 0.755950 0.571838 0.351690 0.108784 0.141902 0.384599 0.603730 0.784927 0.915999 0.987797 0.994900 0.936080 0.814505 0.637634 0.416837 0.166719 0.095826 0.352702 0.585863 0.778605 0.916781 0.989886 0.991924 0.921952 0.784294 0.588350 0.348030 0.080821 0.193426 0.453979 0.680765 0.855952 0.965403 0.999859 0.955808 0.835905 0.648911 0.409150 0.135464 0.150195 0.424510 0.664693 0.850403 0.965519 0.999599 0.948918 0.816941 0.614205 0.357568 0.068886 0.226798 0.503397 0.736088 0.903567 0.990074 0.986946 0.893582 0.717690 0.474759 0.186789 0.119628 0.415713 0.673215 0.867113 0.978117 0.994674 0.914263 0.743860 0.499449 0.204632 0.111558 0.417489 0.682061 0.877911 0.984305 0.989432 0.891821 0.700731 0.435397 0.123215 0.203004 0.508454 0.760033 0.929974 0.999011 0.958664 0.812407 0.575535 0.273703 0.059748 0.387406 0.671962 0.880493 0.988343 0.982151 0.861646 0.639945 0.342279 0.003249 0.337115 0.638045 0.862948 0.983915 0.985325 0.865991 0.639603 0.333326 0.015330 0.363011 0.665882 0.885168 0.992229 0.972409 0.827219 0.574446 0.246151 0.115264
1.000000 1.000000 1.000000 1.000000 1.000000 1.000000 1.000000 1.000000 1.000000 1.000000 1.000000 1.000000 1.000000 1.000000 1.000000 1.000000 1.000000 1.000000 1.000000 1.000000 1.000000 1.000000 1.000000 1.000000 1.000000 1.000000 1.000000 1.000000 1.000000 1.000000 1.000000 1.000000 1.000000 1.000000 1.000000 1.000000 1.000000 1.000000 1.000000 1.000000 1.000000 1.000000 1.000000 1.000000 1.000000 1.000000 1.000000 1.000000 1.000000 1.000000 1.000000 1.000000 0.931411 0.931411 0.931411 0.921781 0.921781 0.921781 0.921781 0.921781 0.921781 0.921781 0.921781 0.921781 0.921781 0.921781 0.921781 0.921781 0.921781 0.921781 0.921781 0.921781 0.921781 0.921781 0.921781 0.921781 0.921781 0.921781 0.921781 0.921781 0.921781 0.921781 0.921781 0.921781 0.921781 0.921781 0.921781 0.921781 0.921781 0.921781 0.921781 0.921781 0.921781 0.921781 0.921781 0.921781 0.946992 0.948280 0.956202 0.956031 0.955501 0.953359 0.952400 0.951258 0.950793 0.951084 0.951729 0.952613 0.964386 0.965458 0.967032 0.967861 0.968579 0.969228 0.969058 0.969775 0.968985 0.968425 0.967913 0.963946 0.964564 0.965126 0.965241 0.966272 0.966152 0.968149 0.968318 0.967715 0.966826 0.966076 0.965353 0.964925 0.964645 0.965150 0.965447 0.966755 0.969934 0.969366 0.969067 0.969225 0.969326 0.969509 0.969950 0.971648 0.967920 0.968549 0.966891 0.964724 0.968896 0.966062 0.965837 0.967199 0.967585 0.967986 0.966792 0.963141 0.957277 0.956746 0.953914 0.944644 0.943165 0.943796 0.946144 0.946573 0.945141 0.937622 0.938216 0.931845 0.933126 0.936400 0.931191 0.931172 0.932322 0.931550 0.930249 0.929601 0.926830 0.924018 0.922364 0.922115 0.925132 0.925404 0.926587 0.926431 0.920984 0.912630 0.899713 0.897589 0.891641 0.894774 0.884324 0.884173 0.884281 0.880281 0.883729 0.883436 0.884370 0.881263 0.865323 0.847562 0.840025 0.843775 0.848823 0.843930 0.842625 0.835584 0.847123 0.827413 0.840135 0.851553 0.847884 0.848200 0.847694 0.845406 0.839449 0.840266 0.842428 0.844200 0.842610 0.841098 0.839772 0.823273 0.824463 0.759877 0.742587 0.735584 0.741287 0.747674 0.748929 0.748247 0.756018 0.761195 0.754215 0.737123 0.729216 0.720981 0.725966 0.728605 0.731089 0.717424 0.690658 0.685116 0.653261 0.670960 0.685927 0.645517 0.669131 0.680158 0.677987 0.676723 0.669860 0.666960 0.662710 0.665714 0.673520 0.686697 0.705714 0.729153 0.725741 0.716049 0.715135 0.695991 0.689019 0.680038 0.692109 0.672440 0.668697 0.686978 0.686702 0.672489 0.650831 0.639048 0.628387 0.625105 0.633348 0.625214 0.621218 0.609333 0.584175 0.577048 0.613599 0.629969 0.650067 0.620907 0.607253 0.596503 0.576450 0.590173 0.534610 0.534284 0.554677 0.562131 0.539594 0.526598 0.537323 0.547367 0.551401 0.541916 0.523011 0.512981 0.528654 0.558669 0.549735 0.530030 0.532657 0.531313 0.525200 0.440236 0.434037 0.404181 0.373326 0.315357 0.293150 0.285761 0.267993 0.255088 0.220717 0.216807 0.226863 0.235821 0.248510 0.250844 0.235602 0.241282 0.233855 0.220568 0.159336 0.148946 0.141721 0.131406 0.131521 0.108267 0.131196 0.195511 0.198091 0.198091 0.198091 0.198091 0.198091 0.198091 0.207665 0.207665 0.207665 0.207665 0.207665 0.207665 0.207665 0.207665 0.207665 0.218014 0.218014 0.218014 0.218014 0.218014 0.218014 0.218014 0.218014 0.218014 0.218014 0.218014 0.218014 0.218014 0.218014
0.000000 0.000000 0.000000 0.000000 0.000000 0.000000 0.000000 0.000000 0.000000 0.000000 0.000000 0.000000 0.000000 0.000000 0.000000 0.000000 0.000000 0.000000 0.000000 0.000000 0.000000 0.000000 0.000000 0.000000 0.000000 7.000000 4.000000 0.000000 0.000000 0.000000 0.000000 0.000000 0.000000 0.000000 0.000000 0.000000 0.000000 0.000000 0.000000 0.000000 0.000000 0.000000 0.000000 0.000000 0.000000 0.000000 0.000000 0.000000 0.000000 0.000000 0.000000 0.000000 0.180334 0.180334 0.180334 0.199007 0.199007 0.199007 0.199007 0.199007 0.199007 0.199007 0.199007 0.199007 0.199007 0.199007 0.199007 0.199007 0.199007 0.199007 0.199007 0.199007 0.199007 0.199007 0.199007 0.199007 0.199007 0.199007 0.199007 0.199007 0.199007 0.199007 0.199007 0.199007 0.199007 0.199007 0.199007 0.199007 0.199007 0.199007 0.199007 0.199007 0.199007 0.199007 0.199007 0.199007 0.225018 0.225018 0.225018 0.225018 0.225018 0.225018 0.225018 0.225018 0.225018 0.225018 0.225018 0.225018 0.225018 0.225018 0.225018 0.225018 0.225018 0.225018 0.225018 0.225018 0.225018 0.225018 0.225018 0.225018 0.225018 0.225018 0.225018 0.225018 0.225018 0.244339 0.244339 0.244339 0.244339 0.244339 0.244339 0.244339 0.244339 0.244339 0.244339 0.244339 0.244339 0.244339 0.244339 0.244339 0.244339 0.244339 0.244339 0.244339 0.244339 0.244339 0.244339 0.244339 0.251976 0.251976 0.251976 0.251976 0.251976 0.251976 0.251976 0.251976 0.251976 0.251976 0.251976 0.251976 0.251976 0.251976 0.251976 0.251976 0.251976 0.251976 0.251976 0.251976 0.264906 0.264906 0.264906 0.264906 0.264906 0.264906 0.264906 0.264906 0.264906 0.264906 0.264906 0.264906 0.264906 0.264906 0.264906 0.264906 0.264906 0.264906 0.264906 0.264906 0.264906 0.264906 0.264906 0.264906 0.264906 0.264906 0.264906 0.264906 0.264906 0.264906 0.264906 0.264906 0.264906 0.264906 0.264906 0.264906 0.264906 0.264906 0.264906 0.264906 0.264906 0.264906 0.264906 0.264906 0.264906 0.264906 0.264906 0.264906 0.264906 0.264906 0.264906 0.264906 0.264906 0.264906 0.264906 0.264906 0.264906 0.264906 0.264906 0.264906 0.264906 0.264906 0.256074 0.256074 0.256074 0.256074 0.256074 0.256074 0.256074 0.256074 0.256074 0.256074 0.256074 0.256074 0.256074 0.256074 0.269680 0.269680 0.269680 0.269680 0.269680 0.269680 0.269680 0.269680 0.269680 0.269680 0.269680 0.269680 0.264906 0.264906 0.264906 0.264906 0.264906 0.264906 0.264906 0.264906 0.264906 0.264906 0.264906 0.264906 0.269680 0.269680 0.269680 0.269680 0.269680 0.269680 0.269680 0.269680 0.269680 0.269680 0.269680 0.264906 0.264906 0.264906 0.264906 0.264906 0.264906 0.264906 0.264906 0.264906 0.264906 0.264906 0.256074 0.256074 0.256074 0.256074 0.256074 0.256074 0.256074 0.256074 0.256074 0.256074 0.256074 0.264906 0.264906 0.264906 0.264906 0.264906 0.264906 0.264906 0.264906 0.264906 0.264906 0.260378 0.260378 0.260378 0.260378 0.260378 0.260378 0.260378 0.260378 0.260378 0.260378 0.256074 0.256074 0.256074 0.256074 0.256074 0.256074 0.256074 0.256074 0.256074 0.256074 0.260378 0.260378 0.260378 0.260378 0.260378 0.260378 0.260378 0.260378 0.260378 0.256074 0.256074 0.256074 0.256074 0.256074 0.256074 0.256074 0.256074 0.256074 0.251976 0.251976 0.251976 0.251976 0.251976 0.251976 0.251976 0.251976 0.251976 0.251976 0.251976 0.251976 0.251976 0.251976
