# Output from CTFFind version 4.1.9, run on 2019-11-03 19:37:26
# Input file: stack11_bm3d_averaged_1_4.25_0_3000_half.mrc ; Number of micrographs: 1
# Pixel size: 3.000 Angstroms ; acceleration voltage: 300.0 keV ; spherical aberration: 0.00 mm ; amplitude contrast: 0.07
# Box size: 512 pixels ; min. res.: 30.0 Angstroms ; max. res.: 5.0 Angstroms ; min. def.: 5000.0 um; max. def. 50000.0 um; num. frames averaged: 1
# 6 lines per micrograph: #1 - spatial frequency (1/Angstroms); #2 - 1D rotational average of spectrum (assuming no astigmatism); #3 - 1D rotational average of spectrum; #4 - CTF fit; #5 - cross-correlation between spectrum and CTF fit; #6 - 2sigma of expected cross correlation of noise
0.000000 0.000651 0.001302 0.001953 0.002604 0.003255 0.003906 0.004557 0.005208 0.005859 0.006510 0.007161 0.007812 0.008464 0.009115 0.009766 0.010417 0.011068 0.011719 0.012370 0.013021 0.013672 0.014323 0.014974 0.015625 0.016276 0.016927 0.017578 0.018229 0.018880 0.019531 0.020182 0.020833 0.021484 0.022135 0.022786 0.023438 0.024089 0.024740 0.025391 0.026042 0.026693 0.027344 0.027995 0.028646 0.029297 0.029948 0.030599 0.031250 0.031901 0.032552 0.033203 0.033854 0.034505 0.035156 0.035807 0.036458 0.037109 0.037760 0.038411 0.039062 0.039714 0.040365 0.041016 0.041667 0.042318 0.042969 0.043620 0.044271 0.044922 0.045573 0.046224 0.046875 0.047526 0.048177 0.048828 0.049479 0.050130 0.050781 0.051432 0.052083 0.052734 0.053385 0.054036 0.054688 0.055339 0.055990 0.056641 0.057292 0.057943 0.058594 0.059245 0.059896 0.060547 0.061198 0.061849 0.062500 0.063151 0.063802 0.064453 0.065104 0.065755 0.066406 0.067057 0.067708 0.068359 0.069010 0.069661 0.070312 0.070964 0.071615 0.072266 0.072917 0.073568 0.074219 0.074870 0.075521 0.076172 0.076823 0.077474 0.078125 0.078776 0.079427 0.080078 0.080729 0.081380 0.082031 0.082682 0.083333 0.083984 0.084635 0.085286 0.085938 0.086589 0.087240 0.087891 0.088542 0.089193 0.089844 0.090495 0.091146 0.091797 0.092448 0.093099 0.093750 0.094401 0.095052 0.095703 0.096354 0.097005 0.097656 0.098307 0.098958 0.099609 0.100260 0.100911 0.101562 0.102214 0.102865 0.103516 0.104167 0.104818 0.105469 0.106120 0.106771 0.107422 0.108073 0.108724 0.109375 0.110026 0.110677 0.111328 0.111979 0.112630 0.113281 0.113932 0.114583 0.115234 0.115885 0.116536 0.117188 0.117839 0.118490 0.119141 0.119792 0.120443 0.121094 0.121745 0.122396 0.123047 0.123698 0.124349 0.125000 0.125651 0.126302 0.126953 0.127604 0.128255 0.128906 0.129557 0.130208 0.130859 0.131510 0.132161 0.132812 0.133464 0.134115 0.134766 0.135417 0.136068 0.136719 0.137370 0.138021 0.138672 0.139323 0.139974 0.140625 0.141276 0.141927 0.142578 0.143229 0.143880 0.144531 0.145182 0.145833 0.146484 0.147135 0.147786 0.148438 0.149089 0.149740 0.150391 0.151042 0.151693 0.152344 0.152995 0.153646 0.154297 0.154948 0.155599 0.156250 0.156901 0.157552 0.158203 0.158854 0.159505 0.160156 0.160807 0.161458 0.162109 0.162760 0.163411 0.164062 0.164714 0.165365 0.166016 0.166667 0.167318 0.167969 0.168620 0.169271 0.169922 0.170573 0.171224 0.171875 0.172526 0.173177 0.173828 0.174479 0.175130 0.175781 0.176432 0.177083 0.177734 0.178385 0.179036 0.179688 0.180339 0.180990 0.181641 0.182292 0.182943 0.183594 0.184245 0.184896 0.185547 0.186198 0.186849 0.187500 0.188151 0.188802 0.189453 0.190104 0.190755 0.191406 0.192057 0.192708 0.193359 0.194010 0.194661 0.195312 0.195964 0.196615 0.197266 0.197917 0.198568 0.199219 0.199870 0.200521 0.201172 0.201823 0.202474 0.203125 0.203776 0.204427 0.205078 0.205729 0.206380 0.207031 0.207682 0.208333 0.208984 0.209635 0.210286 0.210938 0.211589 0.212240 0.212891 0.213542 0.214193 0.214844 0.215495 0.216146 0.216797 0.217448 0.218099 0.218750 0.219401 0.220052 0.220703 0.221354 0.222005 0.222656 0.223307 0.223958 0.224609 0.225260 0.225911 0.226562 0.227214 0.227865 0.228516 0.229167 0.229818 0.230469 0.231120 0.231771 0.232422 0.233073 0.233724 0.234375 0.235026 0.235677
       0.33341        0.33341        0.33341        0.33341        0.33341        0.33341        0.33341        0.33341        0.33341        0.33341        0.33341        0.33341        0.33341        0.33341        0.33341        0.33341        0.33341        0.33341        0.33341        0.33341        0.33341        0.33341        0.33341        0.33341        0.33341        0.33341        0.33341        0.33341        0.33341        0.33341        0.33341        0.33341        0.33341        0.33341        0.33341        0.33341        0.33341        0.33341        0.33341        0.33341        0.33341        0.33341        0.33341        0.33341        0.33341        0.33341        0.33341        0.33341        0.33341        0.33341        0.33341        0.69164        0.86039        0.53179        0.10258       -0.03661       -0.40238       -0.18567       -0.28897       -0.11328       -0.05928       -0.11059       -0.05522       -0.18082       -0.21440       -0.22892       -0.31536       -0.32724       -0.45748       -0.36805       -0.43829       -0.43206       -0.40469       -0.43125       -0.47786       -0.52511       -0.56533       -0.57523       -0.54747       -0.37621       -0.34931       -0.30941       -0.28811       -0.19410       -0.18465        0.04725        0.12178        0.15353        0.25033        0.37741        0.45282        0.51706        0.58202        0.58035        0.57278        0.69361        0.80625        0.71408        0.73783        0.63391        0.56738        0.48344        0.42318        0.50820        0.39064        0.24513        0.10212        0.08844        0.06511       -0.03334        0.01245        0.02847       -0.01764        0.01376        0.00583        0.23566        0.26402        0.29121        0.42534        0.44851        0.40786        0.57496        0.62665        0.65737        0.73606        0.68161        0.65112        0.67167        0.56570        0.47104        0.41751        0.29658        0.24084        0.16943        0.12782        0.05277        0.04301        0.04455        0.08645        0.14352        0.22965        0.27988        0.40312        0.45404        0.48593        0.58408        0.61362        0.63695        0.62253        0.56088        0.45381        0.46615        0.37152        0.25357        0.19830        0.15593        0.15575        0.14264        0.13085        0.15715        0.29120        0.30237        0.38361        0.41835        0.43022        0.49714        0.55220        0.55207        0.48876        0.45118        0.40175        0.35290        0.32242        0.28686        0.23433        0.22977        0.21628        0.23535        0.21339        0.29962        0.35714        0.38785        0.43803        0.45500        0.47374        0.42139        0.39860        0.40549        0.36064        0.30383        0.26828        0.25127        0.25097        0.21978        0.26655        0.26885        0.33956        0.37345        0.40614        0.47484        0.41718        0.43007        0.43119        0.40372        0.34314        0.31988        0.28856        0.30246        0.26516        0.30168        0.29778        0.31831        0.32562        0.34662        0.31926        0.40086        0.41628        0.37922        0.34424        0.37141        0.30476        0.28724        0.28752        0.31560        0.29365        0.30522        0.32162        0.33485        0.34037        0.36714        0.37073        0.39060        0.37308        0.32375        0.33195        0.29037        0.27257        0.31808        0.31082        0.32165        0.32767        0.32551        0.36413        0.32677        0.32506        0.31844        0.32725        0.29539        0.30448        0.26926        0.29678        0.31337        0.29626        0.31726        0.33799        0.34280        0.27985        0.31511        0.28476        0.30017        0.27756        0.23481        0.28951        0.29305        0.34081        0.32954        0.32902        0.32102        0.33943        0.29820        0.33683        0.32134        0.29576        0.27372        0.31975        0.30534        0.35087        0.32533        0.33299        0.33969        0.29286        0.27386        0.30710        0.24377        0.22201        0.32436        0.31643        0.33283        0.32535        0.33843        0.31342        0.34329        0.33912        0.26313        0.24240        0.30375        0.30256        0.30501        0.32105        0.33789        0.33584        0.30275        0.28918        0.33680        0.31602        0.28861        0.27048        0.31935        0.35114        0.39275        0.31976        0.28825        0.27353        0.30781        0.26652        0.29189        0.26883        0.24527        0.31034        0.33325        0.34344        0.34038        0.30139        0.27653        0.28753        0.25630        0.25462        0.24483        0.31625        0.28621        0.22243        0.32347        0.31989        0.26159        0.27706        0.20427        0.21369        0.25139        0.17958        0.24462        0.29351        0.22829        0.20712        0.30561        0.33578        0.32700        0.33050        0.25272        0.21228        0.18307        0.22131        0.19213        0.18005        0.20709        0.25184        0.26634        0.24121        0.19319        0.10828        0.08680        0.01603       -0.09208       -0.61457
2.700904 2.672368 2.643988 2.615764 2.587695 2.559782 2.532025 2.504423 2.476977 2.449686 2.422551 2.395572 2.368749 2.342081 2.315569 2.289212 2.263011 2.236966 2.211076 2.185342 2.159764 2.134341 2.109074 2.083963 2.059007 2.034207 2.009563 1.985074 1.960741 1.936563 1.912541 1.888675 1.864965 1.841410 1.818011 1.794767 1.771679 1.748747 1.725970 1.703349 1.680884 1.658574 1.636420 1.614422 1.592579 1.570892 1.549361 1.527985 1.506765 1.485701 1.464792 1.680641 2.096988 1.660588 1.164739 1.030751 0.437377 0.838529 0.561880 0.842361 0.798543 0.810385 0.757056 0.734792 0.586403 0.544591 0.495369 0.430057 0.238562 0.372930 0.203534 0.323999 0.227244 0.198563 0.169012 0.035679 0.023873 0.014147 -0.065519 0.125304 0.223660 0.186751 0.167829 0.332477 0.186173 0.508026 0.611709 0.606605 0.625066 0.871478 0.825487 0.935185 0.908334 1.006927 0.971088 1.069432 1.155456 1.045536 1.140921 0.916109 0.924412 0.787999 0.649002 0.791041 0.701566 0.475727 0.324913 0.250382 0.253191 0.148131 0.116862 0.153082 0.100928 0.132834 0.066854 0.257959 0.364456 0.345413 0.469219 0.547514 0.423563 0.577438 0.716759 0.686986 0.742706 0.706947 0.722330 0.665582 0.601759 0.519030 0.385885 0.277359 0.220908 0.080440 0.121976 -0.076533 -0.042944 -0.061238 -0.069479 -0.019732 0.143041 0.068134 0.245895 0.303358 0.341960 0.405515 0.507175 0.487649 0.487395 0.496650 0.311058 0.295786 0.282671 0.086666 0.043578 -0.057202 -0.009683 -0.055186 -0.086641 -0.090323 0.034039 0.073138 0.121122 0.201278 0.227809 0.255967 0.299801 0.426103 0.392082 0.270168 0.240434 0.217176 0.156427 0.136121 0.107247 0.003214 0.016022 0.053895 -0.001415 0.065962 0.146200 0.147883 0.239266 0.246298 0.287339 0.185649 0.219015 0.146125 0.182031 0.111396 0.048867 -0.004737 0.006365 -0.004230 -0.046193 0.052708 0.022084 0.129008 0.149075 0.182059 0.205330 0.168645 0.156293 0.177531 0.130915 0.063278 0.008209 0.054382 0.016582 -0.012918 0.029666 0.043568 0.059062 0.051665 0.062178 0.086523 0.126411 0.159987 0.059491 0.060912 0.058069 0.012185 -0.022422 0.015109 0.019645 0.005568 0.011195 0.036488 0.056532 0.052049 0.111611 0.058480 0.135077 0.060224 0.024245 0.039741 -0.032024 -0.000640 0.043851 0.001574 0.041760 0.050324 0.021205 0.101648 0.040526 0.011094 0.049252 0.007326 0.018335 0.006989 -0.019616 0.036565 0.006130 0.007991 0.058894 0.058268 0.048308 0.035899 0.031388 0.038652 0.028496 -0.010509 -0.022931 0.033664 0.056837 0.088373 0.085834 0.069285 0.081443 0.108900 0.057242 0.115990 0.094798 0.032827 0.042505 0.096867 0.079273 0.111101 0.108922 0.065274 0.142016 0.068166 0.025766 0.101279 -0.022454 0.007035 0.112855 0.069571 0.133406 0.092657 0.093154 0.049723 0.116140 0.090559 -0.004471 -0.027502 0.062396 0.076589 0.052646 0.044026 0.101230 0.088711 0.004546 0.053940 0.075501 0.059784 0.037924 -0.020542 0.078924 0.097035 0.131112 0.009490 0.003360 -0.019583 0.035078 -0.035119 0.013279 -0.033975 -0.040254 0.014089 0.061478 0.009895 0.027214 -0.022421 -0.034639 -0.047409 -0.032631 -0.074390 -0.070245 0.013857 0.041518 -0.103749 0.035574 -0.009882 -0.062087 0.010459 -0.123094 -0.067244 -0.067478 -0.147156 -0.023674 0.028187 -0.028024 -0.134089 0.054028 0.128600 -0.015894 0.115461 -0.012824 0.230266 0.156009 0.236010 0.234224 0.195573 0.217188 0.286756 0.257912 0.272841 0.177498 0.183723 0.124144 0.013214 -0.659838
0.072396 0.072899 0.074406 0.076918 0.080434 0.084953 0.090474 0.096995 0.104515 0.113029 0.122536 0.133030 0.144506 0.156958 0.170378 0.184758 0.200085 0.216347 0.233530 0.251615 0.270583 0.290411 0.311073 0.332539 0.354777 0.377749 0.401414 0.425726 0.450635 0.476083 0.502011 0.528351 0.555031 0.581971 0.609086 0.636285 0.663469 0.690534 0.717367 0.743850 0.769856 0.795255 0.819906 0.843665 0.866381 0.887896 0.908049 0.926672 0.943595 0.958644 0.971642 0.982412 0.990775 0.996555 0.999576 0.999667 0.996662 0.990401 0.980735 0.967523 0.950637 0.929964 0.905409 0.876894 0.844362 0.807780 0.767141 0.722465 0.673801 0.621232 0.564873 0.504874 0.441425 0.374751 0.305118 0.232833 0.158241 0.081728 0.003723 0.075309 0.154867 0.234410 0.313370 0.391144 0.467107 0.540614 0.611001 0.677597 0.739727 0.796718 0.847912 0.892668 0.930375 0.960459 0.982393 0.995706 0.999994 0.994927 0.980260 0.955843 0.921625 0.877668 0.824146 0.761358 0.689724 0.609797 0.522254 0.427904 0.327679 0.222629 0.113920 0.002817 0.109322 0.221065 0.330921 0.437360 0.538832 0.633792 0.720727 0.798177 0.864765 0.919226 0.960431 0.987416 0.999410 0.995853 0.976426 0.941062 0.889969 0.823633 0.742833 0.648633 0.542387 0.425718 0.300511 0.168880 0.033145 0.104210 0.240575 0.373264 0.499566 0.616806 0.722401 0.813918 0.889143 0.946134 0.983285 0.999371 0.993604 0.965664 0.915736 0.844526 0.753265 0.643712 0.518125 0.379235 0.230189 0.074498 0.084045 0.241454 0.393644 0.536536 0.666176 0.778843 0.871169 0.940243 0.983722 0.999917 0.987873 0.947431 0.879259 0.784873 0.666625 0.527661 0.371858 0.203730 0.028312 0.148986 0.322536 0.486677 0.635892 0.765007 0.869382 0.945085 0.989064 0.999282 0.974835 0.916021 0.824377 0.702675 0.554858 0.385940 0.201856 0.009271 0.184653 0.372512 0.546951 0.700952 0.828124 0.922990 0.981244 0.999968 0.977799 0.915048 0.813741 0.677594 0.511909 0.323396 0.119929 0.089764 0.296472 0.490895 0.664067 0.807782 0.915006 0.980240 0.999837 0.972234 0.898096 0.780359 0.624156 0.436634 0.226661 0.004436 0.218995 0.432272 0.624309 0.784872 0.905153 0.978281 0.999748 0.967728 0.883262 0.750279 0.575476 0.368024 0.139117 0.098591 0.331674 0.546696 0.730979 0.873384 0.965006 0.999780 0.974926 0.891210 0.753004 0.568120 0.347417 0.104214 0.146489 0.388908 0.607476 0.787858 0.917908 0.988536 0.994398 0.934346 0.811631 0.633794 0.412276 0.161733 0.100893 0.357495 0.590044 0.781864 0.918864 0.990623 0.991234 0.919860 0.780929 0.583937 0.342878 0.075311 0.198887 0.458968 0.684892 0.858881 0.966882 0.999745 0.954082 0.832676 0.644413 0.403724 0.129535 0.156148 0.429994 0.669243 0.853625 0.967113 0.999403 0.946917 0.813277 0.609168 0.351576 0.062445 0.233121 0.509039 0.740529 0.906388 0.990991 0.985842 0.890526 0.712932 0.468714 0.180005 0.126518 0.422062 0.678400 0.870618 0.979576 0.993909 0.911315 0.738984 0.493101 0.197424 0.118917 0.424251 0.687526 0.881499 0.985617 0.988294 0.888315 0.695188 0.428374 0.115439 0.210718 0.515267 0.765193 0.932895 0.999338 0.956320 0.807613 0.568790 0.265735 0.068055 0.395111 0.678176 0.884478 0.989604 0.980502 0.857237 0.633255 0.334068 0.005529 0.345412 0.644858 0.867425 0.985480 0.983743 0.861413 0.632554 0.324648 0.024571 0.371657 0.672825 0.889502 0.993361 0.970148 0.821810 0.566551 0.236770 0.124913
1.000000 1.000000 1.000000 1.000000 1.000000 1.000000 1.000000 1.000000 1.000000 1.000000 1.000000 1.000000 1.000000 1.000000 1.000000 1.000000 1.000000 1.000000 1.000000 1.000000 1.000000 1.000000 1.000000 1.000000 1.000000 1.000000 1.000000 1.000000 1.000000 1.000000 1.000000 1.000000 1.000000 1.000000 1.000000 1.000000 1.000000 1.000000 1.000000 1.000000 1.000000 1.000000 1.000000 1.000000 1.000000 1.000000 1.000000 1.000000 1.000000 1.000000 1.000000 1.000000 0.917906 0.917906 0.917906 0.909816 0.909816 0.909816 0.909816 0.909816 0.909816 0.909816 0.909816 0.909816 0.909816 0.909816 0.909816 0.909816 0.909816 0.909816 0.909816 0.909816 0.909816 0.909816 0.909816 0.909816 0.909816 0.909816 0.909816 0.909816 0.909816 0.909816 0.909816 0.909816 0.909816 0.909816 0.909816 0.909816 0.909816 0.909816 0.909816 0.909816 0.909816 0.909816 0.909816 0.909816 0.938575 0.940122 0.948276 0.947987 0.947348 0.945160 0.943987 0.943482 0.943361 0.943698 0.944436 0.945447 0.954299 0.955521 0.958391 0.960051 0.960788 0.961404 0.962010 0.962534 0.953297 0.953094 0.951732 0.951113 0.953638 0.952852 0.952730 0.953695 0.953556 0.954452 0.954328 0.953585 0.952446 0.951436 0.950459 0.949874 0.949647 0.950388 0.950810 0.952318 0.955670 0.956238 0.956360 0.956515 0.956611 0.957913 0.956713 0.956325 0.952243 0.952488 0.952035 0.952272 0.955795 0.955698 0.956248 0.956808 0.958379 0.958673 0.951438 0.949477 0.940352 0.938689 0.934196 0.928335 0.924160 0.926039 0.927480 0.928413 0.928975 0.924467 0.924442 0.921865 0.919838 0.922689 0.921890 0.922155 0.923534 0.922118 0.919366 0.918776 0.916220 0.907177 0.895032 0.894612 0.897103 0.901824 0.903447 0.902366 0.903764 0.890644 0.872120 0.858696 0.859845 0.863721 0.854930 0.852724 0.853387 0.854016 0.857633 0.851077 0.848940 0.845037 0.834294 0.823735 0.815824 0.810174 0.816890 0.813020 0.803593 0.802818 0.813579 0.806063 0.820596 0.826019 0.823264 0.822907 0.821365 0.816859 0.794433 0.792995 0.788372 0.772142 0.772612 0.771508 0.768354 0.763585 0.770556 0.756462 0.753052 0.738853 0.741453 0.745054 0.746701 0.746156 0.738719 0.741949 0.746572 0.729090 0.715068 0.701394 0.706679 0.713894 0.715686 0.711646 0.690505 0.655052 0.624678 0.644504 0.662935 0.624244 0.649077 0.660530 0.643759 0.641717 0.633550 0.636711 0.625016 0.628418 0.632021 0.637089 0.636821 0.653598 0.639387 0.630518 0.640205 0.638555 0.646533 0.641351 0.641475 0.615507 0.611469 0.635592 0.639044 0.626375 0.643226 0.631778 0.636121 0.669699 0.676714 0.645777 0.640873 0.618432 0.575368 0.573736 0.569621 0.581688 0.613495 0.582664 0.543866 0.519834 0.523802 0.546414 0.550940 0.554276 0.535003 0.538218 0.528783 0.502202 0.507881 0.522247 0.525063 0.514622 0.491981 0.497050 0.501785 0.524580 0.514825 0.469555 0.484462 0.480951 0.477637 0.428464 0.442658 0.423490 0.408702 0.362307 0.367975 0.381709 0.370532 0.316318 0.299076 0.298562 0.298332 0.299612 0.286564 0.261855 0.254508 0.254064 0.256017 0.244878 0.219320 0.215025 0.201856 0.190226 0.191953 0.150609 0.190450 0.250420 0.252463 0.252463 0.252463 0.252463 0.252463 0.252463 0.255287 0.255287 0.255287 0.255287 0.255287 0.255287 0.255287 0.255287 0.255287 0.276021 0.276021 0.276021 0.276021 0.276021 0.276021 0.276021 0.276021 0.276021 0.276021 0.276021 0.276021 0.276021 0.276021
0.000000 0.000000 0.000000 0.000000 0.000000 0.000000 0.000000 0.000000 0.000000 0.000000 0.000000 0.000000 0.000000 0.000000 0.000000 0.000000 0.000000 0.000000 0.000000 0.000000 0.000000 0.000000 0.000000 0.000000 0.000000 7.000000 4.000000 0.000000 0.000000 0.000000 0.000000 0.000000 0.000000 0.000000 0.000000 0.000000 0.000000 0.000000 0.000000 0.000000 0.000000 0.000000 0.000000 0.000000 0.000000 0.000000 0.000000 0.000000 0.000000 0.000000 0.000000 0.000000 0.180334 0.180334 0.180334 0.199007 0.199007 0.199007 0.199007 0.199007 0.199007 0.199007 0.199007 0.199007 0.199007 0.199007 0.199007 0.199007 0.199007 0.199007 0.199007 0.199007 0.199007 0.199007 0.199007 0.199007 0.199007 0.199007 0.199007 0.199007 0.199007 0.199007 0.199007 0.199007 0.199007 0.199007 0.199007 0.199007 0.199007 0.199007 0.199007 0.199007 0.199007 0.199007 0.199007 0.199007 0.225018 0.225018 0.225018 0.225018 0.225018 0.225018 0.225018 0.225018 0.225018 0.225018 0.225018 0.225018 0.225018 0.225018 0.225018 0.225018 0.225018 0.225018 0.225018 0.225018 0.225018 0.225018 0.225018 0.225018 0.225018 0.225018 0.225018 0.225018 0.225018 0.244339 0.244339 0.244339 0.244339 0.244339 0.244339 0.244339 0.244339 0.244339 0.244339 0.244339 0.244339 0.244339 0.244339 0.244339 0.244339 0.244339 0.244339 0.244339 0.244339 0.244339 0.244339 0.244339 0.251976 0.251976 0.251976 0.251976 0.251976 0.251976 0.251976 0.251976 0.251976 0.251976 0.251976 0.251976 0.251976 0.251976 0.251976 0.251976 0.251976 0.251976 0.251976 0.251976 0.264906 0.264906 0.264906 0.264906 0.264906 0.264906 0.264906 0.264906 0.264906 0.264906 0.264906 0.264906 0.264906 0.264906 0.264906 0.264906 0.264906 0.264906 0.264906 0.264906 0.264906 0.264906 0.264906 0.264906 0.264906 0.264906 0.264906 0.264906 0.264906 0.264906 0.264906 0.264906 0.264906 0.264906 0.264906 0.264906 0.264906 0.264906 0.264906 0.264906 0.264906 0.264906 0.264906 0.264906 0.264906 0.264906 0.264906 0.264906 0.264906 0.264906 0.264906 0.264906 0.264906 0.264906 0.264906 0.264906 0.264906 0.264906 0.264906 0.264906 0.264906 0.264906 0.256074 0.256074 0.256074 0.256074 0.256074 0.256074 0.256074 0.256074 0.256074 0.256074 0.256074 0.256074 0.256074 0.256074 0.269680 0.269680 0.269680 0.269680 0.269680 0.269680 0.269680 0.269680 0.269680 0.269680 0.269680 0.269680 0.264906 0.264906 0.264906 0.264906 0.264906 0.264906 0.264906 0.264906 0.264906 0.264906 0.264906 0.264906 0.269680 0.269680 0.269680 0.269680 0.269680 0.269680 0.269680 0.269680 0.269680 0.269680 0.269680 0.264906 0.264906 0.264906 0.264906 0.264906 0.264906 0.264906 0.264906 0.264906 0.264906 0.264906 0.256074 0.256074 0.256074 0.256074 0.256074 0.256074 0.256074 0.256074 0.256074 0.256074 0.256074 0.264906 0.264906 0.264906 0.264906 0.264906 0.264906 0.264906 0.264906 0.264906 0.264906 0.260378 0.260378 0.260378 0.260378 0.260378 0.260378 0.260378 0.260378 0.260378 0.260378 0.256074 0.256074 0.256074 0.256074 0.256074 0.256074 0.256074 0.256074 0.256074 0.256074 0.260378 0.260378 0.260378 0.260378 0.260378 0.260378 0.260378 0.260378 0.260378 0.256074 0.256074 0.256074 0.256074 0.256074 0.256074 0.256074 0.256074 0.256074 0.251976 0.251976 0.251976 0.251976 0.251976 0.251976 0.251976 0.251976 0.251976 0.251976 0.251976 0.251976 0.251976 0.251976
