# Output from CTFFind version 4.1.9, run on 2019-11-03 20:09:42
# Input file: stack11_bm3d_averaged_1_6.0_0_2500_half.mrc ; Number of micrographs: 1
# Pixel size: 3.000 Angstroms ; acceleration voltage: 300.0 keV ; spherical aberration: 0.00 mm ; amplitude contrast: 0.07
# Box size: 512 pixels ; min. res.: 30.0 Angstroms ; max. res.: 5.0 Angstroms ; min. def.: 5000.0 um; max. def. 50000.0 um; num. frames averaged: 1
# 6 lines per micrograph: #1 - spatial frequency (1/Angstroms); #2 - 1D rotational average of spectrum (assuming no astigmatism); #3 - 1D rotational average of spectrum; #4 - CTF fit; #5 - cross-correlation between spectrum and CTF fit; #6 - 2sigma of expected cross correlation of noise
0.000000 0.000651 0.001302 0.001953 0.002604 0.003255 0.003906 0.004557 0.005208 0.005859 0.006510 0.007161 0.007812 0.008464 0.009115 0.009766 0.010417 0.011068 0.011719 0.012370 0.013021 0.013672 0.014323 0.014974 0.015625 0.016276 0.016927 0.017578 0.018229 0.018880 0.019531 0.020182 0.020833 0.021484 0.022135 0.022786 0.023438 0.024089 0.024740 0.025391 0.026042 0.026693 0.027344 0.027995 0.028646 0.029297 0.029948 0.030599 0.031250 0.031901 0.032552 0.033203 0.033854 0.034505 0.035156 0.035807 0.036458 0.037109 0.037760 0.038411 0.039062 0.039714 0.040365 0.041016 0.041667 0.042318 0.042969 0.043620 0.044271 0.044922 0.045573 0.046224 0.046875 0.047526 0.048177 0.048828 0.049479 0.050130 0.050781 0.051432 0.052083 0.052734 0.053385 0.054036 0.054688 0.055339 0.055990 0.056641 0.057292 0.057943 0.058594 0.059245 0.059896 0.060547 0.061198 0.061849 0.062500 0.063151 0.063802 0.064453 0.065104 0.065755 0.066406 0.067057 0.067708 0.068359 0.069010 0.069661 0.070312 0.070964 0.071615 0.072266 0.072917 0.073568 0.074219 0.074870 0.075521 0.076172 0.076823 0.077474 0.078125 0.078776 0.079427 0.080078 0.080729 0.081380 0.082031 0.082682 0.083333 0.083984 0.084635 0.085286 0.085938 0.086589 0.087240 0.087891 0.088542 0.089193 0.089844 0.090495 0.091146 0.091797 0.092448 0.093099 0.093750 0.094401 0.095052 0.095703 0.096354 0.097005 0.097656 0.098307 0.098958 0.099609 0.100260 0.100911 0.101562 0.102214 0.102865 0.103516 0.104167 0.104818 0.105469 0.106120 0.106771 0.107422 0.108073 0.108724 0.109375 0.110026 0.110677 0.111328 0.111979 0.112630 0.113281 0.113932 0.114583 0.115234 0.115885 0.116536 0.117188 0.117839 0.118490 0.119141 0.119792 0.120443 0.121094 0.121745 0.122396 0.123047 0.123698 0.124349 0.125000 0.125651 0.126302 0.126953 0.127604 0.128255 0.128906 0.129557 0.130208 0.130859 0.131510 0.132161 0.132812 0.133464 0.134115 0.134766 0.135417 0.136068 0.136719 0.137370 0.138021 0.138672 0.139323 0.139974 0.140625 0.141276 0.141927 0.142578 0.143229 0.143880 0.144531 0.145182 0.145833 0.146484 0.147135 0.147786 0.148438 0.149089 0.149740 0.150391 0.151042 0.151693 0.152344 0.152995 0.153646 0.154297 0.154948 0.155599 0.156250 0.156901 0.157552 0.158203 0.158854 0.159505 0.160156 0.160807 0.161458 0.162109 0.162760 0.163411 0.164062 0.164714 0.165365 0.166016 0.166667 0.167318 0.167969 0.168620 0.169271 0.169922 0.170573 0.171224 0.171875 0.172526 0.173177 0.173828 0.174479 0.175130 0.175781 0.176432 0.177083 0.177734 0.178385 0.179036 0.179688 0.180339 0.180990 0.181641 0.182292 0.182943 0.183594 0.184245 0.184896 0.185547 0.186198 0.186849 0.187500 0.188151 0.188802 0.189453 0.190104 0.190755 0.191406 0.192057 0.192708 0.193359 0.194010 0.194661 0.195312 0.195964 0.196615 0.197266 0.197917 0.198568 0.199219 0.199870 0.200521 0.201172 0.201823 0.202474 0.203125 0.203776 0.204427 0.205078 0.205729 0.206380 0.207031 0.207682 0.208333 0.208984 0.209635 0.210286 0.210938 0.211589 0.212240 0.212891 0.213542 0.214193 0.214844 0.215495 0.216146 0.216797 0.217448 0.218099 0.218750 0.219401 0.220052 0.220703 0.221354 0.222005 0.222656 0.223307 0.223958 0.224609 0.225260 0.225911 0.226562 0.227214 0.227865 0.228516 0.229167 0.229818 0.230469 0.231120 0.231771 0.232422 0.233073 0.233724 0.234375 0.235026 0.235677
       0.34356        0.34356        0.34356        0.34356        0.34356        0.34356        0.34356        0.34356        0.34356        0.34356        0.34356        0.34356        0.34356        0.34356        0.34356        0.34356        0.34356        0.34356        0.34356        0.34356        0.34356        0.34356        0.34356        0.34356        0.34356        0.34356        0.34356        0.34356        0.34356        0.34356        0.34356        0.34356        0.34356        0.34356        0.34356        0.34356        0.34356        0.34356        0.34356        0.34356        0.34356        0.34356        0.34356        0.34356        0.34356        0.34356        0.34356        0.34356        0.34356        0.34356        0.34356        0.69844        0.85857        0.53754        0.10543       -0.02934       -0.38836       -0.18043       -0.28798       -0.11456       -0.05507       -0.11162       -0.05329       -0.16849       -0.20650       -0.21575       -0.30789       -0.31939       -0.44569       -0.36256       -0.42770       -0.42233       -0.39579       -0.41133       -0.45196       -0.51064       -0.55994       -0.55426       -0.52808       -0.35898       -0.32949       -0.29335       -0.27334       -0.18615       -0.17177        0.05961        0.13986        0.17221        0.26402        0.38141        0.45785        0.52347        0.59896        0.59633        0.58296        0.69939        0.80448        0.70507        0.74353        0.62168        0.56901        0.48374        0.43174        0.51234        0.39692        0.26793        0.11536        0.10949        0.08920       -0.01699        0.04029        0.04955        0.00751        0.02671        0.02777        0.23764        0.27126        0.29612        0.43476        0.45349        0.41453        0.59700        0.62171        0.64009        0.72654        0.67745        0.64770        0.65957        0.56122        0.46289        0.41933        0.30357        0.26625        0.18214        0.13543        0.05260        0.06237        0.07117        0.09839        0.15702        0.24333        0.29520        0.41913        0.46484        0.48150        0.56812        0.60472        0.63772        0.61731        0.56037        0.46089        0.47367        0.37923        0.27444        0.21070        0.15725        0.17033        0.15234        0.15642        0.18495        0.31965        0.33348        0.40386        0.44442        0.42777        0.48369        0.56305        0.55485        0.50183        0.45744        0.41251        0.36958        0.33953        0.30672        0.26034        0.24588        0.25041        0.25470        0.22490        0.30866        0.36411        0.38543        0.43972        0.45656        0.46943        0.42666        0.40977        0.40245        0.36297        0.33266        0.27422        0.27741        0.26763        0.24225        0.29296        0.29007        0.35035        0.38151        0.43146        0.47670        0.40885        0.42368        0.43333        0.41122        0.34930        0.32688        0.29369        0.32401        0.27417        0.32040        0.31298        0.33074        0.33915        0.36307        0.31652        0.39116        0.41419        0.38077        0.35042        0.37076        0.31728        0.29414        0.30583        0.32047        0.30799        0.32002        0.34289        0.35427        0.34062        0.36570        0.36453        0.41899        0.38851        0.33853        0.34646        0.29931        0.29258        0.32551        0.31980        0.33014        0.34175        0.34051        0.38604        0.33087        0.33043        0.33792        0.34603        0.30461        0.31281        0.28104        0.30355        0.32976        0.30568        0.33015        0.35594        0.36563        0.29645        0.33863        0.29824        0.29733        0.27973        0.24666        0.30462        0.30503        0.34286        0.33873        0.34230        0.32657        0.34996        0.31436        0.34598        0.31027        0.32251        0.28867        0.33500        0.32556        0.36731        0.32764        0.33600        0.33990        0.29343        0.27557        0.31091        0.25029        0.22869        0.34154        0.32219        0.36477        0.34640        0.36154        0.33256        0.33597        0.34917        0.26504        0.26281        0.31651        0.30160        0.31166        0.31785        0.34029        0.33146        0.29272        0.29100        0.34497        0.32166        0.31702        0.29353        0.32249        0.34081        0.39532        0.35842        0.31741        0.28179        0.30353        0.28884        0.30253        0.27515        0.26618        0.31339        0.33130        0.34495        0.35467        0.33056        0.29206        0.30117        0.26862        0.27571        0.25544        0.30972        0.26561        0.24240        0.29765        0.29236        0.26415        0.29569        0.21654        0.21413        0.24460        0.19193        0.26973        0.34574        0.25159        0.23662        0.31698        0.30661        0.31491        0.31531        0.26713        0.24911        0.19022        0.21170        0.19986        0.26524        0.23487        0.28151        0.35659        0.35341        0.24774        0.16320        0.09984       -0.01162       -0.11325       -0.62986
2.782656 2.753147 2.723798 2.694610 2.665582 2.636715 2.608009 2.579464 2.551079 2.522855 2.494792 2.466889 2.439147 2.411566 2.384146 2.356886 2.329787 2.302849 2.276071 2.249454 2.222998 2.196702 2.170568 2.144594 2.118780 2.093127 2.067635 2.042304 2.017134 1.992124 1.967275 1.942586 1.918059 1.893692 1.869485 1.845440 1.821555 1.797831 1.774267 1.750865 1.727623 1.704541 1.681621 1.658861 1.636262 1.613823 1.591545 1.569428 1.547472 1.525676 1.504041 1.721236 2.144503 1.702340 1.186947 1.051144 0.452068 0.849344 0.562661 0.846639 0.813603 0.819104 0.758174 0.752924 0.596520 0.559518 0.501478 0.429110 0.248329 0.367064 0.200873 0.330154 0.220665 0.208344 0.182591 0.040826 0.006330 0.018210 -0.069186 0.133084 0.232060 0.189158 0.178227 0.327304 0.184962 0.519973 0.624247 0.630784 0.647326 0.877093 0.835347 0.944113 0.936172 1.033285 1.000947 1.085965 1.169495 1.045669 1.163374 0.910652 0.929910 0.795950 0.653691 0.806718 0.697165 0.492748 0.333341 0.251035 0.266922 0.148114 0.134065 0.164610 0.107813 0.122587 0.080431 0.250902 0.353887 0.341835 0.476537 0.545661 0.418047 0.592330 0.730089 0.654326 0.722278 0.710875 0.718735 0.648877 0.596830 0.495283 0.370382 0.276729 0.220546 0.088938 0.116735 -0.110153 -0.048902 -0.063287 -0.081278 -0.020251 0.130446 0.069243 0.241454 0.306697 0.335807 0.377863 0.498510 0.458407 0.487198 0.492676 0.305846 0.294090 0.287157 0.087159 0.045568 -0.077824 -0.013557 -0.062219 -0.094950 -0.076197 0.038846 0.092729 0.124075 0.221062 0.226022 0.224797 0.274936 0.445565 0.393603 0.257340 0.233371 0.223508 0.143451 0.144457 0.116678 -0.004363 0.016113 0.073022 -0.009099 0.047806 0.133900 0.136444 0.216386 0.238056 0.253835 0.169468 0.209924 0.127333 0.134183 0.110909 0.029579 -0.025977 0.000014 -0.019827 -0.053893 0.053860 0.005948 0.106553 0.138949 0.190070 0.169902 0.119464 0.141866 0.162138 0.111830 0.038177 -0.022914 0.032732 0.025062 -0.039875 0.033212 0.022676 0.047607 0.039024 0.052126 0.036051 0.139949 0.124919 0.046900 0.040717 0.045122 0.006369 -0.030437 0.010307 0.008128 -0.001205 0.006820 0.052708 0.053946 0.042010 0.078289 0.059331 0.158443 0.062968 0.038741 0.041565 -0.033470 0.011149 0.045975 0.007502 0.034663 0.054356 0.080292 0.046233 0.042693 0.010750 0.078326 0.023585 0.022971 0.023134 -0.006299 0.035675 0.025921 0.022240 0.068141 0.081772 0.062011 0.040232 0.049357 0.028345 0.019180 -0.020184 -0.023084 0.035300 0.053453 0.082597 0.085163 0.052275 0.074709 0.104014 0.046310 0.096004 0.065251 0.041721 0.021533 0.102803 0.061583 0.115554 0.082185 0.052834 0.108766 0.037845 0.006079 0.086821 -0.035791 -0.022331 0.100952 0.046356 0.159515 0.095234 0.091047 0.053506 0.058084 0.093054 -0.023820 -0.026514 0.052533 0.041210 0.038758 0.028237 0.103011 0.043647 -0.006295 0.053898 0.047881 0.052753 0.059345 -0.011114 0.064239 0.059653 0.112099 0.060667 0.025751 -0.025204 -0.017513 -0.005105 0.004310 -0.052111 -0.025940 0.004491 0.023831 0.029269 0.050971 0.006114 -0.035982 -0.031707 -0.021399 -0.069138 -0.050434 -0.025743 -0.090305 -0.069641 -0.013856 -0.055206 -0.077569 -0.002426 -0.138870 -0.098866 -0.096646 -0.193438 -0.058464 0.062654 -0.069512 -0.157951 0.029590 0.012748 -0.061372 0.028662 -0.090344 0.274298 0.167239 0.217652 0.271369 0.327150 0.257945 0.323244 0.341225 0.410906 0.228791 0.297035 0.123829 -0.017193 -0.697167
0.072396 0.072899 0.074408 0.076922 0.080441 0.084964 0.090489 0.097016 0.104541 0.113063 0.122577 0.133080 0.144566 0.157028 0.170460 0.184851 0.200190 0.216466 0.233662 0.251762 0.270745 0.290588 0.311266 0.332749 0.355004 0.377993 0.401675 0.426004 0.450929 0.476394 0.502338 0.528694 0.555389 0.582343 0.609471 0.636682 0.663877 0.690950 0.717790 0.744277 0.770285 0.795683 0.820330 0.844082 0.866787 0.888287 0.908421 0.927020 0.943915 0.958931 0.971890 0.982616 0.990929 0.996652 0.999611 0.999633 0.996553 0.990212 0.980458 0.967152 0.950166 0.929388 0.904722 0.876090 0.843438 0.806732 0.765965 0.721159 0.672363 0.619662 0.563172 0.503044 0.439468 0.372673 0.302925 0.230532 0.155842 0.079244 0.001166 0.077926 0.157524 0.237091 0.316053 0.393808 0.469729 0.543167 0.613460 0.679934 0.741913 0.798726 0.849712 0.894232 0.931674 0.961465 0.983080 0.996050 0.999973 0.994521 0.979454 0.954624 0.919986 0.875605 0.821661 0.758458 0.686425 0.606117 0.518220 0.423549 0.323042 0.217757 0.108864 0.002362 0.114562 0.226297 0.336072 0.442353 0.543589 0.638233 0.724773 0.801749 0.867789 0.921632 0.962155 0.988402 0.999611 0.995234 0.974963 0.938747 0.886806 0.819645 0.738057 0.643125 0.536217 0.418977 0.293302 0.161323 0.025372 0.112056 0.248339 0.380787 0.506687 0.623364 0.728237 0.818883 0.893099 0.948959 0.984877 0.999652 0.992522 0.963197 0.911894 0.839353 0.746841 0.636149 0.509571 0.369869 0.220221 0.064161 0.094499 0.251755 0.403514 0.545700 0.674364 0.785801 0.876665 0.944079 0.985738 0.999999 0.985962 0.943520 0.873406 0.777196 0.657303 0.516930 0.360011 0.191108 0.015292 0.161998 0.335117 0.498402 0.646346 0.773804 0.876179 0.949592 0.991063 0.998634 0.971489 0.910024 0.815875 0.691912 0.542168 0.371745 0.186652 0.006390 0.200180 0.387300 0.560401 0.712495 0.837249 0.929269 0.984347 0.999686 0.974060 0.907923 0.803448 0.664496 0.496502 0.306297 0.101853 0.108038 0.314128 0.507116 0.678074 0.818879 0.922604 0.983899 0.999291 0.967411 0.889130 0.767592 0.608129 0.418070 0.206434 0.016470 0.239528 0.451365 0.640938 0.798111 0.914227 0.982613 0.999001 0.961832 0.872426 0.734995 0.556499 0.346338 0.115893 0.122061 0.354045 0.566645 0.747289 0.885015 0.971169 0.999993 0.969051 0.879480 0.736021 0.546827 0.323056 0.078255 0.172429 0.413171 0.628465 0.804145 0.928332 0.992294 0.991108 0.924091 0.794965 0.611730 0.386221 0.133407 0.129562 0.384501 0.613444 0.799926 0.930194 0.994272 0.986793 0.907504 0.761420 0.558597 0.313498 0.044034 0.229715 0.486980 0.707871 0.874955 0.974663 0.998472 0.943692 0.813837 0.618493 0.372694 0.095844 0.189780 0.460782 0.694568 0.871266 0.975446 0.997557 0.934873 0.791900 0.580153 0.317329 0.025896 0.268778 0.540604 0.765099 0.921624 0.995348 0.978740 0.872431 0.685342 0.434049 0.141408 0.165461 0.457642 0.707154 0.889660 0.986898 0.988607 0.893707 0.710616 0.456623 0.156367 0.160483 0.462118 0.717768 0.900889 0.991977 0.980760 0.867459 0.663001 0.388089 0.071230 0.254172 0.553263 0.793520 0.948313 0.999956 0.941846 0.779428 0.529842 0.220244 0.115033 0.438251 0.712480 0.905861 0.995396 0.969797 0.831048 0.594446 0.287055 0.055252 0.391921 0.682493 0.891491 0.992844 0.973261 0.834122 0.591607 0.274958 0.076884 0.420030 0.711059 0.912575 0.998096 0.955680 0.789747 0.520838 0.183213 0.179357
1.000000 1.000000 1.000000 1.000000 1.000000 1.000000 1.000000 1.000000 1.000000 1.000000 1.000000 1.000000 1.000000 1.000000 1.000000 1.000000 1.000000 1.000000 1.000000 1.000000 1.000000 1.000000 1.000000 1.000000 1.000000 1.000000 1.000000 1.000000 1.000000 1.000000 1.000000 1.000000 1.000000 1.000000 1.000000 1.000000 1.000000 1.000000 1.000000 1.000000 1.000000 1.000000 1.000000 1.000000 1.000000 1.000000 1.000000 1.000000 1.000000 1.000000 1.000000 1.000000 0.919265 0.919265 0.919265 0.912674 0.912674 0.912674 0.912674 0.912674 0.912674 0.912674 0.912674 0.912674 0.912674 0.912674 0.912674 0.912674 0.912674 0.912674 0.912674 0.912674 0.912674 0.912674 0.912674 0.912674 0.912674 0.912674 0.912674 0.912674 0.912674 0.912674 0.912674 0.912674 0.912674 0.912674 0.912674 0.912674 0.912674 0.912674 0.912674 0.912674 0.912674 0.912674 0.912674 0.912674 0.941647 0.943045 0.951318 0.950875 0.950292 0.948297 0.947081 0.946745 0.946655 0.946992 0.947702 0.948665 0.954878 0.956112 0.960505 0.962189 0.962373 0.964115 0.964830 0.964459 0.956034 0.955806 0.954397 0.953865 0.956391 0.955500 0.954761 0.955734 0.955640 0.955970 0.955964 0.955314 0.954279 0.953229 0.952325 0.951932 0.951740 0.952459 0.952869 0.954308 0.957553 0.958149 0.958287 0.956698 0.955477 0.956748 0.955977 0.955297 0.943534 0.943044 0.941719 0.941764 0.944863 0.944937 0.945527 0.946144 0.947918 0.948281 0.943897 0.943702 0.936710 0.934035 0.932031 0.926525 0.921752 0.923572 0.925489 0.925965 0.926127 0.920693 0.920712 0.918839 0.914780 0.917245 0.917617 0.918895 0.920245 0.915765 0.915102 0.913893 0.912287 0.904661 0.892509 0.891348 0.886727 0.891673 0.891694 0.890587 0.893623 0.882805 0.867701 0.835933 0.838321 0.841568 0.831727 0.826982 0.826987 0.827756 0.832118 0.825564 0.823881 0.818437 0.806398 0.800777 0.793462 0.780117 0.781747 0.773316 0.763293 0.758873 0.782939 0.776952 0.787948 0.792301 0.792009 0.788922 0.781102 0.770927 0.769638 0.763820 0.760146 0.738571 0.730746 0.730895 0.727648 0.717208 0.721299 0.708562 0.708934 0.697197 0.701839 0.706876 0.710191 0.705775 0.700579 0.692565 0.689618 0.701748 0.715818 0.712026 0.708861 0.711116 0.701046 0.691519 0.689179 0.692835 0.687430 0.665571 0.673527 0.699682 0.666029 0.655653 0.662564 0.667867 0.658398 0.660620 0.640844 0.634246 0.612632 0.629990 0.635359 0.652178 0.649920 0.650102 0.660792 0.666688 0.677596 0.678947 0.680556 0.640584 0.643382 0.664211 0.671316 0.657688 0.646266 0.649048 0.646523 0.681898 0.671241 0.627263 0.623808 0.620143 0.580396 0.558139 0.556997 0.561496 0.587729 0.585899 0.566330 0.544839 0.549380 0.553325 0.554364 0.552649 0.540333 0.546988 0.533436 0.509925 0.518254 0.524289 0.522045 0.507709 0.503648 0.514140 0.488886 0.524567 0.496797 0.472592 0.492345 0.489642 0.478177 0.404353 0.420101 0.407027 0.399371 0.353020 0.362996 0.371528 0.355837 0.280913 0.272436 0.273440 0.271279 0.253058 0.234709 0.223879 0.211004 0.190087 0.130776 0.093049 0.093379 0.095709 0.119568 0.079473 0.127542 0.191693 0.192089 0.192089 0.192089 0.192089 0.192089 0.192089 0.192089 0.192089 0.167708 0.167708 0.167708 0.167708 0.167708 0.167708 0.167708 0.167708 0.167708 0.192089 0.192089 0.192089 0.192089 0.192089 0.192089 0.192089 0.192089 0.192089 0.192089 0.192089 0.192089 0.192089 0.192089
0.000000 0.000000 0.000000 0.000000 0.000000 0.000000 0.000000 0.000000 0.000000 0.000000 0.000000 0.000000 0.000000 0.000000 0.000000 0.000000 0.000000 0.000000 0.000000 0.000000 0.000000 0.000000 0.000000 0.000000 0.000000 0.000000 0.000000 0.000000 0.000000 0.000000 0.000000 0.000000 0.000000 0.000000 0.000000 0.000000 0.000000 0.000000 0.000000 0.000000 0.000000 0.000000 0.000000 0.000000 0.000000 0.000000 0.000000 0.000000 0.000000 0.000000 0.000000 0.000000 0.180334 0.180334 0.180334 0.199007 0.199007 0.199007 0.199007 0.199007 0.199007 0.199007 0.199007 0.199007 0.199007 0.199007 0.199007 0.199007 0.199007 0.199007 0.199007 0.199007 0.199007 0.199007 0.199007 0.199007 0.199007 0.199007 0.199007 0.199007 0.199007 0.199007 0.199007 0.199007 0.199007 0.199007 0.199007 0.199007 0.199007 0.199007 0.199007 0.199007 0.199007 0.199007 0.199007 0.199007 0.225018 0.225018 0.225018 0.225018 0.225018 0.225018 0.225018 0.225018 0.225018 0.225018 0.225018 0.225018 0.225018 0.225018 0.225018 0.225018 0.225018 0.225018 0.225018 0.225018 0.225018 0.225018 0.225018 0.225018 0.225018 0.225018 0.225018 0.225018 0.225018 0.244339 0.244339 0.244339 0.244339 0.244339 0.244339 0.244339 0.244339 0.244339 0.244339 0.244339 0.244339 0.244339 0.244339 0.244339 0.244339 0.244339 0.244339 0.244339 0.244339 0.244339 0.244339 0.244339 0.251976 0.251976 0.251976 0.251976 0.251976 0.251976 0.251976 0.251976 0.251976 0.251976 0.251976 0.251976 0.251976 0.251976 0.251976 0.251976 0.251976 0.251976 0.251976 0.251976 0.264906 0.264906 0.264906 0.264906 0.264906 0.264906 0.264906 0.264906 0.264906 0.264906 0.264906 0.264906 0.264906 0.264906 0.264906 0.264906 0.264906 0.264906 0.264906 0.264906 0.264906 0.264906 0.264906 0.264906 0.264906 0.264906 0.264906 0.264906 0.264906 0.264906 0.264906 0.264906 0.264906 0.264906 0.264906 0.264906 0.264906 0.264906 0.264906 0.264906 0.264906 0.264906 0.264906 0.264906 0.264906 0.264906 0.264906 0.264906 0.264906 0.264906 0.264906 0.264906 0.264906 0.264906 0.264906 0.264906 0.264906 0.264906 0.264906 0.264906 0.264906 0.264906 0.264906 0.264906 0.264906 0.264906 0.264906 0.264906 0.264906 0.264906 0.264906 0.264906 0.264906 0.264906 0.264906 0.260378 0.260378 0.260378 0.260378 0.260378 0.260378 0.260378 0.260378 0.260378 0.260378 0.260378 0.260378 0.260378 0.264906 0.264906 0.264906 0.264906 0.264906 0.264906 0.264906 0.264906 0.264906 0.264906 0.264906 0.264906 0.269680 0.269680 0.269680 0.269680 0.269680 0.269680 0.269680 0.269680 0.269680 0.269680 0.269680 0.264906 0.264906 0.264906 0.264906 0.264906 0.264906 0.264906 0.264906 0.264906 0.264906 0.264906 0.256074 0.256074 0.256074 0.256074 0.256074 0.256074 0.256074 0.256074 0.256074 0.256074 0.256074 0.264906 0.264906 0.264906 0.264906 0.264906 0.264906 0.264906 0.264906 0.264906 0.264906 0.260378 0.260378 0.260378 0.260378 0.260378 0.260378 0.260378 0.260378 0.260378 0.260378 0.264906 0.264906 0.264906 0.264906 0.264906 0.264906 0.264906 0.264906 0.264906 0.251976 0.251976 0.251976 0.251976 0.251976 0.251976 0.251976 0.251976 0.251976 0.251976 0.256074 0.256074 0.256074 0.256074 0.256074 0.256074 0.256074 0.256074 0.256074 0.251976 0.251976 0.251976 0.251976 0.251976 0.251976 0.251976 0.251976 0.251976 0.251976 0.251976 0.251976 0.251976 0.251976
