# Output from CTFFind version 4.1.9, run on 2019-11-03 19:42:12
# Input file: stack6_bm3d_averaged_1_4.75_0_2000_half.mrc ; Number of micrographs: 1
# Pixel size: 3.000 Angstroms ; acceleration voltage: 300.0 keV ; spherical aberration: 0.00 mm ; amplitude contrast: 0.07
# Box size: 512 pixels ; min. res.: 30.0 Angstroms ; max. res.: 5.0 Angstroms ; min. def.: 5000.0 um; max. def. 50000.0 um; num. frames averaged: 1
# 6 lines per micrograph: #1 - spatial frequency (1/Angstroms); #2 - 1D rotational average of spectrum (assuming no astigmatism); #3 - 1D rotational average of spectrum; #4 - CTF fit; #5 - cross-correlation between spectrum and CTF fit; #6 - 2sigma of expected cross correlation of noise
0.000000 0.000651 0.001302 0.001953 0.002604 0.003255 0.003906 0.004557 0.005208 0.005859 0.006510 0.007161 0.007812 0.008464 0.009115 0.009766 0.010417 0.011068 0.011719 0.012370 0.013021 0.013672 0.014323 0.014974 0.015625 0.016276 0.016927 0.017578 0.018229 0.018880 0.019531 0.020182 0.020833 0.021484 0.022135 0.022786 0.023438 0.024089 0.024740 0.025391 0.026042 0.026693 0.027344 0.027995 0.028646 0.029297 0.029948 0.030599 0.031250 0.031901 0.032552 0.033203 0.033854 0.034505 0.035156 0.035807 0.036458 0.037109 0.037760 0.038411 0.039062 0.039714 0.040365 0.041016 0.041667 0.042318 0.042969 0.043620 0.044271 0.044922 0.045573 0.046224 0.046875 0.047526 0.048177 0.048828 0.049479 0.050130 0.050781 0.051432 0.052083 0.052734 0.053385 0.054036 0.054688 0.055339 0.055990 0.056641 0.057292 0.057943 0.058594 0.059245 0.059896 0.060547 0.061198 0.061849 0.062500 0.063151 0.063802 0.064453 0.065104 0.065755 0.066406 0.067057 0.067708 0.068359 0.069010 0.069661 0.070312 0.070964 0.071615 0.072266 0.072917 0.073568 0.074219 0.074870 0.075521 0.076172 0.076823 0.077474 0.078125 0.078776 0.079427 0.080078 0.080729 0.081380 0.082031 0.082682 0.083333 0.083984 0.084635 0.085286 0.085938 0.086589 0.087240 0.087891 0.088542 0.089193 0.089844 0.090495 0.091146 0.091797 0.092448 0.093099 0.093750 0.094401 0.095052 0.095703 0.096354 0.097005 0.097656 0.098307 0.098958 0.099609 0.100260 0.100911 0.101562 0.102214 0.102865 0.103516 0.104167 0.104818 0.105469 0.106120 0.106771 0.107422 0.108073 0.108724 0.109375 0.110026 0.110677 0.111328 0.111979 0.112630 0.113281 0.113932 0.114583 0.115234 0.115885 0.116536 0.117188 0.117839 0.118490 0.119141 0.119792 0.120443 0.121094 0.121745 0.122396 0.123047 0.123698 0.124349 0.125000 0.125651 0.126302 0.126953 0.127604 0.128255 0.128906 0.129557 0.130208 0.130859 0.131510 0.132161 0.132812 0.133464 0.134115 0.134766 0.135417 0.136068 0.136719 0.137370 0.138021 0.138672 0.139323 0.139974 0.140625 0.141276 0.141927 0.142578 0.143229 0.143880 0.144531 0.145182 0.145833 0.146484 0.147135 0.147786 0.148438 0.149089 0.149740 0.150391 0.151042 0.151693 0.152344 0.152995 0.153646 0.154297 0.154948 0.155599 0.156250 0.156901 0.157552 0.158203 0.158854 0.159505 0.160156 0.160807 0.161458 0.162109 0.162760 0.163411 0.164062 0.164714 0.165365 0.166016 0.166667 0.167318 0.167969 0.168620 0.169271 0.169922 0.170573 0.171224 0.171875 0.172526 0.173177 0.173828 0.174479 0.175130 0.175781 0.176432 0.177083 0.177734 0.178385 0.179036 0.179688 0.180339 0.180990 0.181641 0.182292 0.182943 0.183594 0.184245 0.184896 0.185547 0.186198 0.186849 0.187500 0.188151 0.188802 0.189453 0.190104 0.190755 0.191406 0.192057 0.192708 0.193359 0.194010 0.194661 0.195312 0.195964 0.196615 0.197266 0.197917 0.198568 0.199219 0.199870 0.200521 0.201172 0.201823 0.202474 0.203125 0.203776 0.204427 0.205078 0.205729 0.206380 0.207031 0.207682 0.208333 0.208984 0.209635 0.210286 0.210938 0.211589 0.212240 0.212891 0.213542 0.214193 0.214844 0.215495 0.216146 0.216797 0.217448 0.218099 0.218750 0.219401 0.220052 0.220703 0.221354 0.222005 0.222656 0.223307 0.223958 0.224609 0.225260 0.225911 0.226562 0.227214 0.227865 0.228516 0.229167 0.229818 0.230469 0.231120 0.231771 0.232422 0.233073 0.233724 0.234375 0.235026 0.235677
       0.30200        0.30200        0.30200        0.30200        0.30200        0.30200        0.30200        0.30200        0.30200        0.30200        0.30200        0.30200        0.30200        0.30200        0.30200        0.30200        0.30200        0.30200        0.30200        0.30200        0.30200        0.30200        0.30200        0.30200        0.30200        0.30200        0.30200        0.30200        0.30200        0.30200        0.30200        0.30200        0.30200        0.30200        0.30200        0.30200        0.30200        0.30200        0.30200        0.30200        0.30200        0.30200        0.30200        0.30200        0.30200        0.30200        0.30200        0.30200        0.30200        0.30200        0.30200        0.60216        0.73530        0.35504        0.19371        0.12547       -0.15442        0.10726        0.02158        0.02920        0.08741        0.31027        0.34091        0.26958        0.15869       -0.03819       -0.00821        0.03976       -0.15040       -0.16093       -0.09255       -0.11653       -0.24991       -0.15997       -0.28742       -0.29450       -0.29676       -0.36368       -0.44224       -0.39373       -0.30408       -0.27267       -0.36998       -0.27756       -0.34031       -0.27577       -0.20028       -0.15107       -0.11244       -0.03368       -0.00576        0.10514        0.14797        0.21110        0.33023        0.39306        0.35698        0.46190        0.55534        0.56491        0.64833        0.59732        0.63553        0.59835        0.62181        0.62296        0.55643        0.56814        0.56156        0.39442        0.32565        0.35529        0.34384        0.18413        0.13927        0.10425        0.07070        0.07734       -0.01981        0.03905        0.00873       -0.03724        0.08115        0.15735        0.25403        0.34445        0.33246        0.36306        0.47044        0.50262        0.43273        0.64833        0.52638        0.48307        0.56214        0.50023        0.51800        0.47415        0.36146        0.31189        0.25166        0.20642        0.18540        0.17395        0.14940        0.09582        0.15977        0.15967        0.20460        0.18423        0.25476        0.28880        0.32329        0.44593        0.42304        0.41248        0.45181        0.49154        0.47291        0.45102        0.37918        0.40168        0.34292        0.27868        0.22519        0.23601        0.21685        0.17095        0.14902        0.19358        0.18858        0.24227        0.31322        0.34016        0.40065        0.38573        0.44839        0.45879        0.44749        0.42379        0.39134        0.40353        0.37796        0.33862        0.31464        0.29679        0.24648        0.26207        0.25863        0.20956        0.26346        0.24926        0.25939        0.31163        0.35805        0.39464        0.39248        0.40641        0.38599        0.40192        0.38891        0.29014        0.28048        0.24283        0.25621        0.21468        0.18927        0.26905        0.31436        0.29581        0.26766        0.32652        0.26137        0.33880        0.35306        0.35581        0.36089        0.38006        0.31233        0.31778        0.30221        0.27189        0.26768        0.24380        0.27163        0.29438        0.29209        0.31188        0.35596        0.37122        0.35194        0.33267        0.34831        0.31775        0.30503        0.30038        0.27118        0.27876        0.25427        0.29656        0.31089        0.29578        0.29048        0.31059        0.31705        0.32712        0.32936        0.28711        0.25637        0.28290        0.27526        0.26188        0.24562        0.22519        0.24205        0.25428        0.24196        0.26491        0.27788        0.32058        0.30673        0.28250        0.29740        0.24058        0.21098        0.26546        0.24019        0.20603        0.26282        0.30661        0.26965        0.29515        0.29478        0.29082        0.29667        0.29787        0.26818        0.29659        0.27897        0.31420        0.25945        0.26374        0.24916        0.29276        0.29627        0.31225        0.32005        0.30557        0.20715        0.27054        0.26508        0.22776        0.24758        0.24533        0.28719        0.26639        0.30476        0.29790        0.34856        0.29858        0.26932        0.23282        0.22809        0.24590        0.24603        0.27162        0.28572        0.29819        0.31574        0.27911        0.27691        0.25319        0.26239        0.27691        0.23864        0.21430        0.22877        0.31254        0.29507        0.28529        0.28289        0.22365        0.26672        0.24781        0.20451        0.21938        0.26710        0.28001        0.28264        0.21139        0.19328        0.25194        0.24721        0.25879        0.24463        0.24294        0.18978        0.21822        0.25285        0.22390        0.27474        0.23616        0.23605        0.17093        0.27498        0.29985        0.17086        0.16187        0.12152        0.13801        0.27557        0.15277        0.11476        0.31980        0.20872        0.12753        0.09810        0.15825        0.12531        0.16306       -0.08888       -0.71079       -1.04398
3.066261 3.035042 3.003986 2.973094 2.942365 2.911799 2.881397 2.851158 2.821083 2.791171 2.761422 2.731837 2.702415 2.673157 2.644062 2.615130 2.586362 2.557757 2.529315 2.501037 2.472922 2.444971 2.417183 2.389558 2.362097 2.334799 2.307665 2.280693 2.253886 2.227241 2.200761 2.174443 2.148289 2.122298 2.096471 2.070807 2.045306 2.019969 1.994795 1.969785 1.944938 1.920254 1.895734 1.871377 1.847183 1.823153 1.799286 1.775583 1.752043 1.728666 1.705453 2.044722 2.357453 1.725769 1.625024 1.351630 0.812324 1.214060 1.081966 1.099487 0.961403 1.566574 1.451012 1.450199 1.204933 0.881529 0.726212 0.962959 0.744297 0.422224 0.520232 0.648290 0.391210 0.430012 0.272383 0.187922 0.139035 0.136813 -0.130203 -0.044855 0.089912 0.051434 0.005630 0.093460 -0.047597 -0.019565 0.141950 0.213239 0.267242 0.325583 0.371210 0.617041 0.562151 0.642060 0.859862 0.965176 0.837842 1.150101 1.139725 1.223059 1.287370 1.159009 1.322063 1.170510 1.130761 1.299101 1.081510 1.040921 1.127065 0.895748 0.611681 0.656751 0.713854 0.425730 0.334179 0.263527 0.135542 0.136585 -0.007519 0.097456 0.047379 -0.090165 0.043932 0.163656 0.267181 0.493170 0.490828 0.448326 0.629131 0.765901 0.503280 0.906840 0.749077 0.708503 0.775026 0.614466 0.689186 0.687692 0.416262 0.336251 0.233548 0.165489 0.110662 0.011029 0.044128 -0.122577 -0.002034 -0.026486 0.077439 -0.036054 0.166751 0.169974 0.140095 0.360596 0.444858 0.350067 0.294967 0.506406 0.501184 0.387296 0.335714 0.311856 0.249381 0.172290 0.018859 0.034167 -0.028523 0.007265 -0.154278 -0.072511 -0.116842 0.067979 0.001869 0.188412 0.207145 0.234585 0.314909 0.316981 0.368622 0.330077 0.370234 0.363730 0.231288 0.271855 0.140958 0.194930 0.056443 0.110613 0.045190 0.052549 -0.032803 0.090649 0.002841 0.106679 0.201522 0.213803 0.287940 0.275040 0.286671 0.273042 0.281767 0.174871 0.080954 0.077771 0.017621 0.011810 -0.067782 -0.043556 0.076699 0.152521 0.066132 0.086629 0.087092 0.099280 0.187876 0.159759 0.196547 0.245286 0.147884 0.105085 0.102582 0.081188 0.056193 -0.031864 0.015651 0.130206 0.005060 0.117167 0.110810 0.215940 0.217934 0.193244 0.180897 0.195943 0.103173 0.121887 0.126638 0.057296 0.024970 0.081723 0.100436 0.124889 0.105105 0.097537 0.114908 0.149122 0.137980 0.115882 0.030582 -0.010416 0.065868 0.006746 0.035801 -0.040907 -0.053648 0.006385 -0.019543 -0.026931 0.036749 0.031379 0.107027 0.097500 0.015047 0.066416 -0.065683 -0.040535 0.038848 -0.062406 -0.066569 0.051764 0.071322 0.004456 0.056317 0.058573 0.055448 0.123224 -0.000998 0.031622 0.117224 -0.002333 0.100783 -0.007693 0.035982 -0.031349 0.123313 0.035513 0.090330 0.123324 0.073012 -0.083246 0.042190 0.026899 -0.038627 -0.005281 0.005330 0.038208 0.036032 0.146997 0.053650 0.154199 0.098447 -0.019901 -0.000332 -0.042943 0.009142 0.034090 0.035229 0.063742 0.089005 0.132603 0.059477 0.069884 0.048867 0.074634 0.074928 0.039997 -0.054603 0.036842 0.133212 0.100600 0.108443 0.110739 0.001977 0.081816 0.024842 -0.049534 0.012364 0.065901 0.121768 0.079211 -0.027579 -0.039371 0.060696 0.056878 0.038065 0.048820 0.005692 -0.002723 -0.000195 0.070251 0.006852 0.131187 -0.030205 0.101109 -0.065441 0.146055 0.160863 -0.106588 -0.036843 -0.162644 -0.228217 0.188980 -0.092759 0.077126 0.523461 0.301602 0.203000 0.105138 0.396186 0.174406 0.262227 -0.135306 -1.711899
0.072396 0.072835 0.074151 0.076345 0.079415 0.083361 0.088183 0.093878 0.100446 0.107884 0.116191 0.125362 0.135394 0.146283 0.158023 0.170608 0.184030 0.198280 0.213348 0.229222 0.245889 0.263331 0.281533 0.300473 0.320129 0.340476 0.361485 0.383125 0.405361 0.428155 0.451466 0.475246 0.499447 0.524013 0.548887 0.574005 0.599298 0.624694 0.650115 0.675477 0.700692 0.725666 0.750301 0.774492 0.798131 0.821104 0.843291 0.864569 0.884810 0.903883 0.921651 0.937977 0.952719 0.965734 0.976877 0.986003 0.992966 0.997623 0.999831 0.999452 0.996351 0.990398 0.981472 0.969456 0.954247 0.935750 0.913882 0.888577 0.859782 0.827460 0.791597 0.752194 0.709279 0.662898 0.613126 0.560061 0.503831 0.444591 0.382524 0.317845 0.250798 0.181660 0.110736 0.038364 0.035090 0.109229 0.183629 0.257841 0.331391 0.403782 0.474500 0.543017 0.608791 0.671273 0.729912 0.784161 0.833477 0.877335 0.915226 0.946670 0.971216 0.988458 0.998030 0.999624 0.992989 0.977941 0.954369 0.922238 0.881601 0.832595 0.775451 0.710495 0.638151 0.558941 0.473483 0.382494 0.286784 0.187249 0.084872 0.019290 0.124117 0.228429 0.331006 0.430598 0.525941 0.615773 0.698853 0.773977 0.839999 0.895853 0.940566 0.973282 0.993282 1.000000 0.993037 0.972183 0.937423 0.888951 0.827177 0.752731 0.666465 0.569447 0.462958 0.348478 0.227669 0.102360 0.025480 0.153774 0.280360 0.403036 0.519593 0.627857 0.725733 0.811247 0.882590 0.938163 0.976615 0.996882 0.998225 0.980254 0.942955 0.886709 0.812295 0.720896 0.614091 0.493833 0.362428 0.222494 0.076915 0.071209 0.218629 0.362017 0.498034 0.623421 0.735070 0.830113 0.905997 0.960565 0.992124 0.999505 0.982115 0.939978 0.873754 0.784748 0.674901 0.546762 0.403441 0.248542 0.086090 0.079577 0.243913 0.402291 0.550125 0.683022 0.796902 0.888142 0.953699 0.991222 0.999152 0.976797 0.924385 0.843090 0.735027 0.603218 0.451525 0.284551 0.107513 0.073907 0.253745 0.425945 0.584564 0.723982 0.839114 0.925604 0.980004 0.999933 0.984193 0.932858 0.847305 0.730214 0.585503 0.418222 0.234391 0.040807 0.155206 0.346062 0.524207 0.682426 0.814143 0.913703 0.976643 0.999906 0.982014 0.923181 0.825350 0.692169 0.528877 0.342132 0.139753 0.069584 0.276713 0.472376 0.647635 0.794296 0.905306 0.975113 0.999971 0.978169 0.910167 0.798642 0.648419 0.466292 0.260754 0.041622 0.180424 0.394338 0.589272 0.755127 0.883095 0.966151 0.999469 0.980734 0.910336 0.791418 0.629785 0.433656 0.213287 0.019550 0.252168 0.471657 0.665602 0.822792 0.933909 0.992093 0.993416 0.937178 0.826039 0.665943 0.465845 0.237257 0.006385 0.250495 0.480198 0.681233 0.840874 0.948739 0.997525 0.983534 0.907003 0.772179 0.587153 0.363417 0.115188 0.141446 0.389571 0.612556 0.795175 0.924676 0.991711 0.991062 0.922100 0.788931 0.600225 0.368709 0.110350 0.156702 0.413374 0.641031 0.822848 0.945083 0.998163 0.977490 0.883899 0.723715 0.508401 0.253794 0.021001 0.295026 0.547060 0.757250 0.908722 0.988982 0.990995 0.913877 0.763094 0.550168 0.291855 0.008880 0.275662 0.538218 0.756694 0.912373 0.991553 0.986827 0.897850 0.731517 0.501510 0.227259 0.067649 0.357455 0.616478 0.821400 0.953409 0.999987 0.956177 0.825185 0.618264 0.353818 0.055861 0.248127 0.529718 0.762176 0.923055 0.996416 0.974492 0.858600 0.659182 0.394985 0.091368 0.222079 0.514363 0.756183 0.922897
1.000000 1.000000 1.000000 1.000000 1.000000 1.000000 1.000000 1.000000 1.000000 1.000000 1.000000 1.000000 1.000000 1.000000 1.000000 1.000000 1.000000 1.000000 1.000000 1.000000 1.000000 1.000000 1.000000 1.000000 1.000000 1.000000 1.000000 1.000000 1.000000 1.000000 1.000000 1.000000 1.000000 1.000000 1.000000 1.000000 1.000000 1.000000 1.000000 1.000000 1.000000 1.000000 1.000000 1.000000 1.000000 1.000000 1.000000 1.000000 1.000000 1.000000 1.000000 1.000000 0.807146 0.807146 0.807146 0.807146 0.807146 0.807146 0.807146 0.785433 0.785433 0.785433 0.785433 0.785433 0.785433 0.785433 0.785433 0.785433 0.785433 0.785433 0.785433 0.785433 0.785433 0.785433 0.785433 0.785433 0.785433 0.785433 0.785433 0.785433 0.785433 0.785433 0.785433 0.785433 0.785433 0.785433 0.785433 0.785433 0.785433 0.785433 0.785433 0.785433 0.785433 0.785433 0.785433 0.785433 0.785433 0.785433 0.785433 0.785433 0.785433 0.785433 0.785433 0.933670 0.932834 0.934255 0.932675 0.934858 0.933618 0.932666 0.934027 0.932951 0.930734 0.930894 0.931380 0.932626 0.932764 0.937821 0.939152 0.947922 0.952024 0.952974 0.952720 0.951342 0.961451 0.959363 0.957583 0.951148 0.952304 0.953410 0.954257 0.953194 0.952590 0.953831 0.954732 0.953233 0.951356 0.950519 0.949703 0.948953 0.948688 0.948984 0.949046 0.948849 0.949694 0.950437 0.949547 0.951635 0.950446 0.950302 0.946746 0.945153 0.946776 0.944972 0.945374 0.941950 0.937830 0.937042 0.936464 0.936054 0.937110 0.938135 0.938817 0.939395 0.939993 0.940129 0.939977 0.940432 0.937559 0.930630 0.927262 0.924896 0.926091 0.929100 0.931935 0.929989 0.925993 0.925989 0.921357 0.918625 0.905427 0.893770 0.890827 0.887203 0.889252 0.891888 0.890668 0.888045 0.886670 0.886696 0.885260 0.889329 0.890101 0.881874 0.872121 0.870545 0.866011 0.870604 0.875326 0.876985 0.886076 0.880828 0.868197 0.863459 0.864499 0.866715 0.873880 0.868764 0.865040 0.860549 0.857533 0.848864 0.841002 0.839029 0.840385 0.842296 0.842173 0.846150 0.835783 0.805064 0.804407 0.800092 0.798967 0.809481 0.818324 0.820079 0.812242 0.789210 0.778610 0.762557 0.763278 0.766492 0.757870 0.761394 0.743103 0.742861 0.717693 0.718654 0.715312 0.709695 0.714974 0.709215 0.713241 0.714299 0.716398 0.716570 0.699599 0.693105 0.659173 0.663960 0.601942 0.610117 0.610046 0.588955 0.572993 0.550046 0.565418 0.573979 0.576397 0.554201 0.546683 0.523278 0.508061 0.508142 0.512135 0.512501 0.515262 0.508322 0.498722 0.493054 0.511666 0.522695 0.506497 0.507463 0.523825 0.520558 0.512784 0.496875 0.486651 0.503355 0.521577 0.529002 0.528586 0.534775 0.505135 0.474465 0.499489 0.514799 0.514431 0.503576 0.490080 0.484705 0.503772 0.478226 0.497537 0.488840 0.498726 0.472984 0.417182 0.373499 0.317515 0.326172 0.324587 0.322137 0.315075 0.319036 0.335532 0.339083 0.345274 0.343529 0.370230 0.410262 0.354008 0.363280 0.363778 0.362574 0.364167 0.362601 0.342288 0.351707 0.373874 0.378008 0.325760 0.313035 0.280719 0.270458 0.280794 0.294582 0.311731 0.298994 0.281306 0.156299 0.181011 0.199731 0.199731 0.199731 0.199731 0.199731 0.199731 0.199731 0.199731 0.199731 0.199731 0.199731 0.145819 0.145819 0.145819 0.145819 0.145819 0.145819 0.145819 0.145819 0.145819 0.145819 0.145819 0.145819 0.145819 0.145819 0.145819 0.145819 0.145819 0.145819 0.145819
0.000000 0.000000 0.000000 0.000000 0.000000 0.000000 0.000000 0.000000 0.000000 0.000000 0.000000 0.000000 0.000000 0.000000 0.000000 0.000000 0.000000 0.000000 0.000000 0.000000 0.000000 0.000000 0.000000 0.000000 0.000000 0.000000 0.000000 0.000000 0.000000 0.000000 0.000000 0.000000 0.000000 0.000000 0.000000 0.000000 0.000000 0.000000 0.000000 0.000000 0.000000 0.000000 0.000000 0.000000 0.000000 0.000000 0.000000 0.000000 0.000000 0.000000 0.000000 0.000000 0.173422 0.173422 0.173422 0.173422 0.173422 0.173422 0.173422 0.191565 0.191565 0.191565 0.191565 0.191565 0.191565 0.191565 0.191565 0.191565 0.191565 0.191565 0.191565 0.191565 0.191565 0.191565 0.191565 0.191565 0.191565 0.191565 0.191565 0.191565 0.191565 0.191565 0.191565 0.191565 0.191565 0.191565 0.191565 0.191565 0.191565 0.191565 0.191565 0.191565 0.191565 0.191565 0.191565 0.191565 0.191565 0.191565 0.191565 0.191565 0.191565 0.191565 0.191565 0.222222 0.222222 0.222222 0.222222 0.222222 0.222222 0.222222 0.222222 0.222222 0.222222 0.222222 0.222222 0.222222 0.222222 0.222222 0.222222 0.222222 0.222222 0.222222 0.222222 0.222222 0.222222 0.222222 0.222222 0.222222 0.222222 0.222222 0.222222 0.222222 0.222222 0.234082 0.234082 0.234082 0.234082 0.234082 0.234082 0.234082 0.234082 0.234082 0.234082 0.234082 0.234082 0.234082 0.234082 0.234082 0.234082 0.234082 0.234082 0.234082 0.234082 0.234082 0.234082 0.234082 0.234082 0.234082 0.244339 0.244339 0.244339 0.244339 0.244339 0.244339 0.244339 0.244339 0.244339 0.244339 0.244339 0.244339 0.244339 0.244339 0.244339 0.244339 0.244339 0.244339 0.244339 0.244339 0.244339 0.248069 0.248069 0.248069 0.248069 0.248069 0.248069 0.248069 0.248069 0.248069 0.248069 0.248069 0.248069 0.248069 0.248069 0.248069 0.248069 0.248069 0.248069 0.248069 0.248069 0.248069 0.248069 0.248069 0.248069 0.248069 0.248069 0.248069 0.248069 0.248069 0.248069 0.248069 0.248069 0.248069 0.248069 0.248069 0.248069 0.248069 0.256074 0.256074 0.256074 0.256074 0.256074 0.256074 0.256074 0.256074 0.256074 0.256074 0.256074 0.256074 0.256074 0.256074 0.256074 0.256074 0.256074 0.256074 0.256074 0.256074 0.256074 0.256074 0.256074 0.256074 0.256074 0.256074 0.256074 0.256074 0.256074 0.256074 0.256074 0.256074 0.256074 0.256074 0.256074 0.256074 0.256074 0.256074 0.256074 0.256074 0.256074 0.256074 0.256074 0.256074 0.256074 0.260378 0.260378 0.260378 0.260378 0.260378 0.260378 0.260378 0.260378 0.260378 0.260378 0.260378 0.260378 0.260378 0.256074 0.256074 0.256074 0.256074 0.256074 0.256074 0.256074 0.256074 0.256074 0.256074 0.256074 0.256074 0.256074 0.260378 0.260378 0.260378 0.260378 0.260378 0.260378 0.260378 0.260378 0.260378 0.260378 0.260378 0.260378 0.251976 0.251976 0.251976 0.251976 0.251976 0.251976 0.251976 0.251976 0.251976 0.251976 0.251976 0.251976 0.256074 0.256074 0.256074 0.256074 0.256074 0.256074 0.256074 0.256074 0.256074 0.256074 0.256074 0.251976 0.251976 0.251976 0.251976 0.251976 0.251976 0.251976 0.251976 0.251976 0.251976 0.251976 0.248069 0.248069 0.248069 0.248069 0.248069 0.248069 0.248069 0.248069 0.248069 0.248069 0.248069 0.256074 0.256074 0.256074 0.256074 0.256074 0.256074 0.256074 0.256074 0.256074 0.256074 0.256074 0.256074 0.256074 0.256074 0.256074 0.256074 0.256074 0.256074 0.256074
