# Output from CTFFind version 4.1.9, run on 2019-11-02 17:45:49
# Input file: stack6_bm3d_averaged_1_0.75_0_1000_half.mrc ; Number of micrographs: 1
# Pixel size: 3.000 Angstroms ; acceleration voltage: 300.0 keV ; spherical aberration: 0.00 mm ; amplitude contrast: 0.07
# Box size: 512 pixels ; min. res.: 30.0 Angstroms ; max. res.: 5.0 Angstroms ; min. def.: 5000.0 um; max. def. 50000.0 um; num. frames averaged: 1
# 6 lines per micrograph: #1 - spatial frequency (1/Angstroms); #2 - 1D rotational average of spectrum (assuming no astigmatism); #3 - 1D rotational average of spectrum; #4 - CTF fit; #5 - cross-correlation between spectrum and CTF fit; #6 - 2sigma of expected cross correlation of noise
0.000000 0.000651 0.001302 0.001953 0.002604 0.003255 0.003906 0.004557 0.005208 0.005859 0.006510 0.007161 0.007812 0.008464 0.009115 0.009766 0.010417 0.011068 0.011719 0.012370 0.013021 0.013672 0.014323 0.014974 0.015625 0.016276 0.016927 0.017578 0.018229 0.018880 0.019531 0.020182 0.020833 0.021484 0.022135 0.022786 0.023438 0.024089 0.024740 0.025391 0.026042 0.026693 0.027344 0.027995 0.028646 0.029297 0.029948 0.030599 0.031250 0.031901 0.032552 0.033203 0.033854 0.034505 0.035156 0.035807 0.036458 0.037109 0.037760 0.038411 0.039062 0.039714 0.040365 0.041016 0.041667 0.042318 0.042969 0.043620 0.044271 0.044922 0.045573 0.046224 0.046875 0.047526 0.048177 0.048828 0.049479 0.050130 0.050781 0.051432 0.052083 0.052734 0.053385 0.054036 0.054688 0.055339 0.055990 0.056641 0.057292 0.057943 0.058594 0.059245 0.059896 0.060547 0.061198 0.061849 0.062500 0.063151 0.063802 0.064453 0.065104 0.065755 0.066406 0.067057 0.067708 0.068359 0.069010 0.069661 0.070312 0.070964 0.071615 0.072266 0.072917 0.073568 0.074219 0.074870 0.075521 0.076172 0.076823 0.077474 0.078125 0.078776 0.079427 0.080078 0.080729 0.081380 0.082031 0.082682 0.083333 0.083984 0.084635 0.085286 0.085938 0.086589 0.087240 0.087891 0.088542 0.089193 0.089844 0.090495 0.091146 0.091797 0.092448 0.093099 0.093750 0.094401 0.095052 0.095703 0.096354 0.097005 0.097656 0.098307 0.098958 0.099609 0.100260 0.100911 0.101562 0.102214 0.102865 0.103516 0.104167 0.104818 0.105469 0.106120 0.106771 0.107422 0.108073 0.108724 0.109375 0.110026 0.110677 0.111328 0.111979 0.112630 0.113281 0.113932 0.114583 0.115234 0.115885 0.116536 0.117188 0.117839 0.118490 0.119141 0.119792 0.120443 0.121094 0.121745 0.122396 0.123047 0.123698 0.124349 0.125000 0.125651 0.126302 0.126953 0.127604 0.128255 0.128906 0.129557 0.130208 0.130859 0.131510 0.132161 0.132812 0.133464 0.134115 0.134766 0.135417 0.136068 0.136719 0.137370 0.138021 0.138672 0.139323 0.139974 0.140625 0.141276 0.141927 0.142578 0.143229 0.143880 0.144531 0.145182 0.145833 0.146484 0.147135 0.147786 0.148438 0.149089 0.149740 0.150391 0.151042 0.151693 0.152344 0.152995 0.153646 0.154297 0.154948 0.155599 0.156250 0.156901 0.157552 0.158203 0.158854 0.159505 0.160156 0.160807 0.161458 0.162109 0.162760 0.163411 0.164062 0.164714 0.165365 0.166016 0.166667 0.167318 0.167969 0.168620 0.169271 0.169922 0.170573 0.171224 0.171875 0.172526 0.173177 0.173828 0.174479 0.175130 0.175781 0.176432 0.177083 0.177734 0.178385 0.179036 0.179688 0.180339 0.180990 0.181641 0.182292 0.182943 0.183594 0.184245 0.184896 0.185547 0.186198 0.186849 0.187500 0.188151 0.188802 0.189453 0.190104 0.190755 0.191406 0.192057 0.192708 0.193359 0.194010 0.194661 0.195312 0.195964 0.196615 0.197266 0.197917 0.198568 0.199219 0.199870 0.200521 0.201172 0.201823 0.202474 0.203125 0.203776 0.204427 0.205078 0.205729 0.206380 0.207031 0.207682 0.208333 0.208984 0.209635 0.210286 0.210938 0.211589 0.212240 0.212891 0.213542 0.214193 0.214844 0.215495 0.216146 0.216797 0.217448 0.218099 0.218750 0.219401 0.220052 0.220703 0.221354 0.222005 0.222656 0.223307 0.223958 0.224609 0.225260 0.225911 0.226562 0.227214 0.227865 0.228516 0.229167 0.229818 0.230469 0.231120 0.231771 0.232422 0.233073 0.233724 0.234375 0.235026 0.235677
       0.31197        0.31197        0.31197        0.31197        0.31197        0.31197        0.31197        0.31197        0.31197        0.31197        0.31197        0.31197        0.31197        0.31197        0.31197        0.31197        0.31197        0.31197        0.31197        0.31197        0.31197        0.31197        0.31197        0.31197        0.31197        0.31197        0.31197        0.31197        0.31197        0.31197        0.31197        0.31197        0.31197        0.31197        0.31197        0.31197        0.31197        0.31197        0.31197        0.31197        0.31197        0.31197        0.31197        0.31197        0.31197        0.31197        0.31197        0.31197        0.31197        0.31197        0.31197        0.63464        0.81905        0.41757        0.31238        0.18895       -0.10501        0.11258       -0.00213        0.03406        0.11785        0.33613        0.42403        0.40562        0.22554       -0.01170        0.04837        0.07114       -0.16841       -0.17927       -0.08593       -0.10736       -0.29227       -0.18824       -0.30164       -0.25645       -0.28545       -0.40240       -0.47519       -0.47741       -0.42140       -0.33773       -0.43832       -0.36737       -0.40869       -0.34862       -0.27472       -0.19967       -0.19293       -0.13504       -0.09211        0.03904        0.08403        0.25145        0.28106        0.37015        0.40352        0.52023        0.59094        0.60898        0.74113        0.70126        0.74216        0.65136        0.66567        0.69673        0.63428        0.61575        0.60883        0.43562        0.39899        0.35794        0.32383        0.22290        0.13122        0.06056        0.05777        0.00091       -0.07897       -0.02965       -0.03109       -0.07002        0.06389        0.16417        0.25507        0.32207        0.33603        0.43156        0.54857        0.59563        0.54504        0.67298        0.56667        0.54291        0.59946        0.64198        0.53302        0.46018        0.40708        0.37619        0.24932        0.21368        0.13195        0.11605        0.05492        0.05669        0.10861        0.16813        0.14543        0.18123        0.21995        0.23989        0.33174        0.45786        0.49332        0.49794        0.52032        0.57936        0.57206        0.52300        0.42569        0.38509        0.36764        0.27108        0.24678        0.21364        0.20618        0.20200        0.18064        0.16051        0.12751        0.19190        0.24918        0.34752        0.38411        0.40765        0.46356        0.53669        0.47653        0.48524        0.42418        0.40233        0.38393        0.36363        0.28987        0.25655        0.19823        0.23322        0.21647        0.19174        0.21984        0.22539        0.24072        0.30059        0.40138        0.40179        0.37358        0.38992        0.45540        0.48546        0.42849        0.35387        0.32517        0.27714        0.26292        0.24946        0.21443        0.28405        0.29341        0.29594        0.31634        0.31167        0.34943        0.37519        0.37261        0.37404        0.35670        0.31802        0.33376        0.31847        0.29658        0.28256        0.27226        0.21742        0.27263        0.27387        0.30169        0.32073        0.34498        0.37880        0.34047        0.31979        0.36233        0.36792        0.26564        0.29424        0.30675        0.24484        0.20960        0.25975        0.27317        0.27682        0.30027        0.30718        0.33611        0.33588        0.36227        0.32666        0.32168        0.30922        0.29552        0.27549        0.25063        0.25474        0.25862        0.27802        0.30052        0.29752        0.30129        0.31410        0.32714        0.26392        0.30358        0.26938        0.26142        0.27782        0.26390        0.26258        0.26635        0.31191        0.28630        0.31584        0.28651        0.27406        0.30933        0.31077        0.33067        0.31491        0.29166        0.25168        0.26348        0.26879        0.26279        0.31262        0.31662        0.33680        0.32177        0.31159        0.25585        0.28079        0.21067        0.20630        0.24876        0.25811        0.25742        0.28661        0.31336        0.29895        0.35204        0.30882        0.26158        0.23519        0.23623        0.29190        0.31344        0.30527        0.26849        0.27997        0.26159        0.32153        0.28335        0.25327        0.26465        0.25436        0.28821        0.25041        0.28796        0.32863        0.29136        0.21879        0.23760        0.28663        0.32180        0.26774        0.26311        0.24080        0.27993        0.29237        0.37874        0.29011        0.27226        0.25603        0.25486        0.21972        0.18205        0.24856        0.22389        0.20661        0.18461        0.19462        0.24010        0.22269        0.23554        0.19448        0.25777        0.22826        0.20843        0.17797        0.16349        0.19575        0.24029        0.13932        0.06303        0.20644        0.19563        0.14840        0.24452        0.15518        0.22366        0.21158       -0.04932       -0.49162       -0.99219
2.845578 2.817580 2.789727 2.762017 2.734452 2.707031 2.679754 2.652621 2.625632 2.598787 2.572087 2.545530 2.519117 2.492849 2.466724 2.440744 2.414907 2.389215 2.363667 2.338263 2.313003 2.287887 2.262915 2.238087 2.213404 2.188864 2.164468 2.140217 2.116110 2.092146 2.068327 2.044652 2.021121 1.997734 1.974491 1.951392 1.928437 1.905626 1.882960 1.860437 1.838059 1.815824 1.793734 1.771788 1.749985 1.728327 1.706813 1.685443 1.664218 1.643136 1.622198 1.916375 2.271242 1.697964 1.738780 1.379806 0.940798 1.198216 1.021645 1.072535 1.028981 1.488953 1.515806 1.539006 1.279314 0.941120 0.823679 1.008870 0.714091 0.489594 0.588279 0.678103 0.421608 0.488800 0.325656 0.369520 0.246918 0.159464 -0.035228 0.003461 0.024789 0.082968 0.039625 0.075328 -0.040408 0.029974 0.112782 0.224370 0.285310 0.209913 0.321682 0.552589 0.450652 0.727539 0.791609 0.876590 0.908040 1.120104 1.143626 1.174510 1.324494 1.235446 1.369299 1.196312 1.111648 1.294377 1.143780 1.051419 1.125857 0.885785 0.739594 0.678796 0.671819 0.459190 0.392602 0.259669 0.227299 0.093083 -0.005698 0.089269 0.027571 -0.064207 0.114357 0.253837 0.306855 0.465078 0.485558 0.554991 0.723357 0.825095 0.662932 0.962168 0.803165 0.664539 0.765822 0.801957 0.713636 0.637682 0.447827 0.500598 0.282083 0.189387 0.141555 0.006642 -0.018416 -0.109614 -0.015905 0.028593 0.087040 -0.047589 0.253092 0.092343 0.212538 0.375961 0.439041 0.530457 0.433831 0.570033 0.646643 0.507545 0.390846 0.335915 0.323277 0.148730 0.140211 0.010139 0.092973 0.027299 -0.000480 -0.026576 -0.117271 -0.009123 0.022764 0.108995 0.296435 0.203346 0.356569 0.372604 0.427608 0.413395 0.391155 0.330019 0.229901 0.304529 0.167651 0.156249 0.004653 0.046202 0.064444 -0.024909 -0.007004 0.019074 0.060350 0.072596 0.216723 0.306969 0.243910 0.208729 0.377077 0.406860 0.352504 0.244239 0.174827 0.146526 0.082596 0.075263 0.027584 0.021545 0.134418 0.056163 0.185137 0.092355 0.141847 0.233995 0.215422 0.235239 0.199696 0.198648 0.116094 0.164579 0.123098 0.094918 0.110430 -0.000988 0.032867 0.089087 0.048979 0.146972 0.121499 0.210877 0.208181 0.141012 0.128545 0.232952 0.116419 0.071902 0.085050 0.062868 -0.001566 -0.028965 0.048051 0.070875 0.034059 0.116848 0.113085 0.125730 0.133719 0.178429 0.117838 0.082625 0.102912 0.085006 0.026927 0.014595 0.035002 0.001305 0.073117 0.104815 0.066818 0.071550 0.130716 0.093546 0.016817 0.113313 0.026148 0.028723 0.062692 0.019019 0.017333 0.061835 0.086796 0.026721 0.110465 0.057872 0.022725 0.111217 0.072488 0.090997 0.085910 0.020304 -0.010695 -0.002888 0.038032 0.002947 0.070901 0.093918 0.090644 0.058985 0.137789 -0.018665 0.031049 -0.094859 -0.018927 -0.035196 0.005024 0.018689 0.028576 0.075517 0.082917 0.103853 0.009715 -0.024039 -0.065003 -0.079320 0.070166 0.046755 0.047250 -0.018657 -0.002171 -0.032081 0.058179 0.015539 -0.067043 -0.020021 -0.079120 0.022968 -0.047614 0.023004 0.063070 -0.011913 -0.076638 -0.044037 0.095750 0.041746 0.000546 0.001128 -0.054583 0.082132 0.076198 0.175433 0.044081 0.013958 0.031014 0.042233 -0.049198 -0.040883 0.055894 0.011184 -0.025491 -0.041129 -0.037118 0.093558 -0.052614 0.065313 0.002021 0.128688 -0.007022 0.062266 -0.087423 -0.026176 -0.043340 0.110381 -0.035776 -0.238893 0.287071 0.277974 0.209911 0.409912 0.190133 0.292256 0.347626 -0.067120 -1.384562
0.072396 0.072834 0.074148 0.076338 0.079404 0.083344 0.088158 0.093845 0.100402 0.107829 0.116122 0.125279 0.135296 0.146168 0.157890 0.170455 0.183857 0.198085 0.213130 0.228981 0.245622 0.263039 0.281214 0.300126 0.319754 0.340072 0.361052 0.382662 0.404868 0.427633 0.450913 0.474665 0.498837 0.523375 0.548222 0.573315 0.598585 0.623959 0.649360 0.674705 0.699906 0.724870 0.749498 0.773687 0.797328 0.820308 0.842508 0.863804 0.884070 0.903175 0.920983 0.937355 0.952152 0.965231 0.976446 0.985654 0.992708 0.997466 0.999786 0.999529 0.996559 0.990749 0.981975 0.970122 0.955085 0.936770 0.915094 0.889989 0.861401 0.829294 0.793651 0.754474 0.711787 0.665637 0.616096 0.563262 0.507259 0.448239 0.386386 0.321911 0.255056 0.186095 0.115331 0.043097 0.030240 0.104288 0.178627 0.252808 0.326361 0.398792 0.469590 0.538226 0.604163 0.666852 0.725745 0.780294 0.829959 0.874212 0.912545 0.944476 0.969555 0.987371 0.997556 0.999798 0.993841 0.979497 0.956648 0.925254 0.885359 0.837092 0.780678 0.716432 0.644769 0.566200 0.481336 0.390881 0.295636 0.196488 0.094409 0.009553 0.114285 0.218615 0.321330 0.421185 0.516918 0.607271 0.691002 0.766906 0.833833 0.890709 0.936555 0.970505 0.991825 0.999933 0.994416 0.975042 0.941776 0.894788 0.834465 0.761412 0.676453 0.580633 0.475204 0.361624 0.241531 0.116732 0.010824 0.139073 0.265870 0.389017 0.506311 0.615576 0.714711 0.801730 0.874806 0.932316 0.972880 0.995402 0.999100 0.983543 0.948670 0.894809 0.822688 0.733438 0.628583 0.510026 0.380023 0.241149 0.096251 0.051606 0.199194 0.343199 0.480290 0.607197 0.720795 0.818186 0.896775 0.954352 0.989160 0.999955 0.986067 0.947427 0.884605 0.798813 0.691897 0.566315 0.425094 0.271762 0.110278 0.055068 0.219765 0.379199 0.528781 0.664091 0.781001 0.875823 0.945422 0.987341 0.999899 0.982267 0.934527 0.857704 0.753761 0.625575 0.476873 0.312134 0.136478 0.044493 0.224858 0.398580 0.559693 0.702526 0.821903 0.913346 0.973253 0.999060 0.989368 0.944032 0.864207 0.752348 0.612157 0.448488 0.267197 0.074946 0.121032 0.313195 0.493977 0.656101 0.792869 0.898456 0.968182 0.998728 0.988329 0.936884 0.846021 0.719074 0.560988 0.378163 0.178209 0.030353 0.238442 0.436804 0.616431 0.768977 0.887161 0.965133 0.998791 0.986024 0.926869 0.823569 0.680530 0.504169 0.302652 0.085547 0.136622 0.352864 0.552273 0.724581 0.860700 0.953226 0.996874 0.988806 0.928851 0.819588 0.666277 0.476650 0.260554 0.029469 0.204084 0.427213 0.627367 0.793052 0.914519 0.984361 0.998004 0.954047 0.854418 0.704361 0.512193 0.288895 0.047511 0.197585 0.431534 0.639901 0.809574 0.929613 0.991995 0.992188 0.929535 0.807382 0.632960 0.417024 0.173202 0.082787 0.334171 0.564185 0.757218 0.899892 0.982020 0.997386 0.944269 0.825661 0.649178 0.426624 0.173249 0.093242 0.353921 0.589972 0.784051 0.921601 0.991983 0.989351 0.913202 0.768531 0.565574 0.319155 0.047652 0.228347 0.487572 0.709727 0.877101 0.976019 0.998016 0.940629 0.807724 0.609322 0.360917 0.082323 0.203857 0.474050 0.705658 0.878971 0.978883 0.996284 0.928955 0.781907 0.567100 0.302544 0.010866 0.282608 0.552003 0.773216 0.926088 0.996304 0.976812 0.868607 0.680802 0.429966 0.138724 0.166212 0.456471 0.704660 0.886968 0.985520 0.990192 0.899751 0.722136 0.473886 0.178666 0.134903 0.435990 0.694584 0.884499
1.000000 1.000000 1.000000 1.000000 1.000000 1.000000 1.000000 1.000000 1.000000 1.000000 1.000000 1.000000 1.000000 1.000000 1.000000 1.000000 1.000000 1.000000 1.000000 1.000000 1.000000 1.000000 1.000000 1.000000 1.000000 1.000000 1.000000 1.000000 1.000000 1.000000 1.000000 1.000000 1.000000 1.000000 1.000000 1.000000 1.000000 1.000000 1.000000 1.000000 1.000000 1.000000 1.000000 1.000000 1.000000 1.000000 1.000000 1.000000 1.000000 1.000000 1.000000 1.000000 0.834448 0.834448 0.834448 0.834448 0.834448 0.834448 0.834448 0.816725 0.816725 0.816725 0.816725 0.816725 0.816725 0.816725 0.816725 0.816725 0.816725 0.816725 0.816725 0.816725 0.816725 0.816725 0.816725 0.816725 0.816725 0.816725 0.816725 0.816725 0.816725 0.816725 0.816725 0.816725 0.816725 0.816725 0.816725 0.816725 0.816725 0.816725 0.816725 0.816725 0.816725 0.816725 0.816725 0.816725 0.816725 0.816725 0.816725 0.816725 0.816725 0.816725 0.816725 0.954058 0.954656 0.951672 0.950545 0.948836 0.945564 0.941214 0.940788 0.942154 0.942351 0.942956 0.945038 0.946003 0.947615 0.948765 0.949571 0.950379 0.958532 0.962271 0.962006 0.961700 0.952397 0.959213 0.957271 0.955035 0.955834 0.956137 0.956850 0.956725 0.956557 0.956030 0.954728 0.955463 0.955304 0.954559 0.953502 0.951187 0.951144 0.950684 0.950813 0.951785 0.952490 0.953148 0.953678 0.953653 0.953841 0.953826 0.953725 0.948778 0.948806 0.942224 0.942867 0.943995 0.943639 0.942544 0.941086 0.941143 0.941015 0.940937 0.940755 0.940978 0.921762 0.921163 0.921191 0.921401 0.914026 0.902985 0.895423 0.889004 0.889943 0.894151 0.899145 0.899672 0.896684 0.895762 0.879717 0.876648 0.863192 0.860177 0.849085 0.859611 0.860785 0.862093 0.855395 0.854731 0.853320 0.851390 0.842537 0.846899 0.847420 0.843440 0.839684 0.837894 0.836122 0.838308 0.847026 0.844651 0.840278 0.842394 0.830618 0.821261 0.820188 0.822371 0.830291 0.842529 0.842172 0.841439 0.834779 0.831066 0.824690 0.818711 0.817266 0.818935 0.816920 0.820553 0.819319 0.827041 0.817093 0.812113 0.817226 0.827191 0.832478 0.835090 0.837778 0.835896 0.836111 0.820378 0.821130 0.819883 0.770100 0.771479 0.761015 0.760742 0.747616 0.746240 0.741910 0.739365 0.731694 0.715711 0.727362 0.726609 0.699586 0.707152 0.701917 0.689582 0.667169 0.673704 0.688056 0.697094 0.696554 0.697409 0.686462 0.685605 0.695705 0.695347 0.701242 0.693802 0.690682 0.683047 0.686350 0.676401 0.674263 0.672054 0.671202 0.671711 0.667792 0.657082 0.665343 0.659972 0.652022 0.642680 0.598549 0.561163 0.543746 0.536470 0.518725 0.496253 0.512260 0.520551 0.501112 0.491736 0.471755 0.434551 0.427884 0.426394 0.405350 0.391626 0.371268 0.333217 0.342210 0.343620 0.346325 0.331695 0.333067 0.318615 0.272991 0.263888 0.226824 0.244863 0.259958 0.251117 0.229075 0.225809 0.241692 0.237381 0.246760 0.245081 0.260901 0.215197 0.158587 0.170183 0.167363 0.176673 0.159629 0.132761 0.160513 0.151382 0.163692 0.167255 0.119792 0.089088 0.068703 0.048108 0.052981 0.077535 0.093221 0.085849 0.061549 -0.030407 0.003044 0.033321 0.033321 0.033321 0.033321 0.033321 0.033321 0.033321 0.033321 0.033321 0.033321 0.033321 -0.034752 -0.034752 -0.034752 -0.034752 -0.034752 -0.034752 -0.034752 -0.034752 -0.034752 -0.034752 -0.034752 -0.034752 -0.034752 -0.034752 -0.034752 -0.034752 -0.034752 -0.034752 -0.034752
0.000000 0.000000 0.000000 0.000000 0.000000 0.000000 0.000000 0.000000 0.000000 0.000000 0.000000 0.000000 0.000000 0.000000 0.000000 0.000000 0.000000 0.000000 0.000000 0.000000 0.000000 0.000000 0.000000 0.000000 0.000000 0.000000 0.000000 0.000000 0.000000 0.000000 0.000000 0.000000 0.000000 0.000000 0.000000 0.000000 0.000000 0.000000 0.000000 0.000000 0.000000 0.000000 0.000000 0.000000 0.000000 0.000000 0.000000 0.000000 0.000000 0.000000 0.000000 0.000000 0.173422 0.173422 0.173422 0.173422 0.173422 0.173422 0.173422 0.191565 0.191565 0.191565 0.191565 0.191565 0.191565 0.191565 0.191565 0.191565 0.191565 0.191565 0.191565 0.191565 0.191565 0.191565 0.191565 0.191565 0.191565 0.191565 0.191565 0.191565 0.191565 0.191565 0.191565 0.191565 0.191565 0.191565 0.191565 0.191565 0.191565 0.191565 0.191565 0.191565 0.191565 0.191565 0.191565 0.191565 0.191565 0.191565 0.191565 0.191565 0.191565 0.191565 0.191565 0.219529 0.219529 0.219529 0.219529 0.219529 0.219529 0.219529 0.219529 0.219529 0.219529 0.219529 0.219529 0.219529 0.219529 0.219529 0.219529 0.219529 0.219529 0.219529 0.219529 0.219529 0.219529 0.219529 0.219529 0.219529 0.219529 0.219529 0.219529 0.219529 0.219529 0.219529 0.237356 0.237356 0.237356 0.237356 0.237356 0.237356 0.237356 0.237356 0.237356 0.237356 0.237356 0.237356 0.237356 0.237356 0.237356 0.237356 0.237356 0.237356 0.237356 0.237356 0.237356 0.237356 0.237356 0.237356 0.244339 0.244339 0.244339 0.244339 0.244339 0.244339 0.244339 0.244339 0.244339 0.244339 0.244339 0.244339 0.244339 0.244339 0.244339 0.244339 0.244339 0.244339 0.244339 0.244339 0.244339 0.248069 0.248069 0.248069 0.248069 0.248069 0.248069 0.248069 0.248069 0.248069 0.248069 0.248069 0.248069 0.248069 0.248069 0.248069 0.248069 0.248069 0.248069 0.248069 0.248069 0.248069 0.248069 0.248069 0.248069 0.248069 0.248069 0.248069 0.248069 0.248069 0.248069 0.248069 0.248069 0.248069 0.248069 0.248069 0.248069 0.248069 0.256074 0.256074 0.256074 0.256074 0.256074 0.256074 0.256074 0.256074 0.256074 0.256074 0.256074 0.256074 0.256074 0.256074 0.256074 0.256074 0.256074 0.256074 0.256074 0.256074 0.256074 0.256074 0.256074 0.256074 0.256074 0.256074 0.256074 0.256074 0.256074 0.256074 0.256074 0.256074 0.256074 0.256074 0.256074 0.256074 0.256074 0.256074 0.256074 0.256074 0.256074 0.256074 0.256074 0.256074 0.256074 0.260378 0.260378 0.260378 0.260378 0.260378 0.260378 0.260378 0.260378 0.260378 0.260378 0.260378 0.260378 0.260378 0.256074 0.256074 0.256074 0.256074 0.256074 0.256074 0.256074 0.256074 0.256074 0.256074 0.256074 0.256074 0.256074 0.260378 0.260378 0.260378 0.260378 0.260378 0.260378 0.260378 0.260378 0.260378 0.260378 0.260378 0.260378 0.251976 0.251976 0.251976 0.251976 0.251976 0.251976 0.251976 0.251976 0.251976 0.251976 0.251976 0.251976 0.256074 0.256074 0.256074 0.256074 0.256074 0.256074 0.256074 0.256074 0.256074 0.256074 0.256074 0.251976 0.251976 0.251976 0.251976 0.251976 0.251976 0.251976 0.251976 0.251976 0.251976 0.251976 0.248069 0.248069 0.248069 0.248069 0.248069 0.248069 0.248069 0.248069 0.248069 0.248069 0.248069 0.256074 0.256074 0.256074 0.256074 0.256074 0.256074 0.256074 0.256074 0.256074 0.256074 0.256074 0.256074 0.256074 0.256074 0.256074 0.256074 0.256074 0.256074 0.256074
