# Output from CTFFind version 4.1.9, run on 2019-11-02 17:50:20
# Input file: stack11_bm3d_averaged_1_0.75_0_3000_half.mrc ; Number of micrographs: 1
# Pixel size: 3.000 Angstroms ; acceleration voltage: 300.0 keV ; spherical aberration: 0.00 mm ; amplitude contrast: 0.07
# Box size: 512 pixels ; min. res.: 30.0 Angstroms ; max. res.: 5.0 Angstroms ; min. def.: 5000.0 um; max. def. 50000.0 um; num. frames averaged: 1
# 6 lines per micrograph: #1 - spatial frequency (1/Angstroms); #2 - 1D rotational average of spectrum (assuming no astigmatism); #3 - 1D rotational average of spectrum; #4 - CTF fit; #5 - cross-correlation between spectrum and CTF fit; #6 - 2sigma of expected cross correlation of noise
0.000000 0.000651 0.001302 0.001953 0.002604 0.003255 0.003906 0.004557 0.005208 0.005859 0.006510 0.007161 0.007812 0.008464 0.009115 0.009766 0.010417 0.011068 0.011719 0.012370 0.013021 0.013672 0.014323 0.014974 0.015625 0.016276 0.016927 0.017578 0.018229 0.018880 0.019531 0.020182 0.020833 0.021484 0.022135 0.022786 0.023438 0.024089 0.024740 0.025391 0.026042 0.026693 0.027344 0.027995 0.028646 0.029297 0.029948 0.030599 0.031250 0.031901 0.032552 0.033203 0.033854 0.034505 0.035156 0.035807 0.036458 0.037109 0.037760 0.038411 0.039062 0.039714 0.040365 0.041016 0.041667 0.042318 0.042969 0.043620 0.044271 0.044922 0.045573 0.046224 0.046875 0.047526 0.048177 0.048828 0.049479 0.050130 0.050781 0.051432 0.052083 0.052734 0.053385 0.054036 0.054688 0.055339 0.055990 0.056641 0.057292 0.057943 0.058594 0.059245 0.059896 0.060547 0.061198 0.061849 0.062500 0.063151 0.063802 0.064453 0.065104 0.065755 0.066406 0.067057 0.067708 0.068359 0.069010 0.069661 0.070312 0.070964 0.071615 0.072266 0.072917 0.073568 0.074219 0.074870 0.075521 0.076172 0.076823 0.077474 0.078125 0.078776 0.079427 0.080078 0.080729 0.081380 0.082031 0.082682 0.083333 0.083984 0.084635 0.085286 0.085938 0.086589 0.087240 0.087891 0.088542 0.089193 0.089844 0.090495 0.091146 0.091797 0.092448 0.093099 0.093750 0.094401 0.095052 0.095703 0.096354 0.097005 0.097656 0.098307 0.098958 0.099609 0.100260 0.100911 0.101562 0.102214 0.102865 0.103516 0.104167 0.104818 0.105469 0.106120 0.106771 0.107422 0.108073 0.108724 0.109375 0.110026 0.110677 0.111328 0.111979 0.112630 0.113281 0.113932 0.114583 0.115234 0.115885 0.116536 0.117188 0.117839 0.118490 0.119141 0.119792 0.120443 0.121094 0.121745 0.122396 0.123047 0.123698 0.124349 0.125000 0.125651 0.126302 0.126953 0.127604 0.128255 0.128906 0.129557 0.130208 0.130859 0.131510 0.132161 0.132812 0.133464 0.134115 0.134766 0.135417 0.136068 0.136719 0.137370 0.138021 0.138672 0.139323 0.139974 0.140625 0.141276 0.141927 0.142578 0.143229 0.143880 0.144531 0.145182 0.145833 0.146484 0.147135 0.147786 0.148438 0.149089 0.149740 0.150391 0.151042 0.151693 0.152344 0.152995 0.153646 0.154297 0.154948 0.155599 0.156250 0.156901 0.157552 0.158203 0.158854 0.159505 0.160156 0.160807 0.161458 0.162109 0.162760 0.163411 0.164062 0.164714 0.165365 0.166016 0.166667 0.167318 0.167969 0.168620 0.169271 0.169922 0.170573 0.171224 0.171875 0.172526 0.173177 0.173828 0.174479 0.175130 0.175781 0.176432 0.177083 0.177734 0.178385 0.179036 0.179688 0.180339 0.180990 0.181641 0.182292 0.182943 0.183594 0.184245 0.184896 0.185547 0.186198 0.186849 0.187500 0.188151 0.188802 0.189453 0.190104 0.190755 0.191406 0.192057 0.192708 0.193359 0.194010 0.194661 0.195312 0.195964 0.196615 0.197266 0.197917 0.198568 0.199219 0.199870 0.200521 0.201172 0.201823 0.202474 0.203125 0.203776 0.204427 0.205078 0.205729 0.206380 0.207031 0.207682 0.208333 0.208984 0.209635 0.210286 0.210938 0.211589 0.212240 0.212891 0.213542 0.214193 0.214844 0.215495 0.216146 0.216797 0.217448 0.218099 0.218750 0.219401 0.220052 0.220703 0.221354 0.222005 0.222656 0.223307 0.223958 0.224609 0.225260 0.225911 0.226562 0.227214 0.227865 0.228516 0.229167 0.229818 0.230469 0.231120 0.231771 0.232422 0.233073 0.233724 0.234375 0.235026 0.235677
       0.31567        0.31567        0.31567        0.31567        0.31567        0.31567        0.31567        0.31567        0.31567        0.31567        0.31567        0.31567        0.31567        0.31567        0.31567        0.31567        0.31567        0.31567        0.31567        0.31567        0.31567        0.31567        0.31567        0.31567        0.31567        0.31567        0.31567        0.31567        0.31567        0.31567        0.31567        0.31567        0.31567        0.31567        0.31567        0.31567        0.31567        0.31567        0.31567        0.31567        0.31567        0.31567        0.31567        0.31567        0.31567        0.31567        0.31567        0.31567        0.31567        0.31567        0.31567        0.68406        0.87273        0.52065        0.08405       -0.07037       -0.42921       -0.20876       -0.29786       -0.11916       -0.08035       -0.11959       -0.07189       -0.21228       -0.24095       -0.26248       -0.33239       -0.33915       -0.49635       -0.38707       -0.47035       -0.45405       -0.42403       -0.47368       -0.55285       -0.56788       -0.59110       -0.63079       -0.58207       -0.41906       -0.38007       -0.33211       -0.31944       -0.21530       -0.20088        0.01916        0.06470        0.09914        0.22046        0.37053        0.44128        0.51620        0.55799        0.55224        0.57220        0.69828        0.81471        0.74808        0.73378        0.67525        0.58160        0.48657        0.40515        0.49077        0.36890        0.19719        0.07618        0.04219        0.00311       -0.06101       -0.04373       -0.03031       -0.07678       -0.00693       -0.02435        0.20806        0.24670        0.29216        0.42861        0.46654        0.40309        0.52939        0.63158        0.70452        0.76867        0.69001        0.66329        0.70169        0.58892        0.50716        0.41802        0.28914        0.18362        0.15712        0.10845        0.03416        0.01078       -0.00262        0.07470        0.13238        0.20135        0.28318        0.40389        0.41468        0.50982        0.60107        0.63745        0.61042        0.63082        0.55172        0.44416        0.43912        0.35004        0.22790        0.18469        0.14860        0.10044        0.11695        0.06174        0.09769        0.21612        0.26199        0.33775        0.34279        0.45249        0.51057        0.53603        0.55114        0.46712        0.42474        0.39287        0.37869        0.30796        0.24959        0.20022        0.18180        0.16052        0.19109        0.17619        0.26683        0.33246        0.36196        0.41864        0.46219        0.47729        0.44503        0.39183        0.41022        0.37637        0.29243        0.27537        0.22913        0.21080        0.19190        0.20902        0.22907        0.32708        0.37063        0.36474        0.45574        0.43679        0.43957        0.42931        0.39384        0.34106        0.32913        0.27877        0.23215        0.23264        0.26591        0.26905        0.29745        0.29498        0.33933        0.32856        0.40992        0.41539        0.37205        0.34127        0.36150        0.28035        0.27866        0.26246        0.27532        0.25730        0.28051        0.29499        0.31700        0.35280        0.35636        0.35820        0.33105        0.34983        0.28758        0.32437        0.26579        0.24835        0.27945        0.28064        0.30529        0.31539        0.33075        0.32178        0.31030        0.31761        0.28614        0.28290        0.25813        0.28205        0.27195        0.31131        0.28174        0.25807        0.30678        0.31070        0.31342        0.29173        0.29727        0.29442        0.24229        0.23778        0.21922        0.27426        0.26886        0.30239        0.31647        0.32080        0.31174        0.29944        0.27546        0.28117        0.33148        0.27432        0.26889        0.29254        0.29681        0.34168        0.34014        0.36214        0.33032        0.31106        0.28059        0.26262        0.26141        0.22371        0.26293        0.29855        0.29649        0.27595        0.29373        0.26935        0.32176        0.33531        0.24876        0.21442        0.26426        0.33666        0.27975        0.31425        0.32677        0.32853        0.29598        0.31806        0.34424        0.29539        0.29509        0.26186        0.27208        0.34738        0.35021        0.25545        0.26930        0.25307        0.27229        0.22888        0.29020        0.22124        0.25129        0.32447        0.31618        0.34337        0.30012        0.23391        0.23626        0.24423        0.24364        0.17670        0.21331        0.25730        0.28618        0.28186        0.29981        0.28632        0.27973        0.28522        0.20970        0.18285        0.18260        0.23350        0.20039        0.22653        0.23212        0.21031        0.25217        0.32828        0.28750        0.30299        0.21596        0.26755        0.23368        0.27957        0.30186        0.14904        0.20889        0.22514        0.14190        0.23940        0.11538        0.18194        0.19674        0.14350       -0.12817       -0.66407
2.577784 2.550922 2.524206 2.497635 2.471209 2.444930 2.418795 2.392806 2.366962 2.341264 2.315712 2.290304 2.265043 2.239926 2.214955 2.190130 2.165450 2.140915 2.116526 2.092282 2.068184 2.044231 2.020424 1.996762 1.973246 1.949875 1.926649 1.903569 1.880634 1.857845 1.835202 1.812703 1.790350 1.768143 1.746081 1.724164 1.702393 1.680768 1.659288 1.637953 1.616764 1.595720 1.574821 1.554068 1.533461 1.512999 1.492682 1.472511 1.452486 1.432605 1.412871 1.635747 2.041670 1.612426 1.124873 0.983080 0.418984 0.810480 0.560397 0.834118 0.769670 0.785558 0.749818 0.708670 0.557378 0.508448 0.484752 0.445662 0.200994 0.377391 0.201871 0.303013 0.236477 0.179063 0.126813 0.000168 0.042277 -0.016980 -0.054988 0.102953 0.206237 0.197314 0.152088 0.331327 0.198103 0.500328 0.571069 0.544549 0.588030 0.878283 0.807204 0.946918 0.889045 0.972705 0.940136 1.081748 1.142442 1.083870 1.125313 0.958799 0.943502 0.787119 0.652088 0.768139 0.701597 0.458659 0.307607 0.253880 0.208167 0.150124 0.088975 0.124939 0.064635 0.158783 0.049324 0.261910 0.377111 0.363767 0.478135 0.586533 0.471714 0.539683 0.700780 0.754236 0.781422 0.736395 0.738076 0.722616 0.629468 0.575843 0.432599 0.287110 0.208241 0.078855 0.135801 -0.041916 -0.027529 -0.081207 -0.035270 0.010316 0.143343 0.094444 0.307538 0.278448 0.368030 0.452814 0.527761 0.512623 0.518464 0.506032 0.334520 0.306145 0.276284 0.103060 0.047934 0.003472 -0.037821 -0.042569 -0.093382 -0.100060 -0.019789 0.053829 0.139404 0.133088 0.227941 0.334696 0.304857 0.413864 0.398967 0.282561 0.233391 0.255659 0.215480 0.100597 0.074051 0.019133 0.002517 0.009077 -0.016531 0.059108 0.148737 0.143991 0.224328 0.251530 0.307821 0.260809 0.219691 0.187853 0.209146 0.156143 0.047489 0.053793 -0.009555 -0.010837 -0.030965 0.014225 0.017416 0.171672 0.121398 0.187375 0.233087 0.203387 0.195432 0.198544 0.133792 0.106820 0.067426 0.045819 -0.042688 0.006831 0.020364 0.053531 0.045369 0.075878 0.100226 0.116665 0.142676 0.182078 0.074125 0.094460 0.068629 -0.000022 0.002741 0.009415 -0.013439 0.015088 0.004852 0.033746 0.071912 0.090055 0.095438 0.050852 0.092638 0.054248 0.013950 0.061389 -0.037771 -0.016046 0.016448 0.000446 0.047000 0.057360 0.042800 0.054179 0.043444 0.045407 0.015062 -0.005429 -0.000360 0.018014 -0.013170 0.066609 -0.018683 0.002920 0.051341 0.042126 0.032761 0.044813 0.038289 0.017813 -0.026779 -0.045067 -0.019877 0.013879 0.015828 0.053287 0.061674 0.052410 0.085296 0.059587 0.024760 0.063446 0.089099 0.023859 0.028999 0.058794 0.060468 0.105423 0.115083 0.121451 0.113115 0.066227 0.049989 0.035026 0.010616 -0.002020 0.048143 0.081944 0.052521 0.035396 0.029382 0.033703 0.088116 0.076257 -0.045836 -0.052084 0.032390 0.096031 0.018651 0.037853 0.067668 0.089969 0.020157 0.058324 0.090577 0.032767 0.042889 -0.024823 0.007412 0.108164 0.068598 -0.061362 -0.016134 -0.052360 0.000799 -0.099053 0.031488 -0.114496 -0.036446 0.041046 0.020552 0.029402 -0.046824 -0.071526 -0.099248 -0.079341 -0.069859 -0.140976 -0.104311 -0.042766 -0.002423 -0.031694 0.025899 -0.029494 -0.044108 0.050928 -0.116337 -0.094815 -0.106695 -0.009118 -0.063917 -0.022769 -0.016817 0.008780 0.014304 0.162171 -0.017533 0.134633 -0.013922 0.274964 0.244671 0.320106 0.276633 0.116710 0.211804 0.270313 0.065934 0.263958 0.120911 0.171917 0.245249 0.146320 -0.684812
0.072396 0.072898 0.074405 0.076916 0.080431 0.084949 0.090468 0.096986 0.104503 0.113014 0.122517 0.133007 0.144479 0.156927 0.170343 0.184717 0.200038 0.216295 0.233471 0.251550 0.270512 0.290333 0.310988 0.332447 0.354677 0.377642 0.401299 0.425604 0.450505 0.475946 0.501867 0.528200 0.554872 0.581806 0.608916 0.636110 0.663289 0.690350 0.717180 0.743661 0.769667 0.795065 0.819719 0.843481 0.866201 0.887723 0.907884 0.926518 0.943453 0.958517 0.971532 0.982322 0.990707 0.996512 0.999560 0.999681 0.996709 0.990485 0.980857 0.967686 0.950844 0.930218 0.905712 0.877248 0.844769 0.808242 0.767659 0.723041 0.674435 0.621924 0.565623 0.505682 0.442288 0.375668 0.306086 0.233848 0.159299 0.082825 0.004853 0.074154 0.153693 0.233226 0.312184 0.389966 0.465949 0.539485 0.609914 0.676563 0.738758 0.795828 0.847114 0.891974 0.929798 0.960011 0.982085 0.995550 0.999998 0.995101 0.980611 0.956376 0.922344 0.878574 0.825239 0.762633 0.691177 0.611418 0.524032 0.429824 0.329724 0.224779 0.116152 0.005105 0.107006 0.218753 0.328644 0.435151 0.536725 0.631824 0.718933 0.796590 0.863419 0.918152 0.959657 0.986968 0.999308 0.996113 0.977058 0.942071 0.891352 0.825382 0.744929 0.651055 0.545101 0.428687 0.303688 0.172214 0.036576 0.100745 0.237142 0.369933 0.496410 0.613897 0.719807 0.811707 0.887375 0.944864 0.982557 0.999221 0.994054 0.966727 0.917407 0.846785 0.756079 0.647031 0.521886 0.383357 0.234584 0.079062 0.079426 0.236897 0.389270 0.532469 0.662535 0.775740 0.868707 0.938510 0.982790 0.999837 0.988673 0.949114 0.881802 0.788226 0.670709 0.532372 0.377069 0.209293 0.034060 0.143232 0.316963 0.481472 0.631238 0.761076 0.866327 0.943035 0.988117 0.999503 0.976247 0.918605 0.828073 0.707378 0.560421 0.392180 0.208554 0.016185 0.177780 0.365951 0.540967 0.695795 0.824022 0.920136 0.979786 1.000000 0.979358 0.918107 0.818208 0.683312 0.518660 0.330913 0.127899 0.081684 0.288644 0.483678 0.657805 0.802788 0.911543 0.978507 0.999956 0.974243 0.901941 0.785896 0.631151 0.444774 0.235563 0.013669 0.209896 0.423779 0.616873 0.778908 0.901009 0.976216 0.999920 0.970177 0.887903 0.756904 0.583760 0.377537 0.149349 0.088207 0.321736 0.537785 0.723641 0.868082 0.962098 0.999490 0.977326 0.896209 0.760349 0.577404 0.358100 0.115653 0.135002 0.378106 0.598071 0.780485 0.913089 0.986642 0.995610 0.938646 0.818787 0.643378 0.423677 0.174199 0.088206 0.345474 0.579548 0.773669 0.913602 0.988728 0.992908 0.925047 0.789309 0.594950 0.355750 0.089100 0.185208 0.446451 0.674517 0.851499 0.963121 0.999967 0.958340 0.840703 0.655631 0.417279 0.144367 0.141236 0.416234 0.657805 0.845502 0.963053 0.999821 0.951853 0.822386 0.621730 0.366550 0.078560 0.217277 0.494875 0.729352 0.899253 0.988615 0.988522 0.898101 0.724780 0.483802 0.196965 0.109256 0.406135 0.665356 0.861761 0.975832 0.995727 0.918606 0.751115 0.508940 0.215448 0.100490 0.407283 0.673774 0.872422 0.982227 0.991032 0.896990 0.708981 0.445902 0.134892 0.191392 0.498157 0.752182 0.925471 0.998398 0.962068 0.819510 0.585601 0.285642 0.047254 0.375770 0.662532 0.874385 0.986311 0.984493 0.868152 0.649909 0.354572 0.016439 0.324595 0.627714 0.856087 0.981414 0.987552 0.872739 0.650102 0.346317 0.001437 0.349959 0.655334 0.878506 0.990361 0.975644 0.835210 0.586213 0.260204 0.100739
1.000000 1.000000 1.000000 1.000000 1.000000 1.000000 1.000000 1.000000 1.000000 1.000000 1.000000 1.000000 1.000000 1.000000 1.000000 1.000000 1.000000 1.000000 1.000000 1.000000 1.000000 1.000000 1.000000 1.000000 1.000000 1.000000 1.000000 1.000000 1.000000 1.000000 1.000000 1.000000 1.000000 1.000000 1.000000 1.000000 1.000000 1.000000 1.000000 1.000000 1.000000 1.000000 1.000000 1.000000 1.000000 1.000000 1.000000 1.000000 1.000000 1.000000 1.000000 1.000000 0.931900 0.931900 0.931900 0.923828 0.923828 0.923828 0.923828 0.923828 0.923828 0.923828 0.923828 0.923828 0.923828 0.923828 0.923828 0.923828 0.923828 0.923828 0.923828 0.923828 0.923828 0.923828 0.923828 0.923828 0.923828 0.923828 0.923828 0.923828 0.923828 0.923828 0.923828 0.923828 0.923828 0.923828 0.923828 0.923828 0.923828 0.923828 0.923828 0.923828 0.923828 0.923828 0.923828 0.923828 0.949834 0.951061 0.958911 0.958734 0.958220 0.956081 0.955181 0.954033 0.953588 0.953858 0.954464 0.955299 0.967067 0.968084 0.969629 0.970424 0.971121 0.971761 0.971597 0.972377 0.971602 0.971040 0.970515 0.966496 0.967159 0.967737 0.967874 0.967615 0.967172 0.971062 0.971219 0.970623 0.969765 0.967514 0.966543 0.966120 0.965832 0.965935 0.966396 0.967702 0.970889 0.970284 0.970003 0.970160 0.970258 0.970428 0.970845 0.971670 0.967639 0.966107 0.964315 0.962042 0.966232 0.963295 0.963097 0.964467 0.964867 0.965289 0.964021 0.959710 0.953770 0.952886 0.950631 0.941575 0.940657 0.941320 0.943830 0.944430 0.942932 0.935896 0.936417 0.929149 0.930956 0.934278 0.928090 0.928460 0.929646 0.929559 0.928920 0.928388 0.925533 0.923178 0.921736 0.921235 0.924215 0.923815 0.924964 0.924973 0.919519 0.911617 0.900621 0.898240 0.894648 0.897662 0.886346 0.889270 0.888100 0.884113 0.887405 0.886405 0.887359 0.884130 0.869357 0.854302 0.848854 0.853207 0.857855 0.857343 0.853831 0.846916 0.858120 0.830722 0.842661 0.851867 0.847683 0.847902 0.846112 0.844631 0.839424 0.841138 0.842887 0.843946 0.840952 0.838729 0.839080 0.816441 0.816485 0.757960 0.740188 0.729868 0.734679 0.742574 0.744442 0.743166 0.750959 0.755666 0.749738 0.734888 0.728643 0.725364 0.729703 0.723852 0.726537 0.706290 0.674441 0.669991 0.642942 0.661124 0.669884 0.634016 0.659257 0.670335 0.670658 0.669461 0.663292 0.661228 0.656040 0.657669 0.662077 0.673407 0.690887 0.713536 0.707361 0.697863 0.691970 0.673840 0.664304 0.660416 0.681195 0.657676 0.654389 0.674138 0.672875 0.654428 0.629723 0.619352 0.614561 0.609935 0.620232 0.604596 0.598780 0.592322 0.572336 0.567147 0.599652 0.614678 0.637256 0.607219 0.596856 0.585046 0.568146 0.578474 0.516704 0.517211 0.538099 0.546058 0.525052 0.512174 0.522661 0.524624 0.522929 0.513462 0.505806 0.495182 0.512113 0.550008 0.535680 0.517081 0.518729 0.518173 0.509921 0.418297 0.412804 0.389218 0.355682 0.299138 0.283992 0.275718 0.258758 0.241330 0.203869 0.200772 0.210624 0.211637 0.227520 0.229821 0.210912 0.223235 0.220428 0.206703 0.143877 0.133901 0.126586 0.115837 0.113039 0.087640 0.115037 0.188482 0.190677 0.190677 0.190677 0.190677 0.190677 0.190677 0.197055 0.197055 0.197055 0.197055 0.197055 0.197055 0.197055 0.197055 0.197055 0.209587 0.209587 0.209587 0.209587 0.209587 0.209587 0.209587 0.209587 0.209587 0.209587 0.209587 0.209587 0.209587 0.209587
0.000000 0.000000 0.000000 0.000000 0.000000 0.000000 0.000000 0.000000 0.000000 0.000000 0.000000 0.000000 0.000000 0.000000 0.000000 0.000000 0.000000 0.000000 0.000000 0.000000 0.000000 0.000000 0.000000 0.000000 0.000000 7.000000 4.000000 0.000000 0.000000 0.000000 0.000000 0.000000 0.000000 0.000000 0.000000 0.000000 0.000000 0.000000 0.000000 0.000000 0.000000 0.000000 0.000000 0.000000 0.000000 0.000000 0.000000 0.000000 0.000000 0.000000 0.000000 0.000000 0.180334 0.180334 0.180334 0.199007 0.199007 0.199007 0.199007 0.199007 0.199007 0.199007 0.199007 0.199007 0.199007 0.199007 0.199007 0.199007 0.199007 0.199007 0.199007 0.199007 0.199007 0.199007 0.199007 0.199007 0.199007 0.199007 0.199007 0.199007 0.199007 0.199007 0.199007 0.199007 0.199007 0.199007 0.199007 0.199007 0.199007 0.199007 0.199007 0.199007 0.199007 0.199007 0.199007 0.199007 0.225018 0.225018 0.225018 0.225018 0.225018 0.225018 0.225018 0.225018 0.225018 0.225018 0.225018 0.225018 0.225018 0.225018 0.225018 0.225018 0.225018 0.225018 0.225018 0.225018 0.225018 0.225018 0.225018 0.225018 0.225018 0.225018 0.225018 0.225018 0.225018 0.244339 0.244339 0.244339 0.244339 0.244339 0.244339 0.244339 0.244339 0.244339 0.244339 0.244339 0.244339 0.244339 0.244339 0.244339 0.244339 0.244339 0.244339 0.244339 0.244339 0.244339 0.244339 0.244339 0.251976 0.251976 0.251976 0.251976 0.251976 0.251976 0.251976 0.251976 0.251976 0.251976 0.251976 0.251976 0.251976 0.251976 0.251976 0.251976 0.251976 0.251976 0.251976 0.251976 0.264906 0.264906 0.264906 0.264906 0.264906 0.264906 0.264906 0.264906 0.264906 0.264906 0.264906 0.264906 0.264906 0.264906 0.264906 0.264906 0.264906 0.264906 0.264906 0.264906 0.264906 0.264906 0.264906 0.264906 0.264906 0.264906 0.264906 0.264906 0.264906 0.264906 0.264906 0.264906 0.264906 0.264906 0.264906 0.264906 0.264906 0.264906 0.264906 0.264906 0.264906 0.264906 0.264906 0.264906 0.264906 0.264906 0.264906 0.264906 0.264906 0.264906 0.264906 0.264906 0.264906 0.264906 0.264906 0.264906 0.264906 0.264906 0.264906 0.264906 0.264906 0.264906 0.256074 0.256074 0.256074 0.256074 0.256074 0.256074 0.256074 0.256074 0.256074 0.256074 0.256074 0.256074 0.256074 0.256074 0.269680 0.269680 0.269680 0.269680 0.269680 0.269680 0.269680 0.269680 0.269680 0.269680 0.269680 0.269680 0.264906 0.264906 0.264906 0.264906 0.264906 0.264906 0.264906 0.264906 0.264906 0.264906 0.264906 0.264906 0.269680 0.269680 0.269680 0.269680 0.269680 0.269680 0.269680 0.269680 0.269680 0.269680 0.269680 0.264906 0.264906 0.264906 0.264906 0.264906 0.264906 0.264906 0.264906 0.264906 0.264906 0.264906 0.256074 0.256074 0.256074 0.256074 0.256074 0.256074 0.256074 0.256074 0.256074 0.256074 0.256074 0.264906 0.264906 0.264906 0.264906 0.264906 0.264906 0.264906 0.264906 0.264906 0.264906 0.260378 0.260378 0.260378 0.260378 0.260378 0.260378 0.260378 0.260378 0.260378 0.260378 0.256074 0.256074 0.256074 0.256074 0.256074 0.256074 0.256074 0.256074 0.256074 0.256074 0.260378 0.260378 0.260378 0.260378 0.260378 0.260378 0.260378 0.260378 0.260378 0.256074 0.256074 0.256074 0.256074 0.256074 0.256074 0.256074 0.256074 0.256074 0.251976 0.251976 0.251976 0.251976 0.251976 0.251976 0.251976 0.251976 0.251976 0.251976 0.251976 0.251976 0.251976 0.251976
