# Output from CTFFind version 4.1.9, run on 2019-11-03 19:47:30
# Input file: stack16_bm3d_averaged_1_5.25_0_1250_half.mrc ; Number of micrographs: 1
# Pixel size: 3.000 Angstroms ; acceleration voltage: 300.0 keV ; spherical aberration: 0.00 mm ; amplitude contrast: 0.07
# Box size: 512 pixels ; min. res.: 30.0 Angstroms ; max. res.: 5.0 Angstroms ; min. def.: 5000.0 um; max. def. 50000.0 um; num. frames averaged: 1
# 6 lines per micrograph: #1 - spatial frequency (1/Angstroms); #2 - 1D rotational average of spectrum (assuming no astigmatism); #3 - 1D rotational average of spectrum; #4 - CTF fit; #5 - cross-correlation between spectrum and CTF fit; #6 - 2sigma of expected cross correlation of noise
0.000000 0.000651 0.001302 0.001953 0.002604 0.003255 0.003906 0.004557 0.005208 0.005859 0.006510 0.007161 0.007812 0.008464 0.009115 0.009766 0.010417 0.011068 0.011719 0.012370 0.013021 0.013672 0.014323 0.014974 0.015625 0.016276 0.016927 0.017578 0.018229 0.018880 0.019531 0.020182 0.020833 0.021484 0.022135 0.022786 0.023438 0.024089 0.024740 0.025391 0.026042 0.026693 0.027344 0.027995 0.028646 0.029297 0.029948 0.030599 0.031250 0.031901 0.032552 0.033203 0.033854 0.034505 0.035156 0.035807 0.036458 0.037109 0.037760 0.038411 0.039062 0.039714 0.040365 0.041016 0.041667 0.042318 0.042969 0.043620 0.044271 0.044922 0.045573 0.046224 0.046875 0.047526 0.048177 0.048828 0.049479 0.050130 0.050781 0.051432 0.052083 0.052734 0.053385 0.054036 0.054688 0.055339 0.055990 0.056641 0.057292 0.057943 0.058594 0.059245 0.059896 0.060547 0.061198 0.061849 0.062500 0.063151 0.063802 0.064453 0.065104 0.065755 0.066406 0.067057 0.067708 0.068359 0.069010 0.069661 0.070312 0.070964 0.071615 0.072266 0.072917 0.073568 0.074219 0.074870 0.075521 0.076172 0.076823 0.077474 0.078125 0.078776 0.079427 0.080078 0.080729 0.081380 0.082031 0.082682 0.083333 0.083984 0.084635 0.085286 0.085938 0.086589 0.087240 0.087891 0.088542 0.089193 0.089844 0.090495 0.091146 0.091797 0.092448 0.093099 0.093750 0.094401 0.095052 0.095703 0.096354 0.097005 0.097656 0.098307 0.098958 0.099609 0.100260 0.100911 0.101562 0.102214 0.102865 0.103516 0.104167 0.104818 0.105469 0.106120 0.106771 0.107422 0.108073 0.108724 0.109375 0.110026 0.110677 0.111328 0.111979 0.112630 0.113281 0.113932 0.114583 0.115234 0.115885 0.116536 0.117188 0.117839 0.118490 0.119141 0.119792 0.120443 0.121094 0.121745 0.122396 0.123047 0.123698 0.124349 0.125000 0.125651 0.126302 0.126953 0.127604 0.128255 0.128906 0.129557 0.130208 0.130859 0.131510 0.132161 0.132812 0.133464 0.134115 0.134766 0.135417 0.136068 0.136719 0.137370 0.138021 0.138672 0.139323 0.139974 0.140625 0.141276 0.141927 0.142578 0.143229 0.143880 0.144531 0.145182 0.145833 0.146484 0.147135 0.147786 0.148438 0.149089 0.149740 0.150391 0.151042 0.151693 0.152344 0.152995 0.153646 0.154297 0.154948 0.155599 0.156250 0.156901 0.157552 0.158203 0.158854 0.159505 0.160156 0.160807 0.161458 0.162109 0.162760 0.163411 0.164062 0.164714 0.165365 0.166016 0.166667 0.167318 0.167969 0.168620 0.169271 0.169922 0.170573 0.171224 0.171875 0.172526 0.173177 0.173828 0.174479 0.175130 0.175781 0.176432 0.177083 0.177734 0.178385 0.179036 0.179688 0.180339 0.180990 0.181641 0.182292 0.182943 0.183594 0.184245 0.184896 0.185547 0.186198 0.186849 0.187500 0.188151 0.188802 0.189453 0.190104 0.190755 0.191406 0.192057 0.192708 0.193359 0.194010 0.194661 0.195312 0.195964 0.196615 0.197266 0.197917 0.198568 0.199219 0.199870 0.200521 0.201172 0.201823 0.202474 0.203125 0.203776 0.204427 0.205078 0.205729 0.206380 0.207031 0.207682 0.208333 0.208984 0.209635 0.210286 0.210938 0.211589 0.212240 0.212891 0.213542 0.214193 0.214844 0.215495 0.216146 0.216797 0.217448 0.218099 0.218750 0.219401 0.220052 0.220703 0.221354 0.222005 0.222656 0.223307 0.223958 0.224609 0.225260 0.225911 0.226562 0.227214 0.227865 0.228516 0.229167 0.229818 0.230469 0.231120 0.231771 0.232422 0.233073 0.233724 0.234375 0.235026 0.235677
       0.33736        0.33736        0.33736        0.33736        0.33736        0.33736        0.33736        0.33736        0.33736        0.33736        0.33736        0.33736        0.33736        0.33736        0.33736        0.33736        0.33736        0.33736        0.33736        0.33736        0.33736        0.33736        0.33736        0.33736        0.33736        0.33736        0.33736        0.33736        0.33736        0.33736        0.33736        0.33736        0.33736        0.33736        0.33736        0.33736        0.33736        0.33736        0.33736        0.33736        0.33736        0.33736        0.33736        0.33736        0.33736        0.33736        0.33736        0.33736        0.33736        0.33736        0.33736        0.42012        0.55661        0.34280       -0.20861       -0.45791       -0.55486       -0.65296       -0.72435       -0.73712       -0.83645       -0.90341       -0.69868       -0.85689       -0.83524       -0.98347       -1.01950       -0.90148       -0.86040       -0.81155       -0.73231       -0.66158       -0.57382       -0.47877       -0.41126       -0.18305       -0.07921        0.01745        0.24313        0.24727        0.30421        0.36689        0.39395        0.50526        0.53347        0.56962        0.52976        0.46913        0.50524        0.51217        0.43357        0.32324        0.20090        0.17046        0.10290       -0.01019       -0.02567       -0.03372        0.04084        0.00457        0.06025        0.03530        0.15021        0.18732        0.40027        0.45479        0.54772        0.65479        0.68835        0.71220        0.63253        0.61021        0.52990        0.43344        0.38036        0.26374        0.20694        0.19881        0.08818        0.09186        0.08043        0.07179        0.08642        0.29850        0.40717        0.51149        0.53159        0.57151        0.60783        0.58597        0.57535        0.58057        0.56115        0.46091        0.29347        0.25357        0.23673        0.13230        0.07852        0.14990        0.18184        0.27180        0.34660        0.41585        0.46726        0.52662        0.59798        0.54403        0.50534        0.49055        0.35011        0.25477        0.24398        0.16552        0.16990        0.21311        0.25826        0.27105        0.31131        0.41683        0.44776        0.49736        0.45032        0.44156        0.47565        0.38059        0.32161        0.27701        0.24535        0.21986        0.22151        0.23130        0.32771        0.43180        0.42182        0.48602        0.54877        0.43871        0.40737        0.35124        0.30019        0.25393        0.26731        0.26383        0.28086        0.32779        0.33966        0.42197        0.46696        0.43184        0.44912        0.36094        0.37117        0.35041        0.25598        0.23667        0.23511        0.30962        0.36803        0.36285        0.38527        0.42910        0.43163        0.36421        0.33327        0.31261        0.34152        0.29992        0.26907        0.27151        0.34024        0.36104        0.37536        0.38619        0.37784        0.40662        0.38928        0.30520        0.27949        0.30938        0.33757        0.36105        0.35402        0.40015        0.33500        0.36675        0.38623        0.32609        0.34663        0.30831        0.29047        0.33257        0.33019        0.31863        0.33789        0.35903        0.31901        0.33845        0.30777        0.30662        0.28164        0.30844        0.30199        0.32353        0.36052        0.35920        0.34106        0.29787        0.28494        0.27882        0.32036        0.29766        0.30671        0.35967        0.35578        0.33355        0.30446        0.29904        0.30587        0.26738        0.29603        0.30821        0.32128        0.35931        0.33501        0.29123        0.32492        0.32215        0.31302        0.35098        0.33743        0.30343        0.32779        0.28610        0.31735        0.28414        0.30308        0.28679        0.31407        0.35721        0.32742        0.34706        0.29996        0.31289        0.33462        0.32712        0.30077        0.29909        0.33471        0.32249        0.31799        0.31086        0.30876        0.29773        0.30280        0.31534        0.31731        0.33671        0.33517        0.33170        0.28524        0.27304        0.26335        0.26278        0.35497        0.30529        0.35109        0.29064        0.25704        0.27895        0.35449        0.29993        0.27755        0.28516        0.30846        0.28716        0.26723        0.30668        0.26772        0.26932        0.29735        0.31447        0.32916        0.31949        0.29443        0.26384        0.25860        0.25343        0.26138        0.28557        0.34999        0.28039        0.19715        0.29484        0.26974        0.30790        0.23284        0.30096        0.30502        0.32331        0.28256        0.26759        0.26629        0.23218        0.28740        0.33903        0.35245        0.23667        0.27209        0.21389        0.21657        0.20273        0.33319        0.24353        0.20780        0.13459        0.22819        0.28865        0.20850        0.17314        0.06376       -0.56736       -0.73366
3.123449 3.084127 3.045060 3.006246 2.967687 2.929382 2.891331 2.853535 2.815992 2.778704 2.741671 2.704891 2.668365 2.632094 2.596077 2.560314 2.524805 2.489551 2.454551 2.419804 2.385313 2.351075 2.317092 2.283362 2.249887 2.216667 2.183700 2.150988 2.118529 2.086325 2.054376 2.022680 1.991239 1.960052 1.929119 1.898440 1.868016 1.837845 1.807929 1.778267 1.748860 1.719706 1.690807 1.662162 1.633771 1.605635 1.577752 1.550124 1.522750 1.495630 1.468765 1.503401 1.593198 1.532794 0.848008 0.589048 0.448704 0.381012 0.286958 0.207787 0.169874 -0.055470 0.195698 0.060231 -0.037822 -0.120505 -0.243212 -0.151639 -0.065943 -0.094594 -0.082531 0.029927 0.025227 0.219422 0.103369 0.350514 0.459054 0.481152 0.759506 0.685725 0.687465 0.829721 0.798334 0.833472 0.920132 0.862559 0.893959 0.728985 0.801548 0.845630 0.679369 0.605589 0.440226 0.424945 0.348015 0.184950 0.182180 0.116667 0.211236 0.118647 0.212299 0.107046 0.223342 0.234475 0.452544 0.411327 0.586755 0.625255 0.662495 0.729124 0.620471 0.599371 0.468694 0.417975 0.302230 0.270820 0.103243 0.163290 -0.021680 0.038986 -0.034109 -0.038983 -0.041495 0.036629 0.283946 0.300952 0.377446 0.321779 0.402434 0.413988 0.441192 0.422157 0.366707 0.348505 0.136383 0.087765 0.067113 -0.007899 -0.150826 -0.038779 -0.067890 0.043392 0.090629 0.165652 0.233996 0.241456 0.329520 0.426415 0.308720 0.371844 0.253437 0.141856 0.068421 0.049446 0.005210 0.044155 0.073615 0.106497 0.118746 0.185917 0.243995 0.309787 0.291961 0.229334 0.262240 0.231986 0.113505 0.079243 0.047731 0.035337 0.008096 -0.003047 0.039862 0.174398 0.191625 0.198105 0.310875 0.194629 0.205946 0.085940 0.076043 -0.002283 -0.005202 0.005026 0.000061 0.042829 0.055664 0.095309 0.159146 0.145903 0.224450 0.129380 0.078779 0.104044 0.049112 -0.061431 -0.025654 0.017395 0.057096 0.074950 0.079172 0.156630 0.128530 0.151625 0.038386 0.056829 0.047860 0.050180 0.023560 -0.021645 0.038202 0.044928 0.086634 0.109664 0.093733 0.107760 0.127325 0.073531 0.011238 -0.001061 0.033397 0.081816 0.063390 0.101795 0.096226 0.052946 0.112613 0.069159 0.041914 0.081414 -0.020692 0.022403 0.060959 0.036859 0.043970 0.051588 0.070408 0.052031 0.059134 0.011301 0.019589 -0.004639 0.043470 0.001762 0.048291 0.068710 0.070463 0.038045 -0.012753 -0.009948 -0.016393 0.032258 -0.002376 0.014031 0.068749 0.057707 -0.009698 0.009552 -0.011489 0.010448 -0.044566 -0.008687 -0.002160 0.029508 0.047392 0.016728 -0.019896 0.007015 0.003392 0.001792 0.044049 0.012594 -0.013704 0.043471 -0.041223 -0.015845 -0.048446 -0.013634 -0.038252 0.015813 0.045320 0.002180 0.004504 -0.005276 0.006472 0.021381 0.025492 -0.011457 -0.002204 0.021253 0.042722 0.011705 0.011080 0.041816 -0.009082 0.000866 0.024386 0.003720 0.074935 0.056459 0.029562 0.001641 -0.008198 -0.033720 0.000812 0.077735 -0.002919 0.076240 -0.018907 -0.024058 -0.018370 0.093486 -0.006316 -0.011310 0.017392 0.041849 0.008142 0.006754 0.030025 0.004265 0.010056 0.021138 0.069445 0.079869 0.052280 0.032484 0.004609 -0.006206 -0.002861 -0.018505 0.004245 0.108446 -0.025843 -0.093086 0.057822 -0.014875 0.046366 -0.058449 0.015962 0.017377 0.019599 -0.002331 -0.020818 -0.012508 -0.074163 0.022268 0.051362 0.070002 -0.123666 0.001292 -0.042421 -0.016844 -0.116469 0.113911 0.015969 0.018746 -0.069638 0.181365 0.254915 0.149785 0.130831 0.068352 -0.695664
0.072396 0.073047 0.074998 0.078250 0.082801 0.088650 0.095794 0.104232 0.113957 0.124967 0.137253 0.150808 0.165621 0.181680 0.198969 0.217471 0.237162 0.258016 0.280004 0.303089 0.327230 0.352381 0.378488 0.405490 0.433319 0.461898 0.491142 0.520956 0.551237 0.581870 0.612730 0.643682 0.674578 0.705261 0.735561 0.765296 0.794275 0.822293 0.849138 0.874583 0.898397 0.920337 0.940153 0.957591 0.972392 0.984293 0.993033 0.998350 0.999990 0.997703 0.991253 0.980415 0.964981 0.944766 0.919610 0.889381 0.853979 0.813345 0.767458 0.716345 0.660082 0.598801 0.532687 0.461990 0.387020 0.308156 0.225840 0.140585 0.052970 0.036359 0.126693 0.217259 0.307231 0.395730 0.481835 0.564590 0.643017 0.716121 0.782912 0.842410 0.893668 0.935782 0.967914 0.989306 0.999299 0.997352 0.983060 0.956169 0.916594 0.864434 0.799982 0.723737 0.636411 0.538928 0.432432 0.318273 0.198004 0.073366 0.053737 0.181254 0.307024 0.428808 0.544326 0.651305 0.747523 0.830860 0.899351 0.951236 0.985014 0.999495 0.993840 0.967611 0.920801 0.853865 0.767735 0.663829 0.544046 0.410744 0.266716 0.115139 0.040490 0.196414 0.348718 0.493415 0.626555 0.744338 0.843230 0.920083 0.972240 0.997652 0.994964 0.963598 0.903814 0.816745 0.704408 0.569687 0.416286 0.248649 0.071847 0.108558 0.286679 0.456492 0.612045 0.747668 0.858198 0.939187 0.987111 0.999538 0.975280 0.914494 0.818747 0.691012 0.535625 0.358166 0.165291 0.035494 0.236109 0.428221 0.603587 0.754416 0.873740 0.955757 0.996140 0.992309 0.943619 0.851479 0.719370 0.552771 0.358978 0.146821 0.073702 0.291884 0.496818 0.677946 0.825622 0.931658 0.989808 0.996187 0.949576 0.851592 0.706718 0.522154 0.307532 0.074446 0.164125 0.394536 0.603240 0.777611 0.906730 0.982113 0.998331 0.953454 0.849304 0.691481 0.489142 0.254537 0.002328 0.251295 0.489632 0.696582 0.857752 0.961510 0.999880 0.969235 0.870703 0.710245 0.498406 0.249698 0.018327 0.286266 0.534261 0.743468 0.897539 0.983947 0.995093 0.929061 0.789954 0.587769 0.337778 0.059475 0.224900 0.492096 0.719760 0.888342 0.982843 0.994242 0.920458 0.766756 0.545500 0.275292 0.020501 0.315709 0.583645 0.799535 0.942868 0.999431 0.962837 0.835361 0.627980 0.359583 0.055350 0.255505 0.542506 0.776930 0.934708 0.999015 0.962188 0.826774 0.605563 0.320530 0.000804 0.320247 0.608433 0.832435 0.967257 0.997158 0.917630 0.736214 0.471978 0.153694 0.183189 0.500404 0.761229 0.934786 0.999812 0.947438 0.782564 0.523629 0.200763 0.147595 0.479175 0.752991 0.934476 0.999964 0.939961 0.760717 0.483817 0.143801 0.215998 0.548888 0.810882 0.966593 0.994171 0.888578 0.662681 0.345945 0.019201 0.382923 0.694712 0.910456 0.998812 0.945966 0.758030 0.460628 0.095667 0.284399 0.624018 0.872686 0.992566 0.964462 0.791148 0.497455 0.126997 0.264118 0.615658 0.872581 0.993757 0.958799 0.771753 0.461011 0.075304 0.323751 0.671373 0.910188 0.999837 0.924069 0.693985 0.346760 0.060049 0.457856 0.778575 0.966315 0.987367 0.836549 0.538734 0.145088 0.275428 0.648010 0.905355 0.999950 0.913163 0.659254 0.283424 0.145877 0.549256 0.850978 0.993364 0.948062 0.722072 0.357140 0.077620 0.498525 0.823417 0.987766 0.957803 0.737823 0.370102 0.072851 0.502291 0.830993 0.991040 0.948199 0.709621 0.323198 0.131669 0.560114 0.871519 0.998875 0.913516 0.632024 0.213519 0.252357 0.664421
1.000000 1.000000 1.000000 1.000000 1.000000 1.000000 1.000000 1.000000 1.000000 1.000000 1.000000 1.000000 1.000000 1.000000 1.000000 1.000000 1.000000 1.000000 1.000000 1.000000 1.000000 1.000000 1.000000 1.000000 1.000000 1.000000 1.000000 1.000000 1.000000 1.000000 1.000000 1.000000 1.000000 1.000000 1.000000 1.000000 1.000000 1.000000 1.000000 1.000000 1.000000 1.000000 1.000000 1.000000 1.000000 1.000000 1.000000 1.000000 1.000000 1.000000 1.000000 1.000000 0.926320 0.926320 0.926320 0.926320 0.926320 0.926320 0.926320 0.926320 0.926320 0.926320 0.926320 0.926320 0.926320 0.926320 0.926320 0.926320 0.926320 0.926320 0.926320 0.926320 0.926320 0.926320 0.926320 0.926320 0.926320 0.926320 0.926320 0.926320 0.926320 0.926320 0.926320 0.926320 0.926320 0.913370 0.911455 0.912620 0.913805 0.913711 0.913156 0.912792 0.913827 0.915379 0.917392 0.939003 0.942035 0.943200 0.944491 0.945912 0.948344 0.946331 0.954066 0.960695 0.959722 0.960736 0.954576 0.955873 0.955251 0.954528 0.956098 0.956159 0.954549 0.952649 0.951173 0.950673 0.950383 0.953904 0.954447 0.954622 0.955171 0.955105 0.955824 0.956436 0.956721 0.958908 0.957984 0.957077 0.962755 0.961273 0.963164 0.963127 0.963841 0.964550 0.964767 0.964955 0.961873 0.961612 0.961034 0.951009 0.944267 0.942503 0.944640 0.947531 0.944729 0.940856 0.942483 0.945207 0.944761 0.944255 0.934916 0.931307 0.908971 0.897634 0.885481 0.885712 0.888387 0.890420 0.888156 0.880123 0.870464 0.866566 0.866751 0.863050 0.856446 0.872947 0.867487 0.866502 0.870595 0.873568 0.878823 0.874819 0.870590 0.866392 0.862302 0.856628 0.858603 0.863187 0.866782 0.854505 0.846912 0.850095 0.839479 0.831027 0.838452 0.840505 0.837479 0.836334 0.837158 0.835607 0.828754 0.823874 0.826761 0.835857 0.834892 0.823384 0.819634 0.814651 0.814476 0.808319 0.811272 0.811081 0.807401 0.800540 0.815582 0.782577 0.806702 0.805146 0.791309 0.775330 0.764042 0.772469 0.783973 0.786972 0.780147 0.774078 0.773227 0.768119 0.742123 0.745956 0.753336 0.751740 0.739873 0.717584 0.724826 0.731556 0.725743 0.720797 0.723565 0.724737 0.695546 0.708628 0.712209 0.696957 0.711942 0.713892 0.704696 0.704743 0.707033 0.709202 0.700990 0.661406 0.663869 0.663379 0.655423 0.606110 0.606025 0.605233 0.558490 0.562443 0.526743 0.509603 0.509198 0.505814 0.552271 0.520283 0.505915 0.536375 0.472302 0.383585 0.398043 0.394567 0.405472 0.415656 0.391556 0.390671 0.379770 0.353662 0.362500 0.380074 0.394224 0.367606 0.368240 0.362654 0.333214 0.306157 0.318246 0.322026 0.344130 0.346474 0.323337 0.354517 0.389497 0.333393 0.308434 0.293518 0.285150 0.299329 0.304737 0.293332 0.261769 0.258948 0.225645 0.250727 0.239609 0.233526 0.248533 0.280361 0.274411 0.283786 0.300591 0.254323 0.269437 0.271518 0.260993 0.264442 0.273768 0.272073 0.259662 0.275677 0.244157 0.255872 0.234777 0.218921 0.284056 0.266046 0.236246 0.234416 0.240687 0.252722 0.223059 0.177443 0.154566 0.163047 0.098773 0.076845 0.076768 0.071624 0.027233 -0.000088 -0.016544 -0.054665 -0.054285 -0.052499 -0.016404 -0.048342 -0.020571 -0.009516 -0.009516 -0.009516 -0.009516 -0.009516 -0.009516 -0.009516 -0.009516 -0.009516 -0.009516 -0.009516 -0.009516 -0.009516 -0.009516 0.013250 0.013250 0.013250 0.013250 0.013250 0.013250 0.013250 0.013250 0.013250 0.013250 0.013250 0.013250
0.000000 0.000000 0.000000 0.000000 0.000000 0.000000 0.000000 0.000000 0.000000 0.000000 0.000000 0.000000 0.000000 0.000000 0.000000 0.000000 0.000000 0.000000 0.000000 0.000000 0.000000 0.000000 0.000000 0.000000 0.000000 7.000000 4.000000 0.000000 0.000000 0.000000 0.000000 0.000000 0.000000 0.000000 0.000000 0.000000 0.000000 0.000000 0.000000 0.000000 0.000000 0.000000 0.000000 0.000000 0.000000 0.000000 0.000000 0.000000 0.000000 0.000000 0.000000 0.000000 0.209657 0.209657 0.209657 0.209657 0.209657 0.209657 0.209657 0.209657 0.209657 0.209657 0.209657 0.209657 0.209657 0.209657 0.209657 0.209657 0.209657 0.209657 0.209657 0.209657 0.209657 0.209657 0.209657 0.209657 0.209657 0.209657 0.209657 0.209657 0.209657 0.209657 0.209657 0.209657 0.209657 0.244339 0.244339 0.244339 0.244339 0.244339 0.244339 0.244339 0.244339 0.244339 0.244339 0.244339 0.244339 0.244339 0.244339 0.244339 0.244339 0.244339 0.244339 0.244339 0.244339 0.244339 0.244339 0.244339 0.244339 0.244339 0.260378 0.260378 0.260378 0.260378 0.260378 0.260378 0.260378 0.260378 0.260378 0.260378 0.260378 0.260378 0.260378 0.260378 0.260378 0.260378 0.260378 0.260378 0.260378 0.260378 0.269680 0.269680 0.269680 0.269680 0.269680 0.269680 0.269680 0.269680 0.269680 0.269680 0.269680 0.269680 0.269680 0.269680 0.269680 0.269680 0.269680 0.269680 0.269680 0.269680 0.269680 0.269680 0.269680 0.269680 0.269680 0.269680 0.269680 0.269680 0.269680 0.269680 0.269680 0.269680 0.269680 0.280056 0.280056 0.280056 0.280056 0.280056 0.280056 0.280056 0.280056 0.280056 0.280056 0.280056 0.280056 0.280056 0.280056 0.280056 0.280056 0.280056 0.280056 0.280056 0.280056 0.280056 0.280056 0.280056 0.280056 0.280056 0.280056 0.280056 0.274721 0.274721 0.274721 0.274721 0.274721 0.274721 0.274721 0.274721 0.274721 0.274721 0.274721 0.274721 0.274721 0.285714 0.285714 0.285714 0.285714 0.285714 0.285714 0.285714 0.285714 0.285714 0.285714 0.285714 0.280056 0.280056 0.280056 0.280056 0.280056 0.280056 0.280056 0.280056 0.280056 0.280056 0.280056 0.274721 0.274721 0.274721 0.274721 0.274721 0.274721 0.274721 0.274721 0.274721 0.274721 0.274721 0.280056 0.280056 0.280056 0.280056 0.280056 0.280056 0.280056 0.280056 0.280056 0.280056 0.285714 0.285714 0.285714 0.285714 0.285714 0.285714 0.285714 0.285714 0.285714 0.269680 0.269680 0.269680 0.269680 0.269680 0.269680 0.269680 0.269680 0.269680 0.269680 0.274721 0.274721 0.274721 0.274721 0.274721 0.274721 0.274721 0.274721 0.274721 0.285714 0.285714 0.285714 0.285714 0.285714 0.285714 0.285714 0.285714 0.264906 0.264906 0.264906 0.264906 0.264906 0.264906 0.264906 0.264906 0.264906 0.274721 0.274721 0.274721 0.274721 0.274721 0.274721 0.274721 0.274721 0.269680 0.269680 0.269680 0.269680 0.269680 0.269680 0.269680 0.269680 0.269680 0.269680 0.269680 0.269680 0.269680 0.269680 0.269680 0.269680 0.280056 0.280056 0.280056 0.280056 0.280056 0.280056 0.280056 0.260378 0.260378 0.260378 0.260378 0.260378 0.260378 0.260378 0.260378 0.269680 0.269680 0.269680 0.269680 0.269680 0.269680 0.269680 0.264906 0.264906 0.264906 0.264906 0.264906 0.264906 0.264906 0.264906 0.264906 0.264906 0.264906 0.264906 0.264906 0.264906 0.260378 0.260378 0.260378 0.260378 0.260378 0.260378 0.260378 0.260378 0.260378 0.260378 0.260378 0.260378
