# Output from CTFFind version 4.1.9, run on 2019-11-03 20:03:06
# Input file: stack16_bm3d_averaged_1_7.5_0_50_half.mrc ; Number of micrographs: 1
# Pixel size: 3.000 Angstroms ; acceleration voltage: 300.0 keV ; spherical aberration: 0.00 mm ; amplitude contrast: 0.07
# Box size: 512 pixels ; min. res.: 30.0 Angstroms ; max. res.: 5.0 Angstroms ; min. def.: 5000.0 um; max. def. 50000.0 um; num. frames averaged: 1
# 6 lines per micrograph: #1 - spatial frequency (1/Angstroms); #2 - 1D rotational average of spectrum (assuming no astigmatism); #3 - 1D rotational average of spectrum; #4 - CTF fit; #5 - cross-correlation between spectrum and CTF fit; #6 - 2sigma of expected cross correlation of noise
0.000000 0.000651 0.001302 0.001953 0.002604 0.003255 0.003906 0.004557 0.005208 0.005859 0.006510 0.007161 0.007812 0.008464 0.009115 0.009766 0.010417 0.011068 0.011719 0.012370 0.013021 0.013672 0.014323 0.014974 0.015625 0.016276 0.016927 0.017578 0.018229 0.018880 0.019531 0.020182 0.020833 0.021484 0.022135 0.022786 0.023438 0.024089 0.024740 0.025391 0.026042 0.026693 0.027344 0.027995 0.028646 0.029297 0.029948 0.030599 0.031250 0.031901 0.032552 0.033203 0.033854 0.034505 0.035156 0.035807 0.036458 0.037109 0.037760 0.038411 0.039062 0.039714 0.040365 0.041016 0.041667 0.042318 0.042969 0.043620 0.044271 0.044922 0.045573 0.046224 0.046875 0.047526 0.048177 0.048828 0.049479 0.050130 0.050781 0.051432 0.052083 0.052734 0.053385 0.054036 0.054688 0.055339 0.055990 0.056641 0.057292 0.057943 0.058594 0.059245 0.059896 0.060547 0.061198 0.061849 0.062500 0.063151 0.063802 0.064453 0.065104 0.065755 0.066406 0.067057 0.067708 0.068359 0.069010 0.069661 0.070312 0.070964 0.071615 0.072266 0.072917 0.073568 0.074219 0.074870 0.075521 0.076172 0.076823 0.077474 0.078125 0.078776 0.079427 0.080078 0.080729 0.081380 0.082031 0.082682 0.083333 0.083984 0.084635 0.085286 0.085938 0.086589 0.087240 0.087891 0.088542 0.089193 0.089844 0.090495 0.091146 0.091797 0.092448 0.093099 0.093750 0.094401 0.095052 0.095703 0.096354 0.097005 0.097656 0.098307 0.098958 0.099609 0.100260 0.100911 0.101562 0.102214 0.102865 0.103516 0.104167 0.104818 0.105469 0.106120 0.106771 0.107422 0.108073 0.108724 0.109375 0.110026 0.110677 0.111328 0.111979 0.112630 0.113281 0.113932 0.114583 0.115234 0.115885 0.116536 0.117188 0.117839 0.118490 0.119141 0.119792 0.120443 0.121094 0.121745 0.122396 0.123047 0.123698 0.124349 0.125000 0.125651 0.126302 0.126953 0.127604 0.128255 0.128906 0.129557 0.130208 0.130859 0.131510 0.132161 0.132812 0.133464 0.134115 0.134766 0.135417 0.136068 0.136719 0.137370 0.138021 0.138672 0.139323 0.139974 0.140625 0.141276 0.141927 0.142578 0.143229 0.143880 0.144531 0.145182 0.145833 0.146484 0.147135 0.147786 0.148438 0.149089 0.149740 0.150391 0.151042 0.151693 0.152344 0.152995 0.153646 0.154297 0.154948 0.155599 0.156250 0.156901 0.157552 0.158203 0.158854 0.159505 0.160156 0.160807 0.161458 0.162109 0.162760 0.163411 0.164062 0.164714 0.165365 0.166016 0.166667 0.167318 0.167969 0.168620 0.169271 0.169922 0.170573 0.171224 0.171875 0.172526 0.173177 0.173828 0.174479 0.175130 0.175781 0.176432 0.177083 0.177734 0.178385 0.179036 0.179688 0.180339 0.180990 0.181641 0.182292 0.182943 0.183594 0.184245 0.184896 0.185547 0.186198 0.186849 0.187500 0.188151 0.188802 0.189453 0.190104 0.190755 0.191406 0.192057 0.192708 0.193359 0.194010 0.194661 0.195312 0.195964 0.196615 0.197266 0.197917 0.198568 0.199219 0.199870 0.200521 0.201172 0.201823 0.202474 0.203125 0.203776 0.204427 0.205078 0.205729 0.206380 0.207031 0.207682 0.208333 0.208984 0.209635 0.210286 0.210938 0.211589 0.212240 0.212891 0.213542 0.214193 0.214844 0.215495 0.216146 0.216797 0.217448 0.218099 0.218750 0.219401 0.220052 0.220703 0.221354 0.222005 0.222656 0.223307 0.223958 0.224609 0.225260 0.225911 0.226562 0.227214 0.227865 0.228516 0.229167 0.229818 0.230469 0.231120 0.231771 0.232422 0.233073 0.233724 0.234375 0.235026 0.235677
       0.36340        0.36340        0.36340        0.36340        0.36340        0.36340        0.36340        0.36340        0.36340        0.36340        0.36340        0.36340        0.36340        0.36340        0.36340        0.36339        0.36340        0.36340        0.36340        0.36340        0.36339        0.36340        0.36339        0.36340        0.36339        0.36340        0.36339        0.36340        0.36340        0.36340        0.36340        0.36340        0.36340        0.36340        0.36340        0.36339        0.36340        0.36339        0.36340        0.36339        0.36339        0.36340        0.36339        0.36339        0.36339        0.36340        0.36340        0.36340        0.36340        0.36340        0.36340        0.43992        0.56148        0.34791       -0.21476       -0.44173       -0.53095       -0.63527       -0.70165       -0.70477       -0.79601       -0.87423       -0.66278       -0.81385       -0.80135       -0.93885       -0.97975       -0.86125       -0.82087       -0.78236       -0.68893       -0.62124       -0.53027       -0.43862       -0.37574       -0.14859       -0.04813        0.05990        0.27765        0.26978        0.32993        0.37901        0.41369        0.54013        0.54790        0.58272        0.53928        0.48369        0.51389        0.54451        0.46924        0.34412        0.23308        0.19781        0.12393        0.03547        0.01844        0.00842        0.07845        0.04502        0.09610        0.06881        0.18707        0.21166        0.41836        0.46932        0.55325        0.66137        0.68677        0.71569        0.64774        0.61728        0.55956        0.45363        0.39970        0.29742        0.23405        0.23269        0.12095        0.13603        0.14190        0.10679        0.11189        0.31473        0.43088        0.53796        0.54028        0.56967        0.60998        0.59212        0.57379        0.59185        0.57624        0.48006        0.32444        0.28148        0.27653        0.17795        0.10974        0.18959        0.23716        0.30434        0.36468        0.43952        0.48499        0.54026        0.60892        0.55496        0.50953        0.52067        0.36830        0.30267        0.27956        0.19401        0.22896        0.26124        0.29729        0.29893        0.34795        0.44387        0.47674        0.50550        0.46182        0.45081        0.49943        0.41004        0.33897        0.30104        0.27946        0.25011        0.23764        0.25149        0.35396        0.46372        0.44797        0.49420        0.56028        0.46615        0.42583        0.36845        0.33626        0.29302        0.29714        0.28351        0.30394        0.37784        0.38416        0.45579        0.47990        0.45386        0.47738        0.39454        0.38995        0.36232        0.29011        0.27057        0.27095        0.35648        0.39169        0.37389        0.39860        0.44101        0.45606        0.39843        0.34843        0.33687        0.36688        0.33253        0.30021        0.30703        0.37473        0.39098        0.41042        0.39878        0.40774        0.43407        0.42058        0.34011        0.30321        0.32268        0.35282        0.40321        0.37669        0.41363        0.36082        0.38115        0.40349        0.35600        0.36556        0.33466        0.31854        0.35043        0.36207        0.34533        0.38015        0.39417        0.34215        0.36206        0.33821        0.32966        0.31786        0.33568        0.34309        0.33894        0.37989        0.39041        0.37627        0.32087        0.31680        0.30099        0.34576        0.33121        0.32827        0.38374        0.36782        0.35263        0.33080        0.31949        0.31501        0.29155        0.33503        0.34955        0.36525        0.38377        0.36877        0.33710        0.35499        0.37639        0.35344        0.36541        0.35928        0.33050        0.34526        0.30502        0.33015        0.31654        0.32845        0.29696        0.33645        0.36198        0.33887        0.37134        0.33009        0.35093        0.36837        0.35254        0.33377        0.34905        0.38395        0.35942        0.37295        0.34613        0.32482        0.33975        0.32864        0.34281        0.34100        0.38069        0.33696        0.33851        0.31135        0.31237        0.28682        0.29424        0.37495        0.32511        0.33338        0.30318        0.27649        0.28486        0.37391        0.31676        0.29905        0.34114        0.32967        0.30103        0.26539        0.30665        0.28349        0.32004        0.32248        0.35959        0.34927        0.33618        0.33041        0.27917        0.29917        0.30151        0.30278        0.31737        0.36774        0.31368        0.22679        0.31632        0.32099        0.35066        0.28734        0.30490        0.28128        0.33086        0.28769        0.27446        0.28873        0.25535        0.31746        0.33320        0.31999        0.27330        0.33992        0.28820        0.24858        0.24173        0.33167        0.25692        0.15675        0.11311        0.19906        0.35871        0.29154        0.20178        0.17304       -0.35499       -0.53392
3.276141 3.234265 3.192661 3.151331 3.110273 3.069489 3.028977 2.988738 2.948773 2.909080 2.869660 2.830513 2.791639 2.753037 2.714709 2.676654 2.638871 2.601362 2.564125 2.527161 2.490471 2.454053 2.417908 2.382036 2.346437 2.311111 2.276057 2.241277 2.206770 2.172535 2.138573 2.104885 2.071469 2.038326 2.005457 1.972860 1.940535 1.908484 1.876706 1.845201 1.813969 1.783009 1.752323 1.721909 1.691769 1.661901 1.632306 1.602984 1.573935 1.545159 1.516656 1.553541 1.617070 1.557376 0.844302 0.605441 0.466759 0.396088 0.298473 0.228145 0.197551 -0.046547 0.217044 0.084677 -0.023455 -0.098615 -0.234078 -0.138951 -0.045461 -0.093771 -0.066897 0.041336 0.043952 0.237464 0.111456 0.361531 0.465897 0.504638 0.779646 0.681838 0.702588 0.821043 0.795363 0.850113 0.923539 0.851691 0.883014 0.725863 0.781482 0.844934 0.693902 0.604959 0.431492 0.429690 0.320806 0.195217 0.189174 0.111608 0.207638 0.118847 0.205180 0.103870 0.213262 0.225297 0.428795 0.393903 0.560334 0.598238 0.612830 0.709555 0.596375 0.561248 0.454079 0.406398 0.276821 0.255991 0.084506 0.143201 -0.035698 0.032992 -0.030598 -0.049265 -0.067942 0.015307 0.250340 0.284096 0.343991 0.279948 0.367233 0.373286 0.394691 0.375943 0.347675 0.314137 0.110974 0.062381 0.057476 -0.029374 -0.154362 -0.066927 -0.066050 0.029603 0.065902 0.137865 0.198581 0.213732 0.306420 0.394333 0.266042 0.356530 0.216974 0.143504 0.061104 0.029211 -0.000521 0.054290 0.067355 0.087316 0.116852 0.164991 0.234054 0.297212 0.258857 0.201177 0.247068 0.221214 0.106294 0.046835 0.056575 0.020749 0.003960 -0.035566 0.028178 0.164379 0.197675 0.182494 0.289939 0.184479 0.193157 0.070249 0.062349 0.020227 -0.005898 -0.009169 -0.012680 0.047205 0.082498 0.104436 0.157341 0.137832 0.222816 0.141597 0.076732 0.097992 0.037459 -0.045358 -0.014825 0.031086 0.073246 0.070000 0.062630 0.148618 0.111876 0.153086 0.037757 0.042859 0.046438 0.043964 0.027747 -0.018319 0.040295 0.055184 0.092978 0.098425 0.083408 0.113801 0.121019 0.079631 0.009452 -0.013819 0.015597 0.072894 0.080493 0.085642 0.081139 0.053997 0.097647 0.065843 0.040980 0.070314 -0.008372 0.009803 0.068415 0.040499 0.044492 0.077217 0.084332 0.046589 0.067395 0.020371 0.018069 0.014986 0.056796 0.021513 0.036635 0.076991 0.080109 0.046681 -0.004562 -0.000653 -0.019126 0.048018 0.002349 0.011983 0.073910 0.042014 0.007039 0.014779 -0.018147 0.002142 -0.035722 0.011488 0.025323 0.052057 0.044448 0.033690 0.005254 0.008265 0.049673 0.012454 0.033396 0.013663 -0.012534 0.012891 -0.041877 -0.032355 -0.050365 -0.011811 -0.070772 0.009172 0.007963 -0.005454 -0.011871 -0.003818 -0.003808 0.027593 0.006514 -0.011975 0.015697 0.027029 0.026713 0.036931 -0.000049 0.006866 0.011847 -0.009478 0.016238 -0.005053 0.097848 0.025118 0.017718 0.004937 -0.006613 -0.025348 0.006441 0.074249 0.001893 0.041905 -0.026522 -0.025320 -0.022636 0.088435 0.002904 -0.026135 0.073743 0.051770 0.000451 -0.003206 0.008439 0.008693 0.047446 0.040533 0.104875 0.043200 0.057574 0.044965 -0.006461 0.025683 0.005353 0.002692 0.025851 0.080783 -0.002509 -0.073786 0.033141 0.015315 0.080119 -0.037981 -0.006357 -0.017713 0.012098 -0.008557 -0.036117 -0.002824 -0.067703 0.051026 0.032938 0.046761 -0.101254 0.052588 0.037294 -0.000944 -0.061982 0.104663 0.024297 -0.054390 -0.141178 0.170309 0.360237 0.248342 0.134293 0.173292 -0.515788
0.072396 0.073047 0.074998 0.078249 0.082800 0.088648 0.095791 0.104227 0.113951 0.124959 0.137244 0.150797 0.165608 0.181665 0.198952 0.217451 0.237139 0.257991 0.279975 0.303057 0.327196 0.352344 0.378447 0.405446 0.433271 0.461847 0.491088 0.520899 0.551177 0.581807 0.612665 0.643615 0.674509 0.705190 0.735489 0.765224 0.794203 0.822222 0.849068 0.874516 0.898333 0.920277 0.940098 0.957543 0.972351 0.984260 0.993010 0.998338 0.999991 0.997718 0.991283 0.980461 0.965046 0.944851 0.919715 0.889507 0.854129 0.813518 0.767655 0.716567 0.660330 0.599073 0.532985 0.462312 0.387366 0.308524 0.226229 0.140992 0.053393 0.035924 0.126248 0.216809 0.306779 0.395281 0.481395 0.564165 0.642612 0.715742 0.782565 0.842102 0.893404 0.935570 0.967759 0.989214 0.999274 0.997400 0.983184 0.956371 0.916877 0.864798 0.800427 0.724260 0.637008 0.539595 0.433161 0.319056 0.198832 0.074226 0.052858 0.180371 0.306152 0.427964 0.543527 0.650567 0.746864 0.830297 0.898900 0.950912 0.984830 0.999459 0.993962 0.967895 0.921249 0.854473 0.768497 0.664735 0.545079 0.411887 0.267946 0.116427 0.039172 0.195099 0.347441 0.492209 0.625456 0.743381 0.842448 0.919503 0.971888 0.997547 0.995118 0.964017 0.904496 0.817678 0.705574 0.571058 0.417827 0.250314 0.073586 0.106799 0.284959 0.454872 0.610584 0.746423 0.857221 0.938524 0.986797 0.999596 0.975721 0.915315 0.819928 0.692520 0.537411 0.360167 0.167433 0.033294 0.233942 0.426180 0.601762 0.752894 0.872598 0.955056 0.995926 0.992607 0.944432 0.852783 0.721120 0.554897 0.361389 0.149408 0.071061 0.289322 0.494464 0.675927 0.824055 0.930636 0.989400 0.996433 0.950481 0.853127 0.708813 0.524710 0.310416 0.077504 0.161067 0.391653 0.600711 0.775593 0.905359 0.981492 0.998516 0.954456 0.851082 0.693942 0.492147 0.257904 0.005847 0.247852 0.486498 0.693975 0.855863 0.960486 0.999815 0.970158 0.872571 0.712949 0.501772 0.253496 0.014364 0.282431 0.530842 0.740735 0.895717 0.983197 0.995500 0.930619 0.792567 0.591252 0.341874 0.063859 0.220579 0.488197 0.716617 0.886241 0.981985 0.994728 0.922278 0.769777 0.549484 0.279906 0.015658 0.311069 0.579635 0.796537 0.941184 0.999247 0.964202 0.838178 0.632009 0.364458 0.060616 0.250356 0.537993 0.773513 0.932755 0.998755 0.963683 0.829905 0.610037 0.325905 0.006526 0.314774 0.603806 0.829172 0.965741 0.997589 0.920000 0.740292 0.477343 0.159760 0.177096 0.494991 0.757137 0.932516 0.999668 0.949477 0.786582 0.529182 0.207205 0.141035 0.473305 0.748549 0.932042 0.999882 0.942287 0.765195 0.489911 0.150755 0.209080 0.542914 0.806657 0.964714 0.994930 0.891919 0.668197 0.352918 0.011710 0.375945 0.689229 0.907266 0.998407 0.948454 0.763099 0.467592 0.103547 0.276747 0.617729 0.868713 0.991543 0.966593 0.796163 0.504639 0.135279 0.255996 0.608966 0.868386 0.992764 0.961215 0.777247 0.468756 0.084077 0.315354 0.664739 0.906433 0.999632 0.927507 0.700537 0.355375 0.050802 0.449555 0.772656 0.963843 0.988828 0.841748 0.546808 0.154653 0.266057 0.640518 0.901125 0.999801 0.917185 0.666765 0.293089 0.135824 0.540690 0.845535 0.992122 0.951318 0.729274 0.366947 0.067058 0.489264 0.817292 0.986029 0.960862 0.745139 0.380264 0.061844 0.492668 0.824732 0.989479 0.951723 0.717574 0.333977 0.120286 0.550514 0.865766 0.998254 0.918229 0.641126 0.225101 0.240794 0.655399
1.000000 1.000000 1.000000 1.000000 1.000000 1.000000 1.000000 1.000000 1.000000 1.000000 1.000000 1.000000 1.000000 1.000000 1.000000 1.000000 1.000000 1.000000 1.000000 1.000000 1.000000 1.000000 1.000000 1.000000 1.000000 1.000000 1.000000 1.000000 1.000000 1.000000 1.000000 1.000000 1.000000 1.000000 1.000000 1.000000 1.000000 1.000000 1.000000 1.000000 1.000000 1.000000 1.000000 1.000000 1.000000 1.000000 1.000000 1.000000 1.000000 1.000000 1.000000 1.000000 0.924169 0.924169 0.924169 0.924169 0.924169 0.924169 0.924169 0.924169 0.924169 0.924169 0.924169 0.924169 0.924169 0.924169 0.924169 0.924169 0.924169 0.924169 0.924169 0.924169 0.924169 0.924169 0.924169 0.924169 0.924169 0.924169 0.924169 0.924169 0.924169 0.924169 0.924169 0.924169 0.924169 0.913241 0.911354 0.912506 0.911048 0.909608 0.909019 0.908625 0.909664 0.911264 0.913343 0.934988 0.938090 0.939334 0.940662 0.942038 0.944327 0.942161 0.946052 0.952126 0.950989 0.952251 0.952456 0.953000 0.952339 0.951594 0.953982 0.953157 0.951474 0.949479 0.947804 0.947245 0.947016 0.950651 0.951127 0.951279 0.951860 0.951797 0.952514 0.953109 0.951211 0.953435 0.945508 0.944223 0.949541 0.947509 0.948931 0.948891 0.949583 0.950372 0.950680 0.950920 0.947664 0.947171 0.946186 0.940170 0.932962 0.933315 0.935111 0.937326 0.934446 0.932547 0.934062 0.935502 0.934375 0.937556 0.929106 0.925195 0.898470 0.884436 0.876365 0.876441 0.880849 0.883489 0.881342 0.876388 0.868803 0.865593 0.864490 0.865774 0.857081 0.859691 0.859647 0.854924 0.858224 0.861386 0.866624 0.865081 0.861100 0.856230 0.850793 0.839006 0.839806 0.842030 0.846241 0.828142 0.815615 0.831679 0.824843 0.816812 0.824613 0.826532 0.824217 0.822973 0.823186 0.820999 0.814299 0.805930 0.809692 0.818768 0.821025 0.812021 0.809499 0.809156 0.808754 0.803625 0.809089 0.811536 0.808108 0.800179 0.817717 0.790140 0.808730 0.810143 0.790932 0.775619 0.764209 0.771879 0.780206 0.772662 0.770424 0.781327 0.781292 0.775706 0.755390 0.736644 0.744300 0.742529 0.733419 0.722032 0.728756 0.722260 0.720229 0.718009 0.721679 0.720009 0.698551 0.711802 0.716681 0.712376 0.724894 0.728100 0.719188 0.722239 0.726409 0.727321 0.726931 0.705300 0.708987 0.641993 0.630995 0.597238 0.594099 0.590349 0.534540 0.538991 0.524341 0.510498 0.510820 0.472735 0.520988 0.425095 0.412501 0.435504 0.363244 0.339037 0.357634 0.359268 0.372228 0.369587 0.368509 0.373852 0.354276 0.325288 0.296167 0.322871 0.337266 0.319996 0.321135 0.292701 0.284073 0.229517 0.244422 0.248920 0.280833 0.283035 0.269368 0.288682 0.330159 0.268388 0.254493 0.232154 0.258529 0.262155 0.252239 0.241494 0.264024 0.202917 0.213908 0.227993 0.230141 0.281653 0.309791 0.323030 0.319511 0.327960 0.357253 0.313883 0.321839 0.328923 0.320238 0.349081 0.352288 0.363546 0.360820 0.394212 0.395929 0.403765 0.410642 0.434796 0.459080 0.434440 0.418971 0.374568 0.391313 0.382833 0.397502 0.343558 0.323664 0.322549 0.292042 0.245271 0.246406 0.245397 0.200759 0.198894 0.183710 0.152646 0.151488 0.160552 0.183207 0.154826 0.167068 0.171339 0.171339 0.171339 0.171339 0.171339 0.171339 0.171339 0.171339 0.171339 0.171339 0.171339 0.171339 0.171339 0.171339 0.192323 0.192323 0.192323 0.192323 0.192323 0.192323 0.192323 0.192323 0.192323 0.192323 0.192323 0.192323
0.000000 0.000000 0.000000 0.000000 0.000000 0.000000 0.000000 0.000000 0.000000 0.000000 0.000000 0.000000 0.000000 0.000000 0.000000 0.000000 0.000000 0.000000 0.000000 0.000000 0.000000 0.000000 0.000000 0.000000 0.000000 0.000000 0.000000 0.000000 0.000000 0.000000 0.000000 0.000000 0.000000 0.000000 0.000000 0.000000 0.000000 0.000000 0.000000 0.000000 0.000000 0.000000 0.000000 0.000000 0.000000 0.000000 0.000000 0.000000 0.000000 0.000000 0.000000 0.000000 0.209657 0.209657 0.209657 0.209657 0.209657 0.209657 0.209657 0.209657 0.209657 0.209657 0.209657 0.209657 0.209657 0.209657 0.209657 0.209657 0.209657 0.209657 0.209657 0.209657 0.209657 0.209657 0.209657 0.209657 0.209657 0.209657 0.209657 0.209657 0.209657 0.209657 0.209657 0.209657 0.209657 0.244339 0.244339 0.244339 0.244339 0.244339 0.244339 0.244339 0.244339 0.244339 0.244339 0.244339 0.244339 0.244339 0.244339 0.244339 0.244339 0.244339 0.244339 0.244339 0.244339 0.244339 0.244339 0.244339 0.244339 0.244339 0.260378 0.260378 0.260378 0.260378 0.260378 0.260378 0.260378 0.260378 0.260378 0.260378 0.260378 0.260378 0.260378 0.260378 0.260378 0.260378 0.260378 0.260378 0.260378 0.260378 0.269680 0.269680 0.269680 0.269680 0.269680 0.269680 0.269680 0.269680 0.269680 0.269680 0.269680 0.269680 0.269680 0.269680 0.269680 0.269680 0.269680 0.269680 0.269680 0.269680 0.269680 0.269680 0.269680 0.269680 0.269680 0.269680 0.269680 0.269680 0.269680 0.269680 0.269680 0.269680 0.269680 0.280056 0.280056 0.280056 0.280056 0.280056 0.280056 0.280056 0.280056 0.280056 0.280056 0.280056 0.280056 0.280056 0.280056 0.280056 0.280056 0.280056 0.280056 0.280056 0.280056 0.280056 0.280056 0.280056 0.280056 0.280056 0.280056 0.280056 0.274721 0.274721 0.274721 0.274721 0.274721 0.274721 0.274721 0.274721 0.274721 0.274721 0.274721 0.274721 0.274721 0.285714 0.285714 0.285714 0.285714 0.285714 0.285714 0.285714 0.285714 0.285714 0.285714 0.285714 0.280056 0.280056 0.280056 0.280056 0.280056 0.280056 0.280056 0.280056 0.280056 0.280056 0.280056 0.274721 0.274721 0.274721 0.274721 0.274721 0.274721 0.274721 0.274721 0.274721 0.274721 0.274721 0.280056 0.280056 0.280056 0.280056 0.280056 0.280056 0.280056 0.280056 0.280056 0.280056 0.285714 0.285714 0.285714 0.285714 0.285714 0.285714 0.285714 0.285714 0.285714 0.269680 0.269680 0.269680 0.269680 0.269680 0.269680 0.269680 0.269680 0.269680 0.269680 0.274721 0.274721 0.274721 0.274721 0.274721 0.274721 0.274721 0.274721 0.274721 0.285714 0.285714 0.285714 0.285714 0.285714 0.285714 0.285714 0.285714 0.264906 0.264906 0.264906 0.264906 0.264906 0.264906 0.264906 0.264906 0.264906 0.274721 0.274721 0.274721 0.274721 0.274721 0.274721 0.274721 0.274721 0.269680 0.269680 0.269680 0.269680 0.269680 0.269680 0.269680 0.269680 0.269680 0.269680 0.269680 0.269680 0.269680 0.269680 0.269680 0.269680 0.280056 0.280056 0.280056 0.280056 0.280056 0.280056 0.280056 0.260378 0.260378 0.260378 0.260378 0.260378 0.260378 0.260378 0.260378 0.269680 0.269680 0.269680 0.269680 0.269680 0.269680 0.269680 0.264906 0.264906 0.264906 0.264906 0.264906 0.264906 0.264906 0.264906 0.264906 0.264906 0.264906 0.264906 0.264906 0.264906 0.260378 0.260378 0.260378 0.260378 0.260378 0.260378 0.260378 0.260378 0.260378 0.260378 0.260378 0.260378
