# Output from CTFFind version 4.1.9, run on 2019-11-03 19:02:26
# Input file: stack16_bm3d_averaged_1_2.25_0_50_half.mrc ; Number of micrographs: 1
# Pixel size: 3.000 Angstroms ; acceleration voltage: 300.0 keV ; spherical aberration: 0.00 mm ; amplitude contrast: 0.07
# Box size: 512 pixels ; min. res.: 30.0 Angstroms ; max. res.: 5.0 Angstroms ; min. def.: 5000.0 um; max. def. 50000.0 um; num. frames averaged: 1
# 6 lines per micrograph: #1 - spatial frequency (1/Angstroms); #2 - 1D rotational average of spectrum (assuming no astigmatism); #3 - 1D rotational average of spectrum; #4 - CTF fit; #5 - cross-correlation between spectrum and CTF fit; #6 - 2sigma of expected cross correlation of noise
0.000000 0.000651 0.001302 0.001953 0.002604 0.003255 0.003906 0.004557 0.005208 0.005859 0.006510 0.007161 0.007812 0.008464 0.009115 0.009766 0.010417 0.011068 0.011719 0.012370 0.013021 0.013672 0.014323 0.014974 0.015625 0.016276 0.016927 0.017578 0.018229 0.018880 0.019531 0.020182 0.020833 0.021484 0.022135 0.022786 0.023438 0.024089 0.024740 0.025391 0.026042 0.026693 0.027344 0.027995 0.028646 0.029297 0.029948 0.030599 0.031250 0.031901 0.032552 0.033203 0.033854 0.034505 0.035156 0.035807 0.036458 0.037109 0.037760 0.038411 0.039062 0.039714 0.040365 0.041016 0.041667 0.042318 0.042969 0.043620 0.044271 0.044922 0.045573 0.046224 0.046875 0.047526 0.048177 0.048828 0.049479 0.050130 0.050781 0.051432 0.052083 0.052734 0.053385 0.054036 0.054688 0.055339 0.055990 0.056641 0.057292 0.057943 0.058594 0.059245 0.059896 0.060547 0.061198 0.061849 0.062500 0.063151 0.063802 0.064453 0.065104 0.065755 0.066406 0.067057 0.067708 0.068359 0.069010 0.069661 0.070312 0.070964 0.071615 0.072266 0.072917 0.073568 0.074219 0.074870 0.075521 0.076172 0.076823 0.077474 0.078125 0.078776 0.079427 0.080078 0.080729 0.081380 0.082031 0.082682 0.083333 0.083984 0.084635 0.085286 0.085938 0.086589 0.087240 0.087891 0.088542 0.089193 0.089844 0.090495 0.091146 0.091797 0.092448 0.093099 0.093750 0.094401 0.095052 0.095703 0.096354 0.097005 0.097656 0.098307 0.098958 0.099609 0.100260 0.100911 0.101562 0.102214 0.102865 0.103516 0.104167 0.104818 0.105469 0.106120 0.106771 0.107422 0.108073 0.108724 0.109375 0.110026 0.110677 0.111328 0.111979 0.112630 0.113281 0.113932 0.114583 0.115234 0.115885 0.116536 0.117188 0.117839 0.118490 0.119141 0.119792 0.120443 0.121094 0.121745 0.122396 0.123047 0.123698 0.124349 0.125000 0.125651 0.126302 0.126953 0.127604 0.128255 0.128906 0.129557 0.130208 0.130859 0.131510 0.132161 0.132812 0.133464 0.134115 0.134766 0.135417 0.136068 0.136719 0.137370 0.138021 0.138672 0.139323 0.139974 0.140625 0.141276 0.141927 0.142578 0.143229 0.143880 0.144531 0.145182 0.145833 0.146484 0.147135 0.147786 0.148438 0.149089 0.149740 0.150391 0.151042 0.151693 0.152344 0.152995 0.153646 0.154297 0.154948 0.155599 0.156250 0.156901 0.157552 0.158203 0.158854 0.159505 0.160156 0.160807 0.161458 0.162109 0.162760 0.163411 0.164062 0.164714 0.165365 0.166016 0.166667 0.167318 0.167969 0.168620 0.169271 0.169922 0.170573 0.171224 0.171875 0.172526 0.173177 0.173828 0.174479 0.175130 0.175781 0.176432 0.177083 0.177734 0.178385 0.179036 0.179688 0.180339 0.180990 0.181641 0.182292 0.182943 0.183594 0.184245 0.184896 0.185547 0.186198 0.186849 0.187500 0.188151 0.188802 0.189453 0.190104 0.190755 0.191406 0.192057 0.192708 0.193359 0.194010 0.194661 0.195312 0.195964 0.196615 0.197266 0.197917 0.198568 0.199219 0.199870 0.200521 0.201172 0.201823 0.202474 0.203125 0.203776 0.204427 0.205078 0.205729 0.206380 0.207031 0.207682 0.208333 0.208984 0.209635 0.210286 0.210938 0.211589 0.212240 0.212891 0.213542 0.214193 0.214844 0.215495 0.216146 0.216797 0.217448 0.218099 0.218750 0.219401 0.220052 0.220703 0.221354 0.222005 0.222656 0.223307 0.223958 0.224609 0.225260 0.225911 0.226562 0.227214 0.227865 0.228516 0.229167 0.229818 0.230469 0.231120 0.231771 0.232422 0.233073 0.233724 0.234375 0.235026 0.235677
       0.34171        0.34171        0.34171        0.34171        0.34171        0.34171        0.34171        0.34171        0.34171        0.34171        0.34171        0.34171        0.34171        0.34171        0.34171        0.34171        0.34171        0.34171        0.34171        0.34171        0.34171        0.34171        0.34171        0.34171        0.34171        0.34171        0.34171        0.34171        0.34171        0.34171        0.34171        0.34171        0.34171        0.34171        0.34171        0.34171        0.34171        0.34171        0.34171        0.34171        0.34171        0.34171        0.34171        0.34171        0.34171        0.34171        0.34171        0.34171        0.34171        0.34171        0.34171        0.48023        0.67937        0.45151       -0.12699       -0.41524       -0.57249       -0.66579       -0.73905       -0.75557       -0.86972       -0.92145       -0.75102       -0.92396       -0.87291       -1.02578       -1.09818       -0.98359       -0.95218       -0.87460       -0.82739       -0.73419       -0.63226       -0.49486       -0.42433       -0.22220       -0.10522       -0.01857        0.19411        0.23386        0.30391        0.37375        0.42482        0.50324        0.57198        0.59818        0.57438        0.49531        0.54520        0.48470        0.40508        0.33047        0.19571        0.16998        0.09047       -0.03908       -0.10368       -0.07441        0.02682       -0.01159        0.04039        0.02878        0.18992        0.21328        0.39236        0.45420        0.56247        0.68921        0.75842        0.74002        0.68309        0.66384        0.57041        0.51073        0.38420        0.28156        0.19453        0.16791        0.07784        0.04232        0.02066        0.05907        0.08908        0.28527        0.40476        0.50409        0.58050        0.62506        0.68901        0.64635        0.65131        0.65074        0.58941        0.48923        0.29680        0.25840        0.21282        0.12126        0.04837        0.10487        0.11263        0.25508        0.36101        0.41850        0.50126        0.54926        0.63637        0.58916        0.53552        0.51293        0.35965        0.20433        0.22452        0.16494        0.14427        0.14491        0.22036        0.25369        0.34267        0.43474        0.42658        0.51555        0.50241        0.47223        0.47007        0.37635        0.32725        0.25647        0.20328        0.21840        0.21040        0.20998        0.30394        0.44529        0.46064        0.48818        0.55727        0.49779        0.43822        0.39506        0.31408        0.24470        0.24048        0.23261        0.26258        0.29600        0.33324        0.42696        0.49837        0.49356        0.46037        0.38331        0.36614        0.35250        0.23807        0.22271        0.25608        0.29618        0.36262        0.35813        0.39895        0.43683        0.44083        0.37819        0.35222        0.31500        0.32981        0.28081        0.26789        0.29006        0.34578        0.40131        0.41813        0.39343        0.37691        0.40393        0.36192        0.29938        0.30370        0.30742        0.30970        0.36354        0.38568        0.41311        0.33917        0.36301        0.38239        0.35113        0.31679        0.27943        0.28757        0.33171        0.33284        0.32860        0.33979        0.38111        0.33723        0.35432        0.30055        0.30198        0.27409        0.28293        0.29937        0.32972        0.38065        0.36034        0.34855        0.30126        0.27587        0.26598        0.30031        0.28655        0.32989        0.36278        0.38926        0.33773        0.32595        0.30269        0.30454        0.30241        0.28701        0.32201        0.33635        0.33181        0.32255        0.29241        0.33848        0.32176        0.30501        0.32663        0.32713        0.34225        0.35500        0.31848        0.32863        0.29636        0.29579        0.29313        0.31436        0.39835        0.32921        0.35558        0.30539        0.31557        0.31025        0.31117        0.29584        0.30470        0.30354        0.32998        0.34314        0.29223        0.32096        0.30921        0.28960        0.30783        0.32719        0.32311        0.36167        0.35359        0.30881        0.28680        0.29609        0.24735        0.32370        0.33390        0.31187        0.30864        0.27084        0.29723        0.32517        0.33154        0.30014        0.33499        0.32555        0.29912        0.24057        0.29306        0.28983        0.29324        0.33002        0.30886        0.36525        0.37471        0.28032        0.28294        0.27581        0.27219        0.29729        0.28183        0.26912        0.25449        0.28021        0.29170        0.29273        0.28833        0.27275        0.33857        0.29980        0.28753        0.22785        0.22329        0.26085        0.22811        0.22533        0.30843        0.36144        0.27515        0.25336        0.28630        0.22222        0.21738        0.32850        0.28718        0.19480        0.16339        0.24527        0.31133        0.24878        0.06741        0.03573       -0.53569       -0.75647
3.036898 2.998897 2.961142 2.923633 2.886369 2.849352 2.812580 2.776054 2.739773 2.703738 2.667949 2.632406 2.597109 2.562057 2.527251 2.492691 2.458377 2.424308 2.390485 2.356908 2.323577 2.290491 2.257651 2.225057 2.192709 2.160606 2.128749 2.097138 2.065773 2.034653 2.003779 1.973151 1.942769 1.912632 1.882741 1.853096 1.823697 1.794544 1.765636 1.736974 1.708557 1.680387 1.652462 1.624783 1.597350 1.570162 1.543220 1.516524 1.490074 1.463870 1.437911 1.500780 1.653835 1.595221 0.933635 0.664422 0.462690 0.407646 0.316246 0.251720 0.191701 -0.002264 0.192851 0.068964 -0.027758 -0.071697 -0.216079 -0.165146 -0.090346 -0.095785 -0.086669 0.008826 0.030537 0.221215 0.139530 0.349051 0.439302 0.471940 0.691155 0.679895 0.690424 0.814884 0.800223 0.820595 0.928597 0.863715 0.910501 0.731624 0.823317 0.819791 0.629454 0.595167 0.443404 0.426733 0.349342 0.212578 0.124289 0.096043 0.218152 0.131364 0.216815 0.112526 0.276750 0.271812 0.446772 0.399888 0.578588 0.625324 0.729160 0.715954 0.644799 0.625903 0.497343 0.481514 0.324982 0.291898 0.117218 0.151723 0.009304 -0.000424 -0.044916 -0.042537 -0.007596 0.040064 0.274244 0.307367 0.384847 0.376756 0.455543 0.489878 0.472709 0.475220 0.369416 0.387170 0.152177 0.090634 0.080243 -0.016943 -0.130226 -0.040003 -0.111947 0.011782 0.136473 0.167417 0.253195 0.261607 0.351112 0.474194 0.330488 0.394538 0.282502 0.123684 0.056596 0.064125 0.040763 0.022987 0.033067 0.114463 0.115198 0.264786 0.235213 0.278650 0.333877 0.266847 0.270314 0.230069 0.130435 0.084997 0.025338 0.034727 0.025348 -0.002264 0.027736 0.175149 0.213238 0.237986 0.297626 0.239871 0.239280 0.136904 0.125258 0.005293 0.002295 -0.009034 0.010384 0.030585 0.043566 0.099765 0.192183 0.201933 0.217183 0.135500 0.104363 0.073958 0.060316 -0.077297 -0.014122 0.021567 0.053086 0.054880 0.083315 0.157132 0.125338 0.149874 0.059094 0.046736 0.044349 0.041221 0.006828 -0.000513 0.016174 0.079123 0.113959 0.130549 0.063380 0.107310 0.103835 0.015207 0.015355 0.016909 0.009465 0.039061 0.072233 0.101765 0.093729 0.038948 0.090092 0.074355 0.051312 0.019513 -0.018842 0.011980 0.058667 0.029320 0.038244 0.045742 0.076339 0.073753 0.033881 0.018860 0.006380 -0.016762 -0.000253 0.007126 0.046552 0.096671 0.062243 0.046777 -0.005405 -0.025088 -0.015838 0.012817 0.007831 0.035783 0.077714 0.071450 -0.006806 0.038785 -0.020023 0.019802 -0.014619 -0.025014 0.033905 0.039520 0.011649 0.002825 -0.028244 0.031885 -0.006086 -0.003926 0.013181 0.013746 0.027319 0.061099 0.001588 -0.001659 -0.034548 -0.009568 -0.019186 0.018599 0.082749 0.010088 0.033710 -0.003317 0.023652 -0.010368 0.022588 -0.000648 0.011437 -0.007536 0.046744 0.025185 0.013935 0.047439 -0.018646 0.004481 0.013616 0.018841 0.042643 0.068997 0.047245 0.011613 -0.000500 -0.004859 -0.016922 0.015851 0.023165 0.035416 0.037696 -0.026202 0.000314 0.033446 0.048834 0.005424 0.035797 0.034188 0.017422 -0.059858 0.008724 0.018910 -0.002586 0.027472 0.037457 0.086217 0.076702 0.006063 0.009854 -0.018492 0.011883 -0.028985 -0.000328 -0.004385 -0.030028 -0.018397 0.016583 0.001784 0.003787 -0.074134 0.023721 -0.031138 -0.043810 -0.108442 -0.080756 -0.034006 -0.085302 -0.084386 0.022827 0.065820 -0.044093 -0.023194 0.042563 0.004279 -0.073079 0.112766 0.093395 0.045239 0.002298 0.163573 0.254301 0.216940 -0.032971 0.037352 -0.663502
0.072396 0.073047 0.074998 0.078251 0.082802 0.088652 0.095797 0.104235 0.113962 0.124972 0.137260 0.150817 0.165632 0.181692 0.198984 0.217487 0.237180 0.258037 0.280027 0.303114 0.327258 0.352412 0.378521 0.405526 0.433357 0.461939 0.491185 0.521002 0.551285 0.581920 0.612783 0.643736 0.674634 0.705318 0.735618 0.765354 0.794333 0.822351 0.849194 0.874638 0.898449 0.920385 0.940197 0.957631 0.972425 0.984320 0.993051 0.998359 0.999989 0.997691 0.991229 0.980377 0.964929 0.944699 0.919526 0.889279 0.853859 0.813206 0.767299 0.716166 0.659883 0.598581 0.532448 0.461731 0.386743 0.307860 0.225528 0.140258 0.052630 0.036709 0.127050 0.217621 0.307594 0.396089 0.482187 0.564932 0.643342 0.716426 0.783190 0.842657 0.893879 0.935952 0.968038 0.989380 0.999318 0.997313 0.982960 0.956006 0.916366 0.864141 0.799624 0.723317 0.635930 0.538392 0.431845 0.317644 0.197340 0.072676 0.054442 0.181963 0.307725 0.429486 0.544968 0.651897 0.748051 0.831311 0.899712 0.951495 0.985162 0.999522 0.993741 0.967382 0.920441 0.853376 0.767123 0.663101 0.543215 0.409826 0.265729 0.114104 0.041547 0.197470 0.349744 0.494382 0.627436 0.745105 0.843857 0.920547 0.972521 0.997735 0.994839 0.963260 0.903265 0.815993 0.703469 0.568585 0.415050 0.247311 0.070449 0.109971 0.288060 0.457794 0.613217 0.748666 0.858979 0.939717 0.987361 0.999489 0.974922 0.913832 0.817795 0.689799 0.534189 0.356558 0.163571 0.037260 0.237848 0.429859 0.605048 0.755635 0.874655 0.956316 0.996308 0.992065 0.942963 0.850427 0.717960 0.551059 0.357038 0.144742 0.075823 0.293941 0.498705 0.679562 0.826877 0.932474 0.990129 0.995983 0.948842 0.850355 0.705029 0.520098 0.305211 0.071990 0.166581 0.396848 0.605268 0.779226 0.907823 0.982604 0.998174 0.952641 0.847870 0.689500 0.486726 0.251832 0.000497 0.254055 0.492143 0.698669 0.859261 0.962322 0.999922 0.968485 0.869193 0.708065 0.495698 0.246644 0.021508 0.289344 0.537001 0.745655 0.898992 0.984537 0.994754 0.927798 0.787846 0.584963 0.334487 0.055954 0.228367 0.495219 0.722271 0.890014 0.983517 0.993836 0.918985 0.764317 0.542289 0.271583 0.024391 0.319431 0.586855 0.801927 0.944201 0.999560 0.961723 0.833082 0.624733 0.355657 0.051117 0.259633 0.546122 0.779658 0.936255 0.999201 0.960966 0.824242 0.601956 0.316208 0.003793 0.324631 0.612135 0.835034 0.968451 0.996787 0.915703 0.732916 0.467657 0.148815 0.188073 0.504735 0.764495 0.936580 0.999898 0.945773 0.779311 0.519157 0.195585 0.152856 0.483875 0.756535 0.936400 0.999995 0.938063 0.757095 0.478905 0.138215 0.221544 0.553665 0.814244 0.968065 0.993524 0.885861 0.658227 0.340334 0.025219 0.388516 0.699087 0.912979 0.999095 0.943929 0.753924 0.455015 0.089335 0.290530 0.629043 0.875836 0.993339 0.962704 0.787083 0.491663 0.120338 0.270624 0.621001 0.875903 0.994502 0.956807 0.767295 0.454768 0.068254 0.330474 0.676662 0.913149 0.999941 0.921257 0.688677 0.339816 0.067473 0.464497 0.783278 0.968237 0.986130 0.832319 0.532214 0.137399 0.282930 0.653981 0.908686 0.999998 0.909869 0.653169 0.275637 0.153948 0.556091 0.855284 0.994284 0.945371 0.716236 0.349231 0.086090 0.505921 0.828266 0.989078 0.955267 0.731883 0.361901 0.081682 0.509977 0.835942 0.992203 0.945281 0.703174 0.314513 0.140807 0.567769 0.876053 0.999276 0.909642 0.624652 0.204192 0.261625 0.671592
1.000000 1.000000 1.000000 1.000000 1.000000 1.000000 1.000000 1.000000 1.000000 1.000000 1.000000 1.000000 1.000000 1.000000 1.000000 1.000000 1.000000 1.000000 1.000000 1.000000 1.000000 1.000000 1.000000 1.000000 1.000000 1.000000 1.000000 1.000000 1.000000 1.000000 1.000000 1.000000 1.000000 1.000000 1.000000 1.000000 1.000000 1.000000 1.000000 1.000000 1.000000 1.000000 1.000000 1.000000 1.000000 1.000000 1.000000 1.000000 1.000000 1.000000 1.000000 1.000000 0.942971 0.942971 0.942971 0.942971 0.942971 0.942971 0.942971 0.942971 0.942971 0.942971 0.942971 0.942971 0.942971 0.942971 0.942971 0.942971 0.942971 0.942971 0.942971 0.942971 0.942971 0.942971 0.942971 0.942971 0.942971 0.942971 0.942971 0.942971 0.942971 0.942971 0.942971 0.942971 0.942971 0.932651 0.933949 0.936432 0.937310 0.937276 0.936918 0.936705 0.936964 0.938176 0.939858 0.956184 0.958236 0.958689 0.959824 0.958654 0.961451 0.960033 0.964611 0.975423 0.974705 0.975267 0.969011 0.969988 0.969436 0.968738 0.969603 0.969388 0.967958 0.966386 0.965084 0.965406 0.965171 0.966713 0.967015 0.966847 0.967206 0.967103 0.966941 0.964116 0.962220 0.963425 0.964787 0.964080 0.969948 0.968767 0.970913 0.970879 0.969789 0.969570 0.969755 0.969917 0.967513 0.966576 0.964775 0.955162 0.947619 0.942411 0.944651 0.947044 0.944203 0.937569 0.936956 0.935639 0.932252 0.931734 0.930201 0.930517 0.921907 0.918946 0.907891 0.908066 0.911145 0.912159 0.909920 0.900881 0.893936 0.894405 0.897115 0.891519 0.889035 0.904678 0.900995 0.903447 0.906664 0.907898 0.911852 0.901066 0.895042 0.891244 0.887381 0.883645 0.885468 0.888160 0.890251 0.885226 0.878163 0.873150 0.871132 0.876412 0.881814 0.883314 0.882043 0.882246 0.881795 0.865643 0.866546 0.853949 0.855146 0.858733 0.863454 0.862248 0.860605 0.861132 0.860305 0.851123 0.853337 0.851063 0.844410 0.837915 0.836365 0.833933 0.847514 0.845404 0.832828 0.821796 0.812430 0.816043 0.822723 0.816882 0.815736 0.807578 0.807416 0.801584 0.788688 0.791446 0.799248 0.795073 0.799608 0.797834 0.805028 0.808428 0.806939 0.805752 0.805550 0.806446 0.772876 0.781365 0.784101 0.765633 0.771297 0.759446 0.755058 0.755648 0.754865 0.748301 0.754774 0.720651 0.688225 0.690017 0.674261 0.650518 0.634498 0.635569 0.638306 0.635466 0.626005 0.608659 0.606950 0.616823 0.626122 0.640137 0.621415 0.617356 0.606900 0.553902 0.563809 0.565883 0.530917 0.542000 0.533517 0.529345 0.529638 0.493942 0.500718 0.501530 0.509702 0.503453 0.493095 0.501006 0.472133 0.463494 0.461292 0.464616 0.480504 0.477594 0.447619 0.466578 0.496794 0.458784 0.435912 0.452601 0.468272 0.475820 0.482068 0.478584 0.441398 0.468362 0.437629 0.452032 0.469811 0.462128 0.455208 0.467669 0.451951 0.474118 0.451272 0.425994 0.395222 0.403193 0.398534 0.403320 0.396405 0.381754 0.379459 0.374647 0.342041 0.361674 0.355496 0.334098 0.368869 0.398057 0.380051 0.354774 0.338842 0.326269 0.274308 0.249295 0.217470 0.227312 0.159322 0.124017 0.124927 0.104882 0.074937 0.040756 0.015914 -0.015350 -0.017151 0.027587 0.041711 0.009854 0.030687 0.039907 0.039907 0.039907 0.039907 0.039907 0.039907 0.039907 0.039907 0.039907 0.039907 0.039907 0.039907 0.039907 0.039907 0.055888 0.055888 0.055888 0.055888 0.055888 0.055888 0.055888 0.055888 0.055888 0.055888 0.055888 0.055888
0.000000 0.000000 0.000000 0.000000 0.000000 0.000000 0.000000 0.000000 0.000000 0.000000 0.000000 0.000000 0.000000 0.000000 0.000000 0.000000 0.000000 0.000000 0.000000 0.000000 0.000000 0.000000 0.000000 0.000000 0.000000 0.000000 0.000000 0.000000 0.000000 0.000000 0.000000 0.000000 0.000000 0.000000 0.000000 0.000000 0.000000 0.000000 0.000000 0.000000 0.000000 0.000000 0.000000 0.000000 0.000000 0.000000 0.000000 0.000000 0.000000 0.000000 0.000000 0.000000 0.209657 0.209657 0.209657 0.209657 0.209657 0.209657 0.209657 0.209657 0.209657 0.209657 0.209657 0.209657 0.209657 0.209657 0.209657 0.209657 0.209657 0.209657 0.209657 0.209657 0.209657 0.209657 0.209657 0.209657 0.209657 0.209657 0.209657 0.209657 0.209657 0.209657 0.209657 0.209657 0.209657 0.244339 0.244339 0.244339 0.244339 0.244339 0.244339 0.244339 0.244339 0.244339 0.244339 0.244339 0.244339 0.244339 0.244339 0.244339 0.244339 0.244339 0.244339 0.244339 0.244339 0.244339 0.244339 0.244339 0.244339 0.244339 0.260378 0.260378 0.260378 0.260378 0.260378 0.260378 0.260378 0.260378 0.260378 0.260378 0.260378 0.260378 0.260378 0.260378 0.260378 0.260378 0.260378 0.260378 0.260378 0.260378 0.269680 0.269680 0.269680 0.269680 0.269680 0.269680 0.269680 0.269680 0.269680 0.269680 0.269680 0.269680 0.269680 0.269680 0.269680 0.269680 0.269680 0.269680 0.269680 0.269680 0.269680 0.269680 0.269680 0.269680 0.269680 0.269680 0.269680 0.269680 0.269680 0.269680 0.269680 0.269680 0.269680 0.280056 0.280056 0.280056 0.280056 0.280056 0.280056 0.280056 0.280056 0.280056 0.280056 0.280056 0.280056 0.280056 0.280056 0.280056 0.280056 0.280056 0.280056 0.280056 0.280056 0.280056 0.280056 0.280056 0.280056 0.280056 0.280056 0.280056 0.274721 0.274721 0.274721 0.274721 0.274721 0.274721 0.274721 0.274721 0.274721 0.274721 0.274721 0.274721 0.274721 0.285714 0.285714 0.285714 0.285714 0.285714 0.285714 0.285714 0.285714 0.285714 0.285714 0.285714 0.280056 0.280056 0.280056 0.280056 0.280056 0.280056 0.280056 0.280056 0.280056 0.280056 0.280056 0.274721 0.274721 0.274721 0.274721 0.274721 0.274721 0.274721 0.274721 0.274721 0.274721 0.274721 0.280056 0.280056 0.280056 0.280056 0.280056 0.280056 0.280056 0.280056 0.280056 0.280056 0.285714 0.285714 0.285714 0.285714 0.285714 0.285714 0.285714 0.285714 0.285714 0.269680 0.269680 0.269680 0.269680 0.269680 0.269680 0.269680 0.269680 0.269680 0.269680 0.274721 0.274721 0.274721 0.274721 0.274721 0.274721 0.274721 0.274721 0.274721 0.285714 0.285714 0.285714 0.285714 0.285714 0.285714 0.285714 0.285714 0.264906 0.264906 0.264906 0.264906 0.264906 0.264906 0.264906 0.264906 0.264906 0.274721 0.274721 0.274721 0.274721 0.274721 0.274721 0.274721 0.274721 0.269680 0.269680 0.269680 0.269680 0.269680 0.269680 0.269680 0.269680 0.269680 0.269680 0.269680 0.269680 0.269680 0.269680 0.269680 0.269680 0.280056 0.280056 0.280056 0.280056 0.280056 0.280056 0.280056 0.260378 0.260378 0.260378 0.260378 0.260378 0.260378 0.260378 0.260378 0.269680 0.269680 0.269680 0.269680 0.269680 0.269680 0.269680 0.264906 0.264906 0.264906 0.264906 0.264906 0.264906 0.264906 0.264906 0.264906 0.264906 0.264906 0.264906 0.264906 0.264906 0.260378 0.260378 0.260378 0.260378 0.260378 0.260378 0.260378 0.260378 0.260378 0.260378 0.260378 0.260378
