# Output from CTFFind version 4.1.9, run on 2019-11-03 19:01:40
# Input file: stack11_bm3d_averaged_1_2.75_0_1000_half.mrc ; Number of micrographs: 1
# Pixel size: 3.000 Angstroms ; acceleration voltage: 300.0 keV ; spherical aberration: 0.00 mm ; amplitude contrast: 0.07
# Box size: 512 pixels ; min. res.: 30.0 Angstroms ; max. res.: 5.0 Angstroms ; min. def.: 5000.0 um; max. def. 50000.0 um; num. frames averaged: 1
# 6 lines per micrograph: #1 - spatial frequency (1/Angstroms); #2 - 1D rotational average of spectrum (assuming no astigmatism); #3 - 1D rotational average of spectrum; #4 - CTF fit; #5 - cross-correlation between spectrum and CTF fit; #6 - 2sigma of expected cross correlation of noise
0.000000 0.000651 0.001302 0.001953 0.002604 0.003255 0.003906 0.004557 0.005208 0.005859 0.006510 0.007161 0.007812 0.008464 0.009115 0.009766 0.010417 0.011068 0.011719 0.012370 0.013021 0.013672 0.014323 0.014974 0.015625 0.016276 0.016927 0.017578 0.018229 0.018880 0.019531 0.020182 0.020833 0.021484 0.022135 0.022786 0.023438 0.024089 0.024740 0.025391 0.026042 0.026693 0.027344 0.027995 0.028646 0.029297 0.029948 0.030599 0.031250 0.031901 0.032552 0.033203 0.033854 0.034505 0.035156 0.035807 0.036458 0.037109 0.037760 0.038411 0.039062 0.039714 0.040365 0.041016 0.041667 0.042318 0.042969 0.043620 0.044271 0.044922 0.045573 0.046224 0.046875 0.047526 0.048177 0.048828 0.049479 0.050130 0.050781 0.051432 0.052083 0.052734 0.053385 0.054036 0.054688 0.055339 0.055990 0.056641 0.057292 0.057943 0.058594 0.059245 0.059896 0.060547 0.061198 0.061849 0.062500 0.063151 0.063802 0.064453 0.065104 0.065755 0.066406 0.067057 0.067708 0.068359 0.069010 0.069661 0.070312 0.070964 0.071615 0.072266 0.072917 0.073568 0.074219 0.074870 0.075521 0.076172 0.076823 0.077474 0.078125 0.078776 0.079427 0.080078 0.080729 0.081380 0.082031 0.082682 0.083333 0.083984 0.084635 0.085286 0.085938 0.086589 0.087240 0.087891 0.088542 0.089193 0.089844 0.090495 0.091146 0.091797 0.092448 0.093099 0.093750 0.094401 0.095052 0.095703 0.096354 0.097005 0.097656 0.098307 0.098958 0.099609 0.100260 0.100911 0.101562 0.102214 0.102865 0.103516 0.104167 0.104818 0.105469 0.106120 0.106771 0.107422 0.108073 0.108724 0.109375 0.110026 0.110677 0.111328 0.111979 0.112630 0.113281 0.113932 0.114583 0.115234 0.115885 0.116536 0.117188 0.117839 0.118490 0.119141 0.119792 0.120443 0.121094 0.121745 0.122396 0.123047 0.123698 0.124349 0.125000 0.125651 0.126302 0.126953 0.127604 0.128255 0.128906 0.129557 0.130208 0.130859 0.131510 0.132161 0.132812 0.133464 0.134115 0.134766 0.135417 0.136068 0.136719 0.137370 0.138021 0.138672 0.139323 0.139974 0.140625 0.141276 0.141927 0.142578 0.143229 0.143880 0.144531 0.145182 0.145833 0.146484 0.147135 0.147786 0.148438 0.149089 0.149740 0.150391 0.151042 0.151693 0.152344 0.152995 0.153646 0.154297 0.154948 0.155599 0.156250 0.156901 0.157552 0.158203 0.158854 0.159505 0.160156 0.160807 0.161458 0.162109 0.162760 0.163411 0.164062 0.164714 0.165365 0.166016 0.166667 0.167318 0.167969 0.168620 0.169271 0.169922 0.170573 0.171224 0.171875 0.172526 0.173177 0.173828 0.174479 0.175130 0.175781 0.176432 0.177083 0.177734 0.178385 0.179036 0.179688 0.180339 0.180990 0.181641 0.182292 0.182943 0.183594 0.184245 0.184896 0.185547 0.186198 0.186849 0.187500 0.188151 0.188802 0.189453 0.190104 0.190755 0.191406 0.192057 0.192708 0.193359 0.194010 0.194661 0.195312 0.195964 0.196615 0.197266 0.197917 0.198568 0.199219 0.199870 0.200521 0.201172 0.201823 0.202474 0.203125 0.203776 0.204427 0.205078 0.205729 0.206380 0.207031 0.207682 0.208333 0.208984 0.209635 0.210286 0.210938 0.211589 0.212240 0.212891 0.213542 0.214193 0.214844 0.215495 0.216146 0.216797 0.217448 0.218099 0.218750 0.219401 0.220052 0.220703 0.221354 0.222005 0.222656 0.223307 0.223958 0.224609 0.225260 0.225911 0.226562 0.227214 0.227865 0.228516 0.229167 0.229818 0.230469 0.231120 0.231771 0.232422 0.233073 0.233724 0.234375 0.235026 0.235677
       0.31915        0.31915        0.31915        0.31915        0.31915        0.31915        0.31915        0.31915        0.31915        0.31915        0.31915        0.31915        0.31915        0.31915        0.31915        0.31915        0.31915        0.31915        0.31915        0.31915        0.31915        0.31915        0.31915        0.31915        0.31915        0.31915        0.31915        0.31915        0.31915        0.31915        0.31915        0.31915        0.31915        0.31915        0.31915        0.31915        0.31915        0.31915        0.31915        0.31915        0.31915        0.31915        0.31915        0.31915        0.31915        0.31915        0.31915        0.31915        0.31915        0.31915        0.31915        0.68136        0.86139        0.52445        0.09121       -0.05597       -0.42234       -0.20121       -0.29986       -0.11643       -0.07252       -0.11826       -0.06673       -0.20210       -0.22981       -0.24946       -0.32975       -0.33761       -0.47835       -0.38017       -0.45725       -0.44700       -0.41992       -0.45724       -0.51837       -0.55125       -0.58180       -0.60898       -0.56997       -0.40344       -0.37469       -0.32798       -0.30848       -0.20512       -0.19925        0.02407        0.09127        0.12267        0.23223        0.36811        0.44199        0.51007        0.56199        0.55909        0.56501        0.68940        0.80494        0.72547        0.73134        0.64871        0.56804        0.48192        0.40967        0.49672        0.38172        0.21752        0.08076        0.05634        0.02977       -0.05621       -0.02163       -0.00036       -0.05408       -0.00555       -0.01624        0.22021        0.25388        0.28439        0.42150        0.44912        0.40394        0.55034        0.62141        0.67800        0.74624        0.68478        0.65011        0.68368        0.56951        0.48270        0.41433        0.29037        0.20908        0.15672        0.10996        0.04228        0.01566        0.01200        0.07452        0.12896        0.21122        0.26982        0.39459        0.42904        0.49327        0.59623        0.62478        0.62764        0.62131        0.55280        0.44579        0.45570        0.35521        0.23273        0.18349        0.14567        0.12728        0.13328        0.09609        0.12497        0.25161        0.27076        0.35076        0.37787        0.43964        0.50969        0.53801        0.54363        0.47085        0.43640        0.38554        0.34840        0.30491        0.25949        0.21303        0.20231        0.18073        0.20601        0.18827        0.27992        0.33955        0.37089        0.42907        0.45362        0.47505        0.42312        0.38536        0.40862        0.36563        0.27680        0.25928        0.22250        0.22622        0.19661        0.23171        0.23726        0.32744        0.36834        0.37727        0.46738        0.42750        0.43141        0.42927        0.39637        0.34127        0.31619        0.27987        0.26760        0.24527        0.27720        0.27858        0.30392        0.30798        0.32942        0.32019        0.40217        0.41543        0.37609        0.34505        0.36439        0.28404        0.28189        0.26355        0.28703        0.26660        0.28287        0.29734        0.31381        0.34265        0.36351        0.36726        0.35267        0.35466        0.29710        0.32277        0.27364        0.24664        0.30195        0.29421        0.31022        0.30796        0.32008        0.33612        0.31867        0.31938        0.29221        0.29963        0.27191        0.28718        0.26162        0.29172        0.28882        0.27937        0.30700        0.31644        0.32163        0.27022        0.30310        0.27346        0.27246        0.25673        0.21915        0.27821        0.28168        0.33415        0.30826        0.31249        0.31706        0.31654        0.27896        0.30669        0.32737        0.26748        0.26114        0.30369        0.28677        0.33609        0.32739        0.33271        0.32521        0.29402        0.27615        0.28304        0.24644        0.22338        0.28568        0.30866        0.29937        0.28629        0.30342        0.27979        0.33427        0.32813        0.25553        0.22859        0.28568        0.31011        0.27859        0.30852        0.33217        0.32759        0.30485        0.30641        0.33256        0.29967        0.27752        0.25476        0.29936        0.35016        0.36904        0.28016        0.26649        0.26359        0.29562        0.23075        0.28487        0.25160        0.24907        0.32663        0.32484        0.34010        0.30079        0.25277        0.25124        0.24707        0.24133        0.21716        0.23582        0.30443        0.29216        0.22857        0.31911        0.32238        0.25608        0.25663        0.19466        0.17173        0.23449        0.20204        0.21141        0.22620        0.22555        0.19272        0.25817        0.34569        0.32094        0.33615        0.23337        0.20569        0.18470        0.25043        0.26754        0.15256        0.20521        0.24798        0.13401        0.16933        0.13140        0.11218        0.21883        0.11151       -0.09751       -0.58370
2.596899 2.569889 2.543026 2.516308 2.489736 2.463310 2.437030 2.410896 2.384907 2.359065 2.333369 2.307818 2.282413 2.257154 2.232042 2.207075 2.182253 2.157578 2.133049 2.108665 2.084428 2.060336 2.036390 2.012591 1.988937 1.965429 1.942066 1.918850 1.895780 1.872855 1.850077 1.827444 1.804957 1.782616 1.760421 1.738372 1.716469 1.694712 1.673100 1.651635 1.630315 1.609141 1.588113 1.567231 1.546495 1.525905 1.505461 1.485162 1.465010 1.445003 1.425143 1.643562 2.057532 1.629363 1.136124 0.997306 0.414721 0.816219 0.548390 0.833781 0.775403 0.793468 0.746276 0.712264 0.566050 0.523244 0.480278 0.431874 0.214983 0.372866 0.199950 0.309054 0.226498 0.184689 0.144283 0.013072 0.032104 -0.006286 -0.063487 0.111273 0.207862 0.187289 0.156402 0.336130 0.191223 0.497250 0.595092 0.577044 0.609446 0.875349 0.819270 0.941992 0.896967 0.990561 0.954916 1.080072 1.144689 1.063824 1.144219 0.938557 0.936439 0.793823 0.656843 0.785944 0.713993 0.474066 0.318951 0.251312 0.238690 0.149900 0.105586 0.144813 0.092275 0.146521 0.062153 0.267375 0.382887 0.358595 0.482160 0.571166 0.455410 0.573012 0.712709 0.735028 0.774515 0.726995 0.739030 0.701634 0.623577 0.556117 0.420334 0.289297 0.226796 0.089653 0.131428 -0.045983 -0.033188 -0.062849 -0.042287 -0.007952 0.158907 0.078116 0.288682 0.299124 0.357672 0.453844 0.526339 0.503564 0.533659 0.513537 0.338048 0.321973 0.292788 0.105446 0.059158 -0.019202 -0.011785 -0.029467 -0.069064 -0.084399 0.025904 0.072570 0.134650 0.176504 0.241198 0.318121 0.329271 0.415815 0.403726 0.292467 0.245405 0.235994 0.191116 0.124388 0.104903 0.023361 0.018947 0.036257 -0.000684 0.075207 0.162414 0.147801 0.253996 0.260539 0.316156 0.218812 0.224215 0.165191 0.221442 0.123934 0.046148 0.018035 -0.001060 -0.003301 -0.035743 0.034184 0.022428 0.155248 0.146223 0.181903 0.251492 0.195321 0.181801 0.185645 0.137604 0.076363 0.037036 0.054022 -0.017593 -0.005055 0.016610 0.048856 0.051851 0.059392 0.070773 0.109658 0.135722 0.182466 0.081670 0.087093 0.070271 0.008802 -0.002133 0.012374 0.006064 0.012497 0.010812 0.032061 0.065229 0.084609 0.124750 0.061842 0.119235 0.065826 0.023695 0.061043 -0.030882 -0.001473 0.051274 0.009252 0.059221 0.053329 0.042729 0.087918 0.064340 0.044449 0.047911 0.016867 0.032662 0.019289 0.000017 0.063835 0.003496 0.031585 0.068112 0.067546 0.040242 0.049128 0.047023 0.030278 0.015229 -0.014530 -0.015049 0.034889 0.056084 0.096418 0.065305 0.077625 0.083349 0.083412 0.038048 0.091696 0.098189 0.013715 0.032407 0.077837 0.061582 0.100055 0.084637 0.138661 0.100940 0.068500 0.027058 0.063328 -0.017525 0.009187 0.069035 0.078619 0.058443 0.050027 0.049144 0.012357 0.115385 0.059412 -0.025582 -0.042472 0.036216 0.078004 0.013404 0.025611 0.084743 0.090571 0.028066 0.056335 0.074209 0.039694 0.027317 -0.033737 0.051164 0.111838 0.087900 -0.005959 -0.018369 -0.023522 0.055431 -0.083236 0.038025 -0.042806 -0.021370 0.058635 0.057612 0.029947 -0.004571 -0.049141 -0.033531 -0.074229 -0.029743 -0.082191 -0.069164 0.034496 0.042531 -0.062829 0.067145 0.023453 -0.049852 0.032493 -0.106107 -0.097250 -0.030133 -0.047121 -0.031484 -0.022648 -0.001240 -0.059273 0.027187 0.195421 -0.007936 0.153394 0.019965 0.222260 0.189523 0.283488 0.282850 0.143235 0.207807 0.296016 0.112659 0.180224 0.130476 0.109717 0.321400 0.115607 -0.614818
0.072396 0.072898 0.074405 0.076915 0.080428 0.084944 0.090461 0.096978 0.104492 0.113000 0.122500 0.132987 0.144455 0.156898 0.170309 0.184679 0.199995 0.216246 0.233417 0.251490 0.270445 0.290260 0.310908 0.332361 0.354585 0.377542 0.401193 0.425490 0.450384 0.475819 0.501733 0.528059 0.554726 0.581654 0.608758 0.635947 0.663122 0.690180 0.717007 0.743486 0.769491 0.794890 0.819545 0.843310 0.866035 0.887562 0.907731 0.926374 0.943322 0.958399 0.971430 0.982238 0.990644 0.996471 0.999545 0.999694 0.996753 0.990561 0.980969 0.967837 0.951036 0.930453 0.905992 0.877576 0.845146 0.808670 0.768140 0.723574 0.675023 0.622566 0.566319 0.506431 0.443089 0.376518 0.306984 0.234790 0.160281 0.083843 0.005900 0.073082 0.152604 0.232128 0.311084 0.388874 0.464874 0.538437 0.608904 0.675603 0.737859 0.795002 0.846372 0.891329 0.929260 0.959593 0.981797 0.995402 1.000000 0.995260 0.980934 0.956867 0.923008 0.879412 0.826249 0.763813 0.692522 0.612919 0.525679 0.431603 0.331619 0.226772 0.118221 0.007226 0.104859 0.216607 0.326529 0.433099 0.534769 0.629996 0.717264 0.795114 0.862166 0.917150 0.958934 0.986546 0.999206 0.996346 0.977636 0.942999 0.892627 0.826996 0.746868 0.653294 0.547614 0.431437 0.306633 0.175304 0.039758 0.097529 0.233955 0.366840 0.493479 0.611192 0.717393 0.809645 0.885723 0.943672 0.981867 0.999067 0.994458 0.967697 0.918941 0.848867 0.758677 0.650100 0.525365 0.387175 0.238654 0.083291 0.075141 0.232666 0.385206 0.528686 0.659144 0.772845 0.866403 0.936882 0.981902 0.999738 0.989391 0.950651 0.884137 0.791314 0.674478 0.536727 0.381892 0.214446 0.039389 0.137891 0.311785 0.476630 0.626902 0.757405 0.863464 0.941101 0.987204 0.999671 0.977520 0.920968 0.831470 0.711712 0.565559 0.397950 0.214758 0.022598 0.171400 0.359852 0.535394 0.690980 0.820179 0.917444 0.978385 0.999980 0.980754 0.920896 0.822307 0.688576 0.524894 0.337866 0.135285 0.074186 0.281365 0.476954 0.651957 0.798107 0.908273 0.976835 0.999999 0.976039 0.905445 0.790975 0.637593 0.452288 0.243802 0.022230 0.201442 0.415868 0.609928 0.773314 0.897090 0.974219 0.999994 0.972363 0.892127 0.762979 0.591389 0.386324 0.158823 0.078570 0.312487 0.529469 0.716761 0.863074 0.959299 0.999114 0.979445 0.900746 0.767075 0.585948 0.367967 0.126250 0.124332 0.368043 0.589273 0.773547 0.908503 0.984756 0.996603 0.942507 0.825312 0.652175 0.434191 0.185737 0.076428 0.334274 0.569727 0.765951 0.908580 0.986816 0.994302 0.929708 0.796955 0.605066 0.367624 0.101874 0.172492 0.434764 0.664777 0.844498 0.959456 0.999986 0.962109 0.847987 0.665910 0.429771 0.158096 0.127378 0.403388 0.647057 0.837790 0.959081 0.999990 0.956221 0.830649 0.633239 0.380355 0.093489 0.202526 0.481622 0.718804 0.892414 0.986164 0.990758 0.904895 0.735580 0.497665 0.212643 0.093218 0.391253 0.653076 0.853306 0.972084 0.997127 0.925100 0.762144 0.523479 0.232096 0.083370 0.391423 0.660808 0.863725 0.978765 0.993246 0.904738 0.721532 0.462006 0.152887 0.173400 0.482107 0.739849 0.918250 0.997162 0.967043 0.830238 0.600970 0.303995 0.027947 0.357689 0.647759 0.864671 0.982855 0.987789 0.877913 0.665081 0.373438 0.036806 0.305145 0.611534 0.845188 0.977199 0.990633 0.882840 0.666071 0.366252 0.020015 0.329668 0.638792 0.867874 0.987083 0.980246 0.847204 0.604145 0.281801 0.078270
1.000000 1.000000 1.000000 1.000000 1.000000 1.000000 1.000000 1.000000 1.000000 1.000000 1.000000 1.000000 1.000000 1.000000 1.000000 1.000000 1.000000 1.000000 1.000000 1.000000 1.000000 1.000000 1.000000 1.000000 1.000000 1.000000 1.000000 1.000000 1.000000 1.000000 1.000000 1.000000 1.000000 1.000000 1.000000 1.000000 1.000000 1.000000 1.000000 1.000000 1.000000 1.000000 1.000000 1.000000 1.000000 1.000000 1.000000 1.000000 1.000000 1.000000 1.000000 1.000000 0.927970 0.927970 0.927970 0.914798 0.914798 0.914798 0.914798 0.914798 0.914798 0.914798 0.914798 0.914798 0.914798 0.914798 0.914798 0.914798 0.914798 0.914798 0.914798 0.914798 0.914798 0.914798 0.914798 0.914798 0.914798 0.914798 0.914798 0.914798 0.914798 0.914798 0.914798 0.914798 0.914798 0.914798 0.914798 0.914798 0.914798 0.914798 0.914798 0.914798 0.914798 0.914798 0.914798 0.914798 0.942379 0.943870 0.951934 0.951749 0.951162 0.948861 0.947867 0.947370 0.947232 0.947529 0.948208 0.949148 0.958071 0.959251 0.962112 0.963036 0.963862 0.964630 0.965423 0.966342 0.965076 0.962373 0.961565 0.961378 0.964226 0.963902 0.964182 0.965315 0.965217 0.966064 0.966438 0.966244 0.965630 0.965043 0.964372 0.963946 0.963771 0.964418 0.964718 0.966063 0.969304 0.969769 0.969829 0.969984 0.970072 0.970227 0.970625 0.972304 0.968324 0.969064 0.969105 0.966919 0.973915 0.970790 0.971424 0.971910 0.973236 0.973430 0.967652 0.963764 0.954259 0.953402 0.948084 0.939112 0.935491 0.936747 0.938701 0.939732 0.939817 0.934387 0.934758 0.930857 0.929302 0.932793 0.930147 0.928850 0.930205 0.931219 0.931511 0.930723 0.929358 0.924517 0.920038 0.919181 0.922170 0.924971 0.926618 0.927144 0.922932 0.898618 0.896565 0.902877 0.890839 0.881202 0.876531 0.872485 0.877345 0.880675 0.884862 0.883376 0.871222 0.854177 0.839753 0.837988 0.839056 0.834831 0.835046 0.837147 0.827804 0.840512 0.838234 0.844141 0.842301 0.849482 0.847590 0.833708 0.830286 0.827316 0.822547 0.815551 0.821980 0.816867 0.816872 0.814953 0.811877 0.806610 0.811529 0.785462 0.773058 0.767007 0.770344 0.774634 0.768318 0.764729 0.771644 0.775649 0.779994 0.767872 0.760381 0.747141 0.751245 0.757612 0.764864 0.759228 0.742687 0.719576 0.669048 0.684597 0.722105 0.663254 0.684132 0.688714 0.672871 0.673165 0.664595 0.658275 0.655319 0.654879 0.661911 0.673445 0.687105 0.707901 0.698050 0.687679 0.688035 0.671860 0.666366 0.647741 0.656222 0.637641 0.633618 0.662147 0.636297 0.631702 0.624209 0.632659 0.648214 0.626851 0.624974 0.622139 0.615863 0.615502 0.615240 0.605301 0.614113 0.616113 0.607290 0.619657 0.632932 0.618712 0.604423 0.592982 0.556688 0.546758 0.577943 0.584417 0.566735 0.532147 0.533145 0.555107 0.556056 0.551897 0.524182 0.524462 0.529009 0.572022 0.560104 0.527112 0.543348 0.538546 0.539613 0.483649 0.477759 0.456592 0.446700 0.384467 0.369640 0.369830 0.356514 0.343856 0.308212 0.307079 0.313741 0.323767 0.325489 0.317409 0.303570 0.314817 0.311540 0.297103 0.237891 0.218484 0.203671 0.190385 0.193693 0.163110 0.185244 0.250395 0.252779 0.252779 0.252779 0.252779 0.252779 0.252779 0.262989 0.262989 0.262989 0.262989 0.262989 0.262989 0.262989 0.262989 0.262989 0.273798 0.273798 0.273798 0.273798 0.273798 0.273798 0.273798 0.273798 0.273798 0.273798 0.273798 0.273798 0.273798 0.273798
0.000000 0.000000 0.000000 0.000000 0.000000 0.000000 0.000000 0.000000 0.000000 0.000000 0.000000 0.000000 0.000000 0.000000 0.000000 0.000000 0.000000 0.000000 0.000000 0.000000 0.000000 0.000000 0.000000 0.000000 0.000000 7.000000 4.000000 0.000000 0.000000 0.000000 0.000000 0.000000 0.000000 0.000000 0.000000 0.000000 0.000000 0.000000 0.000000 0.000000 0.000000 0.000000 0.000000 0.000000 0.000000 0.000000 0.000000 0.000000 0.000000 0.000000 0.000000 0.000000 0.180334 0.180334 0.180334 0.199007 0.199007 0.199007 0.199007 0.199007 0.199007 0.199007 0.199007 0.199007 0.199007 0.199007 0.199007 0.199007 0.199007 0.199007 0.199007 0.199007 0.199007 0.199007 0.199007 0.199007 0.199007 0.199007 0.199007 0.199007 0.199007 0.199007 0.199007 0.199007 0.199007 0.199007 0.199007 0.199007 0.199007 0.199007 0.199007 0.199007 0.199007 0.199007 0.199007 0.199007 0.225018 0.225018 0.225018 0.225018 0.225018 0.225018 0.225018 0.225018 0.225018 0.225018 0.225018 0.225018 0.225018 0.225018 0.225018 0.225018 0.225018 0.225018 0.225018 0.225018 0.225018 0.225018 0.225018 0.225018 0.225018 0.225018 0.225018 0.225018 0.225018 0.244339 0.244339 0.244339 0.244339 0.244339 0.244339 0.244339 0.244339 0.244339 0.244339 0.244339 0.244339 0.244339 0.244339 0.244339 0.244339 0.244339 0.244339 0.244339 0.244339 0.244339 0.244339 0.244339 0.251976 0.251976 0.251976 0.251976 0.251976 0.251976 0.251976 0.251976 0.251976 0.251976 0.251976 0.251976 0.251976 0.251976 0.251976 0.251976 0.251976 0.251976 0.251976 0.251976 0.264906 0.264906 0.264906 0.264906 0.264906 0.264906 0.264906 0.264906 0.264906 0.264906 0.264906 0.264906 0.264906 0.264906 0.264906 0.264906 0.264906 0.256074 0.256074 0.256074 0.256074 0.256074 0.256074 0.256074 0.256074 0.256074 0.256074 0.256074 0.256074 0.256074 0.256074 0.256074 0.256074 0.256074 0.269680 0.269680 0.269680 0.269680 0.269680 0.269680 0.269680 0.269680 0.269680 0.269680 0.269680 0.269680 0.269680 0.269680 0.264906 0.264906 0.264906 0.264906 0.264906 0.264906 0.264906 0.264906 0.264906 0.264906 0.264906 0.264906 0.264906 0.264906 0.256074 0.256074 0.256074 0.256074 0.256074 0.256074 0.256074 0.256074 0.256074 0.256074 0.256074 0.256074 0.256074 0.256074 0.269680 0.269680 0.269680 0.269680 0.269680 0.269680 0.269680 0.269680 0.269680 0.269680 0.269680 0.269680 0.264906 0.264906 0.264906 0.264906 0.264906 0.264906 0.264906 0.264906 0.264906 0.264906 0.264906 0.264906 0.260378 0.260378 0.260378 0.260378 0.260378 0.260378 0.260378 0.260378 0.260378 0.260378 0.260378 0.260378 0.274721 0.274721 0.274721 0.274721 0.274721 0.274721 0.274721 0.274721 0.274721 0.274721 0.256074 0.256074 0.256074 0.256074 0.256074 0.256074 0.256074 0.256074 0.256074 0.256074 0.256074 0.264906 0.264906 0.264906 0.264906 0.264906 0.264906 0.264906 0.264906 0.264906 0.264906 0.260378 0.260378 0.260378 0.260378 0.260378 0.260378 0.260378 0.260378 0.260378 0.260378 0.256074 0.256074 0.256074 0.256074 0.256074 0.256074 0.256074 0.256074 0.256074 0.256074 0.260378 0.260378 0.260378 0.260378 0.260378 0.260378 0.260378 0.260378 0.260378 0.256074 0.256074 0.256074 0.256074 0.256074 0.256074 0.256074 0.256074 0.256074 0.251976 0.251976 0.251976 0.251976 0.251976 0.251976 0.251976 0.251976 0.251976 0.251976 0.251976 0.251976 0.251976 0.251976
