# Output from CTFFind version 4.1.9, run on 2019-11-03 19:44:29
# Input file: stack11_bm3d_averaged_1_5.25_0_50_half.mrc ; Number of micrographs: 1
# Pixel size: 3.000 Angstroms ; acceleration voltage: 300.0 keV ; spherical aberration: 0.00 mm ; amplitude contrast: 0.07
# Box size: 512 pixels ; min. res.: 30.0 Angstroms ; max. res.: 5.0 Angstroms ; min. def.: 5000.0 um; max. def. 50000.0 um; num. frames averaged: 1
# 6 lines per micrograph: #1 - spatial frequency (1/Angstroms); #2 - 1D rotational average of spectrum (assuming no astigmatism); #3 - 1D rotational average of spectrum; #4 - CTF fit; #5 - cross-correlation between spectrum and CTF fit; #6 - 2sigma of expected cross correlation of noise
0.000000 0.000651 0.001302 0.001953 0.002604 0.003255 0.003906 0.004557 0.005208 0.005859 0.006510 0.007161 0.007812 0.008464 0.009115 0.009766 0.010417 0.011068 0.011719 0.012370 0.013021 0.013672 0.014323 0.014974 0.015625 0.016276 0.016927 0.017578 0.018229 0.018880 0.019531 0.020182 0.020833 0.021484 0.022135 0.022786 0.023438 0.024089 0.024740 0.025391 0.026042 0.026693 0.027344 0.027995 0.028646 0.029297 0.029948 0.030599 0.031250 0.031901 0.032552 0.033203 0.033854 0.034505 0.035156 0.035807 0.036458 0.037109 0.037760 0.038411 0.039062 0.039714 0.040365 0.041016 0.041667 0.042318 0.042969 0.043620 0.044271 0.044922 0.045573 0.046224 0.046875 0.047526 0.048177 0.048828 0.049479 0.050130 0.050781 0.051432 0.052083 0.052734 0.053385 0.054036 0.054688 0.055339 0.055990 0.056641 0.057292 0.057943 0.058594 0.059245 0.059896 0.060547 0.061198 0.061849 0.062500 0.063151 0.063802 0.064453 0.065104 0.065755 0.066406 0.067057 0.067708 0.068359 0.069010 0.069661 0.070312 0.070964 0.071615 0.072266 0.072917 0.073568 0.074219 0.074870 0.075521 0.076172 0.076823 0.077474 0.078125 0.078776 0.079427 0.080078 0.080729 0.081380 0.082031 0.082682 0.083333 0.083984 0.084635 0.085286 0.085938 0.086589 0.087240 0.087891 0.088542 0.089193 0.089844 0.090495 0.091146 0.091797 0.092448 0.093099 0.093750 0.094401 0.095052 0.095703 0.096354 0.097005 0.097656 0.098307 0.098958 0.099609 0.100260 0.100911 0.101562 0.102214 0.102865 0.103516 0.104167 0.104818 0.105469 0.106120 0.106771 0.107422 0.108073 0.108724 0.109375 0.110026 0.110677 0.111328 0.111979 0.112630 0.113281 0.113932 0.114583 0.115234 0.115885 0.116536 0.117188 0.117839 0.118490 0.119141 0.119792 0.120443 0.121094 0.121745 0.122396 0.123047 0.123698 0.124349 0.125000 0.125651 0.126302 0.126953 0.127604 0.128255 0.128906 0.129557 0.130208 0.130859 0.131510 0.132161 0.132812 0.133464 0.134115 0.134766 0.135417 0.136068 0.136719 0.137370 0.138021 0.138672 0.139323 0.139974 0.140625 0.141276 0.141927 0.142578 0.143229 0.143880 0.144531 0.145182 0.145833 0.146484 0.147135 0.147786 0.148438 0.149089 0.149740 0.150391 0.151042 0.151693 0.152344 0.152995 0.153646 0.154297 0.154948 0.155599 0.156250 0.156901 0.157552 0.158203 0.158854 0.159505 0.160156 0.160807 0.161458 0.162109 0.162760 0.163411 0.164062 0.164714 0.165365 0.166016 0.166667 0.167318 0.167969 0.168620 0.169271 0.169922 0.170573 0.171224 0.171875 0.172526 0.173177 0.173828 0.174479 0.175130 0.175781 0.176432 0.177083 0.177734 0.178385 0.179036 0.179688 0.180339 0.180990 0.181641 0.182292 0.182943 0.183594 0.184245 0.184896 0.185547 0.186198 0.186849 0.187500 0.188151 0.188802 0.189453 0.190104 0.190755 0.191406 0.192057 0.192708 0.193359 0.194010 0.194661 0.195312 0.195964 0.196615 0.197266 0.197917 0.198568 0.199219 0.199870 0.200521 0.201172 0.201823 0.202474 0.203125 0.203776 0.204427 0.205078 0.205729 0.206380 0.207031 0.207682 0.208333 0.208984 0.209635 0.210286 0.210938 0.211589 0.212240 0.212891 0.213542 0.214193 0.214844 0.215495 0.216146 0.216797 0.217448 0.218099 0.218750 0.219401 0.220052 0.220703 0.221354 0.222005 0.222656 0.223307 0.223958 0.224609 0.225260 0.225911 0.226562 0.227214 0.227865 0.228516 0.229167 0.229818 0.230469 0.231120 0.231771 0.232422 0.233073 0.233724 0.234375 0.235026 0.235677
       0.34093        0.34093        0.34093        0.34093        0.34093        0.34093        0.34093        0.34093        0.34093        0.34093        0.34093        0.34093        0.34093        0.34093        0.34093        0.34093        0.34093        0.34093        0.34093        0.34093        0.34093        0.34093        0.34093        0.34093        0.34093        0.34093        0.34093        0.34093        0.34093        0.34093        0.34093        0.34093        0.34093        0.34093        0.34093        0.34093        0.34093        0.34093        0.34093        0.34093        0.34093        0.34093        0.34093        0.34093        0.34093        0.34093        0.34093        0.34093        0.34093        0.34093        0.34093        0.69638        0.85989        0.53615        0.10467       -0.03183       -0.39233       -0.18188       -0.28825       -0.11230       -0.05506       -0.11003       -0.05338       -0.17138       -0.20801       -0.21887       -0.30922       -0.32070       -0.44858       -0.36364       -0.42975       -0.42326       -0.39853       -0.41770       -0.45944       -0.51555       -0.56186       -0.56102       -0.53365       -0.36330       -0.33551       -0.29742       -0.27605       -0.18729       -0.17601        0.05550        0.13532        0.16622        0.25961        0.38033        0.45723        0.52215        0.59527        0.59258        0.58014        0.69829        0.80558        0.70771        0.74208        0.62559        0.56847        0.48413        0.43011        0.51163        0.39530        0.26112        0.11187        0.10257        0.08220       -0.02133        0.03204        0.04397       -0.00007        0.02401        0.02146        0.23654        0.26886        0.29575        0.43398        0.45364        0.41304        0.59103        0.62342        0.64645        0.72927        0.67927        0.64923        0.66523        0.56321        0.46575        0.41943        0.30349        0.25913        0.17820        0.13230        0.05274        0.05636        0.06257        0.09424        0.15143        0.23829        0.29025        0.41477        0.46243        0.48307        0.57506        0.60876        0.63918        0.61906        0.56192        0.45954        0.47162        0.37862        0.26927        0.20769        0.15864        0.16649        0.14888        0.14910        0.17659        0.31198        0.32406        0.39669        0.43795        0.42882        0.48830        0.56074        0.55460        0.49867        0.45617        0.41013        0.36325        0.33501        0.30048        0.25268        0.24292        0.24164        0.24924        0.22197        0.30620        0.36317        0.38557        0.44022        0.45495        0.47016        0.42542        0.40589        0.40275        0.36236        0.32384        0.27282        0.27002        0.26373        0.23486        0.28575        0.28340        0.34638        0.37867        0.42426        0.47755        0.41296        0.42565        0.43291        0.40988        0.34769        0.32442        0.29326        0.31778        0.27066        0.31595        0.30836        0.32558        0.33502        0.35926        0.31844        0.39485        0.41666        0.38022        0.34799        0.37104        0.31408        0.29358        0.29991        0.31921        0.30503        0.31745        0.33826        0.35001        0.34093        0.36746        0.36670        0.41037        0.38333        0.33547        0.34204        0.29645        0.28642        0.32456        0.31801        0.32728        0.33826        0.33558        0.37968        0.32919        0.33125        0.33365        0.34060        0.30136        0.31047        0.27821        0.30193        0.32585        0.30442        0.32601        0.35129        0.35942        0.29201        0.33075        0.29425        0.30185        0.27935        0.24533        0.30127        0.30117        0.34159        0.33686        0.33677        0.32519        0.34708        0.31200        0.34429        0.31512        0.31545        0.28347        0.32963        0.31856        0.36098        0.32534        0.33286        0.33944        0.29248        0.27524        0.30879        0.24818        0.22722        0.33651        0.32176        0.35807        0.34271        0.35834        0.32689        0.33728        0.34480        0.26443        0.25510        0.31323        0.29902        0.31122        0.32130        0.34027        0.33547        0.29662        0.28992        0.34108        0.31931        0.30802        0.28711        0.32239        0.34408        0.39642        0.35140        0.31382        0.28106        0.30429        0.28528        0.29454        0.26838        0.25679        0.30933        0.32854        0.34139        0.35106        0.32475        0.28604        0.29707        0.26684        0.27254        0.25236        0.31568        0.27415        0.23810        0.30995        0.30396        0.26568        0.29318        0.21145        0.21543        0.25324        0.18955        0.26263        0.33653        0.24863        0.23078        0.31359        0.31159        0.32279        0.31674        0.26084        0.23947        0.18105        0.21171        0.19178        0.24071        0.22302        0.26409        0.33633        0.31986        0.23490        0.14627        0.06792       -0.01544       -0.11283       -0.63644
2.758486 2.729202 2.700078 2.671114 2.642310 2.613667 2.585184 2.556862 2.528699 2.500697 2.472855 2.445173 2.417652 2.390291 2.363090 2.336049 2.309169 2.282449 2.255889 2.229489 2.203250 2.177170 2.151252 2.125493 2.099895 2.074456 2.049178 2.024061 1.999103 1.974306 1.949669 1.925193 1.900876 1.876720 1.852724 1.828889 1.805213 1.781698 1.758343 1.735149 1.712114 1.689240 1.666526 1.643972 1.621579 1.599346 1.577273 1.555361 1.533608 1.512016 1.490584 1.706386 2.127550 1.688468 1.178501 1.042956 0.447383 0.844705 0.561714 0.846220 0.808904 0.817261 0.756397 0.747053 0.592987 0.555177 0.499126 0.429966 0.245020 0.368918 0.202081 0.329801 0.222041 0.204222 0.178036 0.037625 0.011873 0.015447 -0.068660 0.130978 0.228598 0.188109 0.176077 0.329647 0.183919 0.514507 0.619455 0.622453 0.638167 0.873527 0.830753 0.940397 0.926883 1.024544 0.990064 1.079083 1.165558 1.040473 1.154585 0.910665 0.926172 0.792098 0.652056 0.800901 0.697219 0.486119 0.330330 0.249933 0.262203 0.148000 0.128695 0.160984 0.105050 0.126676 0.076540 0.252704 0.356016 0.342275 0.476674 0.546879 0.420230 0.588136 0.725580 0.664642 0.728922 0.709118 0.719777 0.655198 0.598987 0.502547 0.375435 0.279042 0.222604 0.086904 0.118174 -0.099311 -0.046497 -0.061901 -0.076094 -0.021803 0.135144 0.068749 0.243813 0.307296 0.338806 0.390016 0.505046 0.467853 0.480457 0.491632 0.305318 0.291152 0.283961 0.086368 0.043589 -0.071304 -0.012454 -0.061879 -0.092979 -0.080835 0.036852 0.088554 0.120491 0.216573 0.228684 0.234367 0.290704 0.436934 0.397767 0.263503 0.241494 0.223473 0.151870 0.147312 0.118846 0.003812 0.022894 0.074120 -0.001940 0.060195 0.144612 0.145525 0.229927 0.247830 0.271141 0.192099 0.220825 0.144529 0.162438 0.123435 0.050698 -0.007942 0.017184 -0.002142 -0.039889 0.066022 0.021953 0.124280 0.153162 0.200435 0.186723 0.154482 0.157642 0.178873 0.129040 0.056324 -0.003612 0.051298 0.031377 -0.020993 0.041987 0.037459 0.059154 0.051483 0.063777 0.060228 0.143829 0.143868 0.054093 0.051997 0.054564 0.015277 -0.023708 0.016401 0.016929 0.005189 0.015647 0.051966 0.059266 0.058555 0.072509 0.054622 0.146729 0.059670 0.031086 0.037310 -0.038449 0.004398 0.042070 0.001251 0.032195 0.050370 0.023048 0.126522 0.024573 -0.001561 0.056793 0.003593 0.004422 0.004658 -0.025517 0.020774 0.006217 0.000937 0.051452 0.052887 0.058679 0.029115 0.037022 0.027102 0.017742 -0.022560 -0.027462 0.030526 0.047297 0.078412 0.081586 0.055805 0.076262 0.106785 0.055580 0.105926 0.080657 0.042903 0.031758 0.104651 0.069431 0.118298 0.090692 0.058303 0.120083 0.046917 0.011712 0.088474 -0.031047 -0.012904 0.104983 0.054252 0.155011 0.098330 0.096522 0.049155 0.073751 0.092535 -0.016995 -0.029635 0.057608 0.048261 0.044171 0.039004 0.104760 0.056247 -0.000804 0.056611 0.050652 0.053914 0.053508 -0.014336 0.069699 0.069831 0.133730 0.044171 0.026811 -0.022322 -0.003496 -0.010162 -0.002445 -0.049247 -0.034576 0.006686 0.026734 0.025071 0.041197 0.001509 -0.040067 -0.037899 -0.022028 -0.068841 -0.057620 -0.011251 -0.010744 -0.081007 0.004072 -0.038256 -0.071880 0.002130 -0.136685 -0.084567 -0.087353 -0.199464 -0.037465 0.057927 -0.051193 -0.155400 0.036688 0.040033 -0.040115 0.048997 -0.071732 0.262140 0.145219 0.218969 0.255926 0.289997 0.241714 0.297136 0.321870 0.369739 0.215894 0.269024 0.077613 -0.021338 -0.696913
0.072396 0.072899 0.074407 0.076921 0.080439 0.084960 0.090484 0.097009 0.104533 0.113052 0.122564 0.133064 0.144546 0.157006 0.170433 0.184821 0.200156 0.216427 0.233619 0.251714 0.270692 0.290531 0.311204 0.332681 0.354930 0.377914 0.401590 0.425914 0.450834 0.476293 0.502232 0.528583 0.555273 0.582222 0.609346 0.636554 0.663745 0.690815 0.717653 0.744138 0.770146 0.795544 0.820193 0.843947 0.866655 0.888161 0.908300 0.926908 0.943811 0.958838 0.971810 0.982550 0.990879 0.996621 0.999600 0.999645 0.996589 0.990273 0.980548 0.967272 0.950319 0.929575 0.904945 0.876351 0.843737 0.807072 0.766346 0.721582 0.672830 0.620171 0.563723 0.503637 0.440103 0.373347 0.303636 0.231278 0.156620 0.080049 0.001995 0.077077 0.156663 0.236222 0.315183 0.392945 0.468879 0.542340 0.612664 0.679177 0.741206 0.798076 0.849130 0.893726 0.931254 0.961140 0.982859 0.995940 0.999981 0.994654 0.979717 0.955021 0.920519 0.876275 0.822468 0.759400 0.687496 0.607311 0.519529 0.424962 0.324546 0.219337 0.110503 0.000683 0.112864 0.224602 0.334404 0.440736 0.542049 0.636796 0.723464 0.800594 0.866813 0.920856 0.961600 0.988087 0.999550 0.995440 0.975442 0.939503 0.887836 0.820942 0.739609 0.644914 0.538220 0.421165 0.295641 0.163773 0.027891 0.109514 0.245824 0.378351 0.504382 0.621243 0.726351 0.817280 0.891824 0.948052 0.984369 0.999570 0.992881 0.964006 0.913149 0.841038 0.748931 0.638608 0.512350 0.372909 0.223454 0.067512 0.091111 0.248419 0.400320 0.542736 0.671719 0.783557 0.874896 0.942849 0.985099 0.999988 0.986597 0.944803 0.875317 0.779697 0.660335 0.520417 0.363858 0.195202 0.019512 0.157783 0.331047 0.494610 0.642971 0.770970 0.873994 0.948152 0.990437 0.998867 0.972596 0.911989 0.818651 0.695418 0.546295 0.376356 0.191586 0.001312 0.195151 0.382517 0.556058 0.708773 0.834316 0.927261 0.983372 0.999809 0.975303 0.910263 0.806811 0.668765 0.501514 0.311852 0.107717 0.102118 0.308416 0.501877 0.673560 0.815314 0.920179 0.982754 0.999510 0.969016 0.892075 0.771765 0.613351 0.424107 0.213000 0.009694 0.232883 0.445199 0.635580 0.793861 0.911334 0.981261 0.999297 0.963796 0.875987 0.739991 0.562683 0.353387 0.123427 0.114459 0.346815 0.560214 0.742050 0.881302 0.969236 0.999991 0.971022 0.883344 0.741579 0.553769 0.330976 0.086676 0.164033 0.405336 0.621712 0.798929 0.925027 0.991157 0.992257 0.927493 0.800436 0.618935 0.394702 0.142603 0.120278 0.375783 0.605918 0.794149 0.926611 0.993187 0.988331 0.911601 0.767822 0.566868 0.323056 0.054180 0.219746 0.477952 0.700502 0.869844 0.972254 0.999002 0.947173 0.820043 0.626972 0.382799 0.106778 0.178900 0.450860 0.686451 0.865662 0.972877 0.998292 0.938909 0.798942 0.589643 0.328478 0.037750 0.257258 0.530452 0.757250 0.916827 0.994091 0.981198 0.878437 0.694400 0.445358 0.153945 0.152864 0.446185 0.697955 0.883643 0.984700 0.990504 0.899580 0.719946 0.468538 0.169709 0.147038 0.449931 0.708107 0.894783 0.990117 0.983405 0.874402 0.673577 0.401236 0.085578 0.240137 0.541066 0.784514 0.943529 0.999985 0.946758 0.788749 0.542596 0.235050 0.099828 0.424371 0.701535 0.899156 0.993772 0.973519 0.839759 0.607189 0.302376 0.039142 0.376948 0.670478 0.883938 0.990738 0.976939 0.843215 0.605058 0.291155 0.059945 0.404471 0.698879 0.905378 0.996875 0.960675 0.800398 0.535833 0.200644 0.161758
1.000000 1.000000 1.000000 1.000000 1.000000 1.000000 1.000000 1.000000 1.000000 1.000000 1.000000 1.000000 1.000000 1.000000 1.000000 1.000000 1.000000 1.000000 1.000000 1.000000 1.000000 1.000000 1.000000 1.000000 1.000000 1.000000 1.000000 1.000000 1.000000 1.000000 1.000000 1.000000 1.000000 1.000000 1.000000 1.000000 1.000000 1.000000 1.000000 1.000000 1.000000 1.000000 1.000000 1.000000 1.000000 1.000000 1.000000 1.000000 1.000000 1.000000 1.000000 1.000000 0.920760 0.920760 0.920760 0.912705 0.912705 0.912705 0.912705 0.912705 0.912705 0.912705 0.912705 0.912705 0.912705 0.912705 0.912705 0.912705 0.912705 0.912705 0.912705 0.912705 0.912705 0.912705 0.912705 0.912705 0.912705 0.912705 0.912705 0.912705 0.912705 0.912705 0.912705 0.912705 0.912705 0.912705 0.912705 0.912705 0.912705 0.912705 0.912705 0.912705 0.912705 0.912705 0.912705 0.912705 0.941799 0.943215 0.951432 0.951031 0.950443 0.948405 0.947216 0.946871 0.946773 0.947103 0.947807 0.948765 0.954998 0.956224 0.960641 0.962309 0.963070 0.963736 0.964419 0.964028 0.955462 0.955247 0.953862 0.953306 0.955832 0.954902 0.954132 0.955102 0.954994 0.955432 0.955405 0.954726 0.953659 0.952578 0.951648 0.951240 0.951037 0.951763 0.952177 0.953639 0.956918 0.957506 0.957639 0.957792 0.957896 0.959180 0.958205 0.957606 0.945699 0.945406 0.944248 0.944340 0.947540 0.947560 0.948139 0.948741 0.950460 0.950807 0.946112 0.945226 0.937204 0.934908 0.932215 0.926924 0.922217 0.924003 0.925621 0.926233 0.926570 0.921374 0.921336 0.919287 0.915691 0.918246 0.918288 0.919615 0.920981 0.919609 0.918833 0.917688 0.916094 0.908212 0.895582 0.894432 0.892836 0.897601 0.898280 0.897133 0.899917 0.888638 0.873062 0.849812 0.852283 0.855601 0.846141 0.842649 0.842886 0.843620 0.847443 0.840058 0.837909 0.833130 0.822878 0.816702 0.810326 0.803328 0.800657 0.792773 0.783367 0.779888 0.804366 0.797952 0.807865 0.811614 0.810277 0.807881 0.802121 0.794228 0.770549 0.770433 0.752517 0.726392 0.726890 0.725310 0.725393 0.723482 0.729342 0.720230 0.717933 0.700018 0.696873 0.701891 0.705485 0.702160 0.701623 0.706417 0.710832 0.691805 0.682046 0.672941 0.678646 0.679052 0.679994 0.684894 0.663287 0.642972 0.626386 0.637314 0.645909 0.620189 0.634822 0.648246 0.624849 0.621445 0.611733 0.614348 0.601905 0.604783 0.602915 0.601888 0.608216 0.622763 0.611477 0.611219 0.621206 0.626438 0.638423 0.638892 0.641611 0.605592 0.608483 0.630958 0.634904 0.614591 0.630516 0.619419 0.637802 0.676826 0.671258 0.637006 0.630401 0.617910 0.580152 0.566010 0.561178 0.570452 0.604065 0.604402 0.581921 0.555389 0.560242 0.569394 0.576266 0.576368 0.555112 0.563609 0.552048 0.528990 0.538781 0.548047 0.545773 0.531925 0.518295 0.518923 0.522258 0.536381 0.532505 0.502004 0.519334 0.514509 0.504018 0.434956 0.450652 0.438021 0.430270 0.386854 0.397081 0.404676 0.389109 0.312272 0.298416 0.299346 0.298952 0.285875 0.269453 0.244995 0.231975 0.188157 0.191910 0.178166 0.151680 0.152805 0.135771 0.126354 0.130302 0.100996 0.155970 0.218720 0.220317 0.220317 0.220317 0.220317 0.220317 0.220317 0.203907 0.203907 0.203907 0.203907 0.203907 0.203907 0.203907 0.203907 0.203907 0.228775 0.228775 0.228775 0.228775 0.228775 0.228775 0.228775 0.228775 0.228775 0.228775 0.228775 0.228775 0.228775 0.228775
0.000000 0.000000 0.000000 0.000000 0.000000 0.000000 0.000000 0.000000 0.000000 0.000000 0.000000 0.000000 0.000000 0.000000 0.000000 0.000000 0.000000 0.000000 0.000000 0.000000 0.000000 0.000000 0.000000 0.000000 0.000000 0.000000 0.000000 0.000000 0.000000 0.000000 0.000000 0.000000 0.000000 0.000000 0.000000 0.000000 0.000000 0.000000 0.000000 0.000000 0.000000 0.000000 0.000000 0.000000 0.000000 0.000000 0.000000 0.000000 0.000000 0.000000 0.000000 0.000000 0.180334 0.180334 0.180334 0.199007 0.199007 0.199007 0.199007 0.199007 0.199007 0.199007 0.199007 0.199007 0.199007 0.199007 0.199007 0.199007 0.199007 0.199007 0.199007 0.199007 0.199007 0.199007 0.199007 0.199007 0.199007 0.199007 0.199007 0.199007 0.199007 0.199007 0.199007 0.199007 0.199007 0.199007 0.199007 0.199007 0.199007 0.199007 0.199007 0.199007 0.199007 0.199007 0.199007 0.199007 0.225018 0.225018 0.225018 0.225018 0.225018 0.225018 0.225018 0.225018 0.225018 0.225018 0.225018 0.225018 0.225018 0.225018 0.225018 0.225018 0.225018 0.225018 0.225018 0.225018 0.225018 0.225018 0.225018 0.225018 0.225018 0.225018 0.225018 0.225018 0.225018 0.244339 0.244339 0.244339 0.244339 0.244339 0.244339 0.244339 0.244339 0.244339 0.244339 0.244339 0.244339 0.244339 0.244339 0.244339 0.244339 0.244339 0.244339 0.244339 0.244339 0.244339 0.244339 0.244339 0.251976 0.251976 0.251976 0.251976 0.251976 0.251976 0.251976 0.251976 0.251976 0.251976 0.251976 0.251976 0.251976 0.251976 0.251976 0.251976 0.251976 0.251976 0.251976 0.251976 0.264906 0.264906 0.264906 0.264906 0.264906 0.264906 0.264906 0.264906 0.264906 0.264906 0.264906 0.264906 0.264906 0.264906 0.264906 0.264906 0.264906 0.264906 0.264906 0.264906 0.264906 0.264906 0.264906 0.264906 0.264906 0.264906 0.264906 0.264906 0.264906 0.264906 0.264906 0.264906 0.264906 0.264906 0.264906 0.264906 0.264906 0.264906 0.264906 0.264906 0.264906 0.264906 0.264906 0.264906 0.264906 0.264906 0.264906 0.264906 0.264906 0.264906 0.264906 0.264906 0.264906 0.264906 0.264906 0.264906 0.264906 0.264906 0.264906 0.264906 0.264906 0.264906 0.256074 0.256074 0.256074 0.256074 0.256074 0.256074 0.256074 0.256074 0.256074 0.256074 0.256074 0.256074 0.256074 0.256074 0.269680 0.269680 0.269680 0.269680 0.269680 0.269680 0.269680 0.269680 0.269680 0.269680 0.269680 0.269680 0.264906 0.264906 0.264906 0.264906 0.264906 0.264906 0.264906 0.264906 0.264906 0.264906 0.264906 0.264906 0.269680 0.269680 0.269680 0.269680 0.269680 0.269680 0.269680 0.269680 0.269680 0.269680 0.269680 0.264906 0.264906 0.264906 0.264906 0.264906 0.264906 0.264906 0.264906 0.264906 0.264906 0.264906 0.256074 0.256074 0.256074 0.256074 0.256074 0.256074 0.256074 0.256074 0.256074 0.256074 0.256074 0.264906 0.264906 0.264906 0.264906 0.264906 0.264906 0.264906 0.264906 0.264906 0.264906 0.260378 0.260378 0.260378 0.260378 0.260378 0.260378 0.260378 0.260378 0.260378 0.260378 0.256074 0.256074 0.256074 0.256074 0.256074 0.256074 0.256074 0.256074 0.256074 0.256074 0.260378 0.260378 0.260378 0.260378 0.260378 0.260378 0.260378 0.260378 0.260378 0.256074 0.256074 0.256074 0.256074 0.256074 0.256074 0.256074 0.256074 0.256074 0.251976 0.251976 0.251976 0.251976 0.251976 0.251976 0.251976 0.251976 0.251976 0.251976 0.251976 0.251976 0.251976 0.251976
