# Output from CTFFind version 4.1.9, run on 2019-11-03 20:04:24
# Input file: stack16_bm3d_averaged_1_7.0_0_250_half.mrc ; Number of micrographs: 1
# Pixel size: 3.000 Angstroms ; acceleration voltage: 300.0 keV ; spherical aberration: 0.00 mm ; amplitude contrast: 0.07
# Box size: 512 pixels ; min. res.: 30.0 Angstroms ; max. res.: 5.0 Angstroms ; min. def.: 5000.0 um; max. def. 50000.0 um; num. frames averaged: 1
# 6 lines per micrograph: #1 - spatial frequency (1/Angstroms); #2 - 1D rotational average of spectrum (assuming no astigmatism); #3 - 1D rotational average of spectrum; #4 - CTF fit; #5 - cross-correlation between spectrum and CTF fit; #6 - 2sigma of expected cross correlation of noise
0.000000 0.000651 0.001302 0.001953 0.002604 0.003255 0.003906 0.004557 0.005208 0.005859 0.006510 0.007161 0.007812 0.008464 0.009115 0.009766 0.010417 0.011068 0.011719 0.012370 0.013021 0.013672 0.014323 0.014974 0.015625 0.016276 0.016927 0.017578 0.018229 0.018880 0.019531 0.020182 0.020833 0.021484 0.022135 0.022786 0.023438 0.024089 0.024740 0.025391 0.026042 0.026693 0.027344 0.027995 0.028646 0.029297 0.029948 0.030599 0.031250 0.031901 0.032552 0.033203 0.033854 0.034505 0.035156 0.035807 0.036458 0.037109 0.037760 0.038411 0.039062 0.039714 0.040365 0.041016 0.041667 0.042318 0.042969 0.043620 0.044271 0.044922 0.045573 0.046224 0.046875 0.047526 0.048177 0.048828 0.049479 0.050130 0.050781 0.051432 0.052083 0.052734 0.053385 0.054036 0.054688 0.055339 0.055990 0.056641 0.057292 0.057943 0.058594 0.059245 0.059896 0.060547 0.061198 0.061849 0.062500 0.063151 0.063802 0.064453 0.065104 0.065755 0.066406 0.067057 0.067708 0.068359 0.069010 0.069661 0.070312 0.070964 0.071615 0.072266 0.072917 0.073568 0.074219 0.074870 0.075521 0.076172 0.076823 0.077474 0.078125 0.078776 0.079427 0.080078 0.080729 0.081380 0.082031 0.082682 0.083333 0.083984 0.084635 0.085286 0.085938 0.086589 0.087240 0.087891 0.088542 0.089193 0.089844 0.090495 0.091146 0.091797 0.092448 0.093099 0.093750 0.094401 0.095052 0.095703 0.096354 0.097005 0.097656 0.098307 0.098958 0.099609 0.100260 0.100911 0.101562 0.102214 0.102865 0.103516 0.104167 0.104818 0.105469 0.106120 0.106771 0.107422 0.108073 0.108724 0.109375 0.110026 0.110677 0.111328 0.111979 0.112630 0.113281 0.113932 0.114583 0.115234 0.115885 0.116536 0.117188 0.117839 0.118490 0.119141 0.119792 0.120443 0.121094 0.121745 0.122396 0.123047 0.123698 0.124349 0.125000 0.125651 0.126302 0.126953 0.127604 0.128255 0.128906 0.129557 0.130208 0.130859 0.131510 0.132161 0.132812 0.133464 0.134115 0.134766 0.135417 0.136068 0.136719 0.137370 0.138021 0.138672 0.139323 0.139974 0.140625 0.141276 0.141927 0.142578 0.143229 0.143880 0.144531 0.145182 0.145833 0.146484 0.147135 0.147786 0.148438 0.149089 0.149740 0.150391 0.151042 0.151693 0.152344 0.152995 0.153646 0.154297 0.154948 0.155599 0.156250 0.156901 0.157552 0.158203 0.158854 0.159505 0.160156 0.160807 0.161458 0.162109 0.162760 0.163411 0.164062 0.164714 0.165365 0.166016 0.166667 0.167318 0.167969 0.168620 0.169271 0.169922 0.170573 0.171224 0.171875 0.172526 0.173177 0.173828 0.174479 0.175130 0.175781 0.176432 0.177083 0.177734 0.178385 0.179036 0.179688 0.180339 0.180990 0.181641 0.182292 0.182943 0.183594 0.184245 0.184896 0.185547 0.186198 0.186849 0.187500 0.188151 0.188802 0.189453 0.190104 0.190755 0.191406 0.192057 0.192708 0.193359 0.194010 0.194661 0.195312 0.195964 0.196615 0.197266 0.197917 0.198568 0.199219 0.199870 0.200521 0.201172 0.201823 0.202474 0.203125 0.203776 0.204427 0.205078 0.205729 0.206380 0.207031 0.207682 0.208333 0.208984 0.209635 0.210286 0.210938 0.211589 0.212240 0.212891 0.213542 0.214193 0.214844 0.215495 0.216146 0.216797 0.217448 0.218099 0.218750 0.219401 0.220052 0.220703 0.221354 0.222005 0.222656 0.223307 0.223958 0.224609 0.225260 0.225911 0.226562 0.227214 0.227865 0.228516 0.229167 0.229818 0.230469 0.231120 0.231771 0.232422 0.233073 0.233724 0.234375 0.235026 0.235677
       0.35687        0.35687        0.35687        0.35687        0.35687        0.35687        0.35687        0.35687        0.35687        0.35687        0.35687        0.35687        0.35687        0.35687        0.35687        0.35687        0.35687        0.35687        0.35687        0.35687        0.35687        0.35687        0.35687        0.35687        0.35687        0.35687        0.35687        0.35687        0.35687        0.35687        0.35687        0.35687        0.35687        0.35687        0.35687        0.35687        0.35687        0.35687        0.35687        0.35687        0.35687        0.35687        0.35687        0.35687        0.35687        0.35687        0.35687        0.35687        0.35687        0.35687        0.35687        0.43452        0.55900        0.34546       -0.21543       -0.44652       -0.53715       -0.63990       -0.70768       -0.71227       -0.80472       -0.88083       -0.67097       -0.82373       -0.80941       -0.94967       -0.98928       -0.87074       -0.82970       -0.78970       -0.69891       -0.63066       -0.54047       -0.44778       -0.38428       -0.15670       -0.05544        0.05012        0.26963        0.26461        0.32358        0.37548        0.40843        0.53155        0.54298        0.57835        0.53610        0.47880        0.50971        0.53670        0.46072        0.33878        0.22531        0.19073        0.11868        0.02485        0.00825       -0.00125        0.06929        0.03600        0.08744        0.06001        0.17747        0.20493        0.41395        0.46498        0.55122        0.65976        0.68639        0.71397        0.64256        0.61449        0.55113        0.44689        0.39479        0.28894        0.22731        0.22485        0.11354        0.12624        0.12870        0.09870        0.10583        0.31057        0.42439        0.53178        0.53713        0.56959        0.60863        0.58975        0.57267        0.58743        0.57211        0.47384        0.31686        0.27509        0.26758        0.16628        0.10227        0.18175        0.22526        0.29641        0.35982        0.43401        0.47948        0.53561        0.60552        0.55030        0.50814        0.51265        0.36237        0.29163        0.27186        0.18648        0.21621        0.25105        0.28826        0.29276        0.33878        0.43738        0.47117        0.50222        0.45758        0.44576        0.49384        0.40358        0.33507        0.29541        0.27178        0.24322        0.23411        0.24628        0.34711        0.45620        0.44124        0.49200        0.55774        0.45744        0.41917        0.36241        0.32638        0.28425        0.29095        0.27796        0.29735        0.36636        0.37276        0.44767        0.47621        0.44741        0.46994        0.38666        0.38516        0.35883        0.28253        0.26370        0.26240        0.34633        0.38729        0.36985        0.39527        0.43750        0.44981        0.38965        0.34426        0.33008        0.36007        0.32474        0.29274        0.29774        0.36688        0.38361        0.40210        0.39345        0.40032        0.42807        0.41441        0.33312        0.29737        0.31981        0.34826        0.39293        0.36875        0.40930        0.35344        0.37656        0.39869        0.34857        0.36121        0.32936        0.31088        0.34453        0.35427        0.33842        0.37005        0.38534        0.33614        0.35649        0.33081        0.32449        0.30891        0.32928        0.33299        0.33406        0.37379        0.38295        0.36751        0.31632        0.30998        0.29470        0.33926        0.32343        0.32279        0.37860        0.36318        0.34784        0.32469        0.31337        0.31277        0.28528        0.32728        0.34170        0.35443        0.37908        0.36201        0.32674        0.34661        0.36525        0.34499        0.36174        0.35396        0.32324        0.34041        0.29900        0.32638        0.30801        0.32290        0.29233        0.32871        0.35631        0.33454        0.36370        0.32227        0.34339        0.36294        0.34854        0.32752        0.33804        0.37496        0.35300        0.35890        0.33871        0.31846        0.32985        0.32281        0.33423        0.33272        0.37122        0.33649        0.33874        0.30406        0.30160        0.27886        0.28365        0.36821        0.31799        0.33673        0.30114        0.27073        0.28008        0.36981        0.31335        0.29207        0.33092        0.32451        0.29981        0.26444        0.30506        0.27551        0.30940        0.31459        0.35034        0.34222        0.32787        0.32281        0.27389        0.28962        0.28906        0.29165        0.30740        0.36566        0.30718        0.21451        0.31017        0.30751        0.34200        0.27265        0.30005        0.28846        0.33322        0.28789        0.27683        0.28001        0.25299        0.31391        0.33738        0.32711        0.26252        0.32252        0.27375        0.24411        0.22951        0.33030        0.25738        0.16040        0.11482        0.20180        0.35105        0.26790        0.19320        0.14792       -0.39651       -0.53386
3.246889 3.205527 3.164434 3.123610 3.083054 3.042768 3.002751 2.963003 2.923524 2.884314 2.845373 2.806701 2.768298 2.730164 2.692299 2.654703 2.617376 2.580318 2.543529 2.507009 2.470758 2.434776 2.399063 2.363619 2.328444 2.293538 2.258901 2.224534 2.190435 2.156605 2.123044 2.089752 2.056730 2.023976 1.991491 1.959275 1.927329 1.895651 1.864242 1.833103 1.802232 1.771630 1.741298 1.711234 1.681439 1.651914 1.622657 1.593670 1.564951 1.536502 1.508321 1.544476 1.613708 1.554233 0.844913 0.602339 0.463402 0.393439 0.296188 0.224236 0.192668 -0.047770 0.213124 0.079666 -0.026295 -0.103904 -0.236419 -0.141841 -0.049423 -0.093969 -0.070104 0.039015 0.039858 0.234252 0.110246 0.359776 0.465466 0.500611 0.776674 0.684269 0.700578 0.823994 0.796993 0.847371 0.919405 0.858442 0.886760 0.726669 0.785470 0.846264 0.691881 0.606285 0.434062 0.429256 0.327013 0.193388 0.188203 0.113318 0.208319 0.119500 0.207051 0.104565 0.214493 0.227232 0.434404 0.398552 0.566864 0.605374 0.624818 0.715427 0.602692 0.570074 0.457037 0.407841 0.282486 0.259154 0.088445 0.147636 -0.032102 0.035196 -0.031001 -0.046364 -0.062567 0.020194 0.257606 0.288133 0.351791 0.289145 0.374842 0.383340 0.404596 0.385863 0.352182 0.320645 0.116007 0.068627 0.059809 -0.025280 -0.154790 -0.059705 -0.065636 0.032817 0.070546 0.144047 0.206340 0.218318 0.310839 0.399208 0.275978 0.359472 0.223479 0.142275 0.063553 0.032297 -0.000229 0.052956 0.068430 0.091524 0.117806 0.167724 0.237024 0.299745 0.266338 0.204848 0.249564 0.224008 0.108290 0.052989 0.055098 0.023481 0.004690 -0.028334 0.028601 0.166622 0.195281 0.186563 0.294317 0.185274 0.192837 0.070680 0.062873 0.014921 -0.006838 -0.005851 -0.012542 0.045747 0.074827 0.101158 0.156203 0.139033 0.221385 0.138415 0.076547 0.098540 0.040110 -0.048186 -0.017651 0.028658 0.069748 0.071971 0.064384 0.150388 0.116274 0.151612 0.036652 0.045883 0.045053 0.044616 0.027409 -0.020296 0.040123 0.051879 0.092161 0.100156 0.084021 0.112961 0.123371 0.079891 0.010742 -0.011492 0.020206 0.074468 0.075830 0.087369 0.086238 0.050821 0.101374 0.066278 0.041490 0.075002 -0.010977 0.011101 0.066768 0.040236 0.043328 0.073048 0.080972 0.048063 0.066879 0.017978 0.018770 0.011045 0.055702 0.015816 0.039079 0.070758 0.080434 0.045297 -0.005305 -0.002244 -0.019490 0.044959 0.001247 0.012010 0.072067 0.046784 0.003452 0.013233 -0.017779 0.004842 -0.039144 0.008847 0.018916 0.046547 0.045174 0.030800 -0.001996 0.005996 0.040260 0.009404 0.035402 0.011841 -0.015501 0.028507 -0.049840 -0.030548 -0.054463 -0.012115 -0.069207 0.006330 0.018121 -0.011853 -0.013471 -0.005606 -0.001872 0.027492 0.011142 -0.012760 0.011522 0.025448 0.033152 0.029319 0.003864 0.009484 0.008635 -0.007989 0.015825 -0.006577 0.092303 0.038151 0.022483 0.004544 -0.008111 -0.027939 0.003668 0.070393 0.003711 0.049176 -0.019873 -0.024377 -0.023673 0.093031 0.002719 -0.025660 0.065025 0.052889 0.005323 0.000758 0.014424 0.004276 0.044832 0.033139 0.099711 0.048953 0.052412 0.044922 -0.006725 0.021116 -0.000048 -0.001176 0.019237 0.088436 -0.007446 -0.083213 0.037570 0.013496 0.057865 -0.040173 -0.009134 -0.007713 0.017634 -0.006452 -0.029211 -0.012136 -0.067319 0.048035 0.040388 0.050406 -0.112940 0.034449 0.024824 -0.002866 -0.081557 0.103061 0.025642 -0.051326 -0.123583 0.172155 0.305621 0.214593 0.131579 0.149347 -0.514385
0.072396 0.073047 0.074998 0.078250 0.082801 0.088650 0.095794 0.104231 0.113957 0.124966 0.137252 0.150807 0.165620 0.181679 0.198968 0.217469 0.237160 0.258014 0.280001 0.303086 0.327228 0.352378 0.378485 0.405487 0.433315 0.461894 0.491138 0.520952 0.551232 0.581865 0.612725 0.643677 0.674573 0.705256 0.735555 0.765290 0.794269 0.822288 0.849132 0.874578 0.898392 0.920332 0.940149 0.957588 0.972389 0.984291 0.993031 0.998349 0.999990 0.997705 0.991255 0.980418 0.964986 0.944773 0.919619 0.889391 0.853991 0.813359 0.767473 0.716363 0.660102 0.598822 0.532711 0.462016 0.387048 0.308185 0.225871 0.140617 0.053004 0.036325 0.126657 0.217223 0.307195 0.395694 0.481799 0.564556 0.642984 0.716091 0.782884 0.842386 0.893647 0.935765 0.967901 0.989298 0.999297 0.997356 0.983070 0.956185 0.916616 0.864463 0.800017 0.723779 0.636458 0.538981 0.432490 0.318335 0.198070 0.073434 0.053667 0.181184 0.306955 0.428741 0.544262 0.651246 0.747470 0.830815 0.899315 0.951210 0.985000 0.999492 0.993850 0.967633 0.920837 0.853914 0.767797 0.663901 0.544128 0.410836 0.266815 0.115241 0.040384 0.196310 0.348616 0.493319 0.626467 0.744261 0.843168 0.920036 0.972212 0.997644 0.994976 0.963632 0.903869 0.816819 0.704500 0.569796 0.416410 0.248781 0.071985 0.108419 0.286542 0.456363 0.611929 0.747569 0.858120 0.939135 0.987086 0.999543 0.975315 0.914560 0.818841 0.691133 0.535768 0.358325 0.165461 0.035318 0.235937 0.428059 0.603441 0.754294 0.873650 0.955701 0.996123 0.992333 0.943684 0.851583 0.719509 0.552939 0.359170 0.147027 0.073493 0.291680 0.496631 0.677785 0.825498 0.931577 0.989776 0.996207 0.949648 0.851715 0.706883 0.522357 0.307760 0.074689 0.163882 0.394306 0.603039 0.777451 0.906621 0.982064 0.998346 0.953534 0.849446 0.691678 0.489382 0.254807 0.002609 0.251020 0.489383 0.696374 0.857602 0.961429 0.999875 0.969310 0.870852 0.710461 0.498675 0.250001 0.018010 0.285960 0.533988 0.743251 0.897395 0.983888 0.995126 0.929186 0.790163 0.588047 0.338105 0.059825 0.224556 0.491785 0.719508 0.888173 0.982775 0.994281 0.920604 0.766996 0.545816 0.275659 0.020116 0.315340 0.583325 0.799296 0.942734 0.999417 0.962946 0.835585 0.628304 0.359971 0.055769 0.255095 0.542147 0.776658 0.934553 0.998995 0.962308 0.827025 0.605918 0.320960 0.001257 0.319810 0.608067 0.832175 0.967138 0.997194 0.917820 0.736539 0.472405 0.154177 0.182702 0.499975 0.760905 0.934606 0.999802 0.947602 0.782884 0.524074 0.201279 0.147074 0.478709 0.752640 0.934284 0.999959 0.940149 0.761076 0.484305 0.144356 0.215447 0.548413 0.810547 0.966445 0.994234 0.888845 0.663124 0.346503 0.018606 0.382370 0.694278 0.910203 0.998782 0.946167 0.758435 0.461183 0.096294 0.283789 0.623520 0.872371 0.992487 0.964634 0.791549 0.498031 0.127655 0.263471 0.615129 0.872249 0.993681 0.958993 0.772192 0.461631 0.076000 0.323084 0.670847 0.909890 0.999823 0.924346 0.694507 0.347447 0.059311 0.457198 0.778105 0.966120 0.987487 0.836967 0.539377 0.145850 0.274680 0.647417 0.905021 0.999941 0.913487 0.659851 0.284192 0.145077 0.548573 0.850549 0.993269 0.948323 0.722647 0.357916 0.076775 0.497791 0.822932 0.987633 0.958050 0.738410 0.370909 0.071976 0.501526 0.830496 0.990920 0.948482 0.710261 0.324057 0.130769 0.559349 0.871066 0.998831 0.913897 0.632751 0.214443 0.251442 0.663702
1.000000 1.000000 1.000000 1.000000 1.000000 1.000000 1.000000 1.000000 1.000000 1.000000 1.000000 1.000000 1.000000 1.000000 1.000000 1.000000 1.000000 1.000000 1.000000 1.000000 1.000000 1.000000 1.000000 1.000000 1.000000 1.000000 1.000000 1.000000 1.000000 1.000000 1.000000 1.000000 1.000000 1.000000 1.000000 1.000000 1.000000 1.000000 1.000000 1.000000 1.000000 1.000000 1.000000 1.000000 1.000000 1.000000 1.000000 1.000000 1.000000 1.000000 1.000000 1.000000 0.923325 0.923325 0.923325 0.923325 0.923325 0.923325 0.923325 0.923325 0.923325 0.923325 0.923325 0.923325 0.923325 0.923325 0.923325 0.923325 0.923325 0.923325 0.923325 0.923325 0.923325 0.923325 0.923325 0.923325 0.923325 0.923325 0.923325 0.923325 0.923325 0.923325 0.923325 0.923325 0.923325 0.913356 0.911443 0.912608 0.911172 0.909698 0.909110 0.908720 0.909762 0.911369 0.913440 0.935061 0.938170 0.939412 0.940730 0.942097 0.944374 0.942223 0.949829 0.956342 0.955298 0.956448 0.950330 0.951715 0.951077 0.950351 0.951688 0.951798 0.950120 0.948117 0.946555 0.946012 0.945705 0.949351 0.949839 0.950006 0.950598 0.950548 0.951265 0.951882 0.950065 0.952345 0.944524 0.943179 0.948440 0.946376 0.947761 0.947727 0.948414 0.949225 0.949544 0.949813 0.946348 0.945892 0.944932 0.938306 0.931134 0.931438 0.933500 0.936187 0.933331 0.930759 0.932118 0.933971 0.932936 0.936252 0.927459 0.923251 0.896903 0.883232 0.874548 0.874840 0.878946 0.881533 0.879278 0.873505 0.865259 0.861751 0.861150 0.857491 0.849129 0.864215 0.858652 0.854879 0.858394 0.861640 0.866991 0.865016 0.860927 0.856103 0.851033 0.840381 0.841632 0.844988 0.849125 0.831761 0.820667 0.837019 0.829069 0.820064 0.827622 0.829489 0.826938 0.825842 0.826237 0.823776 0.816970 0.809024 0.812813 0.821826 0.823316 0.814072 0.811827 0.810215 0.810048 0.802988 0.807894 0.809598 0.806025 0.798519 0.816111 0.784801 0.804657 0.805766 0.788169 0.772568 0.760277 0.768851 0.778024 0.774819 0.770639 0.778796 0.778400 0.771766 0.747402 0.735659 0.742562 0.740565 0.730101 0.717599 0.724690 0.722565 0.719594 0.716516 0.719815 0.719509 0.697295 0.710834 0.715426 0.707324 0.720473 0.723524 0.714673 0.717781 0.721697 0.724727 0.727058 0.701529 0.705362 0.642979 0.629905 0.586152 0.582166 0.579438 0.522810 0.526990 0.502823 0.486289 0.487407 0.464788 0.514518 0.418711 0.405386 0.432179 0.359196 0.322748 0.340301 0.341733 0.354484 0.358909 0.354860 0.358261 0.342042 0.316239 0.291419 0.317221 0.332899 0.308142 0.312344 0.292331 0.274418 0.228555 0.242601 0.247119 0.278609 0.280419 0.262459 0.282807 0.333184 0.273135 0.255448 0.233171 0.259127 0.266129 0.261327 0.251505 0.268512 0.208515 0.211107 0.228374 0.231601 0.277393 0.308030 0.331194 0.327024 0.331939 0.361240 0.314969 0.331011 0.337479 0.326266 0.344245 0.347483 0.349887 0.346156 0.387044 0.382854 0.392076 0.393590 0.401229 0.436049 0.411795 0.389695 0.346821 0.358661 0.355423 0.364483 0.307270 0.287367 0.286072 0.251580 0.209155 0.210589 0.210698 0.165738 0.154118 0.138716 0.104476 0.103831 0.113567 0.137329 0.108870 0.123388 0.129267 0.129267 0.129267 0.129267 0.129267 0.129267 0.129267 0.129267 0.129267 0.129267 0.129267 0.129267 0.129267 0.129267 0.150642 0.150642 0.150642 0.150642 0.150642 0.150642 0.150642 0.150642 0.150642 0.150642 0.150642 0.150642
0.000000 0.000000 0.000000 0.000000 0.000000 0.000000 0.000000 0.000000 0.000000 0.000000 0.000000 0.000000 0.000000 0.000000 0.000000 0.000000 0.000000 0.000000 0.000000 0.000000 0.000000 0.000000 0.000000 0.000000 0.000000 0.000000 0.000000 0.000000 0.000000 0.000000 0.000000 0.000000 0.000000 0.000000 0.000000 0.000000 0.000000 0.000000 0.000000 0.000000 0.000000 0.000000 0.000000 0.000000 0.000000 0.000000 0.000000 0.000000 0.000000 0.000000 0.000000 0.000000 0.209657 0.209657 0.209657 0.209657 0.209657 0.209657 0.209657 0.209657 0.209657 0.209657 0.209657 0.209657 0.209657 0.209657 0.209657 0.209657 0.209657 0.209657 0.209657 0.209657 0.209657 0.209657 0.209657 0.209657 0.209657 0.209657 0.209657 0.209657 0.209657 0.209657 0.209657 0.209657 0.209657 0.244339 0.244339 0.244339 0.244339 0.244339 0.244339 0.244339 0.244339 0.244339 0.244339 0.244339 0.244339 0.244339 0.244339 0.244339 0.244339 0.244339 0.244339 0.244339 0.244339 0.244339 0.244339 0.244339 0.244339 0.244339 0.260378 0.260378 0.260378 0.260378 0.260378 0.260378 0.260378 0.260378 0.260378 0.260378 0.260378 0.260378 0.260378 0.260378 0.260378 0.260378 0.260378 0.260378 0.260378 0.260378 0.269680 0.269680 0.269680 0.269680 0.269680 0.269680 0.269680 0.269680 0.269680 0.269680 0.269680 0.269680 0.269680 0.269680 0.269680 0.269680 0.269680 0.269680 0.269680 0.269680 0.269680 0.269680 0.269680 0.269680 0.269680 0.269680 0.269680 0.269680 0.269680 0.269680 0.269680 0.269680 0.269680 0.280056 0.280056 0.280056 0.280056 0.280056 0.280056 0.280056 0.280056 0.280056 0.280056 0.280056 0.280056 0.280056 0.280056 0.280056 0.280056 0.280056 0.280056 0.280056 0.280056 0.280056 0.280056 0.280056 0.280056 0.280056 0.280056 0.280056 0.274721 0.274721 0.274721 0.274721 0.274721 0.274721 0.274721 0.274721 0.274721 0.274721 0.274721 0.274721 0.274721 0.285714 0.285714 0.285714 0.285714 0.285714 0.285714 0.285714 0.285714 0.285714 0.285714 0.285714 0.280056 0.280056 0.280056 0.280056 0.280056 0.280056 0.280056 0.280056 0.280056 0.280056 0.280056 0.274721 0.274721 0.274721 0.274721 0.274721 0.274721 0.274721 0.274721 0.274721 0.274721 0.274721 0.280056 0.280056 0.280056 0.280056 0.280056 0.280056 0.280056 0.280056 0.280056 0.280056 0.285714 0.285714 0.285714 0.285714 0.285714 0.285714 0.285714 0.285714 0.285714 0.269680 0.269680 0.269680 0.269680 0.269680 0.269680 0.269680 0.269680 0.269680 0.269680 0.274721 0.274721 0.274721 0.274721 0.274721 0.274721 0.274721 0.274721 0.274721 0.285714 0.285714 0.285714 0.285714 0.285714 0.285714 0.285714 0.285714 0.264906 0.264906 0.264906 0.264906 0.264906 0.264906 0.264906 0.264906 0.264906 0.274721 0.274721 0.274721 0.274721 0.274721 0.274721 0.274721 0.274721 0.269680 0.269680 0.269680 0.269680 0.269680 0.269680 0.269680 0.269680 0.269680 0.269680 0.269680 0.269680 0.269680 0.269680 0.269680 0.269680 0.280056 0.280056 0.280056 0.280056 0.280056 0.280056 0.280056 0.260378 0.260378 0.260378 0.260378 0.260378 0.260378 0.260378 0.260378 0.269680 0.269680 0.269680 0.269680 0.269680 0.269680 0.269680 0.264906 0.264906 0.264906 0.264906 0.264906 0.264906 0.264906 0.264906 0.264906 0.264906 0.264906 0.264906 0.264906 0.264906 0.260378 0.260378 0.260378 0.260378 0.260378 0.260378 0.260378 0.260378 0.260378 0.260378 0.260378 0.260378
