# Output from CTFFind version 4.1.9, run on 2019-11-03 20:05:36
# Input file: stack16_bm3d_averaged_1_7.5_0_750_half.mrc ; Number of micrographs: 1
# Pixel size: 3.000 Angstroms ; acceleration voltage: 300.0 keV ; spherical aberration: 0.00 mm ; amplitude contrast: 0.07
# Box size: 512 pixels ; min. res.: 30.0 Angstroms ; max. res.: 5.0 Angstroms ; min. def.: 5000.0 um; max. def. 50000.0 um; num. frames averaged: 1
# 6 lines per micrograph: #1 - spatial frequency (1/Angstroms); #2 - 1D rotational average of spectrum (assuming no astigmatism); #3 - 1D rotational average of spectrum; #4 - CTF fit; #5 - cross-correlation between spectrum and CTF fit; #6 - 2sigma of expected cross correlation of noise
0.000000 0.000651 0.001302 0.001953 0.002604 0.003255 0.003906 0.004557 0.005208 0.005859 0.006510 0.007161 0.007812 0.008464 0.009115 0.009766 0.010417 0.011068 0.011719 0.012370 0.013021 0.013672 0.014323 0.014974 0.015625 0.016276 0.016927 0.017578 0.018229 0.018880 0.019531 0.020182 0.020833 0.021484 0.022135 0.022786 0.023438 0.024089 0.024740 0.025391 0.026042 0.026693 0.027344 0.027995 0.028646 0.029297 0.029948 0.030599 0.031250 0.031901 0.032552 0.033203 0.033854 0.034505 0.035156 0.035807 0.036458 0.037109 0.037760 0.038411 0.039062 0.039714 0.040365 0.041016 0.041667 0.042318 0.042969 0.043620 0.044271 0.044922 0.045573 0.046224 0.046875 0.047526 0.048177 0.048828 0.049479 0.050130 0.050781 0.051432 0.052083 0.052734 0.053385 0.054036 0.054688 0.055339 0.055990 0.056641 0.057292 0.057943 0.058594 0.059245 0.059896 0.060547 0.061198 0.061849 0.062500 0.063151 0.063802 0.064453 0.065104 0.065755 0.066406 0.067057 0.067708 0.068359 0.069010 0.069661 0.070312 0.070964 0.071615 0.072266 0.072917 0.073568 0.074219 0.074870 0.075521 0.076172 0.076823 0.077474 0.078125 0.078776 0.079427 0.080078 0.080729 0.081380 0.082031 0.082682 0.083333 0.083984 0.084635 0.085286 0.085938 0.086589 0.087240 0.087891 0.088542 0.089193 0.089844 0.090495 0.091146 0.091797 0.092448 0.093099 0.093750 0.094401 0.095052 0.095703 0.096354 0.097005 0.097656 0.098307 0.098958 0.099609 0.100260 0.100911 0.101562 0.102214 0.102865 0.103516 0.104167 0.104818 0.105469 0.106120 0.106771 0.107422 0.108073 0.108724 0.109375 0.110026 0.110677 0.111328 0.111979 0.112630 0.113281 0.113932 0.114583 0.115234 0.115885 0.116536 0.117188 0.117839 0.118490 0.119141 0.119792 0.120443 0.121094 0.121745 0.122396 0.123047 0.123698 0.124349 0.125000 0.125651 0.126302 0.126953 0.127604 0.128255 0.128906 0.129557 0.130208 0.130859 0.131510 0.132161 0.132812 0.133464 0.134115 0.134766 0.135417 0.136068 0.136719 0.137370 0.138021 0.138672 0.139323 0.139974 0.140625 0.141276 0.141927 0.142578 0.143229 0.143880 0.144531 0.145182 0.145833 0.146484 0.147135 0.147786 0.148438 0.149089 0.149740 0.150391 0.151042 0.151693 0.152344 0.152995 0.153646 0.154297 0.154948 0.155599 0.156250 0.156901 0.157552 0.158203 0.158854 0.159505 0.160156 0.160807 0.161458 0.162109 0.162760 0.163411 0.164062 0.164714 0.165365 0.166016 0.166667 0.167318 0.167969 0.168620 0.169271 0.169922 0.170573 0.171224 0.171875 0.172526 0.173177 0.173828 0.174479 0.175130 0.175781 0.176432 0.177083 0.177734 0.178385 0.179036 0.179688 0.180339 0.180990 0.181641 0.182292 0.182943 0.183594 0.184245 0.184896 0.185547 0.186198 0.186849 0.187500 0.188151 0.188802 0.189453 0.190104 0.190755 0.191406 0.192057 0.192708 0.193359 0.194010 0.194661 0.195312 0.195964 0.196615 0.197266 0.197917 0.198568 0.199219 0.199870 0.200521 0.201172 0.201823 0.202474 0.203125 0.203776 0.204427 0.205078 0.205729 0.206380 0.207031 0.207682 0.208333 0.208984 0.209635 0.210286 0.210938 0.211589 0.212240 0.212891 0.213542 0.214193 0.214844 0.215495 0.216146 0.216797 0.217448 0.218099 0.218750 0.219401 0.220052 0.220703 0.221354 0.222005 0.222656 0.223307 0.223958 0.224609 0.225260 0.225911 0.226562 0.227214 0.227865 0.228516 0.229167 0.229818 0.230469 0.231120 0.231771 0.232422 0.233073 0.233724 0.234375 0.235026 0.235677
       0.36286        0.36286        0.36286        0.36286        0.36286        0.36286        0.36286        0.36286        0.36286        0.36286        0.36286        0.36286        0.36286        0.36286        0.36286        0.36286        0.36286        0.36286        0.36286        0.36286        0.36286        0.36286        0.36286        0.36286        0.36286        0.36286        0.36286        0.36286        0.36286        0.36286        0.36286        0.36286        0.36286        0.36286        0.36286        0.36286        0.36286        0.36286        0.36286        0.36286        0.36286        0.36286        0.36286        0.36286        0.36286        0.36286        0.36286        0.36286        0.36286        0.36286        0.36286        0.43947        0.56130        0.34776       -0.21498       -0.44233       -0.53163       -0.63582       -0.70238       -0.70560       -0.79695       -0.87502       -0.66364       -0.81486       -0.80224       -0.94004       -0.98083       -0.86223       -0.82180       -0.78321       -0.68996       -0.62224       -0.53128       -0.43951       -0.37654       -0.14937       -0.04883        0.05901        0.27698        0.26932        0.32940        0.37870        0.41324        0.53945        0.54750        0.58243        0.53907        0.48328        0.51353        0.54388        0.46856        0.34369        0.23240        0.19711        0.12339        0.03451        0.01757        0.00758        0.07762        0.04421        0.09537        0.06797        0.18623        0.21111        0.41802        0.46898        0.55316        0.66129        0.68676        0.71556        0.64734        0.61717        0.55893        0.45306        0.39935        0.29671        0.23341        0.23203        0.12027        0.13518        0.14081        0.10603        0.11137        0.31440        0.43037        0.53745        0.54004        0.56971        0.60988        0.59195        0.57368        0.59158        0.57590        0.47947        0.32389        0.28100        0.27580        0.17695        0.10912        0.18894        0.23618        0.30357        0.36431        0.43911        0.48459        0.53994        0.60865        0.55459        0.50947        0.52000        0.36777        0.30181        0.27892        0.19338        0.22790        0.26043        0.29656        0.29845        0.34713        0.44334        0.47629        0.50529        0.46154        0.45040        0.49898        0.40953        0.33867        0.30056        0.27885        0.24949        0.23724        0.25103        0.35341        0.46317        0.44744        0.49397        0.56007        0.46537        0.42530        0.36787        0.33538        0.29219        0.29654        0.28307        0.30347        0.37695        0.38324        0.45515        0.47961        0.45339        0.47680        0.39386        0.38958        0.36202        0.28955        0.27003        0.27026        0.35570        0.39131        0.37350        0.39836        0.44081        0.45567        0.39769        0.34799        0.33634        0.36634        0.33183        0.29957        0.30619        0.37412        0.39043        0.40974        0.39829        0.40719        0.43363        0.42013        0.33952        0.30271        0.32251        0.35242        0.40234        0.37597        0.41324        0.36021        0.38083        0.40310        0.35541        0.36529        0.33425        0.31782        0.34987        0.36142        0.34468        0.37930        0.39339        0.34157        0.36158        0.33754        0.32924        0.31708        0.33521        0.34232        0.33857        0.37944        0.38981        0.37556        0.32053        0.31621        0.30046        0.34527        0.33063        0.32780        0.38334        0.36740        0.35220        0.33030        0.31892        0.31479        0.29101        0.33434        0.34889        0.36435        0.38343        0.36829        0.33628        0.35425        0.37548        0.35284        0.36508        0.35883        0.32991        0.34496        0.30449        0.32975        0.31582        0.32798        0.29659        0.33578        0.36149        0.33845        0.37064        0.32944        0.35034        0.36810        0.35221        0.33343        0.34816        0.38317        0.35893        0.37174        0.34559        0.32424        0.33894        0.32807        0.34206        0.34039        0.37998        0.33694        0.33840        0.31070        0.31147        0.28621        0.29323        0.37428        0.32454        0.33374        0.30292        0.27594        0.28442        0.37362        0.31635        0.29847        0.34040        0.32928        0.30091        0.26534        0.30645        0.28261        0.31923        0.32168        0.35883        0.34859        0.33543        0.32985        0.27868        0.29839        0.30032        0.30182        0.31662        0.36763        0.31324        0.22598        0.31600        0.31991        0.35012        0.28611        0.30441        0.28185        0.33113        0.28776        0.27457        0.28802        0.25518        0.31720        0.33360        0.32040        0.27245        0.33864        0.28702        0.24792        0.24079        0.33137        0.25714        0.15712        0.11333        0.19915        0.35811        0.28962        0.20063        0.17047       -0.35794       -0.53275
3.272980 3.231156 3.189604 3.148324 3.107318 3.066583 3.026122 2.985933 2.946016 2.906372 2.867000 2.827901 2.789075 2.750521 2.712239 2.674230 2.636494 2.599030 2.561839 2.524920 2.488274 2.451900 2.415799 2.379970 2.344414 2.309131 2.274120 2.239382 2.204916 2.170722 2.136802 2.103153 2.069778 2.036674 2.003844 1.971286 1.939000 1.906987 1.875246 1.843779 1.812583 1.781660 1.751010 1.720632 1.690527 1.660694 1.631134 1.601846 1.572831 1.544089 1.515619 1.552419 1.616378 1.556847 0.844091 0.605017 0.466363 0.395791 0.298210 0.227726 0.197100 -0.046621 0.216681 0.084264 -0.023674 -0.099082 -0.234237 -0.139148 -0.045746 -0.093760 -0.067179 0.041117 0.043596 0.237142 0.111384 0.361303 0.465733 0.504158 0.779216 0.681893 0.702208 0.821088 0.795308 0.849629 0.923434 0.851675 0.883135 0.725700 0.781606 0.844827 0.693567 0.604936 0.431628 0.429495 0.321134 0.194996 0.189064 0.111760 0.207628 0.118869 0.205300 0.103882 0.213255 0.225456 0.429169 0.394192 0.560748 0.598722 0.613661 0.709794 0.596571 0.561914 0.454297 0.406387 0.277245 0.256213 0.084765 0.143551 -0.035429 0.033175 -0.030610 -0.049005 -0.067470 0.015712 0.250937 0.284312 0.344537 0.280658 0.367749 0.373992 0.395329 0.376722 0.347937 0.314503 0.111389 0.062990 0.057632 -0.028960 -0.154368 -0.066303 -0.065930 0.029774 0.066229 0.138386 0.199192 0.214151 0.306769 0.394600 0.266842 0.356671 0.217416 0.143390 0.061352 0.029536 -0.000539 0.054236 0.067447 0.087669 0.116958 0.165102 0.234262 0.297474 0.259352 0.201463 0.247187 0.221391 0.106507 0.047356 0.056463 0.021065 0.003936 -0.035026 0.028245 0.164548 0.197517 0.182785 0.290230 0.184400 0.193093 0.070220 0.062301 0.019749 -0.006095 -0.008906 -0.012587 0.047212 0.081827 0.104176 0.157203 0.137943 0.222696 0.141295 0.076663 0.098041 0.037682 -0.045500 -0.015010 0.030917 0.072972 0.070100 0.062724 0.148737 0.107011 0.155992 0.037490 0.043048 0.046344 0.043900 0.027731 -0.018604 0.040273 0.054928 0.092888 0.098378 0.083563 0.113760 0.121253 0.079608 0.009559 -0.013637 0.016065 0.073007 0.080051 0.085690 0.081279 0.053997 0.098075 0.065840 0.041081 0.070862 -0.008607 0.009868 0.068246 0.040537 0.044418 0.079446 0.082599 0.046691 0.067363 0.020163 0.018127 0.014736 0.056817 0.021116 0.036895 0.076850 0.079964 0.046569 -0.004566 -0.000808 -0.019160 0.047837 0.002295 0.011971 0.073810 0.042131 0.006766 0.014531 -0.018272 0.002348 -0.036096 0.011140 0.024720 0.051489 0.044576 0.033440 0.004532 0.008032 0.048820 0.012255 0.033427 0.010414 -0.009881 0.013122 -0.042244 -0.032309 -0.050828 -0.011823 -0.070717 0.008822 0.008012 -0.005664 -0.012039 -0.003969 -0.003643 0.027797 0.006806 -0.011871 0.015390 0.026736 0.027267 0.036287 0.000340 0.007005 0.011659 -0.009511 0.016203 -0.005069 0.097762 0.025756 0.018204 0.005022 -0.006785 -0.025448 0.006152 0.074328 0.001628 0.042837 -0.026280 -0.025219 -0.022627 0.088856 0.002824 -0.025995 0.073476 0.051903 0.000817 -0.002704 0.008799 0.008071 0.047339 0.040180 0.104115 0.043373 0.057027 0.044895 -0.006686 0.025334 0.004493 0.002143 0.025261 0.081215 -0.002965 -0.074332 0.033520 0.014266 0.079891 -0.039033 -0.006931 -0.017163 0.012511 -0.008517 -0.035938 -0.003784 -0.067762 0.050708 0.033365 0.046893 -0.102306 0.051125 0.036368 -0.007174 -0.055589 0.104059 0.024611 -0.054036 -0.139455 0.169877 0.359338 0.244983 0.133691 0.170748 -0.514323
0.072396 0.073047 0.074998 0.078249 0.082799 0.088647 0.095791 0.104227 0.113951 0.124958 0.137243 0.150796 0.165607 0.181663 0.198950 0.217449 0.237136 0.257988 0.279972 0.303054 0.327192 0.352340 0.378443 0.405442 0.433267 0.461842 0.491083 0.520894 0.551171 0.581801 0.612659 0.643608 0.674502 0.705183 0.735482 0.765217 0.794196 0.822215 0.849061 0.874509 0.898326 0.920271 0.940093 0.957538 0.972347 0.984257 0.993007 0.998337 0.999991 0.997720 0.991286 0.980466 0.965052 0.944859 0.919726 0.889520 0.854144 0.813535 0.767675 0.716589 0.660355 0.599101 0.533015 0.462344 0.387401 0.308561 0.226268 0.141033 0.053435 0.035880 0.126203 0.216763 0.306734 0.395236 0.481351 0.564122 0.642571 0.715705 0.782531 0.842071 0.893378 0.935549 0.967743 0.989204 0.999272 0.997405 0.983196 0.956392 0.916906 0.864835 0.800471 0.724313 0.637068 0.539662 0.433234 0.319134 0.198914 0.074311 0.052771 0.180283 0.306066 0.427880 0.543447 0.650494 0.746799 0.830241 0.898855 0.950879 0.984811 0.999456 0.993974 0.967923 0.921293 0.854534 0.768574 0.664825 0.545182 0.412001 0.268068 0.116556 0.039040 0.194968 0.347313 0.492089 0.625347 0.743285 0.842369 0.919445 0.971853 0.997536 0.995133 0.964059 0.904564 0.817772 0.705690 0.571194 0.417980 0.250479 0.073759 0.106624 0.284787 0.454710 0.610437 0.746299 0.857123 0.938458 0.986765 0.999602 0.975765 0.915397 0.820046 0.692671 0.537589 0.360367 0.167647 0.033075 0.233726 0.425975 0.601579 0.752742 0.872483 0.954986 0.995905 0.992637 0.944512 0.852914 0.721295 0.555110 0.361629 0.149666 0.070799 0.289066 0.494228 0.675726 0.823899 0.930533 0.989359 0.996457 0.950571 0.853279 0.709023 0.524965 0.310704 0.077810 0.160760 0.391365 0.600457 0.775392 0.905222 0.981429 0.998534 0.954555 0.851258 0.694188 0.492446 0.258239 0.006198 0.247508 0.486184 0.693714 0.855674 0.960384 0.999808 0.970249 0.872756 0.713218 0.502107 0.253876 0.013969 0.282049 0.530500 0.740462 0.895534 0.983121 0.995539 0.930773 0.792827 0.591598 0.342280 0.064297 0.220147 0.487807 0.716303 0.886029 0.981898 0.994775 0.922457 0.770076 0.549879 0.280364 0.015173 0.310605 0.579234 0.796237 0.941015 0.999228 0.964338 0.838457 0.632411 0.364945 0.061142 0.249843 0.537543 0.773172 0.932560 0.998728 0.963831 0.830216 0.610481 0.326442 0.007098 0.314227 0.603344 0.828843 0.965588 0.997630 0.920235 0.740700 0.477879 0.160366 0.176487 0.494451 0.756729 0.932288 0.999651 0.949678 0.786980 0.529735 0.207847 0.140381 0.472716 0.748104 0.931797 0.999872 0.942516 0.765639 0.490520 0.151445 0.208389 0.542315 0.806235 0.964523 0.995003 0.892250 0.668744 0.353611 0.010966 0.375245 0.688679 0.906945 0.998364 0.948698 0.763602 0.468286 0.104332 0.275984 0.617099 0.868314 0.991437 0.966802 0.796661 0.505353 0.136103 0.255185 0.608297 0.867964 0.992661 0.961453 0.777794 0.469524 0.084951 0.314518 0.664075 0.906056 0.999608 0.927843 0.701190 0.356238 0.049880 0.448723 0.772060 0.963591 0.988968 0.842263 0.547613 0.155610 0.265115 0.639768 0.900698 0.999781 0.917580 0.667509 0.294051 0.134818 0.539830 0.844989 0.991991 0.951637 0.729984 0.367926 0.066007 0.488339 0.816672 0.985849 0.961162 0.745861 0.381273 0.060747 0.491705 0.824102 0.989317 0.952067 0.718360 0.335049 0.119150 0.549552 0.865189 0.998185 0.918694 0.642033 0.226253 0.239638 0.654499
1.000000 1.000000 1.000000 1.000000 1.000000 1.000000 1.000000 1.000000 1.000000 1.000000 1.000000 1.000000 1.000000 1.000000 1.000000 1.000000 1.000000 1.000000 1.000000 1.000000 1.000000 1.000000 1.000000 1.000000 1.000000 1.000000 1.000000 1.000000 1.000000 1.000000 1.000000 1.000000 1.000000 1.000000 1.000000 1.000000 1.000000 1.000000 1.000000 1.000000 1.000000 1.000000 1.000000 1.000000 1.000000 1.000000 1.000000 1.000000 1.000000 1.000000 1.000000 1.000000 0.926947 0.926947 0.926947 0.926947 0.926947 0.926947 0.926947 0.926947 0.926947 0.926947 0.926947 0.926947 0.926947 0.926947 0.926947 0.926947 0.926947 0.926947 0.926947 0.926947 0.926947 0.926947 0.926947 0.926947 0.926947 0.926947 0.926947 0.926947 0.926947 0.926947 0.926947 0.926947 0.926947 0.913223 0.911339 0.912489 0.911029 0.909593 0.909004 0.908609 0.909648 0.911247 0.913327 0.934975 0.938076 0.939321 0.940650 0.942027 0.944317 0.942149 0.949701 0.956201 0.955127 0.956258 0.956373 0.956878 0.956225 0.955480 0.958051 0.957226 0.955601 0.953697 0.952105 0.951583 0.951364 0.954946 0.955380 0.955535 0.956077 0.955998 0.956716 0.957303 0.955328 0.957465 0.949496 0.948344 0.953790 0.951929 0.953501 0.953459 0.954159 0.954916 0.955194 0.955416 0.952204 0.951728 0.950799 0.944836 0.937646 0.937968 0.939619 0.941664 0.938654 0.936695 0.938356 0.939896 0.938969 0.942175 0.933737 0.929769 0.902926 0.888803 0.880566 0.880494 0.884734 0.887288 0.885205 0.880294 0.872726 0.869486 0.868356 0.865326 0.856666 0.859305 0.859265 0.854585 0.857904 0.861074 0.866317 0.864775 0.860770 0.855889 0.850477 0.838761 0.839588 0.840389 0.844655 0.826167 0.813450 0.829613 0.823097 0.815363 0.823289 0.825254 0.822795 0.821381 0.821645 0.819476 0.812718 0.804354 0.808169 0.817258 0.819364 0.810232 0.807749 0.807340 0.806904 0.801811 0.807359 0.809857 0.806381 0.798312 0.815713 0.787443 0.806180 0.807563 0.788289 0.772936 0.761574 0.769525 0.777952 0.771340 0.768319 0.779027 0.779028 0.772743 0.752654 0.735328 0.743015 0.741275 0.732099 0.720713 0.727447 0.721106 0.719098 0.716900 0.720591 0.720703 0.699188 0.712881 0.717941 0.713332 0.725500 0.728392 0.719472 0.722763 0.727286 0.728447 0.727783 0.702815 0.705906 0.639698 0.630756 0.597317 0.594298 0.587600 0.532738 0.537276 0.522484 0.508603 0.508936 0.471486 0.519620 0.424221 0.411487 0.434668 0.363248 0.338683 0.357122 0.358689 0.371273 0.367377 0.366305 0.371293 0.352409 0.323955 0.294526 0.321684 0.335742 0.317729 0.318859 0.290940 0.281631 0.228392 0.243785 0.248097 0.279336 0.281255 0.267238 0.286406 0.328916 0.266944 0.252774 0.230633 0.257054 0.260992 0.251786 0.241107 0.263363 0.202126 0.213007 0.228888 0.230769 0.282531 0.308574 0.322153 0.320099 0.328232 0.357496 0.313898 0.321972 0.328906 0.320213 0.348892 0.352105 0.362912 0.360002 0.393634 0.394933 0.402965 0.409662 0.433113 0.457764 0.433199 0.416950 0.372593 0.388792 0.380906 0.395899 0.341715 0.320258 0.319622 0.289456 0.242548 0.243741 0.242712 0.198066 0.195840 0.180496 0.149366 0.148141 0.157127 0.180165 0.151877 0.164448 0.168613 0.168613 0.168613 0.168613 0.168613 0.168613 0.168613 0.168613 0.168613 0.168613 0.168613 0.168613 0.168613 0.168613 0.189674 0.189674 0.189674 0.189674 0.189674 0.189674 0.189674 0.189674 0.189674 0.189674 0.189674 0.189674
0.000000 0.000000 0.000000 0.000000 0.000000 0.000000 0.000000 0.000000 0.000000 0.000000 0.000000 0.000000 0.000000 0.000000 0.000000 0.000000 0.000000 0.000000 0.000000 0.000000 0.000000 0.000000 0.000000 0.000000 0.000000 0.000000 0.000000 0.000000 0.000000 0.000000 0.000000 0.000000 0.000000 0.000000 0.000000 0.000000 0.000000 0.000000 0.000000 0.000000 0.000000 0.000000 0.000000 0.000000 0.000000 0.000000 0.000000 0.000000 0.000000 0.000000 0.000000 0.000000 0.209657 0.209657 0.209657 0.209657 0.209657 0.209657 0.209657 0.209657 0.209657 0.209657 0.209657 0.209657 0.209657 0.209657 0.209657 0.209657 0.209657 0.209657 0.209657 0.209657 0.209657 0.209657 0.209657 0.209657 0.209657 0.209657 0.209657 0.209657 0.209657 0.209657 0.209657 0.209657 0.209657 0.244339 0.244339 0.244339 0.244339 0.244339 0.244339 0.244339 0.244339 0.244339 0.244339 0.244339 0.244339 0.244339 0.244339 0.244339 0.244339 0.244339 0.244339 0.244339 0.244339 0.244339 0.244339 0.244339 0.244339 0.244339 0.260378 0.260378 0.260378 0.260378 0.260378 0.260378 0.260378 0.260378 0.260378 0.260378 0.260378 0.260378 0.260378 0.260378 0.260378 0.260378 0.260378 0.260378 0.260378 0.260378 0.269680 0.269680 0.269680 0.269680 0.269680 0.269680 0.269680 0.269680 0.269680 0.269680 0.269680 0.269680 0.269680 0.269680 0.269680 0.269680 0.269680 0.269680 0.269680 0.269680 0.269680 0.269680 0.269680 0.269680 0.269680 0.269680 0.269680 0.269680 0.269680 0.269680 0.269680 0.269680 0.269680 0.280056 0.280056 0.280056 0.280056 0.280056 0.280056 0.280056 0.280056 0.280056 0.280056 0.280056 0.280056 0.280056 0.280056 0.280056 0.280056 0.280056 0.280056 0.280056 0.280056 0.280056 0.280056 0.280056 0.280056 0.280056 0.280056 0.280056 0.274721 0.274721 0.274721 0.274721 0.274721 0.274721 0.274721 0.274721 0.274721 0.274721 0.274721 0.274721 0.274721 0.285714 0.285714 0.285714 0.285714 0.285714 0.285714 0.285714 0.285714 0.285714 0.285714 0.285714 0.280056 0.280056 0.280056 0.280056 0.280056 0.280056 0.280056 0.280056 0.280056 0.280056 0.280056 0.274721 0.274721 0.274721 0.274721 0.274721 0.274721 0.274721 0.274721 0.274721 0.274721 0.274721 0.280056 0.280056 0.280056 0.280056 0.280056 0.280056 0.280056 0.280056 0.280056 0.280056 0.285714 0.285714 0.285714 0.285714 0.285714 0.285714 0.285714 0.285714 0.285714 0.269680 0.269680 0.269680 0.269680 0.269680 0.269680 0.269680 0.269680 0.269680 0.269680 0.274721 0.274721 0.274721 0.274721 0.274721 0.274721 0.274721 0.274721 0.274721 0.285714 0.285714 0.285714 0.285714 0.285714 0.285714 0.285714 0.285714 0.264906 0.264906 0.264906 0.264906 0.264906 0.264906 0.264906 0.264906 0.264906 0.274721 0.274721 0.274721 0.274721 0.274721 0.274721 0.274721 0.274721 0.269680 0.269680 0.269680 0.269680 0.269680 0.269680 0.269680 0.269680 0.269680 0.269680 0.269680 0.269680 0.269680 0.269680 0.269680 0.269680 0.280056 0.280056 0.280056 0.280056 0.280056 0.280056 0.280056 0.260378 0.260378 0.260378 0.260378 0.260378 0.260378 0.260378 0.260378 0.269680 0.269680 0.269680 0.269680 0.269680 0.269680 0.269680 0.264906 0.264906 0.264906 0.264906 0.264906 0.264906 0.264906 0.264906 0.264906 0.264906 0.264906 0.264906 0.264906 0.264906 0.260378 0.260378 0.260378 0.260378 0.260378 0.260378 0.260378 0.260378 0.260378 0.260378 0.260378 0.260378
