# Output from CTFFind version 4.1.9, run on 2019-11-03 20:10:33
# Input file: stack6_bm3d_averaged_1_10_0_3000_half.mrc ; Number of micrographs: 1
# Pixel size: 3.000 Angstroms ; acceleration voltage: 300.0 keV ; spherical aberration: 0.00 mm ; amplitude contrast: 0.07
# Box size: 512 pixels ; min. res.: 30.0 Angstroms ; max. res.: 5.0 Angstroms ; min. def.: 5000.0 um; max. def. 50000.0 um; num. frames averaged: 1
# 6 lines per micrograph: #1 - spatial frequency (1/Angstroms); #2 - 1D rotational average of spectrum (assuming no astigmatism); #3 - 1D rotational average of spectrum; #4 - CTF fit; #5 - cross-correlation between spectrum and CTF fit; #6 - 2sigma of expected cross correlation of noise
0.000000 0.000651 0.001302 0.001953 0.002604 0.003255 0.003906 0.004557 0.005208 0.005859 0.006510 0.007161 0.007812 0.008464 0.009115 0.009766 0.010417 0.011068 0.011719 0.012370 0.013021 0.013672 0.014323 0.014974 0.015625 0.016276 0.016927 0.017578 0.018229 0.018880 0.019531 0.020182 0.020833 0.021484 0.022135 0.022786 0.023438 0.024089 0.024740 0.025391 0.026042 0.026693 0.027344 0.027995 0.028646 0.029297 0.029948 0.030599 0.031250 0.031901 0.032552 0.033203 0.033854 0.034505 0.035156 0.035807 0.036458 0.037109 0.037760 0.038411 0.039062 0.039714 0.040365 0.041016 0.041667 0.042318 0.042969 0.043620 0.044271 0.044922 0.045573 0.046224 0.046875 0.047526 0.048177 0.048828 0.049479 0.050130 0.050781 0.051432 0.052083 0.052734 0.053385 0.054036 0.054688 0.055339 0.055990 0.056641 0.057292 0.057943 0.058594 0.059245 0.059896 0.060547 0.061198 0.061849 0.062500 0.063151 0.063802 0.064453 0.065104 0.065755 0.066406 0.067057 0.067708 0.068359 0.069010 0.069661 0.070312 0.070964 0.071615 0.072266 0.072917 0.073568 0.074219 0.074870 0.075521 0.076172 0.076823 0.077474 0.078125 0.078776 0.079427 0.080078 0.080729 0.081380 0.082031 0.082682 0.083333 0.083984 0.084635 0.085286 0.085938 0.086589 0.087240 0.087891 0.088542 0.089193 0.089844 0.090495 0.091146 0.091797 0.092448 0.093099 0.093750 0.094401 0.095052 0.095703 0.096354 0.097005 0.097656 0.098307 0.098958 0.099609 0.100260 0.100911 0.101562 0.102214 0.102865 0.103516 0.104167 0.104818 0.105469 0.106120 0.106771 0.107422 0.108073 0.108724 0.109375 0.110026 0.110677 0.111328 0.111979 0.112630 0.113281 0.113932 0.114583 0.115234 0.115885 0.116536 0.117188 0.117839 0.118490 0.119141 0.119792 0.120443 0.121094 0.121745 0.122396 0.123047 0.123698 0.124349 0.125000 0.125651 0.126302 0.126953 0.127604 0.128255 0.128906 0.129557 0.130208 0.130859 0.131510 0.132161 0.132812 0.133464 0.134115 0.134766 0.135417 0.136068 0.136719 0.137370 0.138021 0.138672 0.139323 0.139974 0.140625 0.141276 0.141927 0.142578 0.143229 0.143880 0.144531 0.145182 0.145833 0.146484 0.147135 0.147786 0.148438 0.149089 0.149740 0.150391 0.151042 0.151693 0.152344 0.152995 0.153646 0.154297 0.154948 0.155599 0.156250 0.156901 0.157552 0.158203 0.158854 0.159505 0.160156 0.160807 0.161458 0.162109 0.162760 0.163411 0.164062 0.164714 0.165365 0.166016 0.166667 0.167318 0.167969 0.168620 0.169271 0.169922 0.170573 0.171224 0.171875 0.172526 0.173177 0.173828 0.174479 0.175130 0.175781 0.176432 0.177083 0.177734 0.178385 0.179036 0.179688 0.180339 0.180990 0.181641 0.182292 0.182943 0.183594 0.184245 0.184896 0.185547 0.186198 0.186849 0.187500 0.188151 0.188802 0.189453 0.190104 0.190755 0.191406 0.192057 0.192708 0.193359 0.194010 0.194661 0.195312 0.195964 0.196615 0.197266 0.197917 0.198568 0.199219 0.199870 0.200521 0.201172 0.201823 0.202474 0.203125 0.203776 0.204427 0.205078 0.205729 0.206380 0.207031 0.207682 0.208333 0.208984 0.209635 0.210286 0.210938 0.211589 0.212240 0.212891 0.213542 0.214193 0.214844 0.215495 0.216146 0.216797 0.217448 0.218099 0.218750 0.219401 0.220052 0.220703 0.221354 0.222005 0.222656 0.223307 0.223958 0.224609 0.225260 0.225911 0.226562 0.227214 0.227865 0.228516 0.229167 0.229818 0.230469 0.231120 0.231771 0.232422 0.233073 0.233724 0.234375 0.235026 0.235677
       0.34236        0.34236        0.34236        0.34236        0.34236        0.34236        0.34236        0.34236        0.34236        0.34236        0.34236        0.34236        0.34236        0.34236        0.34236        0.34236        0.34236        0.34236        0.34236        0.34236        0.34236        0.34236        0.34236        0.34236        0.34236        0.34236        0.34236        0.34236        0.34236        0.34236        0.34236        0.34236        0.34236        0.34236        0.34236        0.34236        0.34236        0.34236        0.34236        0.34236        0.34236        0.34236        0.34236        0.34236        0.34236        0.34236        0.34236        0.34236        0.34236        0.34236        0.34236        0.58861        0.69396        0.36668        0.16025        0.14326       -0.12113        0.10989        0.04277        0.04432        0.08947        0.30746        0.29180        0.22783        0.13480       -0.04131       -0.00899        0.05497       -0.06869       -0.07715       -0.06510       -0.06320       -0.14690       -0.08702       -0.19750       -0.21594       -0.21975       -0.27431       -0.33814       -0.26264       -0.17574       -0.13260       -0.24540       -0.17829       -0.20540       -0.14404       -0.10090       -0.03789       -0.01672        0.03110        0.09060        0.16396        0.20447        0.24770        0.34987        0.41318        0.36721        0.49940        0.54687        0.55089        0.62258        0.54305        0.57635        0.60996        0.59615        0.56892        0.55893        0.60599        0.53387        0.40545        0.37030        0.38141        0.34043        0.22385        0.23127        0.19203        0.13725        0.12748        0.06418        0.14361        0.11374        0.09441        0.16572        0.21694        0.29449        0.33945        0.38049        0.42053        0.44945        0.47825        0.42568        0.61765        0.55153        0.47653        0.56217        0.50579        0.56727        0.51593        0.40230        0.34307        0.33238        0.29324        0.27925        0.22335        0.21033        0.19921        0.29250        0.27603        0.27819        0.25213        0.27585        0.34709        0.33541        0.45285        0.44647        0.44795        0.42513        0.48872        0.44290        0.41085        0.41632        0.38468        0.33583        0.28262        0.31816        0.28750        0.28283        0.23099        0.23817        0.26822        0.28747        0.29891        0.34605        0.39547        0.42521        0.42614        0.42815        0.51021        0.49249        0.42904        0.37695        0.42048        0.39766        0.33601        0.34739        0.33973        0.29172        0.29282        0.28389        0.27054        0.32744        0.31611        0.33449        0.35680        0.40483        0.43086        0.41457        0.44644        0.40671        0.44614        0.42521        0.36224        0.31152        0.30872        0.30941        0.28573        0.24736        0.31726        0.38968        0.34689        0.31932        0.38003        0.32074        0.36968        0.41701        0.40136        0.37091        0.36870        0.35683        0.36549        0.33277        0.32152        0.29625        0.29363        0.33524        0.34836        0.37501        0.38563        0.40020        0.37812        0.35429        0.33315        0.37082        0.37767        0.35713        0.33583        0.28625        0.29401        0.28596        0.33945        0.33803        0.36317        0.33448        0.35673        0.39818        0.34260        0.35937        0.35978        0.32410        0.32753        0.31066        0.30029        0.29297        0.28027        0.26464        0.28871        0.27969        0.29633        0.26821        0.31378        0.38075        0.27643        0.29982        0.28600        0.28437        0.33320        0.31822        0.31764        0.34053        0.33351        0.34367        0.32645        0.32271        0.32737        0.40492        0.36945        0.30287        0.32704        0.31648        0.36686        0.28618        0.29035        0.32099        0.31443        0.34243        0.38374        0.35045        0.29682        0.23711        0.30211        0.28384        0.27115        0.26865        0.30028        0.33037        0.26708        0.32279        0.34280        0.37925        0.29513        0.33648        0.30951        0.29653        0.29100        0.30008        0.31663        0.27286        0.26948        0.34876        0.35742        0.29311        0.35208        0.31906        0.26258        0.23883        0.21235        0.33837        0.31654        0.36390        0.36401        0.28582        0.23811        0.22764        0.31295        0.28205        0.27570        0.32827        0.30024        0.26059        0.29823        0.30820        0.30125        0.29938        0.29356        0.27782        0.23469        0.28124        0.32412        0.26217        0.21801        0.24057        0.27243        0.26349        0.21580        0.21220        0.27811        0.34548        0.30971        0.23840        0.17642        0.25446        0.18958        0.27415        0.26721        0.17650        0.17136        0.24555        0.22318        0.31783        0.03609       -0.19091       -0.68233       -0.96140
3.498688 3.461051 3.423620 3.386397 3.349381 3.312572 3.275970 3.239575 3.203387 3.167405 3.131631 3.096064 3.060704 3.025551 2.990605 2.955866 2.921334 2.887009 2.852891 2.818980 2.785276 2.751779 2.718489 2.685406 2.652530 2.619861 2.587399 2.555144 2.523096 2.491255 2.459621 2.428194 2.396974 2.365961 2.335155 2.304556 2.274164 2.243979 2.214001 2.184230 2.154666 2.125310 2.096160 2.067217 2.038481 2.009952 1.981630 1.953515 1.925607 1.897907 1.870413 2.226621 2.583612 1.854474 1.576282 1.355185 0.701074 1.158454 0.941506 1.063526 0.854579 1.661849 1.356153 1.375793 1.142535 0.672029 0.556721 0.852183 0.725890 0.378382 0.300924 0.553614 0.307995 0.327801 0.130608 0.008764 -0.021233 -0.021520 -0.367685 -0.141864 -0.009448 0.021086 -0.112772 -0.061828 -0.142285 -0.107501 0.010795 0.165728 0.211256 0.212304 0.350131 0.601795 0.513016 0.641061 0.772467 1.039968 0.759003 1.273306 1.174012 1.249070 1.351786 1.203339 1.129273 1.386135 1.140896 1.244461 1.126640 1.184548 1.151739 0.846880 0.638587 0.623864 0.676717 0.314506 0.338349 0.210101 0.096589 0.017450 -0.162179 0.102651 -0.001760 -0.094565 -0.012090 0.079439 0.209666 0.419807 0.438580 0.515905 0.521151 0.711568 0.424210 0.859299 0.844782 0.620636 0.763272 0.595815 0.759336 0.773054 0.470532 0.235347 0.258821 0.205317 0.020788 0.079900 -0.075175 -0.233303 0.060780 0.081835 0.060483 -0.023086 0.015755 0.134899 0.054097 0.313435 0.420789 0.403826 0.205516 0.491221 0.426302 0.224357 0.417092 0.262000 0.109774 0.107022 0.014400 0.080915 -0.128923 0.078406 -0.185715 -0.075862 -0.069311 0.124728 -0.116201 0.272743 0.246905 0.295341 0.258069 0.323612 0.615756 0.347587 0.282110 0.377372 0.193248 0.378347 0.055794 0.256359 0.049956 0.068718 0.051014 0.045019 0.031369 0.165139 0.049847 0.183167 0.260136 0.303998 0.304144 0.466499 0.333578 0.346141 0.378364 0.294256 0.175423 0.087894 0.094537 0.086684 0.024614 -0.022278 0.210549 0.294903 0.095823 0.169510 0.239287 0.134702 0.292525 0.304624 0.248310 0.185882 0.139420 0.243520 0.118223 0.127878 0.091847 -0.060986 0.071636 0.150841 0.139854 0.228930 0.206476 0.294057 0.112246 0.168266 0.184456 0.251645 0.139289 0.218793 0.117993 0.004893 0.036735 0.007295 0.149343 0.140407 0.204712 0.096185 0.204290 0.220390 0.034333 0.195146 0.095648 0.009285 0.054496 0.020820 -0.021925 -0.031531 -0.114048 -0.030184 -0.015997 -0.124331 -0.017580 -0.072693 0.073134 0.118814 -0.137529 -0.022988 -0.075169 -0.064970 0.066351 0.004940 -0.057425 0.030792 0.088742 0.017309 -0.048056 0.062026 -0.026175 0.282196 -0.002995 -0.119513 0.035762 0.004178 0.073122 -0.160265 -0.065716 0.013291 0.006370 0.075079 0.098385 0.079778 -0.105882 -0.143271 -0.029383 -0.078147 -0.071898 -0.080422 -0.039397 0.055043 -0.203717 0.159824 -0.014482 0.189340 -0.033303 0.067863 0.025432 -0.057007 0.059280 0.008960 -0.032789 -0.052029 -0.055445 0.112387 0.171111 -0.122315 0.155074 0.053042 -0.128333 -0.099322 -0.209304 0.175967 -0.001302 0.167719 0.189010 0.037481 -0.174250 -0.170425 0.019757 -0.046803 -0.121812 0.054433 -0.035955 -0.151147 -0.009788 -0.023901 0.100873 -0.014960 -0.072047 -0.000332 -0.251090 0.042536 0.065371 -0.112751 -0.166956 -0.161976 -0.042357 -0.031260 -0.150286 -0.198441 0.064634 0.140249 0.014678 -0.088390 -0.336347 0.077202 -0.201960 0.641753 0.574523 0.302333 0.369350 0.677216 0.540065 0.654691 -0.191018 -0.404924 -2.098226
0.072396 0.072836 0.074156 0.076356 0.079435 0.083393 0.088229 0.093941 0.100528 0.107988 0.116318 0.125516 0.135577 0.146498 0.158272 0.170893 0.184353 0.198644 0.213755 0.229674 0.246387 0.263878 0.282129 0.301121 0.320830 0.341231 0.362295 0.383990 0.406282 0.429131 0.452497 0.476332 0.500586 0.525204 0.550128 0.575293 0.600630 0.626066 0.651523 0.676916 0.702156 0.727150 0.751797 0.775992 0.799627 0.822585 0.844748 0.865991 0.886185 0.905197 0.922892 0.939130 0.953769 0.966664 0.977671 0.986643 0.993435 0.997902 0.999901 0.999294 0.995946 0.989726 0.980514 0.968193 0.952661 0.933822 0.911597 0.885917 0.856734 0.824011 0.787735 0.747912 0.704569 0.657758 0.607554 0.554061 0.497409 0.437757 0.375292 0.310234 0.242833 0.173367 0.102149 0.029521 0.044145 0.118448 0.192959 0.267222 0.340758 0.413068 0.483632 0.551918 0.617379 0.679465 0.737622 0.791301 0.839959 0.883070 0.920127 0.950651 0.974196 0.990358 0.998780 0.999158 0.991251 0.974885 0.949960 0.916454 0.874431 0.824046 0.765545 0.699270 0.625664 0.545267 0.458715 0.366745 0.270185 0.169950 0.067040 0.037471 0.142447 0.246695 0.348984 0.448054 0.542634 0.631460 0.713291 0.786927 0.851231 0.905145 0.947715 0.978106 0.995623 0.999728 0.990057 0.966434 0.928887 0.877652 0.813186 0.736164 0.647487 0.548274 0.439849 0.323742 0.201657 0.075463 0.052837 0.181136 0.307251 0.428965 0.544064 0.650378 0.745826 0.828458 0.896500 0.948398 0.982857 0.998880 0.995802 0.973317 0.931501 0.870828 0.792177 0.696831 0.586466 0.463131 0.329221 0.187435 0.040728 0.107744 0.254692 0.396762 0.530617 0.653009 0.760873 0.851398 0.922116 0.970973 0.996399 0.997364 0.973432 0.924792 0.852277 0.757370 0.642186 0.509439 0.362397 0.204802 0.040790 0.125212 0.288601 0.444730 0.589034 0.717171 0.825163 0.909520 0.967373 0.996578 0.995813 0.964645 0.903576 0.814062 0.698499 0.560178 0.403210 0.232415 0.053192 0.128652 0.307076 0.476009 0.629558 0.762222 0.869100 0.946076 0.990007 0.998858 0.971821 0.909377 0.813329 0.686769 0.534010 0.360453 0.172425 0.023052 0.218506 0.406293 0.578905 0.729275 0.851070 0.938982 0.988977 0.998499 0.966626 0.894157 0.783634 0.639278 0.466865 0.273511 0.067407 0.142519 0.346984 0.536753 0.703063 0.838046 0.935109 0.989293 0.997539 0.958900 0.874639 0.748238 0.585284 0.393260 0.181232 0.040570 0.261217 0.469626 0.655113 0.807960 0.919935 0.984767 0.998530 0.959913 0.870358 0.734062 0.557820 0.350729 0.123740 0.110887 0.340239 0.551458 0.732462 0.872666 0.963618 0.999547 0.977771 0.898929 0.767033 0.589310 0.375859 0.139109 0.106877 0.347224 0.567134 0.752805 0.892333 0.976494 0.999398 0.958952 0.857082 0.699709 0.496463 0.260141 0.005932 0.249521 0.489211 0.696902 0.858242 0.961794 0.999891 0.969252 0.871315 0.712251 0.502632 0.256790 0.008127 0.273312 0.519634 0.729022 0.885815 0.977965 0.998028 0.943814 0.818677 0.631383 0.395571 0.128797 0.148703 0.415555 0.650871 0.835913 0.955613 0.999868 0.964441 0.851443 0.669293 0.432175 0.158987 0.128103 0.405441 0.649820 0.840451 0.960770 0.999934 0.953872 0.825777 0.625991 0.371235 0.083295 0.212797 0.490921 0.726172 0.897123 0.987822 0.989359 0.900822 0.729544 0.490589 0.205523 0.099489 0.396032 0.656075 0.854667 0.972350 0.997162 0.925930 0.764756 0.528599 0.239990 0.073055 0.379708 0.649345 0.854634 0.974359
1.000000 1.000000 1.000000 1.000000 1.000000 1.000000 1.000000 1.000000 1.000000 1.000000 1.000000 1.000000 1.000000 1.000000 1.000000 1.000000 1.000000 1.000000 1.000000 1.000000 1.000000 1.000000 1.000000 1.000000 1.000000 1.000000 1.000000 1.000000 1.000000 1.000000 1.000000 1.000000 1.000000 1.000000 1.000000 1.000000 1.000000 1.000000 1.000000 1.000000 1.000000 1.000000 1.000000 1.000000 1.000000 1.000000 1.000000 1.000000 1.000000 1.000000 1.000000 1.000000 0.748877 0.748877 0.748877 0.748877 0.748877 0.748877 0.748877 0.748406 0.748406 0.748406 0.748406 0.748406 0.748406 0.748406 0.748406 0.748406 0.748406 0.748406 0.748406 0.748406 0.748406 0.748406 0.748406 0.748406 0.748406 0.748406 0.748406 0.748406 0.748406 0.748406 0.748406 0.748406 0.748406 0.748406 0.748406 0.748406 0.748406 0.748406 0.748406 0.748406 0.748406 0.748406 0.748406 0.748406 0.748406 0.748406 0.748406 0.748406 0.748406 0.748406 0.748406 0.899557 0.900619 0.903328 0.895544 0.888845 0.887700 0.882935 0.880027 0.881904 0.881396 0.882475 0.884063 0.887898 0.895298 0.904820 0.907920 0.915319 0.919254 0.919198 0.923920 0.923894 0.928912 0.925809 0.922809 0.913000 0.916492 0.915386 0.913641 0.911706 0.904828 0.916192 0.914144 0.911078 0.901599 0.896250 0.894638 0.895343 0.893149 0.894218 0.894375 0.893593 0.891497 0.892193 0.887230 0.886126 0.871693 0.869766 0.865946 0.862988 0.860322 0.857564 0.855464 0.846415 0.844922 0.841365 0.834425 0.834241 0.834206 0.834898 0.835790 0.836713 0.839458 0.832646 0.827614 0.826520 0.822084 0.815069 0.806378 0.806018 0.809536 0.817797 0.824955 0.823037 0.821031 0.811141 0.798323 0.796038 0.800434 0.776671 0.779096 0.784818 0.787666 0.784994 0.780599 0.776830 0.774045 0.769812 0.762304 0.770874 0.768402 0.760494 0.757223 0.757062 0.758997 0.768325 0.769005 0.759160 0.745229 0.741556 0.745413 0.751551 0.756133 0.748330 0.748804 0.753304 0.758570 0.763386 0.748988 0.743901 0.735821 0.729049 0.737927 0.758628 0.748504 0.754715 0.758470 0.751605 0.751027 0.744115 0.754105 0.756149 0.763447 0.763566 0.756588 0.710029 0.685138 0.644304 0.646554 0.649599 0.607154 0.607655 0.608361 0.607900 0.552733 0.513768 0.493802 0.491401 0.496234 0.501584 0.492208 0.484214 0.479821 0.477451 0.457139 0.443380 0.441130 0.445080 0.434437 0.444679 0.445874 0.442907 0.400860 0.409728 0.428196 0.437743 0.425912 0.414574 0.418017 0.404083 0.408224 0.403326 0.395813 0.350433 0.369076 0.347744 0.367324 0.328012 0.306401 0.279333 0.315757 0.309014 0.259198 0.286791 0.249070 0.247858 0.251618 0.238048 0.213174 0.231065 0.251767 0.214425 0.219689 0.217240 0.259167 0.250459 0.266714 0.285806 0.272751 0.260676 0.277438 0.259723 0.252106 0.224153 0.219864 0.214058 0.214699 0.267793 0.255266 0.256992 0.265525 0.287093 0.294521 0.305211 0.305977 0.304754 0.317499 0.287813 0.236761 0.244352 0.237711 0.244803 0.214958 0.170841 0.149982 0.155772 0.136635 0.130142 0.099100 0.095003 0.095181 0.104470 0.083825 0.089734 0.054285 0.065978 0.044805 0.071940 0.090827 0.094681 0.015743 0.015743 0.015743 0.015743 0.015743 0.015743 0.015743 0.015743 0.015743 0.015743 0.015743 -0.010511 -0.010511 -0.010511 -0.010511 -0.010511 -0.010511 -0.010511 -0.010511 -0.010511 -0.010511 -0.010511 -0.010511 -0.010511 -0.010511 -0.010511 -0.010511 -0.010511 -0.010511 -0.010511 -0.010511
0.000000 0.000000 0.000000 0.000000 0.000000 0.000000 0.000000 0.000000 0.000000 0.000000 0.000000 0.000000 0.000000 0.000000 0.000000 0.000000 0.000000 0.000000 0.000000 0.000000 0.000000 0.000000 0.000000 0.000000 0.000000 0.000000 0.000000 0.000000 0.000000 0.000000 0.000000 0.000000 0.000000 0.000000 0.000000 0.000000 0.000000 0.000000 0.000000 0.000000 0.000000 0.000000 0.000000 0.000000 0.000000 0.000000 0.000000 0.000000 0.000000 0.000000 0.000000 0.000000 0.173422 0.173422 0.173422 0.173422 0.173422 0.173422 0.173422 0.191565 0.191565 0.191565 0.191565 0.191565 0.191565 0.191565 0.191565 0.191565 0.191565 0.191565 0.191565 0.191565 0.191565 0.191565 0.191565 0.191565 0.191565 0.191565 0.191565 0.191565 0.191565 0.191565 0.191565 0.191565 0.191565 0.191565 0.191565 0.191565 0.191565 0.191565 0.191565 0.191565 0.191565 0.191565 0.191565 0.191565 0.191565 0.191565 0.191565 0.191565 0.191565 0.191565 0.191565 0.222222 0.222222 0.222222 0.222222 0.222222 0.222222 0.222222 0.222222 0.222222 0.222222 0.222222 0.222222 0.222222 0.222222 0.222222 0.222222 0.222222 0.222222 0.222222 0.222222 0.222222 0.222222 0.222222 0.222222 0.222222 0.222222 0.222222 0.222222 0.222222 0.222222 0.234082 0.234082 0.234082 0.234082 0.234082 0.234082 0.234082 0.234082 0.234082 0.234082 0.234082 0.234082 0.234082 0.234082 0.234082 0.234082 0.234082 0.234082 0.234082 0.234082 0.234082 0.234082 0.234082 0.234082 0.234082 0.244339 0.244339 0.244339 0.244339 0.244339 0.244339 0.244339 0.244339 0.244339 0.244339 0.244339 0.244339 0.244339 0.244339 0.244339 0.244339 0.244339 0.244339 0.244339 0.244339 0.244339 0.248069 0.248069 0.248069 0.248069 0.248069 0.248069 0.248069 0.248069 0.248069 0.248069 0.248069 0.248069 0.248069 0.248069 0.248069 0.248069 0.248069 0.248069 0.248069 0.256074 0.256074 0.256074 0.256074 0.256074 0.256074 0.256074 0.256074 0.256074 0.256074 0.256074 0.256074 0.256074 0.256074 0.256074 0.256074 0.256074 0.256074 0.256074 0.256074 0.256074 0.256074 0.256074 0.256074 0.256074 0.256074 0.256074 0.256074 0.256074 0.256074 0.256074 0.256074 0.256074 0.256074 0.256074 0.256074 0.256074 0.256074 0.256074 0.256074 0.256074 0.256074 0.256074 0.256074 0.256074 0.256074 0.256074 0.256074 0.256074 0.256074 0.256074 0.256074 0.256074 0.256074 0.256074 0.256074 0.256074 0.256074 0.256074 0.256074 0.256074 0.256074 0.251976 0.251976 0.251976 0.251976 0.251976 0.251976 0.251976 0.251976 0.251976 0.251976 0.251976 0.251976 0.251976 0.251976 0.264906 0.264906 0.264906 0.264906 0.264906 0.264906 0.264906 0.264906 0.264906 0.264906 0.264906 0.264906 0.248069 0.248069 0.248069 0.248069 0.248069 0.248069 0.248069 0.248069 0.248069 0.248069 0.248069 0.248069 0.248069 0.264906 0.264906 0.264906 0.264906 0.264906 0.264906 0.264906 0.264906 0.264906 0.264906 0.264906 0.248069 0.248069 0.248069 0.248069 0.248069 0.248069 0.248069 0.248069 0.248069 0.248069 0.248069 0.248069 0.264906 0.264906 0.264906 0.264906 0.264906 0.264906 0.264906 0.264906 0.264906 0.264906 0.248069 0.248069 0.248069 0.248069 0.248069 0.248069 0.248069 0.248069 0.248069 0.248069 0.248069 0.256074 0.256074 0.256074 0.256074 0.256074 0.256074 0.256074 0.256074 0.256074 0.256074 0.256074 0.256074 0.256074 0.256074 0.256074 0.256074 0.256074 0.256074 0.256074 0.256074
