# Output from CTFFind version 4.1.9, run on 2019-11-03 19:00:07
# Input file: stack1_bm3d_averaged_1_3.25_0_1000_half.mrc ; Number of micrographs: 1
# Pixel size: 3.000 Angstroms ; acceleration voltage: 300.0 keV ; spherical aberration: 0.00 mm ; amplitude contrast: 0.07
# Box size: 512 pixels ; min. res.: 30.0 Angstroms ; max. res.: 5.0 Angstroms ; min. def.: 5000.0 um; max. def. 50000.0 um; num. frames averaged: 1
# 6 lines per micrograph: #1 - spatial frequency (1/Angstroms); #2 - 1D rotational average of spectrum (assuming no astigmatism); #3 - 1D rotational average of spectrum; #4 - CTF fit; #5 - cross-correlation between spectrum and CTF fit; #6 - 2sigma of expected cross correlation of noise
0.000000 0.000651 0.001302 0.001953 0.002604 0.003255 0.003906 0.004557 0.005208 0.005859 0.006510 0.007161 0.007812 0.008464 0.009115 0.009766 0.010417 0.011068 0.011719 0.012370 0.013021 0.013672 0.014323 0.014974 0.015625 0.016276 0.016927 0.017578 0.018229 0.018880 0.019531 0.020182 0.020833 0.021484 0.022135 0.022786 0.023438 0.024089 0.024740 0.025391 0.026042 0.026693 0.027344 0.027995 0.028646 0.029297 0.029948 0.030599 0.031250 0.031901 0.032552 0.033203 0.033854 0.034505 0.035156 0.035807 0.036458 0.037109 0.037760 0.038411 0.039062 0.039714 0.040365 0.041016 0.041667 0.042318 0.042969 0.043620 0.044271 0.044922 0.045573 0.046224 0.046875 0.047526 0.048177 0.048828 0.049479 0.050130 0.050781 0.051432 0.052083 0.052734 0.053385 0.054036 0.054688 0.055339 0.055990 0.056641 0.057292 0.057943 0.058594 0.059245 0.059896 0.060547 0.061198 0.061849 0.062500 0.063151 0.063802 0.064453 0.065104 0.065755 0.066406 0.067057 0.067708 0.068359 0.069010 0.069661 0.070312 0.070964 0.071615 0.072266 0.072917 0.073568 0.074219 0.074870 0.075521 0.076172 0.076823 0.077474 0.078125 0.078776 0.079427 0.080078 0.080729 0.081380 0.082031 0.082682 0.083333 0.083984 0.084635 0.085286 0.085938 0.086589 0.087240 0.087891 0.088542 0.089193 0.089844 0.090495 0.091146 0.091797 0.092448 0.093099 0.093750 0.094401 0.095052 0.095703 0.096354 0.097005 0.097656 0.098307 0.098958 0.099609 0.100260 0.100911 0.101562 0.102214 0.102865 0.103516 0.104167 0.104818 0.105469 0.106120 0.106771 0.107422 0.108073 0.108724 0.109375 0.110026 0.110677 0.111328 0.111979 0.112630 0.113281 0.113932 0.114583 0.115234 0.115885 0.116536 0.117188 0.117839 0.118490 0.119141 0.119792 0.120443 0.121094 0.121745 0.122396 0.123047 0.123698 0.124349 0.125000 0.125651 0.126302 0.126953 0.127604 0.128255 0.128906 0.129557 0.130208 0.130859 0.131510 0.132161 0.132812 0.133464 0.134115 0.134766 0.135417 0.136068 0.136719 0.137370 0.138021 0.138672 0.139323 0.139974 0.140625 0.141276 0.141927 0.142578 0.143229 0.143880 0.144531 0.145182 0.145833 0.146484 0.147135 0.147786 0.148438 0.149089 0.149740 0.150391 0.151042 0.151693 0.152344 0.152995 0.153646 0.154297 0.154948 0.155599 0.156250 0.156901 0.157552 0.158203 0.158854 0.159505 0.160156 0.160807 0.161458 0.162109 0.162760 0.163411 0.164062 0.164714 0.165365 0.166016 0.166667 0.167318 0.167969 0.168620 0.169271 0.169922 0.170573 0.171224 0.171875 0.172526 0.173177 0.173828 0.174479 0.175130 0.175781 0.176432 0.177083 0.177734 0.178385 0.179036 0.179688 0.180339 0.180990 0.181641 0.182292 0.182943 0.183594 0.184245 0.184896 0.185547 0.186198 0.186849 0.187500 0.188151 0.188802 0.189453 0.190104 0.190755 0.191406 0.192057 0.192708 0.193359 0.194010 0.194661 0.195312 0.195964 0.196615 0.197266 0.197917 0.198568 0.199219 0.199870 0.200521 0.201172 0.201823 0.202474 0.203125 0.203776 0.204427 0.205078 0.205729 0.206380 0.207031 0.207682 0.208333 0.208984 0.209635 0.210286 0.210938 0.211589 0.212240 0.212891 0.213542 0.214193 0.214844 0.215495 0.216146 0.216797 0.217448 0.218099 0.218750 0.219401 0.220052 0.220703 0.221354 0.222005 0.222656 0.223307 0.223958 0.224609 0.225260 0.225911 0.226562 0.227214 0.227865 0.228516 0.229167 0.229818 0.230469 0.231120 0.231771 0.232422 0.233073 0.233724 0.234375 0.235026 0.235677
       0.35430        0.35430        0.35430        0.35430        0.35430        0.35430        0.35430        0.35430        0.35430        0.35430        0.35430        0.35430        0.35430        0.35430        0.35430        0.35430        0.35430        0.35430        0.35430        0.35430        0.35430        0.35430        0.35430        0.35430        0.35430        0.35430        0.35430        0.35430        0.35430        0.35430        0.35430        0.35430        0.35430        0.35430        0.35430        0.35430        0.35430        0.35430        0.35430        0.35430        0.35430        0.35430        0.35430        0.35430        0.35430        0.35430        0.35430        0.35430        0.35430        0.35430        0.35430        0.49539        0.70907        0.40398        0.21094       -0.03666       -0.22539       -0.03862       -0.11273       -0.07759        0.02247       -0.10406       -0.09698       -0.03498       -0.01801       -0.12299       -0.15557       -0.29190       -0.46008       -0.55492       -0.50638       -0.43492       -0.33914       -0.53490       -0.39695       -0.52714       -0.43667       -0.45000       -0.34248       -0.32060       -0.28710       -0.19132       -0.10561       -0.10455        0.04212        0.02248        0.17893        0.18321        0.33484        0.42484        0.51985        0.55861        0.57062        0.59261        0.73123        0.65706        0.67118        0.58188        0.54992        0.63302        0.51890        0.48499        0.42213        0.32206        0.28978        0.30669        0.25758        0.12196        0.11182       -0.00285        0.04635        0.05593        0.02417        0.09735        0.14051        0.22861        0.29269        0.29904        0.40008        0.54449        0.55906        0.56947        0.67669        0.64540        0.63187        0.67291        0.64839        0.53776        0.53422        0.42271        0.36585        0.28231        0.20922        0.15224        0.15996        0.13746        0.17472        0.16901        0.24387        0.25252        0.33310        0.37669        0.40432        0.51280        0.55761        0.57826        0.56157        0.60833        0.54615        0.49429        0.50926        0.37871        0.30181        0.28716        0.27678        0.20380        0.20632        0.20501        0.23469        0.26461        0.35205        0.39284        0.42060        0.44573        0.45345        0.47865        0.44502        0.50218        0.44318        0.38857        0.35996        0.38927        0.33686        0.31592        0.25180        0.28591        0.25764        0.27659        0.28943        0.37438        0.39457        0.40463        0.44136        0.46274        0.44596        0.44351        0.47051        0.36953        0.36529        0.32688        0.27833        0.33446        0.29171        0.32574        0.34412        0.34253        0.35221        0.42779        0.39870        0.43858        0.40516        0.42454        0.39282        0.39351        0.31645        0.30098        0.29299        0.28044        0.30385        0.36422        0.38268        0.37146        0.38639        0.39142        0.36943        0.44139        0.41218        0.38566        0.37258        0.32777        0.30644        0.33795        0.31899        0.36115        0.32360        0.34803        0.36356        0.38714        0.39237        0.36400        0.36991        0.37166        0.34935        0.32159        0.35206        0.34123        0.35521        0.33221        0.35713        0.37593        0.33392        0.34111        0.36831        0.32605        0.29848        0.30839        0.31786        0.31919        0.32041        0.36084        0.32429        0.32764        0.33130        0.32551        0.33532        0.31879        0.32496        0.31435        0.31364        0.31681        0.33173        0.32635        0.34521        0.33697        0.39536        0.38702        0.32352        0.36548        0.35391        0.26460        0.28685        0.33118        0.30486        0.30829        0.34548        0.33090        0.33088        0.37388        0.37514        0.31499        0.28951        0.31185        0.35029        0.37281        0.39083        0.33450        0.32224        0.30346        0.29853        0.27569        0.31260        0.30204        0.32783        0.33292        0.31518        0.28133        0.34219        0.34901        0.36006        0.29384        0.31002        0.34807        0.38836        0.38485        0.35535        0.34582        0.32229        0.31146        0.31264        0.33036        0.32137        0.24950        0.25016        0.31757        0.32039        0.31774        0.30413        0.27297        0.25446        0.26925        0.28951        0.34649        0.30556        0.30727        0.35356        0.39609        0.35375        0.26696        0.29519        0.25734        0.29412        0.33613        0.36412        0.30762        0.30528        0.30519        0.28219        0.32083        0.25551        0.23178        0.21356        0.27432        0.26407        0.23010        0.30263        0.26168        0.34145        0.31035        0.27577        0.23100        0.20095        0.31331        0.37545        0.34129        0.12824        0.18969        0.30128        0.19792        0.18388       -0.03440        0.06835       -0.61722       -1.17696
2.802130 2.772441 2.742913 2.713545 2.684337 2.655289 2.626401 2.597674 2.569106 2.540699 2.512452 2.484365 2.456438 2.428671 2.401065 2.373618 2.346332 2.319206 2.292240 2.265435 2.238789 2.212304 2.185978 2.159813 2.133808 2.107964 2.082279 2.056754 2.031390 2.006186 1.981142 1.956258 1.931534 1.906971 1.882567 1.858324 1.834241 1.810318 1.786555 1.762952 1.739510 1.716228 1.693105 1.670143 1.647342 1.624700 1.602218 1.579897 1.557736 1.535735 1.513894 1.550506 1.901376 1.521281 1.248464 0.982765 0.549182 0.952946 0.651862 0.836584 0.919921 0.670147 0.662514 0.805257 0.786076 0.623455 0.602876 0.393615 0.075753 0.032831 0.018339 0.007255 0.326334 -0.063852 0.052879 -0.056855 0.003929 -0.022407 0.087313 0.089546 0.132704 0.196440 0.327671 0.281636 0.460592 0.391094 0.622058 0.548627 0.790296 0.812120 0.943096 1.037208 0.974595 1.015201 1.151440 1.013884 1.165912 0.927799 0.894035 0.993599 0.844173 0.820398 0.686350 0.564160 0.512769 0.494252 0.482069 0.250252 0.231591 0.122489 0.040498 0.176745 0.017005 0.098718 0.200623 0.241851 0.321535 0.339972 0.447777 0.532003 0.679240 0.528777 0.767071 0.753075 0.628157 0.761997 0.712782 0.601993 0.472241 0.469376 0.307600 0.232448 0.097030 0.035564 -0.012198 0.012860 -0.054276 0.008610 0.071790 0.076371 0.106310 0.222710 0.240150 0.332884 0.429859 0.427036 0.473842 0.432691 0.456052 0.329207 0.332659 0.285204 0.065864 0.067525 0.021840 -0.039803 -0.052001 -0.088874 -0.044556 -0.046578 0.050227 0.109658 0.165564 0.216473 0.188281 0.258766 0.250607 0.237713 0.232578 0.206790 0.104829 0.102624 0.103407 0.021911 0.005224 -0.058897 -0.002019 -0.015814 -0.006947 0.025238 0.106541 0.096801 0.157019 0.186528 0.255665 0.121864 0.230666 0.119603 0.116148 0.039748 -0.031937 0.025819 -0.014718 0.002500 0.003474 0.067626 0.010342 0.076831 0.129872 0.150226 0.127291 0.096239 0.114786 0.083519 0.063531 -0.043246 -0.035575 -0.046542 -0.073464 0.001639 0.067813 0.082222 0.011339 0.089973 0.081877 0.066580 0.158578 0.070309 0.086065 0.065905 -0.043340 0.002844 0.014172 -0.008394 0.057668 0.004430 0.026268 0.049920 0.062968 0.060797 0.056209 -0.000145 0.062992 -0.009795 0.011133 0.021493 0.005112 0.052517 0.007449 0.031718 0.047541 -0.016236 0.034245 0.045218 -0.027784 -0.056523 -0.003718 -0.012047 -0.036557 0.001119 0.053674 -0.002545 0.015220 0.057331 -0.018217 0.052630 0.035349 0.017103 0.011490 0.050312 0.015310 0.046186 0.017779 0.080686 0.062228 0.180621 0.116856 0.057698 0.115185 0.069745 -0.042458 0.043615 0.064251 0.030100 0.061463 0.070867 0.030613 0.040938 0.114281 0.075773 0.033474 -0.051808 0.046768 0.082067 0.100166 0.110784 0.039131 0.011086 0.020918 -0.004816 -0.032236 0.021425 0.045273 0.021603 0.092271 -0.004586 -0.028174 0.031171 0.064583 0.010734 -0.014633 -0.038200 0.077138 0.089549 0.071491 0.013738 0.018972 -0.026689 -0.026940 -0.001224 -0.045388 0.002790 -0.135534 -0.095418 -0.015115 0.008231 -0.031378 -0.039783 -0.041624 -0.036880 -0.033987 -0.059672 0.075471 -0.016737 0.005873 0.071833 0.147609 -0.001108 -0.039572 -0.008223 -0.058227 0.025251 0.044351 0.101262 0.014721 0.022365 0.001411 0.016621 0.098693 -0.032649 -0.052552 -0.102547 0.049185 0.020856 -0.026083 0.051240 0.004496 0.180219 0.046848 0.085984 -0.061939 0.013050 0.075047 0.188369 0.427261 0.088379 0.243461 0.455059 0.195777 0.254751 -0.206778 0.274705 -0.512649
0.072396 0.072909 0.074449 0.077015 0.080606 0.085221 0.090860 0.097520 0.105199 0.113895 0.123603 0.134320 0.146039 0.158754 0.172456 0.187136 0.202783 0.219382 0.236918 0.255372 0.274724 0.294948 0.316018 0.337902 0.360564 0.383967 0.408065 0.432810 0.458148 0.484021 0.510362 0.537101 0.564161 0.591458 0.618902 0.646397 0.673837 0.701112 0.728104 0.754686 0.780728 0.806089 0.830623 0.854177 0.876594 0.897707 0.917348 0.935342 0.951512 0.965675 0.977650 0.987252 0.994298 0.998606 0.999997 0.998298 0.993341 0.984966 0.973024 0.957379 0.937908 0.914505 0.887082 0.855575 0.819939 0.780159 0.736247 0.688243 0.636223 0.580296 0.520607 0.457340 0.390720 0.321009 0.248516 0.173588 0.096615 0.018030 0.061694 0.142044 0.222471 0.302391 0.381188 0.458220 0.532821 0.604309 0.671993 0.735174 0.793160 0.845267 0.890835 0.929230 0.959858 0.982174 0.995691 0.999990 0.994733 0.979667 0.954639 0.919602 0.874625 0.819893 0.755725 0.682564 0.600992 0.511723 0.415604 0.313613 0.206851 0.096535 0.016012 0.129377 0.242069 0.352540 0.459205 0.560463 0.654725 0.740439 0.816115 0.880358 0.931897 0.969609 0.992553 0.999992 0.991423 0.966594 0.925527 0.868531 0.796210 0.709474 0.609531 0.497883 0.376314 0.246865 0.111810 0.026382 0.165084 0.301562 0.433026 0.556688 0.669822 0.769829 0.854302 0.921090 0.968357 0.994647 0.998931 0.980655 0.939775 0.876784 0.792724 0.689188 0.568303 0.432702 0.285477 0.130120 0.029549 0.189472 0.345457 0.493280 0.628805 0.748106 0.847587 0.924098 0.975050 0.998513 0.993304 0.959054 0.896254 0.806275 0.691364 0.554610 0.399879 0.231721 0.055249 0.124001 0.300243 0.467626 0.620429 0.753259 0.861262 0.940303 0.987152 0.999626 0.976716 0.918665 0.827011 0.704574 0.555400 0.384659 0.198476 0.003736 0.192155 0.381558 0.556887 0.710927 0.837137 0.929946 0.985028 0.999518 0.972195 0.903588 0.796017 0.653553 0.481903 0.288205 0.080759 0.131304 0.338429 0.531048 0.700042 0.837180 0.935540 0.989892 0.997003 0.955867 0.867822 0.736564 0.568039 0.370214 0.152727 0.073548 0.297034 0.506038 0.689366 0.836943 0.940385 0.993518 0.992782 0.937507 0.830046 0.675732 0.482664 0.261332 0.024078 0.215565 0.443635 0.646554 0.811957 0.929466 0.991388 0.993258 0.934215 0.817160 0.648685 0.438755 0.200179 0.052138 0.302097 0.533430 0.730764 0.880661 0.972586 0.999683 0.959355 0.853555 0.688783 0.475750 0.228751 0.035251 0.297755 0.540010 0.744370 0.895592 0.982034 0.996608 0.937424 0.808070 0.617495 0.379457 0.111606 0.165796 0.431356 0.664224 0.845738 0.960963 0.999995 0.958873 0.840062 0.652410 0.410584 0.133998 0.154697 0.431430 0.672703 0.857643 0.969825 0.998820 0.941251 0.801253 0.590302 0.326355 0.032424 0.265396 0.540212 0.766770 0.923813 0.996156 0.976228 0.864971 0.671956 0.414658 0.116991 0.192861 0.485070 0.731036 0.906222 0.992679 0.980969 0.871317 0.673798 0.407549 0.099007 0.220633 0.518519 0.763559 0.929673 0.998673 0.962358 0.823608 0.596320 0.304153 0.021844 0.346433 0.634002 0.852473 0.976957 0.992695 0.896932 0.699491 0.421920 0.095261 0.243310 0.554693 0.802356 0.956717 0.998750 0.922480 0.735969 0.460633 0.128930 0.219360 0.541847 0.798704 0.957634 0.998051 0.913888 0.714661 0.424572 0.079724 0.276262 0.597711 0.842771 0.978941 0.987506 0.866278 0.630207 0.309721 0.053019 0.409601 0.711773 0.918015 0.999363
1.000000 1.000000 1.000000 1.000000 1.000000 1.000000 1.000000 1.000000 1.000000 1.000000 1.000000 1.000000 1.000000 1.000000 1.000000 1.000000 1.000000 1.000000 1.000000 1.000000 1.000000 1.000000 1.000000 1.000000 1.000000 1.000000 1.000000 1.000000 1.000000 1.000000 1.000000 1.000000 1.000000 1.000000 1.000000 1.000000 1.000000 1.000000 1.000000 1.000000 1.000000 1.000000 1.000000 1.000000 1.000000 1.000000 1.000000 1.000000 1.000000 1.000000 1.000000 1.000000 0.909454 0.909454 0.899727 0.899727 0.899727 0.899727 0.899727 0.899727 0.899727 0.899727 0.899727 0.899727 0.899727 0.899727 0.899727 0.899727 0.899727 0.899727 0.899727 0.899727 0.899727 0.899727 0.899727 0.899727 0.899727 0.899727 0.899727 0.899727 0.899727 0.899727 0.899727 0.899727 0.899727 0.899727 0.899727 0.899727 0.899727 0.899727 0.899727 0.899727 0.899727 0.899727 0.899727 0.886900 0.893682 0.896861 0.898671 0.902461 0.903437 0.902713 0.902391 0.902108 0.902622 0.904061 0.911999 0.930746 0.941610 0.947674 0.952417 0.960262 0.962160 0.961409 0.967567 0.973653 0.971634 0.971254 0.971884 0.973330 0.975527 0.975727 0.977212 0.977415 0.978070 0.978283 0.977981 0.977533 0.977063 0.976871 0.976445 0.976600 0.977210 0.977594 0.977888 0.978104 0.978206 0.969462 0.969442 0.965769 0.966589 0.967673 0.967377 0.961368 0.958796 0.962591 0.962762 0.962305 0.962164 0.961654 0.962081 0.954295 0.949292 0.949299 0.936370 0.934564 0.933533 0.932412 0.931392 0.931313 0.930578 0.932222 0.929915 0.919998 0.913293 0.884555 0.907148 0.899998 0.869768 0.853850 0.856071 0.858488 0.858945 0.856712 0.853987 0.849272 0.842275 0.843276 0.846228 0.850875 0.849062 0.848981 0.851592 0.851022 0.830167 0.818531 0.806359 0.795889 0.795940 0.796456 0.794323 0.787805 0.795812 0.792911 0.789569 0.780997 0.774938 0.751223 0.731867 0.737500 0.745382 0.760518 0.755288 0.729147 0.692388 0.714441 0.711604 0.711470 0.714448 0.708663 0.682837 0.674273 0.679001 0.657521 0.667625 0.665336 0.662257 0.664258 0.648608 0.624694 0.627676 0.614275 0.602780 0.597447 0.601295 0.628549 0.588478 0.583043 0.570813 0.562452 0.561770 0.516061 0.521134 0.522749 0.506034 0.501529 0.481991 0.483613 0.486109 0.482454 0.475744 0.481373 0.479689 0.510546 0.501887 0.500583 0.499382 0.501145 0.478449 0.458684 0.449150 0.449935 0.446930 0.474825 0.474438 0.475142 0.469454 0.461101 0.446843 0.417056 0.415060 0.422005 0.393302 0.380198 0.350426 0.344148 0.365441 0.354451 0.321553 0.296251 0.271964 0.273346 0.265567 0.246659 0.265484 0.207576 0.143078 0.119031 0.114953 0.125618 0.145500 0.155008 0.137485 0.154411 0.194593 0.210162 0.198726 0.187962 0.157418 0.127990 0.152360 0.168214 0.112176 0.126860 0.109035 0.120932 0.119512 0.096801 0.114250 0.054259 0.023407 0.019624 0.041204 0.053708 0.052186 0.050930 0.041165 0.034465 0.044628 0.051524 0.055762 0.034963 0.076593 0.084353 0.083732 0.054282 0.050769 0.054329 0.068205 0.071298 0.068659 0.072399 0.098825 0.111129 0.116497 0.131028 0.122319 0.103159 0.094769 0.128635 0.140971 0.112731 0.140871 0.126401 0.081372 0.081372 0.056681 0.056681 0.056681 0.056681 0.056681 0.056681 0.056681 0.056681 0.056681 0.050960 0.050960 0.050960 0.050960 0.050960 0.050960 0.050960 0.050960 0.050960 0.050960 0.050960 0.050960 0.050960 0.050960 0.050960 0.050960 0.050960 0.050960
0.000000 0.000000 0.000000 0.000000 0.000000 0.000000 0.000000 0.000000 0.000000 0.000000 0.000000 0.000000 0.000000 0.000000 0.000000 0.000000 0.000000 0.000000 0.000000 0.000000 0.000000 0.000000 0.000000 0.000000 0.000000 0.000000 0.000000 0.000000 0.000000 0.000000 0.000000 0.000000 0.000000 0.000000 0.000000 0.000000 0.000000 0.000000 0.000000 0.000000 0.000000 0.000000 0.000000 0.000000 0.000000 0.000000 0.000000 0.000000 0.000000 0.000000 0.000000 0.000000 0.181818 0.181818 0.199007 0.199007 0.199007 0.199007 0.199007 0.199007 0.199007 0.199007 0.199007 0.199007 0.199007 0.199007 0.199007 0.199007 0.199007 0.199007 0.199007 0.199007 0.199007 0.199007 0.199007 0.199007 0.199007 0.199007 0.199007 0.199007 0.199007 0.199007 0.199007 0.199007 0.199007 0.199007 0.199007 0.199007 0.199007 0.199007 0.199007 0.199007 0.199007 0.199007 0.199007 0.230940 0.230940 0.230940 0.230940 0.230940 0.230940 0.230940 0.230940 0.230940 0.230940 0.230940 0.230940 0.230940 0.230940 0.230940 0.230940 0.230940 0.230940 0.230940 0.230940 0.230940 0.230940 0.230940 0.230940 0.230940 0.230940 0.230940 0.230940 0.244339 0.244339 0.244339 0.244339 0.244339 0.244339 0.244339 0.244339 0.244339 0.244339 0.244339 0.244339 0.244339 0.244339 0.244339 0.244339 0.244339 0.244339 0.244339 0.244339 0.244339 0.244339 0.244339 0.251976 0.251976 0.251976 0.251976 0.251976 0.251976 0.251976 0.251976 0.251976 0.251976 0.251976 0.251976 0.251976 0.251976 0.251976 0.251976 0.251976 0.251976 0.251976 0.251976 0.264906 0.264906 0.264906 0.264906 0.264906 0.264906 0.264906 0.264906 0.264906 0.264906 0.264906 0.264906 0.264906 0.264906 0.264906 0.264906 0.264906 0.264906 0.264906 0.264906 0.264906 0.264906 0.264906 0.264906 0.264906 0.264906 0.264906 0.264906 0.264906 0.264906 0.264906 0.264906 0.264906 0.264906 0.264906 0.264906 0.264906 0.264906 0.264906 0.264906 0.264906 0.264906 0.264906 0.264906 0.264906 0.264906 0.264906 0.264906 0.264906 0.264906 0.264906 0.264906 0.264906 0.264906 0.264906 0.264906 0.264906 0.264906 0.264906 0.264906 0.264906 0.264906 0.264906 0.264906 0.264906 0.264906 0.264906 0.264906 0.264906 0.264906 0.264906 0.264906 0.264906 0.264906 0.264906 0.269680 0.269680 0.269680 0.269680 0.269680 0.269680 0.269680 0.269680 0.269680 0.269680 0.269680 0.269680 0.264906 0.264906 0.264906 0.264906 0.264906 0.264906 0.264906 0.264906 0.264906 0.264906 0.264906 0.264906 0.269680 0.269680 0.269680 0.269680 0.269680 0.269680 0.269680 0.269680 0.269680 0.269680 0.269680 0.264906 0.264906 0.264906 0.264906 0.264906 0.264906 0.264906 0.264906 0.264906 0.264906 0.264906 0.256074 0.256074 0.256074 0.256074 0.256074 0.256074 0.256074 0.256074 0.256074 0.256074 0.256074 0.264906 0.264906 0.264906 0.264906 0.264906 0.264906 0.264906 0.264906 0.264906 0.264906 0.260378 0.260378 0.260378 0.260378 0.260378 0.260378 0.260378 0.260378 0.260378 0.260378 0.264906 0.264906 0.264906 0.264906 0.264906 0.264906 0.264906 0.264906 0.264906 0.260378 0.260378 0.260378 0.260378 0.260378 0.260378 0.260378 0.260378 0.260378 0.256074 0.256074 0.256074 0.256074 0.256074 0.256074 0.256074 0.256074 0.256074 0.251976 0.251976 0.251976 0.251976 0.251976 0.251976 0.251976 0.251976 0.251976 0.251976 0.251976 0.251976 0.251976 0.251976 0.251976 0.251976 0.251976 0.251976
