# Output from CTFFind version 4.1.9, run on 2019-11-03 19:43:58
# Input file: stack16_bm3d_averaged_1_4.75_0_3000_half.mrc ; Number of micrographs: 1
# Pixel size: 3.000 Angstroms ; acceleration voltage: 300.0 keV ; spherical aberration: 0.00 mm ; amplitude contrast: 0.07
# Box size: 512 pixels ; min. res.: 30.0 Angstroms ; max. res.: 5.0 Angstroms ; min. def.: 5000.0 um; max. def. 50000.0 um; num. frames averaged: 1
# 6 lines per micrograph: #1 - spatial frequency (1/Angstroms); #2 - 1D rotational average of spectrum (assuming no astigmatism); #3 - 1D rotational average of spectrum; #4 - CTF fit; #5 - cross-correlation between spectrum and CTF fit; #6 - 2sigma of expected cross correlation of noise
0.000000 0.000651 0.001302 0.001953 0.002604 0.003255 0.003906 0.004557 0.005208 0.005859 0.006510 0.007161 0.007812 0.008464 0.009115 0.009766 0.010417 0.011068 0.011719 0.012370 0.013021 0.013672 0.014323 0.014974 0.015625 0.016276 0.016927 0.017578 0.018229 0.018880 0.019531 0.020182 0.020833 0.021484 0.022135 0.022786 0.023438 0.024089 0.024740 0.025391 0.026042 0.026693 0.027344 0.027995 0.028646 0.029297 0.029948 0.030599 0.031250 0.031901 0.032552 0.033203 0.033854 0.034505 0.035156 0.035807 0.036458 0.037109 0.037760 0.038411 0.039062 0.039714 0.040365 0.041016 0.041667 0.042318 0.042969 0.043620 0.044271 0.044922 0.045573 0.046224 0.046875 0.047526 0.048177 0.048828 0.049479 0.050130 0.050781 0.051432 0.052083 0.052734 0.053385 0.054036 0.054688 0.055339 0.055990 0.056641 0.057292 0.057943 0.058594 0.059245 0.059896 0.060547 0.061198 0.061849 0.062500 0.063151 0.063802 0.064453 0.065104 0.065755 0.066406 0.067057 0.067708 0.068359 0.069010 0.069661 0.070312 0.070964 0.071615 0.072266 0.072917 0.073568 0.074219 0.074870 0.075521 0.076172 0.076823 0.077474 0.078125 0.078776 0.079427 0.080078 0.080729 0.081380 0.082031 0.082682 0.083333 0.083984 0.084635 0.085286 0.085938 0.086589 0.087240 0.087891 0.088542 0.089193 0.089844 0.090495 0.091146 0.091797 0.092448 0.093099 0.093750 0.094401 0.095052 0.095703 0.096354 0.097005 0.097656 0.098307 0.098958 0.099609 0.100260 0.100911 0.101562 0.102214 0.102865 0.103516 0.104167 0.104818 0.105469 0.106120 0.106771 0.107422 0.108073 0.108724 0.109375 0.110026 0.110677 0.111328 0.111979 0.112630 0.113281 0.113932 0.114583 0.115234 0.115885 0.116536 0.117188 0.117839 0.118490 0.119141 0.119792 0.120443 0.121094 0.121745 0.122396 0.123047 0.123698 0.124349 0.125000 0.125651 0.126302 0.126953 0.127604 0.128255 0.128906 0.129557 0.130208 0.130859 0.131510 0.132161 0.132812 0.133464 0.134115 0.134766 0.135417 0.136068 0.136719 0.137370 0.138021 0.138672 0.139323 0.139974 0.140625 0.141276 0.141927 0.142578 0.143229 0.143880 0.144531 0.145182 0.145833 0.146484 0.147135 0.147786 0.148438 0.149089 0.149740 0.150391 0.151042 0.151693 0.152344 0.152995 0.153646 0.154297 0.154948 0.155599 0.156250 0.156901 0.157552 0.158203 0.158854 0.159505 0.160156 0.160807 0.161458 0.162109 0.162760 0.163411 0.164062 0.164714 0.165365 0.166016 0.166667 0.167318 0.167969 0.168620 0.169271 0.169922 0.170573 0.171224 0.171875 0.172526 0.173177 0.173828 0.174479 0.175130 0.175781 0.176432 0.177083 0.177734 0.178385 0.179036 0.179688 0.180339 0.180990 0.181641 0.182292 0.182943 0.183594 0.184245 0.184896 0.185547 0.186198 0.186849 0.187500 0.188151 0.188802 0.189453 0.190104 0.190755 0.191406 0.192057 0.192708 0.193359 0.194010 0.194661 0.195312 0.195964 0.196615 0.197266 0.197917 0.198568 0.199219 0.199870 0.200521 0.201172 0.201823 0.202474 0.203125 0.203776 0.204427 0.205078 0.205729 0.206380 0.207031 0.207682 0.208333 0.208984 0.209635 0.210286 0.210938 0.211589 0.212240 0.212891 0.213542 0.214193 0.214844 0.215495 0.216146 0.216797 0.217448 0.218099 0.218750 0.219401 0.220052 0.220703 0.221354 0.222005 0.222656 0.223307 0.223958 0.224609 0.225260 0.225911 0.226562 0.227214 0.227865 0.228516 0.229167 0.229818 0.230469 0.231120 0.231771 0.232422 0.233073 0.233724 0.234375 0.235026 0.235677
       0.33042        0.33042        0.33042        0.33042        0.33042        0.33042        0.33042        0.33042        0.33042        0.33042        0.33042        0.33042        0.33042        0.33042        0.33042        0.33042        0.33042        0.33042        0.33042        0.33042        0.33042        0.33042        0.33042        0.33042        0.33042        0.33042        0.33042        0.33042        0.33042        0.33042        0.33042        0.33042        0.33042        0.33042        0.33042        0.33042        0.33042        0.33042        0.33042        0.33042        0.33042        0.33042        0.33042        0.33042        0.33042        0.33042        0.33042        0.33042        0.33042        0.33042        0.33042        0.41683        0.56087        0.34737       -0.19794       -0.45900       -0.56054       -0.65678       -0.73065       -0.74793       -0.85386       -0.91311       -0.71220       -0.87355       -0.84737       -0.99828       -1.03315       -0.91701       -0.87463       -0.82003       -0.74882       -0.67396       -0.58738       -0.49225       -0.42227       -0.19683       -0.08956        0.00171        0.23068        0.24024        0.29866        0.36508        0.39000        0.49526        0.53345        0.56871        0.53187        0.47070        0.50882        0.49962        0.41998        0.31702        0.18933        0.16585        0.09942       -0.02967       -0.04332       -0.04863        0.02841       -0.00939        0.04703        0.02643        0.14005        0.18230        0.39700        0.45490        0.54999        0.65576        0.69467        0.71343        0.63482        0.61326        0.52497        0.43328        0.37477        0.25494        0.20049        0.18892        0.07842        0.07226        0.05332        0.06072        0.07937        0.29192        0.40270        0.50372        0.53534        0.57640        0.61406        0.58968        0.58328        0.58273        0.56005        0.45988        0.28336        0.24477        0.21921        0.11859        0.06746        0.13018        0.15475        0.26217        0.34437        0.40685        0.46609        0.52917        0.60162        0.54922        0.50876        0.48510        0.35123        0.23569        0.22866        0.15714        0.14449        0.19049        0.24109        0.26458        0.30639        0.41115        0.43640        0.50291        0.45457        0.44541        0.46677        0.36850        0.31429        0.27023        0.23117        0.20847        0.21716        0.22767        0.32068        0.42350        0.41644        0.48318        0.54328        0.43983        0.41148        0.35129        0.28917        0.24139        0.25017        0.26195        0.27514        0.30770        0.32445        0.41023        0.46338        0.43323        0.44268        0.35038        0.36492        0.34819        0.23836        0.22459        0.22929        0.29007        0.35699        0.36471        0.38577        0.42846        0.42874        0.35650        0.33234        0.30672        0.32980        0.28837        0.26221        0.26529        0.32641        0.35659        0.36848        0.39035        0.37053        0.39666        0.37184        0.28690        0.27270        0.30345        0.33133        0.34952        0.34810        0.39957        0.33240        0.36611        0.38015        0.31818        0.33615        0.29394        0.28348        0.33140        0.32219        0.31421        0.32694        0.35093        0.31321        0.33222        0.29723        0.30250        0.27208        0.29376        0.28966        0.32729        0.36283        0.35107        0.33164        0.28842        0.27346        0.27505        0.31310        0.28509        0.30058        0.35314        0.36250        0.32778        0.30146        0.29887        0.29872        0.26370        0.27834        0.28602        0.31072        0.34443        0.31736        0.27565        0.31961        0.30037        0.29950        0.34381        0.33172        0.30272        0.32630        0.28511        0.31659        0.27383        0.29651        0.29190        0.30798        0.37229        0.32194        0.33950        0.29396        0.30261        0.31189        0.31464        0.28614        0.28214        0.31205        0.30781        0.30999        0.29515        0.30376        0.28619        0.29352        0.31075        0.31875        0.32163        0.32708        0.32422        0.29216        0.27014        0.26751        0.25745        0.34324        0.30667        0.34719        0.29022        0.26119        0.28919        0.34327        0.29774        0.28234        0.26390        0.30127        0.27680        0.26394        0.30779        0.27063        0.26166        0.29777        0.29894        0.32918        0.32537        0.28870        0.26311        0.24179        0.25179        0.26435        0.27291        0.32132        0.26660        0.21244        0.28730        0.26253        0.28652        0.22790        0.30646        0.29570        0.29702        0.26641        0.25314        0.26408        0.21777        0.27587        0.32637        0.36470        0.24009        0.25894        0.22159        0.21676        0.19489        0.32476        0.23263        0.23784        0.14598        0.24597        0.22872        0.22658        0.12945        0.02501       -0.62765       -0.94899
3.032089 2.994204 2.956563 2.919166 2.882013 2.845105 2.808440 2.772020 2.735843 2.699911 2.664223 2.628779 2.593580 2.558624 2.523912 2.489445 2.455222 2.421243 2.387508 2.354017 2.320770 2.287767 2.255009 2.222494 2.190224 2.158198 2.126416 2.094878 2.063584 2.032535 2.001729 1.971168 1.940851 1.910778 1.880949 1.851364 1.822023 1.792926 1.764074 1.735465 1.707101 1.678981 1.651105 1.623473 1.596086 1.568942 1.542043 1.515387 1.488976 1.462809 1.436886 1.470771 1.572307 1.512364 0.846677 0.579002 0.437179 0.370566 0.278726 0.196673 0.152393 -0.061157 0.182817 0.047516 -0.046780 -0.128386 -0.245722 -0.158568 -0.075846 -0.094946 -0.089874 0.025165 0.019055 0.209654 0.099188 0.341035 0.451848 0.466443 0.743399 0.682154 0.678045 0.827002 0.793352 0.822817 0.917201 0.859841 0.893929 0.728077 0.808529 0.840203 0.665507 0.600180 0.440895 0.421810 0.360641 0.178729 0.174347 0.117600 0.212922 0.118834 0.212830 0.108338 0.232302 0.237147 0.462309 0.418027 0.595978 0.632861 0.683383 0.736793 0.627854 0.614590 0.476178 0.425021 0.312750 0.279138 0.112228 0.174531 -0.012174 0.036959 -0.036177 -0.035250 -0.026906 0.045270 0.295219 0.310671 0.393368 0.339079 0.420169 0.461626 0.436052 0.439762 0.375254 0.366829 0.146861 0.099071 0.069207 0.004765 -0.145417 -0.029514 -0.073792 0.046975 0.106829 0.177920 0.247929 0.257729 0.342659 0.442225 0.337106 0.381855 0.276132 0.144735 0.068589 0.062786 0.011750 0.037047 0.076364 0.114027 0.124812 0.206054 0.252945 0.302884 0.325235 0.243366 0.270003 0.234815 0.115437 0.095489 0.044114 0.042125 0.010415 0.013380 0.050191 0.177485 0.196147 0.203418 0.317024 0.202018 0.225232 0.101902 0.084043 -0.009880 -0.003776 0.007715 0.013706 0.040109 0.044032 0.090868 0.162701 0.162766 0.214664 0.116826 0.079656 0.106413 0.045772 -0.074331 -0.025007 0.009252 0.046861 0.071520 0.091526 0.148714 0.152590 0.148016 0.041072 0.058326 0.047293 0.046562 0.019832 -0.018067 0.032634 0.042765 0.085660 0.113210 0.100056 0.103662 0.123326 0.059743 0.002873 0.004395 0.031012 0.079478 0.056661 0.107428 0.096977 0.058131 0.108515 0.071354 0.037699 0.070111 -0.027557 0.026177 0.059144 0.033811 0.042076 0.031830 0.069932 0.049741 0.048648 0.010538 0.021722 -0.016297 0.022711 0.003156 0.055783 0.080551 0.060146 0.032233 -0.018319 -0.017285 -0.010373 0.021314 -0.006404 0.014027 0.067112 0.066649 -0.014195 0.014508 -0.011714 0.004989 -0.042834 -0.024589 -0.014638 0.032243 -0.008683 0.016211 -0.022082 0.007243 -0.016537 0.002199 0.037422 0.017545 0.019080 -0.049136 -0.002020 0.001246 -0.050422 -0.012154 -0.013970 0.021459 0.074383 0.005357 0.015156 -0.001586 0.012632 0.000757 0.028934 -0.013611 -0.011042 0.005272 0.042586 0.014764 0.002443 0.055154 -0.020840 0.002322 0.029669 0.026675 0.050985 0.049183 0.018479 0.019251 -0.002682 -0.029632 -0.002991 0.065347 0.031866 0.041967 -0.008010 -0.021013 -0.012003 0.077109 -0.006029 0.007519 0.007782 0.015710 -0.006740 -0.006109 0.026545 0.006207 -0.010474 0.026433 0.035236 0.095279 0.053739 0.026970 0.013711 -0.024959 -0.005093 0.007428 -0.007077 0.085773 -0.028747 -0.078705 0.052709 -0.018588 0.012001 -0.047260 0.028643 0.002095 -0.004441 -0.024512 -0.027041 -0.023588 -0.065005 0.009511 0.044856 0.084808 -0.096907 0.030529 -0.020377 -0.030646 -0.087501 0.137895 0.030904 0.090880 -0.024808 0.124958 0.240734 0.213893 0.063508 0.029915 -0.886229
0.072396 0.073047 0.075000 0.078253 0.082806 0.088658 0.095806 0.104248 0.113979 0.124993 0.137286 0.150848 0.165668 0.181736 0.199034 0.217544 0.237245 0.258109 0.280107 0.303204 0.327357 0.352519 0.378638 0.405652 0.433492 0.462083 0.491338 0.521164 0.551455 0.582098 0.612968 0.643927 0.674830 0.705519 0.735822 0.765559 0.794538 0.822553 0.849392 0.874829 0.898631 0.920556 0.940354 0.957769 0.972543 0.984412 0.993116 0.998392 0.999986 0.997649 0.991143 0.980243 0.964744 0.944459 0.919228 0.888919 0.853434 0.812714 0.766738 0.715534 0.659180 0.597806 0.531601 0.460815 0.385760 0.306814 0.224424 0.139102 0.051429 0.037947 0.128315 0.218901 0.308876 0.397362 0.483435 0.566138 0.644492 0.717501 0.784173 0.843530 0.894624 0.936551 0.968475 0.989638 0.999384 0.997174 0.982605 0.955426 0.915558 0.863102 0.798357 0.721828 0.634229 0.536495 0.429771 0.315416 0.194989 0.070234 0.056936 0.184469 0.310198 0.431881 0.547235 0.653987 0.749915 0.832901 0.900983 0.952407 0.985678 0.999613 0.993384 0.966565 0.919161 0.851640 0.764950 0.660523 0.540273 0.406575 0.262236 0.110443 0.045290 0.201202 0.353369 0.497800 0.630545 0.747809 0.846066 0.922177 0.973505 0.998017 0.994383 0.962052 0.901311 0.813325 0.700142 0.564679 0.410667 0.242578 0.065507 0.114965 0.292939 0.462385 0.617352 0.752182 0.861729 0.941574 0.988225 0.999293 0.973638 0.911472 0.814413 0.685493 0.529099 0.350863 0.157481 0.043504 0.243992 0.435638 0.610207 0.759926 0.877864 0.958265 0.996871 0.991173 0.940611 0.846680 0.712952 0.544992 0.350171 0.137387 0.083316 0.301201 0.505360 0.685253 0.831280 0.935322 0.991227 0.995220 0.946208 0.845939 0.699026 0.512800 0.296996 0.063297 0.175258 0.405003 0.612406 0.784895 0.911640 0.984287 0.997562 0.949713 0.842746 0.682450 0.478151 0.242247 0.010489 0.263807 0.500995 0.706001 0.864537 0.965126 0.999998 0.965760 0.863789 0.700304 0.486080 0.235829 0.032759 0.300201 0.546642 0.753321 0.904050 0.986536 0.993465 0.923245 0.780313 0.574985 0.322811 0.043493 0.240606 0.506216 0.731076 0.895837 0.985792 0.992290 0.913665 0.755604 0.530881 0.258429 0.038144 0.332555 0.598133 0.810282 0.948796 0.999883 0.957652 0.824912 0.613162 0.341731 0.036152 0.274191 0.558819 0.789183 0.941583 0.999703 0.956492 0.815153 0.589104 0.300867 0.020050 0.340087 0.625112 0.844079 0.972496 0.995289 0.908720 0.721120 0.452283 0.131539 0.205315 0.519951 0.775883 0.942734 0.999993 0.939682 0.767649 0.503220 0.177232 0.171429 0.500382 0.768889 0.942980 0.999866 0.931118 0.744097 0.461419 0.118422 0.241102 0.570412 0.825912 0.973010 0.990961 0.876004 0.642289 0.320395 0.046479 0.408165 0.714350 0.921628 0.999786 0.936428 0.739170 0.435018 0.066921 0.312114 0.646593 0.886678 0.995736 0.956152 0.772428 0.471006 0.096756 0.293534 0.639662 0.887320 0.996758 0.949392 0.751240 0.432510 0.043296 0.354112 0.695088 0.923238 0.999890 0.910912 0.669611 0.315120 0.093685 0.487776 0.799556 0.974590 0.981295 0.816972 0.508894 0.110130 0.309338 0.674769 0.920012 0.999660 0.897752 0.631330 0.247967 0.182375 0.579974 0.870047 0.996991 0.935330 0.695185 0.321062 0.116010 0.531779 0.844929 0.993126 0.945711 0.710439 0.332705 0.112851 0.536817 0.852909 0.995670 0.934340 0.679893 0.283581 0.172994 0.594440 0.891471 0.999988 0.895290 0.598121 0.171086 0.294186 0.696453
1.000000 1.000000 1.000000 1.000000 1.000000 1.000000 1.000000 1.000000 1.000000 1.000000 1.000000 1.000000 1.000000 1.000000 1.000000 1.000000 1.000000 1.000000 1.000000 1.000000 1.000000 1.000000 1.000000 1.000000 1.000000 1.000000 1.000000 1.000000 1.000000 1.000000 1.000000 1.000000 1.000000 1.000000 1.000000 1.000000 1.000000 1.000000 1.000000 1.000000 1.000000 1.000000 1.000000 1.000000 1.000000 1.000000 1.000000 1.000000 1.000000 1.000000 1.000000 1.000000 0.934521 0.934521 0.934521 0.934521 0.934521 0.934521 0.934521 0.934521 0.934521 0.934521 0.934521 0.934521 0.934521 0.934521 0.934521 0.934521 0.934521 0.934521 0.934521 0.934521 0.934521 0.934521 0.934521 0.934521 0.934521 0.934521 0.934521 0.934521 0.934521 0.934521 0.934521 0.934521 0.934521 0.921948 0.920068 0.922980 0.923999 0.923919 0.923452 0.923165 0.923447 0.924874 0.926722 0.948189 0.950436 0.951026 0.952225 0.953722 0.956422 0.954738 0.959262 0.969960 0.969220 0.970011 0.964044 0.965017 0.964535 0.963892 0.965879 0.965714 0.964349 0.962763 0.961548 0.961187 0.960948 0.962506 0.962952 0.963160 0.963543 0.963477 0.963345 0.963312 0.963572 0.965742 0.964869 0.964086 0.969869 0.968718 0.970866 0.970848 0.971562 0.972270 0.972443 0.972589 0.967768 0.967109 0.965902 0.952522 0.946232 0.942839 0.945119 0.947947 0.945559 0.941319 0.940135 0.942843 0.937458 0.937013 0.929433 0.928311 0.912383 0.904117 0.892835 0.893744 0.895066 0.895789 0.893631 0.884387 0.874386 0.871227 0.873619 0.868062 0.863931 0.880208 0.874971 0.876110 0.879803 0.882219 0.887571 0.881039 0.876806 0.872961 0.869296 0.867180 0.869524 0.873653 0.877155 0.865020 0.857691 0.860775 0.851709 0.847008 0.853143 0.854822 0.850746 0.849648 0.850262 0.850701 0.842584 0.839134 0.840427 0.849650 0.850008 0.840014 0.835054 0.828888 0.829041 0.827443 0.827762 0.826176 0.823355 0.816656 0.827082 0.798428 0.820591 0.815759 0.803985 0.790488 0.780477 0.777513 0.789784 0.792543 0.790116 0.769003 0.766982 0.767615 0.751765 0.757602 0.764779 0.760804 0.749022 0.727428 0.735332 0.745781 0.736795 0.726696 0.729106 0.728918 0.696602 0.709855 0.713533 0.701571 0.714475 0.711678 0.703518 0.697755 0.703373 0.659931 0.654460 0.618793 0.619555 0.632159 0.616750 0.565512 0.564238 0.567319 0.556399 0.487156 0.474569 0.459299 0.461685 0.463962 0.500662 0.503007 0.482326 0.494767 0.491353 0.489323 0.489421 0.397335 0.386405 0.363828 0.377302 0.381200 0.374268 0.353551 0.364232 0.369608 0.376461 0.365222 0.360232 0.376316 0.359554 0.363896 0.384856 0.367545 0.357004 0.362107 0.371574 0.367206 0.401246 0.343508 0.311989 0.331415 0.332242 0.338050 0.341094 0.328691 0.255283 0.337514 0.258777 0.278362 0.256644 0.235670 0.232299 0.264334 0.255358 0.259621 0.249034 0.280955 0.287476 0.285054 0.268886 0.267856 0.288399 0.214736 0.232382 0.263941 0.255416 0.331523 0.314096 0.288059 0.182505 0.247539 0.222927 0.232656 0.213028 0.133723 0.138825 0.147914 0.113426 0.119205 0.107583 0.072582 0.044816 0.004504 0.006649 -0.017087 -0.009809 0.010148 -0.003082 -0.005177 -0.005177 -0.005177 -0.005177 -0.033382 -0.033382 -0.033382 -0.033382 -0.033382 -0.033382 -0.033382 -0.033382 -0.033382 -0.033382 -0.033382 -0.033382 -0.033382 -0.033382 -0.011658 -0.011658 -0.011658 -0.011658 -0.011658 -0.011658 -0.011658 -0.011658 -0.011658 -0.011658 -0.011658 -0.011658
0.000000 0.000000 0.000000 0.000000 0.000000 0.000000 0.000000 0.000000 0.000000 0.000000 0.000000 0.000000 0.000000 0.000000 0.000000 0.000000 0.000000 0.000000 0.000000 0.000000 0.000000 0.000000 0.000000 0.000000 0.000000 7.000000 4.000000 0.000000 0.000000 0.000000 0.000000 0.000000 0.000000 0.000000 0.000000 0.000000 0.000000 0.000000 0.000000 0.000000 0.000000 0.000000 0.000000 0.000000 0.000000 0.000000 0.000000 0.000000 0.000000 0.000000 0.000000 0.000000 0.209657 0.209657 0.209657 0.209657 0.209657 0.209657 0.209657 0.209657 0.209657 0.209657 0.209657 0.209657 0.209657 0.209657 0.209657 0.209657 0.209657 0.209657 0.209657 0.209657 0.209657 0.209657 0.209657 0.209657 0.209657 0.209657 0.209657 0.209657 0.209657 0.209657 0.209657 0.209657 0.209657 0.244339 0.244339 0.244339 0.244339 0.244339 0.244339 0.244339 0.244339 0.244339 0.244339 0.244339 0.244339 0.244339 0.244339 0.244339 0.244339 0.244339 0.244339 0.244339 0.244339 0.244339 0.244339 0.244339 0.244339 0.244339 0.260378 0.260378 0.260378 0.260378 0.260378 0.260378 0.260378 0.260378 0.260378 0.260378 0.260378 0.260378 0.260378 0.260378 0.260378 0.260378 0.260378 0.260378 0.260378 0.260378 0.269680 0.269680 0.269680 0.269680 0.269680 0.269680 0.269680 0.269680 0.269680 0.269680 0.269680 0.269680 0.269680 0.269680 0.269680 0.269680 0.269680 0.269680 0.269680 0.269680 0.269680 0.269680 0.269680 0.269680 0.269680 0.269680 0.269680 0.269680 0.269680 0.269680 0.269680 0.269680 0.269680 0.280056 0.280056 0.280056 0.280056 0.280056 0.280056 0.280056 0.280056 0.280056 0.280056 0.280056 0.280056 0.280056 0.280056 0.280056 0.280056 0.280056 0.280056 0.280056 0.280056 0.280056 0.280056 0.280056 0.280056 0.280056 0.280056 0.280056 0.274721 0.274721 0.274721 0.274721 0.274721 0.274721 0.274721 0.274721 0.274721 0.274721 0.274721 0.274721 0.274721 0.285714 0.285714 0.285714 0.285714 0.285714 0.285714 0.285714 0.285714 0.285714 0.285714 0.285714 0.280056 0.280056 0.280056 0.280056 0.280056 0.280056 0.280056 0.280056 0.280056 0.280056 0.280056 0.274721 0.274721 0.274721 0.274721 0.274721 0.274721 0.274721 0.274721 0.274721 0.274721 0.274721 0.280056 0.280056 0.280056 0.280056 0.280056 0.280056 0.280056 0.280056 0.280056 0.280056 0.285714 0.285714 0.285714 0.285714 0.285714 0.285714 0.285714 0.285714 0.285714 0.280056 0.280056 0.280056 0.280056 0.280056 0.280056 0.280056 0.280056 0.280056 0.274721 0.274721 0.274721 0.274721 0.274721 0.274721 0.274721 0.274721 0.274721 0.269680 0.269680 0.269680 0.269680 0.269680 0.269680 0.269680 0.269680 0.269680 0.264906 0.264906 0.264906 0.264906 0.264906 0.264906 0.264906 0.264906 0.264906 0.274721 0.274721 0.274721 0.274721 0.274721 0.274721 0.274721 0.274721 0.269680 0.269680 0.269680 0.269680 0.269680 0.269680 0.269680 0.269680 0.285714 0.285714 0.285714 0.285714 0.285714 0.285714 0.285714 0.264906 0.264906 0.264906 0.264906 0.264906 0.264906 0.264906 0.264906 0.274721 0.274721 0.274721 0.274721 0.274721 0.274721 0.274721 0.256074 0.256074 0.256074 0.256074 0.256074 0.256074 0.256074 0.256074 0.264906 0.264906 0.264906 0.264906 0.264906 0.264906 0.264906 0.264906 0.264906 0.264906 0.264906 0.264906 0.264906 0.264906 0.260378 0.260378 0.260378 0.260378 0.260378 0.260378 0.260378 0.260378 0.260378 0.260378 0.260378 0.260378
