# Output from CTFFind version 4.1.9, run on 2019-11-02 17:59:01
# Input file: stack11_bm3d_averaged_1_1.75_0_3000_half.mrc ; Number of micrographs: 1
# Pixel size: 3.000 Angstroms ; acceleration voltage: 300.0 keV ; spherical aberration: 0.00 mm ; amplitude contrast: 0.07
# Box size: 512 pixels ; min. res.: 30.0 Angstroms ; max. res.: 5.0 Angstroms ; min. def.: 5000.0 um; max. def. 50000.0 um; num. frames averaged: 1
# 6 lines per micrograph: #1 - spatial frequency (1/Angstroms); #2 - 1D rotational average of spectrum (assuming no astigmatism); #3 - 1D rotational average of spectrum; #4 - CTF fit; #5 - cross-correlation between spectrum and CTF fit; #6 - 2sigma of expected cross correlation of noise
0.000000 0.000651 0.001302 0.001953 0.002604 0.003255 0.003906 0.004557 0.005208 0.005859 0.006510 0.007161 0.007812 0.008464 0.009115 0.009766 0.010417 0.011068 0.011719 0.012370 0.013021 0.013672 0.014323 0.014974 0.015625 0.016276 0.016927 0.017578 0.018229 0.018880 0.019531 0.020182 0.020833 0.021484 0.022135 0.022786 0.023438 0.024089 0.024740 0.025391 0.026042 0.026693 0.027344 0.027995 0.028646 0.029297 0.029948 0.030599 0.031250 0.031901 0.032552 0.033203 0.033854 0.034505 0.035156 0.035807 0.036458 0.037109 0.037760 0.038411 0.039062 0.039714 0.040365 0.041016 0.041667 0.042318 0.042969 0.043620 0.044271 0.044922 0.045573 0.046224 0.046875 0.047526 0.048177 0.048828 0.049479 0.050130 0.050781 0.051432 0.052083 0.052734 0.053385 0.054036 0.054688 0.055339 0.055990 0.056641 0.057292 0.057943 0.058594 0.059245 0.059896 0.060547 0.061198 0.061849 0.062500 0.063151 0.063802 0.064453 0.065104 0.065755 0.066406 0.067057 0.067708 0.068359 0.069010 0.069661 0.070312 0.070964 0.071615 0.072266 0.072917 0.073568 0.074219 0.074870 0.075521 0.076172 0.076823 0.077474 0.078125 0.078776 0.079427 0.080078 0.080729 0.081380 0.082031 0.082682 0.083333 0.083984 0.084635 0.085286 0.085938 0.086589 0.087240 0.087891 0.088542 0.089193 0.089844 0.090495 0.091146 0.091797 0.092448 0.093099 0.093750 0.094401 0.095052 0.095703 0.096354 0.097005 0.097656 0.098307 0.098958 0.099609 0.100260 0.100911 0.101562 0.102214 0.102865 0.103516 0.104167 0.104818 0.105469 0.106120 0.106771 0.107422 0.108073 0.108724 0.109375 0.110026 0.110677 0.111328 0.111979 0.112630 0.113281 0.113932 0.114583 0.115234 0.115885 0.116536 0.117188 0.117839 0.118490 0.119141 0.119792 0.120443 0.121094 0.121745 0.122396 0.123047 0.123698 0.124349 0.125000 0.125651 0.126302 0.126953 0.127604 0.128255 0.128906 0.129557 0.130208 0.130859 0.131510 0.132161 0.132812 0.133464 0.134115 0.134766 0.135417 0.136068 0.136719 0.137370 0.138021 0.138672 0.139323 0.139974 0.140625 0.141276 0.141927 0.142578 0.143229 0.143880 0.144531 0.145182 0.145833 0.146484 0.147135 0.147786 0.148438 0.149089 0.149740 0.150391 0.151042 0.151693 0.152344 0.152995 0.153646 0.154297 0.154948 0.155599 0.156250 0.156901 0.157552 0.158203 0.158854 0.159505 0.160156 0.160807 0.161458 0.162109 0.162760 0.163411 0.164062 0.164714 0.165365 0.166016 0.166667 0.167318 0.167969 0.168620 0.169271 0.169922 0.170573 0.171224 0.171875 0.172526 0.173177 0.173828 0.174479 0.175130 0.175781 0.176432 0.177083 0.177734 0.178385 0.179036 0.179688 0.180339 0.180990 0.181641 0.182292 0.182943 0.183594 0.184245 0.184896 0.185547 0.186198 0.186849 0.187500 0.188151 0.188802 0.189453 0.190104 0.190755 0.191406 0.192057 0.192708 0.193359 0.194010 0.194661 0.195312 0.195964 0.196615 0.197266 0.197917 0.198568 0.199219 0.199870 0.200521 0.201172 0.201823 0.202474 0.203125 0.203776 0.204427 0.205078 0.205729 0.206380 0.207031 0.207682 0.208333 0.208984 0.209635 0.210286 0.210938 0.211589 0.212240 0.212891 0.213542 0.214193 0.214844 0.215495 0.216146 0.216797 0.217448 0.218099 0.218750 0.219401 0.220052 0.220703 0.221354 0.222005 0.222656 0.223307 0.223958 0.224609 0.225260 0.225911 0.226562 0.227214 0.227865 0.228516 0.229167 0.229818 0.230469 0.231120 0.231771 0.232422 0.233073 0.233724 0.234375 0.235026 0.235677
       0.31556        0.31556        0.31556        0.31556        0.31556        0.31556        0.31556        0.31556        0.31556        0.31556        0.31556        0.31556        0.31556        0.31556        0.31556        0.31556        0.31556        0.31556        0.31556        0.31556        0.31556        0.31556        0.31556        0.31556        0.31556        0.31556        0.31556        0.31556        0.31556        0.31556        0.31556        0.31556        0.31556        0.31556        0.31556        0.31556        0.31556        0.31556        0.31556        0.31556        0.31556        0.31556        0.31556        0.31556        0.31556        0.31556        0.31556        0.31556        0.31556        0.31556        0.31556        0.68207        0.86686        0.52007        0.08573       -0.06646       -0.42949       -0.20541       -0.29884       -0.12074       -0.07829       -0.12049       -0.07160       -0.21051       -0.23814       -0.25892       -0.33377       -0.34107       -0.49281       -0.38400       -0.46680       -0.45208       -0.42253       -0.46909       -0.54210       -0.56386       -0.58822       -0.62244       -0.57961       -0.41584       -0.37882       -0.33264       -0.31762       -0.21206       -0.19813        0.01997        0.07216        0.10429        0.22300        0.36946        0.44216        0.51407        0.55684        0.55241        0.57070        0.69500        0.81132        0.74145        0.73271        0.66791        0.57730        0.48232        0.40295        0.49318        0.37368        0.19917        0.07543        0.04259        0.00838       -0.06224       -0.04076       -0.02116       -0.07122       -0.00970       -0.02298        0.21144        0.25019        0.28927        0.42509        0.45661        0.40138        0.53105        0.62505        0.69562        0.76316        0.68613        0.65692        0.69494        0.58234        0.49883        0.41767        0.28868        0.19075        0.15641        0.11087        0.03451        0.00961        0.00192        0.07389        0.13188        0.20402        0.27802        0.39688        0.41626        0.50311        0.59894        0.63248        0.61391        0.62781        0.55149        0.44372        0.44591        0.35147        0.22607        0.18352        0.14624        0.10748        0.12227        0.07087        0.10238        0.22545        0.26312        0.34209        0.35257        0.44743        0.51010        0.53693        0.54762        0.46752        0.42732        0.38886        0.36838        0.30546        0.25001        0.20336        0.18541        0.16473        0.19482        0.17642        0.26865        0.33191        0.36570        0.42260        0.46029        0.47501        0.43813        0.39012        0.40836        0.37210        0.28469        0.26871        0.22501        0.21310        0.19320        0.21407        0.22829        0.32573        0.37201        0.37071        0.45856        0.43285        0.43833        0.42806        0.39258        0.34193        0.32651        0.27967        0.23825        0.23452        0.26748        0.27230        0.29939        0.30032        0.33498        0.32698        0.40589        0.41570        0.37578        0.34584        0.36280        0.27903        0.27813        0.26093        0.27648        0.26073        0.28109        0.29038        0.30938        0.34495        0.35684        0.36034        0.33719        0.35156        0.28850        0.32458        0.26645        0.24243        0.28191        0.28483        0.30907        0.31159        0.32536        0.32294        0.31213        0.31732        0.28399        0.28377        0.25895        0.28181        0.26754        0.30710        0.28154        0.26274        0.30488        0.30869        0.31336        0.28380        0.29746        0.28505        0.24956        0.24466        0.21620        0.27702        0.27325        0.31734        0.30983        0.32260        0.31649        0.30761        0.27432        0.28451        0.32941        0.26640        0.25873        0.29053        0.28827        0.34193        0.33819        0.35547        0.33132        0.30660        0.28332        0.26655        0.25713        0.22246        0.26646        0.30497        0.29666        0.27871        0.29591        0.26812        0.32164        0.33481        0.25050        0.21937        0.26786        0.33402        0.27691        0.30769        0.32543        0.32204        0.29453        0.31775        0.34189        0.29635        0.28878        0.25320        0.28092        0.34794        0.35660        0.26079        0.26563        0.25080        0.27683        0.21831        0.28734        0.22570        0.25069        0.32854        0.31976        0.35325        0.30270        0.23281        0.23044        0.24212        0.23394        0.18527        0.22062        0.26421        0.29369        0.26656        0.30968        0.29766        0.26921        0.27785        0.20848        0.17143        0.19188        0.22916        0.18817        0.21297        0.22901        0.19700        0.25394        0.35090        0.29947        0.31772        0.22508        0.25172        0.21835        0.28527        0.29626        0.15073        0.23839        0.22769        0.11092        0.22817        0.11604        0.15003        0.24125        0.14189       -0.14184       -0.64908
2.580533 2.553640 2.526893 2.500291 2.473835 2.447524 2.421359 2.395340 2.369467 2.343739 2.318156 2.292720 2.267429 2.242283 2.217284 2.192430 2.167721 2.143159 2.118742 2.094470 2.070345 2.046365 2.022530 1.998841 1.975298 1.951901 1.928649 1.905543 1.882582 1.859768 1.837098 1.814575 1.792197 1.769965 1.747878 1.725937 1.704142 1.682492 1.660988 1.639630 1.618417 1.597350 1.576429 1.555653 1.535023 1.514539 1.494200 1.474007 1.453960 1.434058 1.414302 1.636126 2.041931 1.614057 1.126395 0.987073 0.413919 0.813739 0.556075 0.831364 0.770455 0.786106 0.747373 0.708471 0.558511 0.511911 0.481589 0.439413 0.202817 0.377352 0.199788 0.305916 0.233852 0.180455 0.132785 0.003803 0.037918 -0.011378 -0.056946 0.103620 0.207726 0.191364 0.152052 0.332151 0.198963 0.498980 0.579157 0.550884 0.593095 0.876709 0.811767 0.944933 0.887813 0.976473 0.943722 1.080454 1.140955 1.076381 1.131284 0.952702 0.941583 0.786434 0.648898 0.772230 0.708772 0.459004 0.308086 0.250884 0.213025 0.149104 0.089317 0.131102 0.072861 0.152789 0.052129 0.262774 0.380165 0.362841 0.478147 0.577718 0.464961 0.546744 0.699264 0.746391 0.780549 0.732112 0.736192 0.714129 0.627992 0.568482 0.431579 0.286841 0.212951 0.081418 0.137517 -0.041781 -0.032368 -0.074448 -0.036745 0.004842 0.150889 0.088627 0.299683 0.280335 0.363071 0.452157 0.527755 0.511682 0.519636 0.505549 0.336015 0.309499 0.283936 0.098579 0.052044 -0.006567 -0.029253 -0.040751 -0.084391 -0.099354 -0.006071 0.055456 0.139910 0.146070 0.228870 0.330333 0.313037 0.412138 0.399154 0.286553 0.231688 0.250637 0.206362 0.103816 0.081903 0.021732 0.002272 0.016915 -0.013247 0.061010 0.149886 0.143202 0.236609 0.254177 0.308796 0.251966 0.220094 0.179163 0.213241 0.143946 0.042690 0.043954 -0.009055 -0.011557 -0.031426 0.017043 0.019207 0.165618 0.133290 0.187084 0.234352 0.201280 0.193313 0.194781 0.139944 0.102861 0.063893 0.052958 -0.037293 0.008391 0.021605 0.056503 0.053511 0.074895 0.097132 0.119591 0.138615 0.185881 0.081460 0.097481 0.073058 -0.001635 0.003838 0.009482 -0.006803 0.017521 0.008145 0.029144 0.064539 0.086943 0.103957 0.054999 0.104338 0.057398 0.018806 0.063175 -0.035789 -0.016451 0.024984 0.006793 0.056820 0.054460 0.045979 0.063883 0.052341 0.046994 0.022419 -0.002071 0.014865 0.017778 -0.006254 0.071945 -0.014580 0.014309 0.058304 0.050545 0.035508 0.047523 0.040582 0.022186 -0.013084 -0.030851 -0.018019 0.023644 0.031550 0.075103 0.059593 0.068156 0.090654 0.069281 0.025976 0.072077 0.090306 0.016990 0.023124 0.061689 0.056997 0.108115 0.116571 0.113237 0.120925 0.070643 0.050629 0.040057 0.005596 0.002497 0.053000 0.090443 0.053930 0.037045 0.037421 0.024510 0.097646 0.069507 -0.042742 -0.047524 0.031916 0.098987 0.009390 0.026451 0.072517 0.082151 0.023824 0.059010 0.085839 0.035098 0.036553 -0.035391 0.021113 0.108606 0.075086 -0.047390 -0.023056 -0.049388 0.016415 -0.109784 0.036629 -0.102409 -0.030728 0.049995 0.035223 0.039892 -0.036775 -0.074903 -0.092369 -0.083998 -0.068605 -0.127863 -0.091485 -0.033074 0.029249 -0.043932 0.047791 -0.022278 -0.054754 0.049620 -0.108933 -0.105329 -0.092613 -0.012025 -0.073273 -0.029089 -0.020047 -0.006543 0.019988 0.196498 -0.022124 0.150140 0.009230 0.258415 0.231013 0.329467 0.270458 0.115138 0.241965 0.270847 0.028800 0.248051 0.118955 0.121490 0.332093 0.146005 -0.672940
0.072396 0.072898 0.074405 0.076917 0.080431 0.084949 0.090468 0.096987 0.104504 0.113015 0.122519 0.133009 0.144482 0.156930 0.170345 0.184720 0.200042 0.216299 0.233476 0.251555 0.270517 0.290339 0.310994 0.332454 0.354685 0.377650 0.401309 0.425614 0.450515 0.475957 0.501878 0.528211 0.554885 0.581819 0.608929 0.636123 0.663303 0.690365 0.717195 0.743676 0.769682 0.795080 0.819733 0.843495 0.866215 0.887737 0.907897 0.926530 0.943464 0.958527 0.971541 0.982329 0.990713 0.996515 0.999561 0.999680 0.996706 0.990478 0.980847 0.967673 0.950828 0.930198 0.905688 0.877220 0.844737 0.808206 0.767619 0.722996 0.674385 0.621870 0.565564 0.505619 0.442221 0.375596 0.306010 0.233769 0.159216 0.082739 0.004764 0.074245 0.153785 0.233319 0.312277 0.390059 0.466040 0.539574 0.609999 0.676645 0.738835 0.795898 0.847176 0.892029 0.929843 0.960046 0.982109 0.995562 0.999998 0.995087 0.980583 0.956334 0.922288 0.878503 0.825153 0.762533 0.691063 0.611291 0.523892 0.429674 0.329563 0.224610 0.115976 0.004925 0.107189 0.218934 0.328823 0.435324 0.536891 0.631979 0.719074 0.796715 0.863525 0.918237 0.959718 0.987004 0.999316 0.996093 0.977009 0.941992 0.891243 0.825244 0.744765 0.650865 0.544888 0.428454 0.303439 0.171952 0.036306 0.101017 0.237412 0.370195 0.496659 0.614126 0.720011 0.811881 0.887514 0.944964 0.982614 0.999233 0.994020 0.966644 0.917276 0.846608 0.755859 0.646771 0.521591 0.383034 0.234238 0.078703 0.079789 0.237255 0.389614 0.532789 0.662821 0.775985 0.868901 0.938648 0.982864 0.999844 0.988612 0.948983 0.881603 0.787963 0.670388 0.532003 0.376660 0.208856 0.033608 0.143685 0.317403 0.481881 0.631605 0.761386 0.866568 0.943197 0.988193 0.999487 0.976137 0.918404 0.827784 0.707010 0.559985 0.391690 0.208028 0.015643 0.178321 0.366468 0.541439 0.696201 0.824346 0.920362 0.979903 0.999999 0.979238 0.917869 0.817859 0.682864 0.518132 0.330323 0.127275 0.082319 0.289259 0.484245 0.658299 0.803183 0.911818 0.978646 0.999949 0.974087 0.901641 0.785463 0.630603 0.444135 0.234864 0.012942 0.210612 0.424447 0.617460 0.779380 0.901337 0.976382 0.999910 0.969988 0.887541 0.756386 0.583111 0.376791 0.148546 0.089024 0.322518 0.538488 0.724221 0.868502 0.962331 0.999518 0.977142 0.895820 0.759776 0.576677 0.357263 0.114755 0.135905 0.378957 0.598813 0.781069 0.913473 0.986796 0.995520 0.938313 0.818230 0.642628 0.422782 0.173222 0.089205 0.346422 0.580378 0.774319 0.914022 0.988883 0.992782 0.924645 0.788658 0.594088 0.354740 0.088017 0.186283 0.447437 0.675339 0.852086 0.963423 0.999957 0.958014 0.840078 0.654755 0.416218 0.143204 0.142410 0.417320 0.658710 0.846147 0.963381 0.999797 0.951475 0.821678 0.620749 0.365379 0.077297 0.218524 0.495995 0.730236 0.899823 0.988811 0.988321 0.897515 0.723857 0.482619 0.195637 0.110613 0.407390 0.666389 0.862467 0.976137 0.995596 0.918044 0.750172 0.507702 0.214036 0.101940 0.408624 0.674862 0.873146 0.982506 0.990830 0.896321 0.707907 0.444533 0.133365 0.192912 0.499506 0.753217 0.926066 0.998487 0.961630 0.818589 0.584289 0.284084 0.048889 0.377297 0.663771 0.875191 0.986586 0.984196 0.867310 0.648612 0.352970 0.014715 0.326236 0.629073 0.856993 0.981751 0.987271 0.871866 0.648736 0.344620 0.003257 0.351670 0.656722 0.879388 0.990616 0.975232 0.834172 0.584679 0.258369 0.102644
1.000000 1.000000 1.000000 1.000000 1.000000 1.000000 1.000000 1.000000 1.000000 1.000000 1.000000 1.000000 1.000000 1.000000 1.000000 1.000000 1.000000 1.000000 1.000000 1.000000 1.000000 1.000000 1.000000 1.000000 1.000000 1.000000 1.000000 1.000000 1.000000 1.000000 1.000000 1.000000 1.000000 1.000000 1.000000 1.000000 1.000000 1.000000 1.000000 1.000000 1.000000 1.000000 1.000000 1.000000 1.000000 1.000000 1.000000 1.000000 1.000000 1.000000 1.000000 1.000000 0.928794 0.928794 0.928794 0.918759 0.918759 0.918759 0.918759 0.918759 0.918759 0.918759 0.918759 0.918759 0.918759 0.918759 0.918759 0.918759 0.918759 0.918759 0.918759 0.918759 0.918759 0.918759 0.918759 0.918759 0.918759 0.918759 0.918759 0.918759 0.918759 0.918759 0.918759 0.918759 0.918759 0.918759 0.918759 0.918759 0.918759 0.918759 0.918759 0.918759 0.918759 0.918759 0.918759 0.918759 0.949182 0.950462 0.958375 0.958212 0.957702 0.955574 0.954656 0.953510 0.953058 0.953331 0.953944 0.954788 0.963531 0.964615 0.966211 0.967041 0.967751 0.968382 0.968186 0.968872 0.968043 0.967445 0.966903 0.962847 0.965652 0.965004 0.965089 0.966119 0.965989 0.968044 0.968248 0.967623 0.966712 0.965944 0.965206 0.964770 0.964479 0.964990 0.965286 0.966606 0.969805 0.969207 0.968929 0.969086 0.969183 0.969359 0.969791 0.971492 0.967669 0.968329 0.966632 0.964407 0.968659 0.965731 0.965529 0.966894 0.967272 0.967673 0.965831 0.961723 0.954717 0.953685 0.950589 0.940887 0.939451 0.940254 0.942776 0.943438 0.942226 0.935549 0.936081 0.930424 0.930698 0.934065 0.929647 0.930098 0.931246 0.930880 0.929982 0.929365 0.926830 0.924089 0.922443 0.921721 0.924690 0.924666 0.925872 0.925854 0.920998 0.912304 0.900084 0.897562 0.892633 0.895748 0.885660 0.885324 0.885297 0.879893 0.883378 0.883661 0.884714 0.881179 0.865785 0.847149 0.838049 0.843197 0.848403 0.847911 0.844022 0.837190 0.849108 0.824930 0.837350 0.848197 0.842684 0.843317 0.841404 0.839440 0.833314 0.834628 0.837695 0.838888 0.837241 0.835146 0.832046 0.813502 0.812560 0.752465 0.735185 0.729299 0.734190 0.740343 0.738749 0.737169 0.746947 0.751902 0.751987 0.738488 0.731608 0.724258 0.729149 0.731429 0.736526 0.723675 0.698559 0.691986 0.662917 0.679964 0.694330 0.657043 0.680307 0.690604 0.688994 0.689149 0.682054 0.677920 0.671715 0.674410 0.681179 0.696447 0.715345 0.741296 0.736146 0.726329 0.721152 0.701574 0.693968 0.684834 0.701192 0.680604 0.675366 0.695537 0.694470 0.679579 0.655601 0.641655 0.630463 0.629870 0.637590 0.627886 0.626048 0.615885 0.593023 0.586810 0.624990 0.640584 0.658822 0.633113 0.620575 0.613379 0.596510 0.609470 0.549933 0.550305 0.569859 0.577127 0.556527 0.534187 0.542278 0.550836 0.554296 0.546440 0.530881 0.518104 0.531855 0.561951 0.552093 0.528073 0.531091 0.530742 0.528691 0.447460 0.444401 0.415689 0.385234 0.326686 0.310781 0.303457 0.285928 0.267096 0.230346 0.227632 0.236382 0.246095 0.257014 0.257649 0.243445 0.245401 0.235365 0.221874 0.160700 0.148560 0.141640 0.130440 0.130957 0.104937 0.128023 0.197744 0.200349 0.200349 0.200349 0.200349 0.200349 0.200349 0.208342 0.208342 0.208342 0.208342 0.208342 0.208342 0.208342 0.208342 0.208342 0.219914 0.219914 0.219914 0.219914 0.219914 0.219914 0.219914 0.219914 0.219914 0.219914 0.219914 0.219914 0.219914 0.219914
0.000000 0.000000 0.000000 0.000000 0.000000 0.000000 0.000000 0.000000 0.000000 0.000000 0.000000 0.000000 0.000000 0.000000 0.000000 0.000000 0.000000 0.000000 0.000000 0.000000 0.000000 0.000000 0.000000 0.000000 0.000000 7.000000 4.000000 0.000000 0.000000 0.000000 0.000000 0.000000 0.000000 0.000000 0.000000 0.000000 0.000000 0.000000 0.000000 0.000000 0.000000 0.000000 0.000000 0.000000 0.000000 0.000000 0.000000 0.000000 0.000000 0.000000 0.000000 0.000000 0.180334 0.180334 0.180334 0.199007 0.199007 0.199007 0.199007 0.199007 0.199007 0.199007 0.199007 0.199007 0.199007 0.199007 0.199007 0.199007 0.199007 0.199007 0.199007 0.199007 0.199007 0.199007 0.199007 0.199007 0.199007 0.199007 0.199007 0.199007 0.199007 0.199007 0.199007 0.199007 0.199007 0.199007 0.199007 0.199007 0.199007 0.199007 0.199007 0.199007 0.199007 0.199007 0.199007 0.199007 0.225018 0.225018 0.225018 0.225018 0.225018 0.225018 0.225018 0.225018 0.225018 0.225018 0.225018 0.225018 0.225018 0.225018 0.225018 0.225018 0.225018 0.225018 0.225018 0.225018 0.225018 0.225018 0.225018 0.225018 0.225018 0.225018 0.225018 0.225018 0.225018 0.244339 0.244339 0.244339 0.244339 0.244339 0.244339 0.244339 0.244339 0.244339 0.244339 0.244339 0.244339 0.244339 0.244339 0.244339 0.244339 0.244339 0.244339 0.244339 0.244339 0.244339 0.244339 0.244339 0.251976 0.251976 0.251976 0.251976 0.251976 0.251976 0.251976 0.251976 0.251976 0.251976 0.251976 0.251976 0.251976 0.251976 0.251976 0.251976 0.251976 0.251976 0.251976 0.251976 0.264906 0.264906 0.264906 0.264906 0.264906 0.264906 0.264906 0.264906 0.264906 0.264906 0.264906 0.264906 0.264906 0.264906 0.264906 0.264906 0.264906 0.264906 0.264906 0.264906 0.264906 0.264906 0.264906 0.264906 0.264906 0.264906 0.264906 0.264906 0.264906 0.264906 0.264906 0.264906 0.264906 0.264906 0.264906 0.264906 0.264906 0.264906 0.264906 0.264906 0.264906 0.264906 0.264906 0.264906 0.264906 0.264906 0.264906 0.264906 0.264906 0.264906 0.264906 0.264906 0.264906 0.264906 0.264906 0.264906 0.264906 0.264906 0.264906 0.264906 0.264906 0.264906 0.256074 0.256074 0.256074 0.256074 0.256074 0.256074 0.256074 0.256074 0.256074 0.256074 0.256074 0.256074 0.256074 0.256074 0.269680 0.269680 0.269680 0.269680 0.269680 0.269680 0.269680 0.269680 0.269680 0.269680 0.269680 0.269680 0.264906 0.264906 0.264906 0.264906 0.264906 0.264906 0.264906 0.264906 0.264906 0.264906 0.264906 0.264906 0.269680 0.269680 0.269680 0.269680 0.269680 0.269680 0.269680 0.269680 0.269680 0.269680 0.269680 0.264906 0.264906 0.264906 0.264906 0.264906 0.264906 0.264906 0.264906 0.264906 0.264906 0.264906 0.256074 0.256074 0.256074 0.256074 0.256074 0.256074 0.256074 0.256074 0.256074 0.256074 0.256074 0.264906 0.264906 0.264906 0.264906 0.264906 0.264906 0.264906 0.264906 0.264906 0.264906 0.260378 0.260378 0.260378 0.260378 0.260378 0.260378 0.260378 0.260378 0.260378 0.260378 0.256074 0.256074 0.256074 0.256074 0.256074 0.256074 0.256074 0.256074 0.256074 0.256074 0.260378 0.260378 0.260378 0.260378 0.260378 0.260378 0.260378 0.260378 0.260378 0.256074 0.256074 0.256074 0.256074 0.256074 0.256074 0.256074 0.256074 0.256074 0.251976 0.251976 0.251976 0.251976 0.251976 0.251976 0.251976 0.251976 0.251976 0.251976 0.251976 0.251976 0.251976 0.251976
