# Output from CTFFind version 4.1.9, run on 2019-11-02 17:44:31
# Input file: stack16_bm3d_averaged_1_1.5_0_250_half.mrc ; Number of micrographs: 1
# Pixel size: 3.000 Angstroms ; acceleration voltage: 300.0 keV ; spherical aberration: 0.00 mm ; amplitude contrast: 0.07
# Box size: 512 pixels ; min. res.: 30.0 Angstroms ; max. res.: 5.0 Angstroms ; min. def.: 5000.0 um; max. def. 50000.0 um; num. frames averaged: 1
# 6 lines per micrograph: #1 - spatial frequency (1/Angstroms); #2 - 1D rotational average of spectrum (assuming no astigmatism); #3 - 1D rotational average of spectrum; #4 - CTF fit; #5 - cross-correlation between spectrum and CTF fit; #6 - 2sigma of expected cross correlation of noise
0.000000 0.000651 0.001302 0.001953 0.002604 0.003255 0.003906 0.004557 0.005208 0.005859 0.006510 0.007161 0.007812 0.008464 0.009115 0.009766 0.010417 0.011068 0.011719 0.012370 0.013021 0.013672 0.014323 0.014974 0.015625 0.016276 0.016927 0.017578 0.018229 0.018880 0.019531 0.020182 0.020833 0.021484 0.022135 0.022786 0.023438 0.024089 0.024740 0.025391 0.026042 0.026693 0.027344 0.027995 0.028646 0.029297 0.029948 0.030599 0.031250 0.031901 0.032552 0.033203 0.033854 0.034505 0.035156 0.035807 0.036458 0.037109 0.037760 0.038411 0.039062 0.039714 0.040365 0.041016 0.041667 0.042318 0.042969 0.043620 0.044271 0.044922 0.045573 0.046224 0.046875 0.047526 0.048177 0.048828 0.049479 0.050130 0.050781 0.051432 0.052083 0.052734 0.053385 0.054036 0.054688 0.055339 0.055990 0.056641 0.057292 0.057943 0.058594 0.059245 0.059896 0.060547 0.061198 0.061849 0.062500 0.063151 0.063802 0.064453 0.065104 0.065755 0.066406 0.067057 0.067708 0.068359 0.069010 0.069661 0.070312 0.070964 0.071615 0.072266 0.072917 0.073568 0.074219 0.074870 0.075521 0.076172 0.076823 0.077474 0.078125 0.078776 0.079427 0.080078 0.080729 0.081380 0.082031 0.082682 0.083333 0.083984 0.084635 0.085286 0.085938 0.086589 0.087240 0.087891 0.088542 0.089193 0.089844 0.090495 0.091146 0.091797 0.092448 0.093099 0.093750 0.094401 0.095052 0.095703 0.096354 0.097005 0.097656 0.098307 0.098958 0.099609 0.100260 0.100911 0.101562 0.102214 0.102865 0.103516 0.104167 0.104818 0.105469 0.106120 0.106771 0.107422 0.108073 0.108724 0.109375 0.110026 0.110677 0.111328 0.111979 0.112630 0.113281 0.113932 0.114583 0.115234 0.115885 0.116536 0.117188 0.117839 0.118490 0.119141 0.119792 0.120443 0.121094 0.121745 0.122396 0.123047 0.123698 0.124349 0.125000 0.125651 0.126302 0.126953 0.127604 0.128255 0.128906 0.129557 0.130208 0.130859 0.131510 0.132161 0.132812 0.133464 0.134115 0.134766 0.135417 0.136068 0.136719 0.137370 0.138021 0.138672 0.139323 0.139974 0.140625 0.141276 0.141927 0.142578 0.143229 0.143880 0.144531 0.145182 0.145833 0.146484 0.147135 0.147786 0.148438 0.149089 0.149740 0.150391 0.151042 0.151693 0.152344 0.152995 0.153646 0.154297 0.154948 0.155599 0.156250 0.156901 0.157552 0.158203 0.158854 0.159505 0.160156 0.160807 0.161458 0.162109 0.162760 0.163411 0.164062 0.164714 0.165365 0.166016 0.166667 0.167318 0.167969 0.168620 0.169271 0.169922 0.170573 0.171224 0.171875 0.172526 0.173177 0.173828 0.174479 0.175130 0.175781 0.176432 0.177083 0.177734 0.178385 0.179036 0.179688 0.180339 0.180990 0.181641 0.182292 0.182943 0.183594 0.184245 0.184896 0.185547 0.186198 0.186849 0.187500 0.188151 0.188802 0.189453 0.190104 0.190755 0.191406 0.192057 0.192708 0.193359 0.194010 0.194661 0.195312 0.195964 0.196615 0.197266 0.197917 0.198568 0.199219 0.199870 0.200521 0.201172 0.201823 0.202474 0.203125 0.203776 0.204427 0.205078 0.205729 0.206380 0.207031 0.207682 0.208333 0.208984 0.209635 0.210286 0.210938 0.211589 0.212240 0.212891 0.213542 0.214193 0.214844 0.215495 0.216146 0.216797 0.217448 0.218099 0.218750 0.219401 0.220052 0.220703 0.221354 0.222005 0.222656 0.223307 0.223958 0.224609 0.225260 0.225911 0.226562 0.227214 0.227865 0.228516 0.229167 0.229818 0.230469 0.231120 0.231771 0.232422 0.233073 0.233724 0.234375 0.235026 0.235677
       0.34061        0.34061        0.34061        0.34061        0.34061        0.34061        0.34062        0.34061        0.34061        0.34061        0.34062        0.34061        0.34061        0.34062        0.34062        0.34061        0.34061        0.34061        0.34061        0.34062        0.34061        0.34061        0.34061        0.34062        0.34061        0.34062        0.34061        0.34062        0.34061        0.34062        0.34061        0.34061        0.34062        0.34062        0.34061        0.34061        0.34062        0.34062        0.34061        0.34061        0.34062        0.34061        0.34062        0.34061        0.34062        0.34062        0.34061        0.34062        0.34061        0.34062        0.34061        0.48613        0.69676        0.45535       -0.11698       -0.41354       -0.57477       -0.66601       -0.74648       -0.76380       -0.87124       -0.91852       -0.75979       -0.92689       -0.87434       -1.02717       -1.10266       -0.99052       -0.96441       -0.88570       -0.85479       -0.74971       -0.64209       -0.50138       -0.42631       -0.22222       -0.11648       -0.02348        0.19978        0.24089        0.30526        0.37754        0.43301        0.51035        0.57514        0.59635        0.58700        0.49750        0.54245        0.48330        0.39308        0.32162        0.20016        0.16686        0.09469       -0.05718       -0.11114       -0.09203        0.01224       -0.01638        0.01906        0.02420        0.20196        0.21642        0.39059        0.45383        0.55876        0.69314        0.75744        0.73195        0.69760        0.69121        0.57731        0.53293        0.39599        0.27270        0.19310        0.14990        0.06799        0.02949        0.02205        0.06344        0.07912        0.27380        0.41439        0.50465        0.58889        0.63594        0.69686        0.65576        0.65044        0.66587        0.60262        0.48098        0.28559        0.23840        0.20551        0.12592        0.03929        0.08990        0.11352        0.24814        0.34522        0.41433        0.50089        0.53861        0.65316        0.60093        0.54984        0.51240        0.35952        0.20536        0.21204        0.15369        0.12132        0.12413        0.21458        0.25110        0.35162        0.43855        0.43404        0.54760        0.50457        0.45469        0.45790        0.37667        0.32317        0.27081        0.20991        0.22940        0.21141        0.20172        0.31095        0.45145        0.48126        0.48336        0.55348        0.49495        0.45048        0.39445        0.29758        0.22728        0.23213        0.23660        0.26238        0.27723        0.32743        0.43913        0.50054        0.48860        0.45918        0.40898        0.38562        0.35775        0.24830        0.21960        0.24677        0.29283        0.35721        0.35832        0.38815        0.41530        0.43900        0.37193        0.34676        0.31330        0.30917        0.27001        0.25714        0.29981        0.34571        0.41023        0.41428        0.38963        0.38985        0.39930        0.34446        0.28614        0.29697        0.28775        0.30504        0.35500        0.37388        0.41633        0.35370        0.36154        0.38410        0.34244        0.31301        0.28173        0.29107        0.33696        0.32101        0.32031        0.36428        0.38802        0.32969        0.35076        0.30158        0.30742        0.28204        0.28104        0.29861        0.32780        0.38256        0.36140        0.34276        0.32028        0.28101        0.27203        0.29368        0.28103        0.31501        0.36375        0.39344        0.33259        0.31866        0.30572        0.30064        0.29184        0.28177        0.30405        0.33598        0.33393        0.33883        0.31738        0.34881        0.32010        0.28838        0.31213        0.31985        0.34115        0.34745        0.31767        0.30985        0.29742        0.32270        0.30808        0.33467        0.38632        0.32480        0.35952        0.31354        0.30376        0.29067        0.30600        0.29202        0.30593        0.31269        0.34259        0.35377        0.30340        0.31934        0.31724        0.29569        0.28798        0.29728        0.31933        0.34800        0.35088        0.32705        0.31141        0.26744        0.25169        0.31521        0.34377        0.32268        0.29459        0.27431        0.28831        0.32651        0.31552        0.30753        0.33641        0.33083        0.29976        0.23827        0.28370        0.28560        0.28336        0.32968        0.32668        0.34367        0.34185        0.28765        0.27429        0.29599        0.27568        0.30051        0.27033        0.25523        0.25560        0.26435        0.28629        0.29477        0.28521        0.25754        0.32097        0.32002        0.30822        0.26825        0.27114        0.23213        0.25213        0.24465        0.31223        0.35662        0.23298        0.23900        0.27342        0.23658        0.22855        0.30518        0.23495        0.13343        0.17717        0.22092        0.27355        0.23207        0.11431        0.07996       -0.41491       -0.79819
3.065917 3.027738 2.989804 2.952116 2.914674 2.877478 2.840527 2.803822 2.767362 2.731148 2.695180 2.659458 2.623982 2.588750 2.553765 2.519026 2.484532 2.450284 2.416281 2.382524 2.349013 2.315748 2.282728 2.249954 2.217426 2.185143 2.153106 2.121315 2.089770 2.058470 2.027416 1.996607 1.966045 1.935728 1.905656 1.875831 1.846251 1.816916 1.787828 1.758985 1.730388 1.702036 1.673931 1.646071 1.618456 1.591088 1.563965 1.537087 1.510456 1.484070 1.457930 1.518004 1.697666 1.618300 0.963105 0.686138 0.477422 0.428219 0.324564 0.264163 0.202098 0.018461 0.199527 0.081895 -0.009589 -0.058012 -0.202590 -0.154281 -0.089960 -0.092836 -0.091789 0.011973 0.032670 0.233324 0.150127 0.362954 0.447080 0.480114 0.713806 0.699329 0.707972 0.833928 0.818759 0.848233 0.919266 0.896298 0.936636 0.750167 0.834333 0.838147 0.627293 0.605066 0.454097 0.434633 0.375169 0.213629 0.122672 0.098640 0.209528 0.143863 0.204400 0.113070 0.301673 0.286155 0.457890 0.412146 0.582272 0.639078 0.756233 0.701612 0.659656 0.658260 0.523728 0.500857 0.358948 0.294439 0.118929 0.148644 0.005363 -0.006703 -0.038568 -0.027821 -0.001794 0.033814 0.278904 0.326432 0.387106 0.398866 0.462143 0.524220 0.462524 0.502977 0.395168 0.390967 0.154450 0.074763 0.077117 -0.006231 -0.128520 -0.044964 -0.115507 0.014449 0.138296 0.160081 0.255693 0.258270 0.377866 0.461460 0.347786 0.396007 0.283459 0.124355 0.050955 0.052860 0.023583 0.007613 0.012003 0.110666 0.122422 0.265149 0.237266 0.299750 0.359887 0.244127 0.251654 0.221559 0.129699 0.086745 0.044010 0.027181 0.039815 -0.013912 0.022006 0.183824 0.226015 0.246908 0.287404 0.233995 0.243011 0.143591 0.113801 -0.016957 -0.013709 -0.006698 0.013759 0.012809 0.031398 0.104471 0.193358 0.203622 0.225755 0.131784 0.142067 0.078200 0.060911 -0.064055 -0.018808 0.000447 0.057471 0.066903 0.070970 0.149679 0.092921 0.168313 0.066224 0.051680 0.045135 0.031221 0.005716 0.002167 0.043575 0.087471 0.123399 0.136031 0.061832 0.122311 0.092081 0.009482 0.010865 0.010087 0.000224 0.046426 0.059562 0.103293 0.096980 0.062153 0.065169 0.074997 0.033366 0.014723 -0.014339 0.006430 0.055894 0.020002 0.033276 0.076765 0.079656 0.057376 0.033857 0.017477 0.014565 -0.008683 -0.008071 0.010828 0.054181 0.107090 0.058593 0.055914 0.032847 -0.013182 -0.005713 0.018633 0.012650 0.031493 0.106261 0.059031 0.016318 0.047380 0.001737 0.031780 -0.004753 0.003301 0.028039 0.057557 0.036964 0.043855 0.030387 0.055683 0.024062 -0.003486 0.028911 0.038180 0.051294 0.045195 0.027311 -0.005601 -0.013527 0.027048 0.004533 0.049675 0.072274 0.037829 0.029250 0.004091 0.000400 -0.006672 0.010108 0.004720 0.009508 -0.004224 0.074115 0.041230 0.025418 0.040709 0.002754 0.011711 0.000717 0.002772 0.041203 0.067780 0.071644 0.041905 0.036746 -0.022128 -0.005798 0.031367 0.070418 0.033322 0.032358 -0.010114 0.007368 0.049071 0.053096 0.027897 0.063116 0.055263 0.034287 -0.031696 0.011026 0.040354 0.011000 0.042756 0.077087 0.072671 0.059378 0.018484 0.007040 0.013016 -0.000999 0.033208 -0.029883 -0.013470 -0.032205 -0.036171 0.000882 -0.001461 0.016610 -0.085269 0.013674 -0.000065 -0.011306 -0.056724 -0.013256 -0.103561 -0.037344 -0.065010 0.007449 0.069689 -0.109962 -0.048228 0.026272 -0.014184 -0.066897 0.045486 0.015073 -0.048604 -0.049236 0.027153 0.241692 0.206792 0.048749 0.073644 -0.701727
0.072396 0.073046 0.074994 0.078242 0.082786 0.088627 0.095761 0.104187 0.113899 0.124892 0.137162 0.150697 0.165490 0.181527 0.198792 0.217268 0.236932 0.257759 0.279717 0.302772 0.326882 0.352001 0.378075 0.405044 0.432840 0.461387 0.490599 0.520383 0.550634 0.581239 0.612074 0.643004 0.673881 0.704549 0.734838 0.764569 0.793548 0.821575 0.848434 0.873903 0.897748 0.919730 0.939598 0.957099 0.971974 0.983962 0.992801 0.998231 0.999997 0.997851 0.991555 0.980884 0.965632 0.945612 0.920663 0.890652 0.855480 0.815084 0.769442 0.718580 0.662572 0.601544 0.535683 0.465232 0.390499 0.311859 0.229750 0.144681 0.057226 0.031973 0.122211 0.212721 0.302679 0.391213 0.477405 0.560303 0.638930 0.712296 0.779410 0.839296 0.891005 0.933632 0.966338 0.988360 0.999034 0.997814 0.984287 0.958189 0.919425 0.868082 0.804440 0.728984 0.642410 0.545627 0.439762 0.326149 0.206325 0.082014 0.044894 0.172361 0.298238 0.420294 0.536256 0.643853 0.740863 0.825161 0.894773 0.947927 0.983103 0.999086 0.995014 0.970416 0.925250 0.859933 0.775357 0.672898 0.554412 0.422217 0.279065 0.128096 0.027222 0.183162 0.335827 0.481236 0.615445 0.734641 0.835273 0.914157 0.968595 0.996484 0.996405 0.967707 0.910571 0.826045 0.716060 0.583414 0.431728 0.265370 0.089345 0.090836 0.269323 0.440110 0.597240 0.735018 0.848229 0.932356 0.983776 0.999945 0.979543 0.922583 0.830479 0.706052 0.553488 0.378229 0.186812 0.013353 0.214251 0.407578 0.585079 0.738914 0.862020 0.948455 0.993725 0.995043 0.951536 0.864370 0.736781 0.574010 0.383137 0.172811 0.047109 0.265998 0.472967 0.657407 0.809555 0.921031 0.985338 0.998291 0.958327 0.866702 0.727530 0.547669 0.336439 0.105192 0.133263 0.365352 0.577501 0.756942 0.892510 0.975381 0.999700 0.963054 0.866751 0.715876 0.519104 0.288275 0.037735 0.216511 0.457806 0.669930 0.838217 0.950611 0.998591 0.977884 0.888924 0.736978 0.531932 0.287744 0.021555 0.247461 0.499462 0.715402 0.878505 0.975625 0.998383 0.943977 0.815588 0.622324 0.378678 0.103538 0.181215 0.452414 0.687488 0.866364 0.973263 0.998159 0.937835 0.796372 0.585021 0.321428 0.028261 0.268671 0.542653 0.768486 0.924855 0.996419 0.975429 0.862692 0.667744 0.408198 0.108266 0.203397 0.496387 0.741524 0.913803 0.995031 0.975879 0.857089 0.649686 0.374120 0.058387 0.264718 0.560959 0.798307 0.950461 0.999880 0.939952 0.776029 0.525154 0.214467 0.121607 0.445084 0.718698 0.910251 0.996504 0.966152 0.821479 0.578448 0.265139 0.081339 0.419151 0.706750 0.908040 0.997020 0.961312 0.804085 0.544033 0.213383 0.145944 0.487544 0.766507 0.945392 0.999398 0.919996 0.716484 0.415165 0.056170 0.311743 0.637738 0.875944 0.992038 0.968373 0.806902 0.529357 0.174596 0.206653 0.558939 0.830140 0.979288 0.982939 0.839113 0.568092 0.209845 0.181639 0.546373 0.827535 0.980439 0.979833 0.824343 0.537235 0.163231 0.238214 0.602255 0.869120 0.994069 0.955121 0.757228 0.432037 0.033132 0.372572 0.715956 0.937547 0.997982 0.885296 0.617614 0.240592 0.180071 0.569911 0.858856 0.993976 0.949417 0.731708 0.379236 0.044166 0.460569 0.792190 0.976041 0.976111 0.790796 0.453907 0.028865 0.402919 0.757569 0.965084 0.983403 0.807302 0.470165 0.038075 0.402829 0.763426 0.969676 0.978092 0.785305 0.429539 0.016527 0.460309 0.808415 0.986432 0.955099 0.719425 0.328433 0.134574 0.569515
1.000000 1.000000 1.000000 1.000000 1.000000 1.000000 1.000000 1.000000 1.000000 1.000000 1.000000 1.000000 1.000000 1.000000 1.000000 1.000000 1.000000 1.000000 1.000000 1.000000 1.000000 1.000000 1.000000 1.000000 1.000000 1.000000 1.000000 1.000000 1.000000 1.000000 1.000000 1.000000 1.000000 1.000000 1.000000 1.000000 1.000000 1.000000 1.000000 1.000000 1.000000 1.000000 1.000000 1.000000 1.000000 1.000000 1.000000 1.000000 1.000000 1.000000 1.000000 1.000000 0.932471 0.932471 0.932471 0.932471 0.932471 0.932471 0.932471 0.932471 0.932471 0.932471 0.932471 0.932471 0.932471 0.932471 0.932471 0.932471 0.932471 0.932471 0.932471 0.932471 0.932471 0.932471 0.932471 0.932471 0.932471 0.932471 0.932471 0.932471 0.932471 0.932471 0.932471 0.932471 0.932471 0.923185 0.924655 0.927613 0.928681 0.928643 0.928188 0.927872 0.928085 0.929792 0.932101 0.948729 0.950886 0.951444 0.952738 0.951422 0.954260 0.952484 0.952215 0.962778 0.961558 0.962266 0.955254 0.956875 0.955931 0.954983 0.955483 0.955760 0.953792 0.951604 0.949882 0.949223 0.948839 0.950616 0.951101 0.951051 0.951654 0.951510 0.951223 0.947824 0.946433 0.947929 0.950043 0.949160 0.954832 0.954606 0.962567 0.963334 0.961902 0.961817 0.962025 0.962233 0.954326 0.949804 0.945369 0.933760 0.925512 0.922592 0.925336 0.926887 0.925856 0.920529 0.919510 0.917333 0.912497 0.911645 0.910973 0.912393 0.906701 0.903151 0.886480 0.885508 0.888545 0.888827 0.886767 0.878372 0.874213 0.875224 0.878240 0.875892 0.872540 0.888731 0.882624 0.887371 0.890373 0.893391 0.897222 0.893494 0.891231 0.887141 0.883634 0.877395 0.878431 0.868669 0.871609 0.864643 0.854465 0.847097 0.849985 0.858747 0.867277 0.875367 0.874386 0.875143 0.874301 0.861820 0.863873 0.850409 0.850989 0.855812 0.861510 0.859431 0.857002 0.861702 0.859676 0.860160 0.863014 0.861109 0.859007 0.849354 0.850027 0.850694 0.866930 0.867286 0.855287 0.845032 0.833170 0.840081 0.843752 0.843332 0.844582 0.836078 0.838300 0.829812 0.815792 0.818689 0.824394 0.817901 0.819027 0.818586 0.823930 0.827248 0.826067 0.822977 0.821674 0.823910 0.792222 0.800060 0.801777 0.795432 0.800236 0.794558 0.786820 0.782681 0.780080 0.777502 0.790970 0.788243 0.755149 0.752850 0.760438 0.743934 0.732543 0.730873 0.731634 0.720056 0.709288 0.679220 0.672736 0.655997 0.656858 0.655607 0.636255 0.623897 0.611219 0.594563 0.605992 0.609887 0.582677 0.582766 0.570898 0.565167 0.558980 0.555490 0.554377 0.561924 0.565643 0.533522 0.527621 0.539110 0.510670 0.509920 0.510501 0.501540 0.478729 0.484541 0.483557 0.510519 0.524370 0.482160 0.475604 0.494971 0.512172 0.523564 0.524359 0.509947 0.489092 0.503078 0.479049 0.459644 0.472936 0.478197 0.469543 0.483523 0.478491 0.506940 0.496751 0.469144 0.490567 0.477115 0.476173 0.493625 0.508210 0.508511 0.510837 0.506809 0.457583 0.475946 0.466200 0.419502 0.426364 0.443105 0.431842 0.434686 0.408721 0.407109 0.377981 0.351247 0.347354 0.338661 0.296764 0.257797 0.264239 0.265196 0.234829 0.200893 0.218017 0.173671 0.165448 0.183423 0.185296 0.173014 0.177540 0.202550 0.202550 0.202550 0.202550 0.202550 0.202550 0.202550 0.202550 0.202550 0.202550 0.202550 0.202550 0.202550 0.202550 0.227352 0.227352 0.227352 0.227352 0.227352 0.227352 0.227352 0.227352 0.227352 0.227352 0.227352 0.227352
0.000000 0.000000 0.000000 0.000000 0.000000 0.000000 0.000000 0.000000 0.000000 0.000000 0.000000 0.000000 0.000000 0.000000 0.000000 0.000000 0.000000 0.000000 0.000000 0.000000 0.000000 0.000000 0.000000 0.000000 0.000000 0.000000 0.000000 0.000000 0.000000 0.000000 0.000000 0.000000 0.000000 0.000000 0.000000 0.000000 0.000000 0.000000 0.000000 0.000000 0.000000 0.000000 0.000000 0.000000 0.000000 0.000000 0.000000 0.000000 0.000000 0.000000 0.000000 0.000000 0.209657 0.209657 0.209657 0.209657 0.209657 0.209657 0.209657 0.209657 0.209657 0.209657 0.209657 0.209657 0.209657 0.209657 0.209657 0.209657 0.209657 0.209657 0.209657 0.209657 0.209657 0.209657 0.209657 0.209657 0.209657 0.209657 0.209657 0.209657 0.209657 0.209657 0.209657 0.209657 0.209657 0.244339 0.244339 0.244339 0.244339 0.244339 0.244339 0.244339 0.244339 0.244339 0.244339 0.244339 0.244339 0.244339 0.244339 0.244339 0.244339 0.244339 0.244339 0.244339 0.244339 0.244339 0.244339 0.244339 0.244339 0.244339 0.260378 0.260378 0.260378 0.260378 0.260378 0.260378 0.260378 0.260378 0.260378 0.260378 0.260378 0.260378 0.260378 0.260378 0.260378 0.260378 0.260378 0.260378 0.260378 0.260378 0.269680 0.269680 0.269680 0.269680 0.269680 0.269680 0.269680 0.269680 0.269680 0.269680 0.269680 0.269680 0.269680 0.269680 0.269680 0.269680 0.269680 0.269680 0.269680 0.269680 0.269680 0.269680 0.269680 0.269680 0.269680 0.269680 0.269680 0.269680 0.269680 0.269680 0.269680 0.269680 0.269680 0.280056 0.280056 0.280056 0.280056 0.280056 0.280056 0.280056 0.280056 0.280056 0.280056 0.280056 0.280056 0.280056 0.280056 0.280056 0.280056 0.280056 0.280056 0.280056 0.280056 0.280056 0.280056 0.280056 0.280056 0.280056 0.280056 0.280056 0.274721 0.274721 0.274721 0.274721 0.274721 0.274721 0.274721 0.274721 0.274721 0.274721 0.274721 0.274721 0.274721 0.285714 0.285714 0.285714 0.285714 0.285714 0.285714 0.285714 0.285714 0.285714 0.285714 0.285714 0.280056 0.280056 0.280056 0.280056 0.280056 0.280056 0.280056 0.280056 0.280056 0.280056 0.280056 0.274721 0.274721 0.274721 0.274721 0.274721 0.274721 0.274721 0.274721 0.274721 0.274721 0.274721 0.280056 0.280056 0.280056 0.280056 0.280056 0.280056 0.280056 0.280056 0.280056 0.280056 0.285714 0.285714 0.285714 0.285714 0.285714 0.285714 0.285714 0.285714 0.285714 0.269680 0.269680 0.269680 0.269680 0.269680 0.269680 0.269680 0.269680 0.269680 0.269680 0.274721 0.274721 0.274721 0.274721 0.274721 0.274721 0.274721 0.274721 0.274721 0.285714 0.285714 0.285714 0.285714 0.285714 0.285714 0.285714 0.285714 0.264906 0.264906 0.264906 0.264906 0.264906 0.264906 0.264906 0.264906 0.264906 0.274721 0.274721 0.274721 0.274721 0.274721 0.274721 0.274721 0.274721 0.269680 0.269680 0.269680 0.269680 0.269680 0.269680 0.269680 0.269680 0.269680 0.269680 0.269680 0.269680 0.269680 0.269680 0.269680 0.269680 0.280056 0.280056 0.280056 0.280056 0.280056 0.280056 0.280056 0.260378 0.260378 0.260378 0.260378 0.260378 0.260378 0.260378 0.260378 0.269680 0.269680 0.269680 0.269680 0.269680 0.269680 0.269680 0.264906 0.264906 0.264906 0.264906 0.264906 0.264906 0.264906 0.264906 0.264906 0.264906 0.264906 0.264906 0.264906 0.264906 0.260378 0.260378 0.260378 0.260378 0.260378 0.260378 0.260378 0.260378 0.260378 0.260378 0.260378 0.260378
