# Output from CTFFind version 4.1.9, run on 2019-11-02 17:45:47
# Input file: stack6_bm3d_averaged_1_1.5_0_1000_half.mrc ; Number of micrographs: 1
# Pixel size: 3.000 Angstroms ; acceleration voltage: 300.0 keV ; spherical aberration: 0.00 mm ; amplitude contrast: 0.07
# Box size: 512 pixels ; min. res.: 30.0 Angstroms ; max. res.: 5.0 Angstroms ; min. def.: 5000.0 um; max. def. 50000.0 um; num. frames averaged: 1
# 6 lines per micrograph: #1 - spatial frequency (1/Angstroms); #2 - 1D rotational average of spectrum (assuming no astigmatism); #3 - 1D rotational average of spectrum; #4 - CTF fit; #5 - cross-correlation between spectrum and CTF fit; #6 - 2sigma of expected cross correlation of noise
0.000000 0.000651 0.001302 0.001953 0.002604 0.003255 0.003906 0.004557 0.005208 0.005859 0.006510 0.007161 0.007812 0.008464 0.009115 0.009766 0.010417 0.011068 0.011719 0.012370 0.013021 0.013672 0.014323 0.014974 0.015625 0.016276 0.016927 0.017578 0.018229 0.018880 0.019531 0.020182 0.020833 0.021484 0.022135 0.022786 0.023438 0.024089 0.024740 0.025391 0.026042 0.026693 0.027344 0.027995 0.028646 0.029297 0.029948 0.030599 0.031250 0.031901 0.032552 0.033203 0.033854 0.034505 0.035156 0.035807 0.036458 0.037109 0.037760 0.038411 0.039062 0.039714 0.040365 0.041016 0.041667 0.042318 0.042969 0.043620 0.044271 0.044922 0.045573 0.046224 0.046875 0.047526 0.048177 0.048828 0.049479 0.050130 0.050781 0.051432 0.052083 0.052734 0.053385 0.054036 0.054688 0.055339 0.055990 0.056641 0.057292 0.057943 0.058594 0.059245 0.059896 0.060547 0.061198 0.061849 0.062500 0.063151 0.063802 0.064453 0.065104 0.065755 0.066406 0.067057 0.067708 0.068359 0.069010 0.069661 0.070312 0.070964 0.071615 0.072266 0.072917 0.073568 0.074219 0.074870 0.075521 0.076172 0.076823 0.077474 0.078125 0.078776 0.079427 0.080078 0.080729 0.081380 0.082031 0.082682 0.083333 0.083984 0.084635 0.085286 0.085938 0.086589 0.087240 0.087891 0.088542 0.089193 0.089844 0.090495 0.091146 0.091797 0.092448 0.093099 0.093750 0.094401 0.095052 0.095703 0.096354 0.097005 0.097656 0.098307 0.098958 0.099609 0.100260 0.100911 0.101562 0.102214 0.102865 0.103516 0.104167 0.104818 0.105469 0.106120 0.106771 0.107422 0.108073 0.108724 0.109375 0.110026 0.110677 0.111328 0.111979 0.112630 0.113281 0.113932 0.114583 0.115234 0.115885 0.116536 0.117188 0.117839 0.118490 0.119141 0.119792 0.120443 0.121094 0.121745 0.122396 0.123047 0.123698 0.124349 0.125000 0.125651 0.126302 0.126953 0.127604 0.128255 0.128906 0.129557 0.130208 0.130859 0.131510 0.132161 0.132812 0.133464 0.134115 0.134766 0.135417 0.136068 0.136719 0.137370 0.138021 0.138672 0.139323 0.139974 0.140625 0.141276 0.141927 0.142578 0.143229 0.143880 0.144531 0.145182 0.145833 0.146484 0.147135 0.147786 0.148438 0.149089 0.149740 0.150391 0.151042 0.151693 0.152344 0.152995 0.153646 0.154297 0.154948 0.155599 0.156250 0.156901 0.157552 0.158203 0.158854 0.159505 0.160156 0.160807 0.161458 0.162109 0.162760 0.163411 0.164062 0.164714 0.165365 0.166016 0.166667 0.167318 0.167969 0.168620 0.169271 0.169922 0.170573 0.171224 0.171875 0.172526 0.173177 0.173828 0.174479 0.175130 0.175781 0.176432 0.177083 0.177734 0.178385 0.179036 0.179688 0.180339 0.180990 0.181641 0.182292 0.182943 0.183594 0.184245 0.184896 0.185547 0.186198 0.186849 0.187500 0.188151 0.188802 0.189453 0.190104 0.190755 0.191406 0.192057 0.192708 0.193359 0.194010 0.194661 0.195312 0.195964 0.196615 0.197266 0.197917 0.198568 0.199219 0.199870 0.200521 0.201172 0.201823 0.202474 0.203125 0.203776 0.204427 0.205078 0.205729 0.206380 0.207031 0.207682 0.208333 0.208984 0.209635 0.210286 0.210938 0.211589 0.212240 0.212891 0.213542 0.214193 0.214844 0.215495 0.216146 0.216797 0.217448 0.218099 0.218750 0.219401 0.220052 0.220703 0.221354 0.222005 0.222656 0.223307 0.223958 0.224609 0.225260 0.225911 0.226562 0.227214 0.227865 0.228516 0.229167 0.229818 0.230469 0.231120 0.231771 0.232422 0.233073 0.233724 0.234375 0.235026 0.235677
       0.30846        0.30846        0.30846        0.30846        0.30846        0.30846        0.30846        0.30846        0.30846        0.30846        0.30846        0.30846        0.30846        0.30846        0.30846        0.30846        0.30846        0.30846        0.30846        0.30846        0.30846        0.30846        0.30846        0.30846        0.30846        0.30846        0.30846        0.30846        0.30846        0.30846        0.30846        0.30846        0.30846        0.30846        0.30846        0.30846        0.30846        0.30846        0.30846        0.30846        0.30846        0.30846        0.30846        0.30846        0.30846        0.30846        0.30846        0.30846        0.30846        0.30846        0.30846        0.63107        0.80967        0.41130        0.30593        0.18316       -0.10825        0.11114       -0.00140        0.03097        0.11333        0.33614        0.42024        0.39851        0.22203       -0.01609        0.04428        0.06991       -0.17523       -0.18160       -0.08804       -0.11161       -0.29857       -0.19176       -0.30493       -0.25985       -0.28652       -0.40951       -0.47577       -0.47679       -0.42352       -0.34473       -0.43750       -0.36640       -0.41456       -0.35467       -0.27853       -0.20383       -0.19703       -0.13553       -0.08824        0.03997        0.07811        0.25113        0.28297        0.37024        0.40190        0.51519        0.58914        0.60988        0.73653        0.69679        0.74047        0.65101        0.66167        0.69109        0.63152        0.61512        0.60727        0.43094        0.39236        0.35067        0.32418        0.22468        0.12846        0.05928        0.05069       -0.00012       -0.08205       -0.02730       -0.03413       -0.07377        0.06593        0.16236        0.25446        0.31494        0.33320        0.42358        0.53999        0.58802        0.53602        0.67158        0.56141        0.53381        0.59966        0.63191        0.52876        0.45993        0.40084        0.37673        0.24289        0.20281        0.12991        0.11422        0.05347        0.05220        0.09853        0.15597        0.14665        0.17862        0.22179        0.23823        0.32691        0.44870        0.48717        0.49309        0.51662        0.57818        0.57302        0.52467        0.41886        0.38236        0.36252        0.26609        0.24096        0.21099        0.20356        0.19343        0.17525        0.15844        0.12693        0.18795        0.24210        0.33797        0.37656        0.40656        0.46155        0.53304        0.46764        0.48529        0.42764        0.40300        0.38062        0.36346        0.28642        0.24950        0.19720        0.23490        0.21584        0.19268        0.21358        0.21912        0.23803        0.30554        0.39805        0.39141        0.37761        0.39111        0.45144        0.47591        0.43186        0.35382        0.31863        0.27478        0.26485        0.25235        0.21661        0.28082        0.29299        0.29414        0.31074        0.30205        0.33439        0.37659        0.36936        0.36683        0.35097        0.31448        0.32859        0.32174        0.29335        0.28761        0.27024        0.21468        0.26648        0.27033        0.29639        0.31334        0.33638        0.37118        0.33040        0.31067        0.35797        0.36135        0.25748        0.28970        0.30519        0.23925        0.20683        0.26348        0.27155        0.27546        0.29749        0.30170        0.33185        0.33094        0.35222        0.32189        0.32191        0.30615        0.29395        0.26546        0.24102        0.25050        0.25468        0.27810        0.29868        0.29429        0.29157        0.31858        0.33339        0.26999        0.30300        0.26644        0.25594        0.26384        0.25258        0.25566        0.26217        0.31247        0.28042        0.31319        0.28873        0.27093        0.30921        0.30037        0.32660        0.31493        0.29475        0.24745        0.24819        0.26060        0.25919        0.31069        0.31108        0.32997        0.32148        0.31122        0.25542        0.28633        0.21405        0.19098        0.26021        0.26689        0.25767        0.27850        0.31110        0.29582        0.35945        0.29843        0.24332        0.21598        0.24160        0.29337        0.30429        0.30198        0.27102        0.28025        0.26360        0.31343        0.27426        0.25082        0.26619        0.24634        0.28459        0.24992        0.27714        0.32582        0.29058        0.21157        0.23804        0.28199        0.31298        0.24336        0.26151        0.24138        0.29273        0.28659        0.37721        0.28348        0.25996        0.26981        0.24304        0.21647        0.19288        0.23801        0.20437        0.19859        0.16894        0.19556        0.24698        0.21181        0.24002        0.20332        0.24189        0.21919        0.21654        0.18336        0.15812        0.18892        0.24826        0.14134        0.06185        0.21610        0.17252        0.12224        0.23627        0.15847        0.22571        0.18911       -0.07129       -0.53179       -0.94685
2.857066 2.828906 2.800891 2.773022 2.745297 2.717717 2.690282 2.662993 2.635848 2.608849 2.581994 2.555285 2.528721 2.502301 2.476027 2.449898 2.423914 2.398075 2.372381 2.346832 2.321428 2.296169 2.271056 2.246087 2.221263 2.196585 2.172051 2.147663 2.123419 2.099321 2.075368 2.051559 2.027896 2.004378 1.981005 1.957777 1.934694 1.911756 1.888963 1.866316 1.843813 1.821455 1.799243 1.777175 1.755253 1.733475 1.711843 1.690355 1.669013 1.647816 1.626764 1.922534 2.267735 1.697320 1.738108 1.382200 0.940468 1.203372 1.032339 1.079411 1.028665 1.499078 1.516654 1.539925 1.280176 0.945319 0.823500 1.016990 0.713390 0.489761 0.595582 0.679262 0.420279 0.490136 0.330869 0.367733 0.255024 0.158635 -0.033960 0.010149 0.030395 0.079175 0.044521 0.088627 -0.043981 0.030682 0.109269 0.226193 0.281687 0.216445 0.331989 0.563508 0.443763 0.730132 0.805728 0.880690 0.908191 1.120798 1.144702 1.180581 1.325880 1.231021 1.378401 1.194719 1.109991 1.311688 1.127020 1.056263 1.131019 0.884602 0.732572 0.673710 0.667706 0.473339 0.391395 0.269063 0.215826 0.098511 -0.009452 0.098553 0.024864 -0.065742 0.115759 0.260465 0.310882 0.461641 0.482250 0.549818 0.714790 0.817396 0.653104 0.960490 0.804759 0.652141 0.765929 0.789087 0.710278 0.639274 0.442292 0.502607 0.285434 0.174498 0.137605 0.005469 -0.016812 -0.110977 -0.020409 0.011911 0.082442 -0.043804 0.253601 0.102945 0.204624 0.373453 0.424218 0.531496 0.421374 0.561919 0.667289 0.508404 0.389981 0.331805 0.320140 0.145507 0.130361 0.011806 0.095770 0.012002 0.002513 -0.034108 -0.111505 -0.013114 0.017078 0.100443 0.284470 0.209314 0.350969 0.371944 0.429891 0.404388 0.412492 0.340689 0.227005 0.310355 0.170063 0.161441 -0.001943 0.058051 0.070788 -0.018672 0.001802 0.011456 0.062195 0.077142 0.233044 0.299008 0.244373 0.216314 0.374311 0.388153 0.357775 0.250702 0.171626 0.142598 0.088455 0.075826 0.036713 0.024255 0.133741 0.056964 0.183932 0.088266 0.126957 0.224359 0.218356 0.217250 0.200661 0.197095 0.110418 0.167893 0.126328 0.097272 0.121539 -0.008334 0.029967 0.083418 0.045927 0.146684 0.108197 0.208432 0.197371 0.126322 0.135774 0.218917 0.119209 0.062601 0.092389 0.063497 -0.001638 -0.020559 0.062913 0.072406 0.043311 0.115499 0.112361 0.128151 0.141785 0.170417 0.133428 0.097187 0.108568 0.094065 0.022804 0.013296 0.041707 0.007965 0.080446 0.113992 0.078750 0.064681 0.128676 0.120363 0.026729 0.118088 0.025920 0.021329 0.039861 0.010079 0.009848 0.070735 0.090464 0.018005 0.105695 0.072481 0.010855 0.116515 0.060494 0.090901 0.096773 0.021651 -0.013020 -0.022203 0.033843 -0.002732 0.071138 0.087104 0.087387 0.063008 0.140779 -0.026602 0.055094 -0.105810 -0.037442 -0.010823 0.015434 0.013416 0.010778 0.094496 0.056335 0.114378 -0.025335 -0.055481 -0.099479 -0.075173 0.066727 0.023406 0.034119 -0.020832 -0.016995 -0.031059 0.059724 -0.016710 -0.075445 -0.019951 -0.100026 0.017080 -0.049085 -0.000704 0.053959 -0.016418 -0.102225 -0.024404 0.033096 0.017615 -0.048735 -0.003695 -0.071492 0.097483 0.061229 0.161376 0.022271 -0.002671 0.039202 0.022251 -0.051672 -0.021227 0.045556 -0.018678 -0.039833 -0.053805 -0.027766 0.106516 -0.054187 0.117895 0.003253 0.120426 -0.000729 0.105646 -0.048498 -0.009115 -0.028024 0.165050 -0.002809 0.007544 0.301642 0.232234 0.174293 0.394858 0.224960 0.287262 0.273947 -0.095959 -1.321262
0.072396 0.072834 0.074149 0.076340 0.079407 0.083349 0.088165 0.093855 0.100415 0.107846 0.116143 0.125304 0.135325 0.146202 0.157929 0.170501 0.183908 0.198143 0.213195 0.229052 0.245701 0.263126 0.281309 0.300229 0.319866 0.340192 0.361180 0.382800 0.405015 0.427788 0.451077 0.474837 0.499018 0.523565 0.548420 0.573520 0.598797 0.624177 0.649584 0.674934 0.700140 0.725107 0.749737 0.773926 0.797567 0.820544 0.842740 0.864031 0.884290 0.903385 0.921181 0.937540 0.952321 0.965380 0.976574 0.985758 0.992785 0.997513 0.999800 0.999506 0.996498 0.990645 0.981826 0.969925 0.954837 0.936468 0.914735 0.889571 0.860921 0.828751 0.793042 0.753798 0.711043 0.664825 0.615215 0.562312 0.506242 0.447157 0.385240 0.320704 0.253792 0.184778 0.113966 0.041692 0.031680 0.105756 0.180113 0.254304 0.327856 0.400275 0.471050 0.539651 0.605539 0.668167 0.726986 0.781446 0.831007 0.875143 0.913345 0.945132 0.970054 0.987699 0.997702 0.999752 0.993594 0.979041 0.955977 0.924364 0.884249 0.835762 0.779131 0.714674 0.642809 0.564049 0.479008 0.388394 0.293010 0.193746 0.091578 0.012445 0.117206 0.221532 0.324207 0.423985 0.519604 0.609803 0.693342 0.769015 0.835675 0.892249 0.937760 0.971344 0.992272 0.999968 0.994022 0.974209 0.940499 0.893070 0.832315 0.758848 0.673499 0.577322 0.471577 0.357728 0.237419 0.112467 0.015177 0.143443 0.270180 0.393190 0.510268 0.619239 0.718003 0.804578 0.877142 0.934079 0.974018 0.995871 0.998871 0.982597 0.947003 0.892433 0.819629 0.729738 0.624301 0.505236 0.374812 0.235618 0.090512 0.057430 0.204974 0.348803 0.485580 0.612042 0.725068 0.821766 0.899557 0.956244 0.990089 0.999872 0.984944 0.945265 0.881431 0.794680 0.686888 0.560541 0.418687 0.264882 0.103102 0.062351 0.226951 0.386082 0.535156 0.669759 0.785779 0.879545 0.947949 0.988567 0.999753 0.980718 0.931589 0.853432 0.748259 0.618988 0.469385 0.303968 0.127887 0.053234 0.233459 0.406745 0.567134 0.708967 0.827097 0.917080 0.975359 0.999425 0.987937 0.940817 0.859283 0.745858 0.604310 0.439552 0.257485 0.064815 0.131199 0.322997 0.503020 0.664007 0.799293 0.903107 0.970828 0.999218 0.986594 0.932950 0.840006 0.711189 0.551536 0.367519 0.166815 0.042011 0.249849 0.447443 0.625804 0.776631 0.892707 0.968270 0.999323 0.983872 0.922080 0.816320 0.671122 0.493016 0.290267 0.072515 0.149662 0.365259 0.563383 0.733811 0.867541 0.957278 0.997870 0.986635 0.923568 0.811413 0.655596 0.463994 0.246576 0.014914 0.218420 0.440527 0.638888 0.802097 0.920527 0.986928 0.996919 0.949304 0.846233 0.693151 0.498576 0.273642 0.031513 0.213365 0.446126 0.652385 0.819133 0.935599 0.993966 0.989950 0.923156 0.797202 0.619572 0.401242 0.156029 0.100246 0.350754 0.578769 0.768784 0.907603 0.985282 0.995901 0.938059 0.815083 0.634898 0.409589 0.154630 0.112138 0.371741 0.605404 0.795929 0.928994 0.994272 0.986283 0.904922 0.755577 0.548856 0.299887 0.027273 0.248279 0.505495 0.724214 0.886953 0.980384 0.996459 0.933183 0.794900 0.592076 0.340591 0.060540 0.225313 0.493397 0.721243 0.889421 0.983237 0.994078 0.920281 0.767415 0.547960 0.280358 0.012468 0.305039 0.571533 0.788055 0.934836 0.998080 0.971353 0.856306 0.662692 0.407638 0.114192 0.190688 0.478584 0.722288 0.898369 0.989515 0.986293 0.888222 0.703991 0.450808 0.152856 0.160934 0.459653 0.713483 0.896667
1.000000 1.000000 1.000000 1.000000 1.000000 1.000000 1.000000 1.000000 1.000000 1.000000 1.000000 1.000000 1.000000 1.000000 1.000000 1.000000 1.000000 1.000000 1.000000 1.000000 1.000000 1.000000 1.000000 1.000000 1.000000 1.000000 1.000000 1.000000 1.000000 1.000000 1.000000 1.000000 1.000000 1.000000 1.000000 1.000000 1.000000 1.000000 1.000000 1.000000 1.000000 1.000000 1.000000 1.000000 1.000000 1.000000 1.000000 1.000000 1.000000 1.000000 1.000000 1.000000 0.833143 0.833143 0.833143 0.833143 0.833143 0.833143 0.833143 0.815254 0.815254 0.815254 0.815254 0.815254 0.815254 0.815254 0.815254 0.815254 0.815254 0.815254 0.815254 0.815254 0.815254 0.815254 0.815254 0.815254 0.815254 0.815254 0.815254 0.815254 0.815254 0.815254 0.815254 0.815254 0.815254 0.815254 0.815254 0.815254 0.815254 0.815254 0.815254 0.815254 0.815254 0.815254 0.815254 0.815254 0.815254 0.815254 0.815254 0.815254 0.815254 0.815254 0.815254 0.954157 0.954812 0.951953 0.950895 0.949260 0.945853 0.941633 0.941175 0.942510 0.942721 0.943346 0.945420 0.946385 0.947976 0.949126 0.949921 0.950712 0.958805 0.962504 0.962234 0.961964 0.952935 0.959773 0.957735 0.955400 0.956133 0.956402 0.957088 0.956984 0.956832 0.956369 0.954983 0.955673 0.955500 0.954767 0.953738 0.951665 0.951609 0.951181 0.951325 0.952291 0.953006 0.953789 0.954311 0.954307 0.954470 0.954465 0.954373 0.949675 0.949686 0.942768 0.943253 0.944291 0.943904 0.942879 0.941415 0.941484 0.941386 0.941341 0.941202 0.941406 0.924571 0.924472 0.924492 0.925297 0.919890 0.909503 0.902273 0.896849 0.897891 0.901979 0.906553 0.906950 0.903444 0.902573 0.885504 0.882550 0.866531 0.863047 0.853700 0.863680 0.865597 0.867168 0.861142 0.860030 0.858287 0.855643 0.841569 0.846172 0.846383 0.842489 0.838783 0.836796 0.834038 0.836121 0.844879 0.839951 0.837419 0.839305 0.827976 0.816843 0.815420 0.817475 0.825981 0.837931 0.836184 0.835182 0.828347 0.824199 0.817355 0.811846 0.811721 0.813856 0.810793 0.814666 0.815106 0.824605 0.814018 0.807231 0.812432 0.823665 0.828039 0.829115 0.830055 0.827124 0.829484 0.809324 0.810084 0.811861 0.773719 0.774342 0.764704 0.763215 0.760388 0.762402 0.759167 0.753723 0.746359 0.725027 0.738286 0.746123 0.715618 0.723022 0.715946 0.705358 0.680484 0.684800 0.696064 0.705975 0.706960 0.713523 0.703579 0.703823 0.712559 0.712251 0.718051 0.711079 0.706016 0.701545 0.704211 0.697267 0.685413 0.682559 0.682364 0.681404 0.677296 0.659801 0.670134 0.655863 0.643099 0.632057 0.595019 0.572671 0.560387 0.551272 0.532846 0.511517 0.526196 0.529142 0.517759 0.508238 0.487225 0.447559 0.430218 0.428840 0.412591 0.403907 0.385481 0.335462 0.346743 0.337031 0.337810 0.316502 0.306789 0.285996 0.220143 0.219063 0.176435 0.201658 0.212507 0.210577 0.193098 0.183140 0.212401 0.214284 0.228000 0.226148 0.246901 0.206511 0.144227 0.168975 0.162329 0.169412 0.154401 0.120895 0.149796 0.146464 0.159269 0.165390 0.114906 0.084726 0.060100 0.053328 0.062543 0.084849 0.099722 0.089113 0.072299 -0.018848 0.013547 0.039229 0.039229 0.039229 0.039229 0.039229 0.039229 0.039229 0.039229 0.039229 0.039229 0.039229 -0.016493 -0.016493 -0.016493 -0.016493 -0.016493 -0.016493 -0.016493 -0.016493 -0.016493 -0.016493 -0.016493 -0.016493 -0.016493 -0.016493 -0.016493 -0.016493 -0.016493 -0.016493 -0.016493
0.000000 0.000000 0.000000 0.000000 0.000000 0.000000 0.000000 0.000000 0.000000 0.000000 0.000000 0.000000 0.000000 0.000000 0.000000 0.000000 0.000000 0.000000 0.000000 0.000000 0.000000 0.000000 0.000000 0.000000 0.000000 0.000000 0.000000 0.000000 0.000000 0.000000 0.000000 0.000000 0.000000 0.000000 0.000000 0.000000 0.000000 0.000000 0.000000 0.000000 0.000000 0.000000 0.000000 0.000000 0.000000 0.000000 0.000000 0.000000 0.000000 0.000000 0.000000 0.000000 0.173422 0.173422 0.173422 0.173422 0.173422 0.173422 0.173422 0.191565 0.191565 0.191565 0.191565 0.191565 0.191565 0.191565 0.191565 0.191565 0.191565 0.191565 0.191565 0.191565 0.191565 0.191565 0.191565 0.191565 0.191565 0.191565 0.191565 0.191565 0.191565 0.191565 0.191565 0.191565 0.191565 0.191565 0.191565 0.191565 0.191565 0.191565 0.191565 0.191565 0.191565 0.191565 0.191565 0.191565 0.191565 0.191565 0.191565 0.191565 0.191565 0.191565 0.191565 0.219529 0.219529 0.219529 0.219529 0.219529 0.219529 0.219529 0.219529 0.219529 0.219529 0.219529 0.219529 0.219529 0.219529 0.219529 0.219529 0.219529 0.219529 0.219529 0.219529 0.219529 0.219529 0.219529 0.219529 0.219529 0.219529 0.219529 0.219529 0.219529 0.219529 0.219529 0.237356 0.237356 0.237356 0.237356 0.237356 0.237356 0.237356 0.237356 0.237356 0.237356 0.237356 0.237356 0.237356 0.237356 0.237356 0.237356 0.237356 0.237356 0.237356 0.237356 0.237356 0.237356 0.237356 0.237356 0.244339 0.244339 0.244339 0.244339 0.244339 0.244339 0.244339 0.244339 0.244339 0.244339 0.244339 0.244339 0.244339 0.244339 0.244339 0.244339 0.244339 0.244339 0.244339 0.244339 0.244339 0.248069 0.248069 0.248069 0.248069 0.248069 0.248069 0.248069 0.248069 0.248069 0.248069 0.248069 0.248069 0.248069 0.248069 0.248069 0.248069 0.248069 0.248069 0.248069 0.248069 0.248069 0.248069 0.248069 0.248069 0.248069 0.248069 0.248069 0.248069 0.248069 0.248069 0.248069 0.248069 0.248069 0.248069 0.248069 0.248069 0.248069 0.256074 0.256074 0.256074 0.256074 0.256074 0.256074 0.256074 0.256074 0.256074 0.256074 0.256074 0.256074 0.256074 0.256074 0.256074 0.256074 0.256074 0.256074 0.256074 0.256074 0.256074 0.256074 0.256074 0.256074 0.256074 0.256074 0.256074 0.256074 0.256074 0.256074 0.256074 0.256074 0.256074 0.256074 0.256074 0.256074 0.256074 0.256074 0.256074 0.256074 0.256074 0.256074 0.256074 0.256074 0.256074 0.260378 0.260378 0.260378 0.260378 0.260378 0.260378 0.260378 0.260378 0.260378 0.260378 0.260378 0.260378 0.260378 0.256074 0.256074 0.256074 0.256074 0.256074 0.256074 0.256074 0.256074 0.256074 0.256074 0.256074 0.256074 0.256074 0.260378 0.260378 0.260378 0.260378 0.260378 0.260378 0.260378 0.260378 0.260378 0.260378 0.260378 0.260378 0.251976 0.251976 0.251976 0.251976 0.251976 0.251976 0.251976 0.251976 0.251976 0.251976 0.251976 0.251976 0.256074 0.256074 0.256074 0.256074 0.256074 0.256074 0.256074 0.256074 0.256074 0.256074 0.256074 0.251976 0.251976 0.251976 0.251976 0.251976 0.251976 0.251976 0.251976 0.251976 0.251976 0.251976 0.248069 0.248069 0.248069 0.248069 0.248069 0.248069 0.248069 0.248069 0.248069 0.248069 0.248069 0.256074 0.256074 0.256074 0.256074 0.256074 0.256074 0.256074 0.256074 0.256074 0.256074 0.256074 0.256074 0.256074 0.256074 0.256074 0.256074 0.256074 0.256074 0.256074
