# Output from CTFFind version 4.1.9, run on 2019-11-03 20:05:52
# Input file: stack1_bm3d_averaged_1_10_0_1000_half.mrc ; Number of micrographs: 1
# Pixel size: 3.000 Angstroms ; acceleration voltage: 300.0 keV ; spherical aberration: 0.00 mm ; amplitude contrast: 0.07
# Box size: 512 pixels ; min. res.: 30.0 Angstroms ; max. res.: 5.0 Angstroms ; min. def.: 5000.0 um; max. def. 50000.0 um; num. frames averaged: 1
# 6 lines per micrograph: #1 - spatial frequency (1/Angstroms); #2 - 1D rotational average of spectrum (assuming no astigmatism); #3 - 1D rotational average of spectrum; #4 - CTF fit; #5 - cross-correlation between spectrum and CTF fit; #6 - 2sigma of expected cross correlation of noise
0.000000 0.000651 0.001302 0.001953 0.002604 0.003255 0.003906 0.004557 0.005208 0.005859 0.006510 0.007161 0.007812 0.008464 0.009115 0.009766 0.010417 0.011068 0.011719 0.012370 0.013021 0.013672 0.014323 0.014974 0.015625 0.016276 0.016927 0.017578 0.018229 0.018880 0.019531 0.020182 0.020833 0.021484 0.022135 0.022786 0.023438 0.024089 0.024740 0.025391 0.026042 0.026693 0.027344 0.027995 0.028646 0.029297 0.029948 0.030599 0.031250 0.031901 0.032552 0.033203 0.033854 0.034505 0.035156 0.035807 0.036458 0.037109 0.037760 0.038411 0.039062 0.039714 0.040365 0.041016 0.041667 0.042318 0.042969 0.043620 0.044271 0.044922 0.045573 0.046224 0.046875 0.047526 0.048177 0.048828 0.049479 0.050130 0.050781 0.051432 0.052083 0.052734 0.053385 0.054036 0.054688 0.055339 0.055990 0.056641 0.057292 0.057943 0.058594 0.059245 0.059896 0.060547 0.061198 0.061849 0.062500 0.063151 0.063802 0.064453 0.065104 0.065755 0.066406 0.067057 0.067708 0.068359 0.069010 0.069661 0.070312 0.070964 0.071615 0.072266 0.072917 0.073568 0.074219 0.074870 0.075521 0.076172 0.076823 0.077474 0.078125 0.078776 0.079427 0.080078 0.080729 0.081380 0.082031 0.082682 0.083333 0.083984 0.084635 0.085286 0.085938 0.086589 0.087240 0.087891 0.088542 0.089193 0.089844 0.090495 0.091146 0.091797 0.092448 0.093099 0.093750 0.094401 0.095052 0.095703 0.096354 0.097005 0.097656 0.098307 0.098958 0.099609 0.100260 0.100911 0.101562 0.102214 0.102865 0.103516 0.104167 0.104818 0.105469 0.106120 0.106771 0.107422 0.108073 0.108724 0.109375 0.110026 0.110677 0.111328 0.111979 0.112630 0.113281 0.113932 0.114583 0.115234 0.115885 0.116536 0.117188 0.117839 0.118490 0.119141 0.119792 0.120443 0.121094 0.121745 0.122396 0.123047 0.123698 0.124349 0.125000 0.125651 0.126302 0.126953 0.127604 0.128255 0.128906 0.129557 0.130208 0.130859 0.131510 0.132161 0.132812 0.133464 0.134115 0.134766 0.135417 0.136068 0.136719 0.137370 0.138021 0.138672 0.139323 0.139974 0.140625 0.141276 0.141927 0.142578 0.143229 0.143880 0.144531 0.145182 0.145833 0.146484 0.147135 0.147786 0.148438 0.149089 0.149740 0.150391 0.151042 0.151693 0.152344 0.152995 0.153646 0.154297 0.154948 0.155599 0.156250 0.156901 0.157552 0.158203 0.158854 0.159505 0.160156 0.160807 0.161458 0.162109 0.162760 0.163411 0.164062 0.164714 0.165365 0.166016 0.166667 0.167318 0.167969 0.168620 0.169271 0.169922 0.170573 0.171224 0.171875 0.172526 0.173177 0.173828 0.174479 0.175130 0.175781 0.176432 0.177083 0.177734 0.178385 0.179036 0.179688 0.180339 0.180990 0.181641 0.182292 0.182943 0.183594 0.184245 0.184896 0.185547 0.186198 0.186849 0.187500 0.188151 0.188802 0.189453 0.190104 0.190755 0.191406 0.192057 0.192708 0.193359 0.194010 0.194661 0.195312 0.195964 0.196615 0.197266 0.197917 0.198568 0.199219 0.199870 0.200521 0.201172 0.201823 0.202474 0.203125 0.203776 0.204427 0.205078 0.205729 0.206380 0.207031 0.207682 0.208333 0.208984 0.209635 0.210286 0.210938 0.211589 0.212240 0.212891 0.213542 0.214193 0.214844 0.215495 0.216146 0.216797 0.217448 0.218099 0.218750 0.219401 0.220052 0.220703 0.221354 0.222005 0.222656 0.223307 0.223958 0.224609 0.225260 0.225911 0.226562 0.227214 0.227865 0.228516 0.229167 0.229818 0.230469 0.231120 0.231771 0.232422 0.233073 0.233724 0.234375 0.235026 0.235677
       0.35041        0.35041        0.35041        0.35041        0.35041        0.35041        0.35041        0.35041        0.35041        0.35041        0.35041        0.35041        0.35041        0.35041        0.35041        0.35041        0.35041        0.35041        0.35041        0.35041        0.35041        0.35041        0.35041        0.35041        0.35041        0.35041        0.35041        0.35041        0.35041        0.35041        0.35041        0.35041        0.35041        0.35041        0.35041        0.35041        0.35041        0.35041        0.35041        0.35041        0.35041        0.35041        0.35041        0.35041        0.35041        0.35041        0.35041        0.35041        0.35041        0.35041        0.35041        0.31573        0.41942        0.21644        0.06958        0.01526       -0.24278       -0.10710       -0.11777       -0.20310        0.01176       -0.12897       -0.01045       -0.04577       -0.02962       -0.09547       -0.15412       -0.20792       -0.23496       -0.33743       -0.26942       -0.18204       -0.17791       -0.27617       -0.19309       -0.22951       -0.19990       -0.22574       -0.08636       -0.11006       -0.14565        0.00140        0.07361        0.01240        0.06798        0.07543        0.28132        0.26539        0.34673        0.36723        0.36708        0.40138        0.47779        0.52024        0.51811        0.49176        0.50046        0.52109        0.49028        0.49527        0.41684        0.41877        0.41140        0.37316        0.31474        0.32567        0.32359        0.21332        0.21240        0.16032        0.18290        0.17383        0.16696        0.17390        0.27138        0.34566        0.33517        0.28390        0.41718        0.48560        0.40294        0.49673        0.57682        0.51143        0.50450        0.58486        0.59161        0.43378        0.48581        0.42512        0.35932        0.32876        0.28942        0.26785        0.20858        0.21195        0.19795        0.22669        0.25575        0.28338        0.34600        0.32734        0.40952        0.40842        0.45617        0.51189        0.46082        0.47703        0.42821        0.43730        0.41042        0.35276        0.31323        0.32258        0.32077        0.25771        0.25923        0.26297        0.27108        0.28543        0.32385        0.43031        0.48622        0.43047        0.46516        0.46489        0.42079        0.45934        0.44797        0.41579        0.36814        0.37746        0.35511        0.32796        0.31093        0.29898        0.28205        0.30260        0.32099        0.34214        0.40419        0.37927        0.38327        0.39427        0.37083        0.42707        0.40614        0.36270        0.33500        0.34374        0.32187        0.29411        0.32525        0.33718        0.34403        0.34583        0.32800        0.41165        0.40215        0.40961        0.42830        0.45493        0.40064        0.37412        0.35254        0.34849        0.29805        0.28646        0.33303        0.39759        0.40031        0.35661        0.36662        0.40681        0.39561        0.45834        0.37288        0.39433        0.34941        0.31630        0.30902        0.30938        0.34941        0.35626        0.37489        0.37870        0.33280        0.42487        0.34072        0.34862        0.35937        0.40089        0.37468        0.30250        0.32257        0.27917        0.34492        0.32941        0.34336        0.34868        0.32558        0.36219        0.32881        0.35835        0.35052        0.31873        0.29255        0.31591        0.36117        0.31041        0.30455        0.33336        0.32410        0.33592        0.33696        0.31246        0.30393        0.28451        0.32397        0.33480        0.34492        0.29154        0.31051        0.34603        0.32598        0.30669        0.38823        0.35061        0.30054        0.32649        0.33947        0.32920        0.34289        0.30602        0.33664        0.27660        0.32731        0.38842        0.36427        0.30195        0.33738        0.33143        0.32923        0.34457        0.33955        0.30570        0.28540        0.29573        0.29941        0.36218        0.37239        0.32291        0.36057        0.31698        0.29173        0.28065        0.32960        0.37034        0.30937        0.27517        0.31781        0.35613        0.28425        0.31172        0.31807        0.28869        0.31703        0.33136        0.30486        0.33964        0.31752        0.31749        0.33745        0.35364        0.26492        0.30986        0.37934        0.32264        0.24442        0.29989        0.29513        0.31759        0.27716        0.21725        0.24026        0.32764        0.39757        0.33300        0.27421        0.21243        0.29084        0.29549        0.27179        0.32922        0.31306        0.27514        0.27161        0.26761        0.25924        0.34798        0.23705        0.31430        0.28467        0.27085        0.27194        0.34408        0.22763        0.27746        0.18528        0.30916        0.22854        0.27308        0.22961        0.31413        0.24147        0.28377        0.33964        0.33054        0.21226       -0.13923       -0.20984       -0.58616       -0.64113
2.768628 2.740995 2.713508 2.686167 2.658973 2.631924 2.605022 2.578267 2.551657 2.525194 2.498877 2.472707 2.446682 2.420804 2.395072 2.369487 2.344048 2.318755 2.293608 2.268608 2.243754 2.219046 2.194484 2.170069 2.145800 2.121678 2.097701 2.073871 2.050187 2.026650 2.003258 1.980013 1.956915 1.933962 1.911156 1.888496 1.865983 1.843615 1.821394 1.799319 1.777391 1.755609 1.733973 1.712483 1.691140 1.669943 1.648892 1.627987 1.607229 1.586617 1.566151 1.394238 1.758347 1.366930 0.845836 0.669520 -0.273267 0.432444 0.027442 0.146797 0.530018 0.179023 0.357202 0.345704 0.303055 0.281205 -0.051115 -0.107399 -0.240132 -0.478086 -0.456240 -0.240666 0.037203 -0.514855 -0.239235 -0.384997 -0.122185 -0.480312 -0.052930 -0.187862 -0.203638 0.039121 0.361665 0.095516 0.187924 0.174292 0.845244 0.596531 0.845030 0.984644 0.756630 1.069976 0.974415 1.369640 1.217248 1.093086 1.174026 1.219497 1.163562 1.011036 1.022361 0.880643 0.824772 0.735162 0.774497 0.486553 0.627618 0.425544 0.230292 0.223953 0.120769 0.150847 0.156331 0.069291 0.261542 0.558293 0.461329 0.454334 0.593111 0.760338 0.741638 0.543460 1.114635 0.944462 0.870058 0.959213 1.065352 0.815889 0.564647 0.799665 0.346736 0.455798 0.194993 0.232033 0.053720 0.016739 -0.034109 0.011472 0.159863 0.033407 0.207333 0.415579 0.301562 0.479327 0.482719 0.620848 0.675207 0.581359 0.520062 0.403426 0.449345 0.351154 0.189773 0.178786 0.142753 0.105418 0.085413 -0.074624 -0.024646 0.094251 0.018124 0.301146 0.539280 0.524590 0.366490 0.573052 0.494761 0.429326 0.508391 0.472649 0.316392 0.285379 0.348856 0.101934 0.161119 0.036134 0.164524 0.021388 0.192652 0.102970 0.342024 0.175212 0.274403 0.344059 0.173826 0.461268 0.215491 0.263174 0.160270 0.142532 0.114076 0.067514 0.029952 0.099228 0.164687 0.090051 0.102428 0.154646 0.368433 0.221485 0.302994 0.493602 0.202290 0.346419 0.089431 0.152817 0.099486 -0.078936 0.016591 0.103617 0.325053 0.185110 0.105492 0.230246 0.195338 0.373525 0.304544 0.202861 0.255804 0.031117 0.010813 0.032465 0.072463 0.122691 0.206784 0.182897 0.118707 0.083200 0.292759 0.019943 0.152249 0.149553 0.253994 0.074857 0.043131 -0.022829 -0.031240 0.125322 0.057696 0.126332 0.044293 0.078628 0.101384 -0.000057 0.119533 0.079956 -0.076965 -0.016394 -0.037064 0.161875 -0.091583 0.000622 0.040825 -0.035182 0.025809 0.036349 -0.058989 -0.060966 -0.113111 0.039406 0.025885 0.075333 -0.105360 -0.037803 0.036687 0.005158 -0.097139 0.137728 0.001397 -0.102591 -0.046167 0.079175 0.002462 -0.063715 -0.082132 0.069336 -0.238479 0.043685 0.166172 0.037362 -0.049805 0.039616 -0.043185 0.035812 0.056952 0.027365 -0.038911 -0.195987 -0.011478 -0.066431 0.111777 0.059242 -0.012215 0.132715 -0.057176 -0.082994 -0.096952 -0.012522 0.090033 -0.037353 -0.131082 0.073424 0.124640 -0.001124 -0.022376 0.031293 -0.046292 0.010595 0.108060 0.055865 0.086909 0.138680 0.093309 0.195733 0.153733 -0.030300 0.100620 0.224201 0.078041 -0.139965 0.165421 -0.066098 0.177230 -0.088000 -0.162042 -0.138088 0.228187 0.287789 0.070316 -0.246404 -0.306309 -0.039238 -0.207564 -0.161706 0.111356 0.045480 -0.133586 -0.039261 -0.194343 -0.059461 0.215851 -0.207696 0.209451 0.116983 0.176043 0.101954 0.412273 0.121573 0.522385 0.228535 0.514794 0.490264 0.439536 0.451141 0.798876 0.552513 0.713125 0.917500 0.684285 0.999255 -0.848428 -0.508949 -1.600888
0.072396 0.072904 0.074427 0.076966 0.080519 0.085086 0.090665 0.097255 0.104853 0.113457 0.123064 0.133668 0.145264 0.157846 0.171406 0.185934 0.201419 0.217848 0.235206 0.253473 0.272631 0.292655 0.313519 0.335192 0.357641 0.380826 0.404706 0.429233 0.454354 0.480013 0.506147 0.532685 0.559554 0.586672 0.613952 0.641299 0.668613 0.695784 0.722698 0.749234 0.775261 0.800645 0.825243 0.848906 0.871479 0.892801 0.912706 0.931025 0.947583 0.962201 0.974701 0.984902 0.992622 0.997683 0.999907 0.999122 0.995161 0.987864 0.977082 0.962675 0.944519 0.922504 0.896538 0.866548 0.832486 0.794326 0.752069 0.705747 0.655421 0.601185 0.543171 0.481545 0.416512 0.348318 0.277247 0.203628 0.127827 0.050254 0.028642 0.108372 0.188410 0.268195 0.347134 0.424606 0.499964 0.572545 0.641671 0.706656 0.766816 0.821472 0.869964 0.911653 0.945935 0.972250 0.990087 0.999002 0.998619 0.988646 0.968882 0.939226 0.899684 0.850377 0.791549 0.723570 0.646938 0.562285 0.470372 0.372090 0.268454 0.160600 0.049770 0.062694 0.175368 0.286760 0.395327 0.499502 0.597710 0.688398 0.770058 0.841257 0.900664 0.947077 0.979454 0.996935 0.998875 0.984860 0.954734 0.908611 0.846889 0.770261 0.679717 0.576536 0.462286 0.338801 0.208161 0.072664 0.065210 0.202842 0.337519 0.466492 0.587024 0.696461 0.792287 0.872190 0.934123 0.976364 0.997573 0.996841 0.973733 0.928320 0.861200 0.773514 0.666937 0.543661 0.406371 0.258187 0.102613 0.056545 0.215265 0.369406 0.514817 0.647453 0.763489 0.859442 0.932284 0.979546 0.999420 0.990836 0.953530 0.888080 0.795930 0.679380 0.541544 0.386293 0.218159 0.042215 0.136066 0.310982 0.476774 0.627823 0.758850 0.865103 0.942550 0.988048 0.999485 0.975901 0.917566 0.826011 0.704029 0.555613 0.385847 0.200758 0.007120 0.187788 0.376447 0.551386 0.705485 0.832282 0.926248 0.983060 0.999823 0.975236 0.909712 0.805416 0.666233 0.497657 0.306610 0.101168 0.109742 0.316736 0.510382 0.681630 0.822257 0.925276 0.985309 0.998904 0.964760 0.883865 0.759519 0.597249 0.404600 0.190821 0.033556 0.257218 0.468631 0.656641 0.811078 0.923323 0.986829 0.997536 0.954171 0.858404 0.714847 0.530883 0.316333 0.082966 0.156116 0.387200 0.596753 0.772215 0.902790 0.980131 0.998930 0.957323 0.857108 0.703738 0.506091 0.275996 0.027583 0.223564 0.461376 0.670317 0.836438 0.948314 0.997903 0.981164 0.898444 0.754579 0.558677 0.323616 0.065243 0.198654 0.449567 0.669545 0.842510 0.955478 0.999575 0.970805 0.870470 0.705220 0.486687 0.230732 0.043634 0.315652 0.564361 0.770224 0.916701 0.991629 0.988303 0.906148 0.750923 0.534414 0.273621 0.010526 0.294777 0.555481 0.770531 0.921308 0.994324 0.982530 0.886068 0.712438 0.476018 0.196962 0.100453 0.389900 0.645320 0.843292 0.965233 0.999219 0.941244 0.795774 0.575532 0.300493 0.003857 0.308807 0.585131 0.805880 0.949080 0.999980 0.952688 0.810947 0.587976 0.305367 0.008924 0.323277 0.605565 0.826454 0.962508 0.998768 0.930507 0.763952 0.515868 0.211988 0.115566 0.431606 0.701673 0.895800 0.991939 0.978557 0.856161 0.637489 0.346327 0.015056 0.318890 0.617210 0.845149 0.975617 0.992518 0.892873 0.687441 0.399724 0.063410 0.281470 0.593279 0.833792 0.972974 0.992829 0.889883 0.675911 0.376757 0.029359 0.322701 0.634642 0.866190 0.986863 0.980116 0.845770 0.600363 0.275280 0.087097 0.438851 0.732817
1.000000 1.000000 1.000000 1.000000 1.000000 1.000000 1.000000 1.000000 1.000000 1.000000 1.000000 1.000000 1.000000 1.000000 1.000000 1.000000 1.000000 1.000000 1.000000 1.000000 1.000000 1.000000 1.000000 1.000000 1.000000 1.000000 1.000000 1.000000 1.000000 1.000000 1.000000 1.000000 1.000000 1.000000 1.000000 1.000000 1.000000 1.000000 1.000000 1.000000 1.000000 1.000000 1.000000 1.000000 1.000000 1.000000 1.000000 1.000000 1.000000 1.000000 1.000000 1.000000 0.792389 0.792389 0.792389 0.752657 0.752657 0.752657 0.752657 0.752657 0.752657 0.752657 0.752657 0.752657 0.752657 0.752657 0.752657 0.752657 0.752657 0.752657 0.752657 0.752657 0.752657 0.752657 0.752657 0.752657 0.752657 0.752657 0.752657 0.752657 0.752657 0.752657 0.752657 0.752657 0.752657 0.752657 0.752657 0.752657 0.752657 0.752657 0.752657 0.752657 0.752657 0.752657 0.752657 0.752657 0.803221 0.812192 0.816914 0.825252 0.827107 0.825534 0.823108 0.821949 0.822394 0.823094 0.830466 0.852056 0.863402 0.866130 0.878092 0.881930 0.885244 0.884198 0.907305 0.906239 0.955209 0.953454 0.952871 0.953762 0.960785 0.961749 0.960760 0.959099 0.964261 0.965023 0.963455 0.960926 0.960142 0.957499 0.957034 0.954229 0.954280 0.955105 0.954029 0.954568 0.954990 0.954654 0.952390 0.950106 0.947801 0.947060 0.950141 0.936904 0.933866 0.924396 0.920616 0.929608 0.924954 0.921874 0.920547 0.922022 0.913589 0.875897 0.875864 0.854926 0.846818 0.832479 0.825238 0.824973 0.830097 0.839561 0.843803 0.846124 0.838705 0.826471 0.810201 0.818927 0.802964 0.788274 0.792933 0.779992 0.774206 0.775363 0.762015 0.757153 0.745384 0.740048 0.738025 0.748157 0.752517 0.753878 0.746819 0.746207 0.732936 0.722247 0.700761 0.700984 0.709839 0.704728 0.706523 0.702530 0.703997 0.711090 0.707932 0.699184 0.685857 0.677705 0.663508 0.638039 0.649513 0.624039 0.619872 0.622923 0.596095 0.624637 0.623437 0.666215 0.680101 0.682347 0.678347 0.672784 0.651861 0.671696 0.671720 0.662579 0.664254 0.666456 0.663843 0.660938 0.652591 0.552867 0.545815 0.544295 0.545707 0.533438 0.549222 0.550696 0.539611 0.527192 0.508919 0.470395 0.410840 0.346940 0.352374 0.348769 0.329376 0.319337 0.306046 0.338030 0.342822 0.346680 0.302568 0.270203 0.265442 0.238455 0.227447 0.193293 0.203251 0.232272 0.225338 0.196024 0.163184 0.155887 0.134693 0.140738 0.142339 0.110103 0.139407 0.102459 0.091062 0.065426 0.083793 0.071295 0.022904 -0.074290 -0.037840 -0.040024 -0.003912 -0.008989 -0.031482 0.012681 -0.008794 -0.039995 -0.042247 -0.063977 -0.101991 -0.044766 -0.045529 -0.066359 -0.045697 -0.055444 -0.041383 -0.050147 -0.068212 -0.078660 -0.092263 -0.067421 -0.053467 0.007622 0.006999 0.005564 -0.038346 -0.032543 -0.029060 -0.068086 -0.042526 0.011566 0.026991 0.022553 0.017310 0.033599 0.055662 0.052844 0.067286 0.053083 0.051700 0.031846 0.053644 0.044585 0.021478 0.025088 0.039959 0.044471 0.066276 0.054489 0.059309 0.077830 0.048929 0.066357 0.074476 0.059794 0.071535 0.067530 0.115508 0.077196 0.050950 0.047552 0.053988 0.034381 0.065109 0.121667 0.142061 0.115867 0.112763 0.112763 0.112763 0.112763 0.115488 0.115488 0.115488 0.115488 0.115488 0.115488 0.115488 0.115488 0.115488 0.090559 0.090559 0.090559 0.090559 0.090559 0.090559 0.090559 0.090559 0.090559 0.090559 0.090559 0.090559 0.090559 0.090559 0.090559 0.090559
0.000000 0.000000 0.000000 0.000000 0.000000 0.000000 0.000000 0.000000 0.000000 0.000000 0.000000 0.000000 0.000000 0.000000 0.000000 0.000000 0.000000 0.000000 0.000000 0.000000 0.000000 0.000000 0.000000 0.000000 0.000000 0.000000 0.000000 0.000000 0.000000 0.000000 0.000000 0.000000 0.000000 0.000000 0.000000 0.000000 0.000000 0.000000 0.000000 0.000000 0.000000 0.000000 0.000000 0.000000 0.000000 0.000000 0.000000 0.000000 0.000000 0.000000 0.000000 0.000000 0.180334 0.180334 0.180334 0.199007 0.199007 0.199007 0.199007 0.199007 0.199007 0.199007 0.199007 0.199007 0.199007 0.199007 0.199007 0.199007 0.199007 0.199007 0.199007 0.199007 0.199007 0.199007 0.199007 0.199007 0.199007 0.199007 0.199007 0.199007 0.199007 0.199007 0.199007 0.199007 0.199007 0.199007 0.199007 0.199007 0.199007 0.199007 0.199007 0.199007 0.199007 0.199007 0.199007 0.199007 0.230940 0.230940 0.230940 0.230940 0.230940 0.230940 0.230940 0.230940 0.230940 0.230940 0.230940 0.230940 0.230940 0.230940 0.230940 0.230940 0.230940 0.230940 0.230940 0.230940 0.230940 0.230940 0.230940 0.230940 0.230940 0.230940 0.230940 0.230940 0.244339 0.244339 0.244339 0.244339 0.244339 0.244339 0.244339 0.244339 0.244339 0.244339 0.244339 0.244339 0.244339 0.244339 0.244339 0.244339 0.244339 0.244339 0.244339 0.244339 0.244339 0.244339 0.244339 0.251976 0.251976 0.251976 0.251976 0.251976 0.251976 0.251976 0.251976 0.251976 0.251976 0.251976 0.251976 0.251976 0.251976 0.251976 0.251976 0.251976 0.251976 0.251976 0.251976 0.264906 0.264906 0.264906 0.264906 0.264906 0.264906 0.264906 0.264906 0.264906 0.264906 0.264906 0.264906 0.264906 0.264906 0.264906 0.264906 0.264906 0.264906 0.264906 0.264906 0.264906 0.264906 0.264906 0.264906 0.264906 0.264906 0.264906 0.264906 0.264906 0.264906 0.264906 0.264906 0.264906 0.264906 0.264906 0.264906 0.264906 0.264906 0.264906 0.264906 0.264906 0.264906 0.264906 0.264906 0.264906 0.264906 0.264906 0.264906 0.264906 0.264906 0.264906 0.264906 0.264906 0.264906 0.264906 0.264906 0.264906 0.264906 0.264906 0.264906 0.264906 0.264906 0.264906 0.264906 0.264906 0.264906 0.264906 0.264906 0.264906 0.264906 0.264906 0.264906 0.264906 0.264906 0.264906 0.260378 0.260378 0.260378 0.260378 0.260378 0.260378 0.260378 0.260378 0.260378 0.260378 0.260378 0.260378 0.260378 0.264906 0.264906 0.264906 0.264906 0.264906 0.264906 0.264906 0.264906 0.264906 0.264906 0.264906 0.264906 0.269680 0.269680 0.269680 0.269680 0.269680 0.269680 0.269680 0.269680 0.269680 0.269680 0.269680 0.264906 0.264906 0.264906 0.264906 0.264906 0.264906 0.264906 0.264906 0.264906 0.264906 0.264906 0.269680 0.269680 0.269680 0.269680 0.269680 0.269680 0.269680 0.269680 0.269680 0.269680 0.251976 0.251976 0.251976 0.251976 0.251976 0.251976 0.251976 0.251976 0.251976 0.251976 0.251976 0.269680 0.269680 0.269680 0.269680 0.269680 0.269680 0.269680 0.269680 0.269680 0.256074 0.256074 0.256074 0.256074 0.256074 0.256074 0.256074 0.256074 0.256074 0.256074 0.260378 0.260378 0.260378 0.260378 0.260378 0.260378 0.260378 0.260378 0.260378 0.256074 0.256074 0.256074 0.256074 0.256074 0.256074 0.256074 0.256074 0.256074 0.251976 0.251976 0.251976 0.251976 0.251976 0.251976 0.251976 0.251976 0.251976 0.251976 0.251976 0.251976 0.251976 0.251976 0.251976 0.251976
