# Output from CTFFind version 4.1.9, run on 2019-11-03 19:00:50
# Input file: stack6_bm3d_averaged_1_3.25_0_1500_half.mrc ; Number of micrographs: 1
# Pixel size: 3.000 Angstroms ; acceleration voltage: 300.0 keV ; spherical aberration: 0.00 mm ; amplitude contrast: 0.07
# Box size: 512 pixels ; min. res.: 30.0 Angstroms ; max. res.: 5.0 Angstroms ; min. def.: 5000.0 um; max. def. 50000.0 um; num. frames averaged: 1
# 6 lines per micrograph: #1 - spatial frequency (1/Angstroms); #2 - 1D rotational average of spectrum (assuming no astigmatism); #3 - 1D rotational average of spectrum; #4 - CTF fit; #5 - cross-correlation between spectrum and CTF fit; #6 - 2sigma of expected cross correlation of noise
0.000000 0.000651 0.001302 0.001953 0.002604 0.003255 0.003906 0.004557 0.005208 0.005859 0.006510 0.007161 0.007812 0.008464 0.009115 0.009766 0.010417 0.011068 0.011719 0.012370 0.013021 0.013672 0.014323 0.014974 0.015625 0.016276 0.016927 0.017578 0.018229 0.018880 0.019531 0.020182 0.020833 0.021484 0.022135 0.022786 0.023438 0.024089 0.024740 0.025391 0.026042 0.026693 0.027344 0.027995 0.028646 0.029297 0.029948 0.030599 0.031250 0.031901 0.032552 0.033203 0.033854 0.034505 0.035156 0.035807 0.036458 0.037109 0.037760 0.038411 0.039062 0.039714 0.040365 0.041016 0.041667 0.042318 0.042969 0.043620 0.044271 0.044922 0.045573 0.046224 0.046875 0.047526 0.048177 0.048828 0.049479 0.050130 0.050781 0.051432 0.052083 0.052734 0.053385 0.054036 0.054688 0.055339 0.055990 0.056641 0.057292 0.057943 0.058594 0.059245 0.059896 0.060547 0.061198 0.061849 0.062500 0.063151 0.063802 0.064453 0.065104 0.065755 0.066406 0.067057 0.067708 0.068359 0.069010 0.069661 0.070312 0.070964 0.071615 0.072266 0.072917 0.073568 0.074219 0.074870 0.075521 0.076172 0.076823 0.077474 0.078125 0.078776 0.079427 0.080078 0.080729 0.081380 0.082031 0.082682 0.083333 0.083984 0.084635 0.085286 0.085938 0.086589 0.087240 0.087891 0.088542 0.089193 0.089844 0.090495 0.091146 0.091797 0.092448 0.093099 0.093750 0.094401 0.095052 0.095703 0.096354 0.097005 0.097656 0.098307 0.098958 0.099609 0.100260 0.100911 0.101562 0.102214 0.102865 0.103516 0.104167 0.104818 0.105469 0.106120 0.106771 0.107422 0.108073 0.108724 0.109375 0.110026 0.110677 0.111328 0.111979 0.112630 0.113281 0.113932 0.114583 0.115234 0.115885 0.116536 0.117188 0.117839 0.118490 0.119141 0.119792 0.120443 0.121094 0.121745 0.122396 0.123047 0.123698 0.124349 0.125000 0.125651 0.126302 0.126953 0.127604 0.128255 0.128906 0.129557 0.130208 0.130859 0.131510 0.132161 0.132812 0.133464 0.134115 0.134766 0.135417 0.136068 0.136719 0.137370 0.138021 0.138672 0.139323 0.139974 0.140625 0.141276 0.141927 0.142578 0.143229 0.143880 0.144531 0.145182 0.145833 0.146484 0.147135 0.147786 0.148438 0.149089 0.149740 0.150391 0.151042 0.151693 0.152344 0.152995 0.153646 0.154297 0.154948 0.155599 0.156250 0.156901 0.157552 0.158203 0.158854 0.159505 0.160156 0.160807 0.161458 0.162109 0.162760 0.163411 0.164062 0.164714 0.165365 0.166016 0.166667 0.167318 0.167969 0.168620 0.169271 0.169922 0.170573 0.171224 0.171875 0.172526 0.173177 0.173828 0.174479 0.175130 0.175781 0.176432 0.177083 0.177734 0.178385 0.179036 0.179688 0.180339 0.180990 0.181641 0.182292 0.182943 0.183594 0.184245 0.184896 0.185547 0.186198 0.186849 0.187500 0.188151 0.188802 0.189453 0.190104 0.190755 0.191406 0.192057 0.192708 0.193359 0.194010 0.194661 0.195312 0.195964 0.196615 0.197266 0.197917 0.198568 0.199219 0.199870 0.200521 0.201172 0.201823 0.202474 0.203125 0.203776 0.204427 0.205078 0.205729 0.206380 0.207031 0.207682 0.208333 0.208984 0.209635 0.210286 0.210938 0.211589 0.212240 0.212891 0.213542 0.214193 0.214844 0.215495 0.216146 0.216797 0.217448 0.218099 0.218750 0.219401 0.220052 0.220703 0.221354 0.222005 0.222656 0.223307 0.223958 0.224609 0.225260 0.225911 0.226562 0.227214 0.227865 0.228516 0.229167 0.229818 0.230469 0.231120 0.231771 0.232422 0.233073 0.233724 0.234375 0.235026 0.235677
       0.29919        0.29919        0.29919        0.29919        0.29919        0.29919        0.29919        0.29919        0.29919        0.29919        0.29919        0.29919        0.29919        0.29919        0.29919        0.29919        0.29919        0.29919        0.29919        0.29919        0.29919        0.29919        0.29919        0.29919        0.29919        0.29919        0.29919        0.29919        0.29919        0.29919        0.29919        0.29919        0.29919        0.29919        0.29919        0.29919        0.29919        0.29919        0.29919        0.29919        0.29919        0.29919        0.29919        0.29919        0.29919        0.29919        0.29919        0.29919        0.29919        0.29919        0.29919        0.61537        0.76970        0.37308        0.24555        0.14717       -0.13777        0.11848        0.02284        0.03603        0.10242        0.33886        0.38733        0.33368        0.19586       -0.02435        0.01949        0.05705       -0.17126       -0.17952       -0.09326       -0.12153       -0.28733       -0.17649       -0.31317       -0.28541       -0.30340       -0.38897       -0.45901       -0.44803       -0.37401       -0.32632       -0.41341       -0.31417       -0.38547       -0.32165       -0.25826       -0.19844       -0.16765       -0.07995       -0.05003        0.06558        0.10226        0.22030        0.31846        0.38178        0.38069        0.48939        0.56469        0.59308        0.67560        0.64913        0.70973        0.61262        0.64707        0.65223        0.59044        0.58959        0.60129        0.39999        0.35470        0.35604        0.33465        0.18461        0.12219        0.06332        0.07439        0.03726       -0.05871        0.00564       -0.03459       -0.07614        0.05517        0.15831        0.25934        0.32413        0.32226        0.38752        0.50288        0.53268        0.49004        0.65091        0.52989        0.50899        0.55684        0.55479        0.51635        0.46586        0.39805        0.35394        0.23679        0.18973        0.13215        0.14141        0.11075        0.05939        0.09206        0.14846        0.16123        0.16291        0.21311        0.25110        0.33461        0.44735        0.44027        0.44191        0.49956        0.55709        0.53763        0.49459        0.38244        0.40396        0.36038        0.28043        0.22858        0.21415        0.17015        0.17738        0.17216        0.17195        0.14247        0.20229        0.24353        0.33455        0.37269        0.39778        0.45650        0.48543        0.43584        0.44099        0.40382        0.40086        0.39937        0.33919        0.27320        0.26674        0.20702        0.23052        0.21865        0.18831        0.21482        0.22624        0.24873        0.31814        0.36235        0.36981        0.37754        0.38891        0.43264        0.42330        0.41079        0.31351        0.30198        0.27231        0.28792        0.24424        0.20171        0.25205        0.30115        0.29086        0.28534        0.32566        0.30411        0.38015        0.33777        0.34695        0.35723        0.34213        0.32078        0.30119        0.27210        0.28126        0.25217        0.23502        0.25294        0.26881        0.29164        0.30947        0.33838        0.35760        0.32107        0.30790        0.34489        0.31768        0.25711        0.27862        0.27076        0.25277        0.25830        0.28856        0.26957        0.26718        0.30007        0.29678        0.31408        0.32280        0.33331        0.27168        0.28389        0.29486        0.27827        0.25680        0.24749        0.23114        0.24485        0.25820        0.26629        0.28313        0.27155        0.30779        0.33481        0.30176        0.30318        0.23570        0.23676        0.25167        0.22835        0.22032        0.25179        0.29593        0.24953        0.29276        0.29361        0.28709        0.31387        0.25796        0.28646        0.28829        0.28474        0.25799        0.23449        0.23208        0.24392        0.28971        0.29307        0.30301        0.29281        0.31267        0.28012        0.31958        0.27795        0.20619        0.28660        0.27269        0.26934        0.28414        0.30781        0.29978        0.34181        0.28454        0.23895        0.23978        0.23136        0.25754        0.29395        0.29495        0.25526        0.27587        0.25661        0.27386        0.25947        0.26232        0.23250        0.25944        0.27337        0.24179        0.26244        0.30218        0.29479        0.25862        0.26554        0.23743        0.27450        0.20858        0.20510        0.23014        0.26894        0.27313        0.31197        0.26386        0.22690        0.25372        0.22273        0.21359        0.18800        0.21172        0.20340        0.25213        0.25766        0.19402        0.26191        0.24197        0.29140        0.23972        0.17560        0.20103        0.19734        0.13662        0.20568        0.14275        0.15460        0.19257        0.10238        0.26904        0.09489        0.05249        0.15022        0.12418        0.17541        0.18123       -0.07946       -0.58736       -0.96228
2.881052 2.852793 2.824679 2.796708 2.768881 2.741199 2.713660 2.686266 2.659016 2.631909 2.604947 2.578129 2.551455 2.524925 2.498539 2.472298 2.446200 2.420246 2.394437 2.368771 2.343250 2.317872 2.292639 2.267550 2.242605 2.217804 2.193147 2.168634 2.144266 2.120041 2.095960 2.072024 2.048231 2.024583 2.001079 1.977718 1.954502 1.931430 1.908502 1.885718 1.863079 1.840583 1.818231 1.796024 1.773960 1.752041 1.730265 1.708634 1.687147 1.665804 1.644605 1.972188 2.299096 1.689555 1.672301 1.353108 0.859831 1.206674 1.069791 1.107984 0.984188 1.556701 1.500402 1.501264 1.248000 0.927003 0.774197 1.006219 0.726160 0.432747 0.570660 0.655870 0.391782 0.462030 0.286107 0.273929 0.179926 0.164372 -0.078706 -0.029604 0.042422 0.042453 0.019145 0.125750 -0.054341 0.006329 0.119076 0.203006 0.242368 0.307969 0.337591 0.611462 0.498232 0.669554 0.889217 0.922727 0.910384 1.153603 1.153095 1.231145 1.319529 1.196332 1.412185 1.177378 1.166098 1.325608 1.129021 1.065803 1.185104 0.901170 0.690810 0.687996 0.726743 0.440159 0.387506 0.245453 0.214109 0.147929 0.006936 0.129527 0.017412 -0.076627 0.089606 0.216007 0.344976 0.479469 0.505779 0.523346 0.716468 0.784000 0.607326 0.974293 0.819641 0.664211 0.763165 0.723239 0.720506 0.697644 0.454892 0.499933 0.260433 0.198966 0.118401 -0.010370 0.057495 -0.077115 -0.044649 -0.020198 0.098829 -0.044210 0.210187 0.134824 0.204324 0.398898 0.466615 0.436481 0.393219 0.612639 0.622737 0.495645 0.350678 0.348612 0.329069 0.174931 0.086636 0.039302 0.024271 -0.024547 -0.037206 -0.031503 -0.110269 -0.006143 0.015172 0.113700 0.249173 0.231376 0.364330 0.350214 0.398135 0.348420 0.435268 0.359286 0.261967 0.337648 0.125975 0.186800 0.035688 0.074137 0.036251 0.027528 -0.043067 0.039460 0.061593 0.113783 0.232737 0.263575 0.226057 0.262315 0.340222 0.327536 0.330300 0.200146 0.116415 0.145693 0.070579 0.087854 -0.017064 -0.023345 0.089080 0.092739 0.103020 0.092844 0.120274 0.199670 0.207006 0.186766 0.168628 0.200066 0.138109 0.135120 0.070949 0.060680 0.090289 -0.035100 0.032693 0.059354 0.020632 0.126182 0.114245 0.184783 0.191780 0.133865 0.109096 0.184071 0.094602 0.032220 0.082167 0.031911 0.014015 0.060107 0.078513 0.044414 0.032209 0.127453 0.081761 0.113017 0.145871 0.110526 0.083744 0.045015 0.086357 0.059274 0.016122 -0.007838 -0.023875 0.009441 0.008413 0.043847 0.085691 0.001030 0.085840 0.149439 0.034581 0.074078 -0.038752 -0.004726 -0.019816 -0.049404 -0.060875 0.038931 0.052673 -0.044922 0.070664 0.043161 0.059900 0.054937 -0.006197 0.007411 0.086416 -0.024095 0.012154 -0.055393 -0.036176 -0.044630 0.052948 0.048109 0.039104 0.000373 0.103090 -0.002873 0.085944 -0.047160 -0.100474 0.032040 -0.023874 0.010174 -0.027021 0.100336 0.033026 0.064121 -0.002202 -0.123647 -0.038959 -0.100052 0.009215 0.013999 0.009167 -0.044998 -0.026977 -0.049544 -0.013004 -0.051169 -0.035003 -0.107492 -0.056832 -0.017134 -0.074348 0.002135 0.026236 -0.009699 -0.036572 0.021385 -0.033533 0.022800 -0.084244 -0.081265 -0.050361 0.047278 0.073274 0.089938 0.023049 -0.011439 0.054791 -0.029276 -0.077794 -0.000082 -0.062762 0.002406 0.065986 0.077977 -0.023548 0.107933 0.069257 0.192524 0.046484 0.017273 0.047776 0.054300 -0.111067 0.095423 -0.077852 0.083818 0.056436 0.000286 0.410934 0.086073 0.082270 0.302600 0.198941 0.239235 0.298714 -0.114661 -1.458135
0.072396 0.072835 0.074150 0.076342 0.079411 0.083355 0.088174 0.093866 0.100430 0.107864 0.116165 0.125331 0.135357 0.146240 0.157973 0.170551 0.183965 0.198207 0.213266 0.229132 0.245789 0.263222 0.281413 0.300343 0.319989 0.340324 0.361323 0.382951 0.405176 0.427959 0.451258 0.475028 0.499218 0.523774 0.548638 0.573746 0.599031 0.624418 0.649832 0.675187 0.700397 0.725367 0.750000 0.774190 0.797830 0.820805 0.842997 0.864282 0.884533 0.903617 0.921401 0.937744 0.952507 0.965546 0.976716 0.985872 0.992870 0.997565 0.999815 0.999482 0.996430 0.990531 0.981661 0.969707 0.954562 0.936133 0.914338 0.889108 0.860390 0.828149 0.792369 0.753051 0.710221 0.663927 0.614241 0.561263 0.505118 0.445961 0.383974 0.319371 0.252397 0.183324 0.112460 0.040140 0.033270 0.107376 0.181753 0.255954 0.329505 0.401911 0.472660 0.541222 0.607057 0.669617 0.728352 0.782714 0.832161 0.876168 0.914225 0.945852 0.970599 0.988056 0.997858 0.999696 0.993315 0.978531 0.955230 0.923377 0.883017 0.834289 0.777418 0.712729 0.640640 0.561669 0.476434 0.385645 0.290108 0.190717 0.088451 0.015637 0.120429 0.224750 0.327380 0.427072 0.522563 0.612592 0.695917 0.771335 0.837698 0.893937 0.939076 0.972256 0.992752 0.999992 0.993572 0.973274 0.939074 0.891158 0.829928 0.756004 0.670227 0.573656 0.467563 0.353418 0.232875 0.107755 0.019982 0.148262 0.274931 0.397787 0.514624 0.623268 0.721619 0.807701 0.879697 0.935999 0.975246 0.996360 0.998588 0.981523 0.945134 0.889781 0.816225 0.725630 0.619553 0.499929 0.369045 0.229503 0.084173 0.063857 0.211348 0.354974 0.491400 0.617365 0.729751 0.825681 0.902585 0.958287 0.991067 0.999731 0.983655 0.942829 0.877879 0.790074 0.681321 0.554134 0.411591 0.257272 0.095172 0.070387 0.234870 0.393655 0.542157 0.675971 0.790999 0.883591 0.950671 0.989849 0.999517 0.978934 0.928273 0.848650 0.742125 0.611665 0.461080 0.294929 0.118393 0.062878 0.242933 0.415721 0.575293 0.716011 0.832750 0.921110 0.977585 0.999724 0.986254 0.937165 0.853753 0.738612 0.595580 0.429635 0.246734 0.053623 0.142405 0.333778 0.512940 0.672649 0.806282 0.908121 0.973619 0.999622 0.984541 0.928474 0.833245 0.702383 0.541018 0.355713 0.154209 0.054874 0.262403 0.459114 0.636048 0.784949 0.898674 0.971563 0.999732 0.981319 0.916625 0.808167 0.660609 0.480608 0.276536 0.058115 0.164028 0.378866 0.575527 0.743847 0.874907 0.961542 0.998748 0.984016 0.917523 0.802200 0.643650 0.449911 0.231085 0.001159 0.234193 0.455113 0.651446 0.811876 0.926914 0.989497 0.995449 0.943806 0.836958 0.680581 0.483395 0.256719 0.013840 0.230724 0.462099 0.665964 0.829428 0.941908 0.995819 0.987153 0.915807 0.785691 0.604580 0.383682 0.137011 0.119484 0.368937 0.594656 0.781265 0.915772 0.988507 0.993876 0.930837 0.803079 0.618879 0.390620 0.134013 0.132953 0.391258 0.622178 0.808693 0.936745 0.996354 0.982450 0.895365 0.740925 0.530138 0.278474 0.004762 0.270159 0.525035 0.739842 0.897380 0.984697 0.994222 0.924472 0.780317 0.572718 0.317968 0.036464 0.248879 0.514474 0.738030 0.900439 0.987464 0.991051 0.910150 0.750949 0.526492 0.255691 0.038215 0.329609 0.592723 0.803921 0.943872 0.999372 0.964668 0.842141 0.642242 0.382700 0.087026 0.217567 0.502649 0.741216 0.910287 0.993182 0.981238 0.874810 0.683415 0.424975 0.124239 0.189539 0.485404 0.733758 0.909354
1.000000 1.000000 1.000000 1.000000 1.000000 1.000000 1.000000 1.000000 1.000000 1.000000 1.000000 1.000000 1.000000 1.000000 1.000000 1.000000 1.000000 1.000000 1.000000 1.000000 1.000000 1.000000 1.000000 1.000000 1.000000 1.000000 1.000000 1.000000 1.000000 1.000000 1.000000 1.000000 1.000000 1.000000 1.000000 1.000000 1.000000 1.000000 1.000000 1.000000 1.000000 1.000000 1.000000 1.000000 1.000000 1.000000 1.000000 1.000000 1.000000 1.000000 1.000000 1.000000 0.826929 0.826929 0.826929 0.826929 0.826929 0.826929 0.826929 0.804118 0.804118 0.804118 0.804118 0.804118 0.804118 0.804118 0.804118 0.804118 0.804118 0.804118 0.804118 0.804118 0.804118 0.804118 0.804118 0.804118 0.804118 0.804118 0.804118 0.804118 0.804118 0.804118 0.804118 0.804118 0.804118 0.804118 0.804118 0.804118 0.804118 0.804118 0.804118 0.804118 0.804118 0.804118 0.804118 0.804118 0.804118 0.804118 0.804118 0.804118 0.804118 0.804118 0.804118 0.948882 0.949697 0.950033 0.949059 0.947564 0.944015 0.942318 0.941518 0.944208 0.944431 0.944422 0.945385 0.945961 0.947541 0.948529 0.950424 0.950411 0.958567 0.962251 0.961973 0.961713 0.961451 0.972175 0.971667 0.971544 0.969018 0.969153 0.969124 0.969018 0.968922 0.968495 0.967987 0.968486 0.968365 0.967898 0.967167 0.965671 0.964976 0.964357 0.964703 0.965524 0.964266 0.964867 0.967572 0.966750 0.966668 0.965337 0.964538 0.960007 0.957923 0.955900 0.956187 0.957328 0.957193 0.956668 0.955559 0.955616 0.955547 0.954467 0.954319 0.953197 0.949219 0.949348 0.949313 0.950181 0.944985 0.934015 0.931807 0.929119 0.930228 0.933066 0.936145 0.936186 0.936289 0.933985 0.926558 0.921460 0.911281 0.909581 0.906593 0.910751 0.911235 0.912321 0.912097 0.912752 0.911257 0.910516 0.900045 0.903466 0.900737 0.898875 0.894434 0.893260 0.892662 0.894016 0.896297 0.891625 0.877843 0.872405 0.864756 0.837726 0.836133 0.838521 0.846999 0.846949 0.844616 0.842927 0.828063 0.824721 0.811739 0.804452 0.805991 0.806571 0.808638 0.810787 0.812758 0.807127 0.794864 0.788377 0.791893 0.801779 0.811921 0.817329 0.814444 0.809025 0.808490 0.771833 0.767895 0.770534 0.761787 0.766569 0.754236 0.754413 0.758154 0.757411 0.753403 0.751459 0.750070 0.726329 0.731831 0.736672 0.739747 0.741067 0.725990 0.719150 0.677897 0.679220 0.655631 0.665378 0.666745 0.669412 0.658071 0.665266 0.669282 0.662152 0.668703 0.666441 0.646458 0.633594 0.637986 0.645876 0.609484 0.621972 0.620765 0.611199 0.603007 0.612081 0.626324 0.625299 0.603591 0.602310 0.569285 0.535381 0.517974 0.502195 0.491953 0.479683 0.491902 0.490300 0.495708 0.469358 0.449766 0.400262 0.408053 0.408753 0.371108 0.376828 0.372737 0.343554 0.365659 0.350757 0.366291 0.338418 0.321087 0.298573 0.227664 0.207197 0.163497 0.184851 0.174355 0.160874 0.154689 0.155985 0.144367 0.095061 0.083324 0.084442 0.109099 0.091652 0.064591 0.078666 0.080491 0.070621 0.061637 0.060460 0.112152 0.087817 0.096930 0.097887 0.056646 0.033109 -0.025872 -0.015113 -0.009112 0.022346 0.047804 0.032021 0.003986 -0.082582 -0.050637 -0.011392 -0.011392 -0.011392 -0.011392 -0.011392 -0.011392 -0.011392 -0.011392 -0.011392 -0.011392 -0.011392 -0.092697 -0.092697 -0.092697 -0.092697 -0.092697 -0.092697 -0.092697 -0.092697 -0.092697 -0.092697 -0.092697 -0.092697 -0.092697 -0.092697 -0.092697 -0.092697 -0.092697 -0.092697 -0.092697
0.000000 0.000000 0.000000 0.000000 0.000000 0.000000 0.000000 0.000000 0.000000 0.000000 0.000000 0.000000 0.000000 0.000000 0.000000 0.000000 0.000000 0.000000 0.000000 0.000000 0.000000 0.000000 0.000000 0.000000 0.000000 0.000000 0.000000 0.000000 0.000000 0.000000 0.000000 0.000000 0.000000 0.000000 0.000000 0.000000 0.000000 0.000000 0.000000 0.000000 0.000000 0.000000 0.000000 0.000000 0.000000 0.000000 0.000000 0.000000 0.000000 0.000000 0.000000 0.000000 0.173422 0.173422 0.173422 0.173422 0.173422 0.173422 0.173422 0.191565 0.191565 0.191565 0.191565 0.191565 0.191565 0.191565 0.191565 0.191565 0.191565 0.191565 0.191565 0.191565 0.191565 0.191565 0.191565 0.191565 0.191565 0.191565 0.191565 0.191565 0.191565 0.191565 0.191565 0.191565 0.191565 0.191565 0.191565 0.191565 0.191565 0.191565 0.191565 0.191565 0.191565 0.191565 0.191565 0.191565 0.191565 0.191565 0.191565 0.191565 0.191565 0.191565 0.191565 0.219529 0.219529 0.219529 0.219529 0.219529 0.219529 0.219529 0.219529 0.219529 0.219529 0.219529 0.219529 0.219529 0.219529 0.219529 0.219529 0.219529 0.219529 0.219529 0.219529 0.219529 0.219529 0.219529 0.219529 0.219529 0.219529 0.219529 0.219529 0.219529 0.219529 0.219529 0.237356 0.237356 0.237356 0.237356 0.237356 0.237356 0.237356 0.237356 0.237356 0.237356 0.237356 0.237356 0.237356 0.237356 0.237356 0.237356 0.237356 0.237356 0.237356 0.237356 0.237356 0.237356 0.237356 0.237356 0.244339 0.244339 0.244339 0.244339 0.244339 0.244339 0.244339 0.244339 0.244339 0.244339 0.244339 0.244339 0.244339 0.244339 0.244339 0.244339 0.244339 0.244339 0.244339 0.244339 0.244339 0.248069 0.248069 0.248069 0.248069 0.248069 0.248069 0.248069 0.248069 0.248069 0.248069 0.248069 0.248069 0.248069 0.248069 0.248069 0.248069 0.248069 0.248069 0.248069 0.248069 0.248069 0.248069 0.248069 0.248069 0.248069 0.248069 0.248069 0.248069 0.248069 0.248069 0.248069 0.248069 0.248069 0.248069 0.248069 0.248069 0.248069 0.256074 0.256074 0.256074 0.256074 0.256074 0.256074 0.256074 0.256074 0.256074 0.256074 0.256074 0.256074 0.256074 0.256074 0.256074 0.256074 0.256074 0.256074 0.256074 0.256074 0.256074 0.256074 0.256074 0.256074 0.256074 0.256074 0.256074 0.256074 0.256074 0.256074 0.256074 0.256074 0.256074 0.256074 0.256074 0.256074 0.256074 0.256074 0.256074 0.256074 0.256074 0.256074 0.256074 0.256074 0.256074 0.260378 0.260378 0.260378 0.260378 0.260378 0.260378 0.260378 0.260378 0.260378 0.260378 0.260378 0.260378 0.260378 0.256074 0.256074 0.256074 0.256074 0.256074 0.256074 0.256074 0.256074 0.256074 0.256074 0.256074 0.256074 0.256074 0.260378 0.260378 0.260378 0.260378 0.260378 0.260378 0.260378 0.260378 0.260378 0.260378 0.260378 0.260378 0.251976 0.251976 0.251976 0.251976 0.251976 0.251976 0.251976 0.251976 0.251976 0.251976 0.251976 0.251976 0.256074 0.256074 0.256074 0.256074 0.256074 0.256074 0.256074 0.256074 0.256074 0.256074 0.256074 0.251976 0.251976 0.251976 0.251976 0.251976 0.251976 0.251976 0.251976 0.251976 0.251976 0.251976 0.248069 0.248069 0.248069 0.248069 0.248069 0.248069 0.248069 0.248069 0.248069 0.248069 0.248069 0.256074 0.256074 0.256074 0.256074 0.256074 0.256074 0.256074 0.256074 0.256074 0.256074 0.256074 0.256074 0.256074 0.256074 0.256074 0.256074 0.256074 0.256074 0.256074
