# Output from CTFFind version 4.1.9, run on 2019-11-02 17:43:39
# Input file: stack16_bm3d_averaged_1_0.5_0_50_half.mrc ; Number of micrographs: 1
# Pixel size: 3.000 Angstroms ; acceleration voltage: 300.0 keV ; spherical aberration: 0.00 mm ; amplitude contrast: 0.07
# Box size: 512 pixels ; min. res.: 30.0 Angstroms ; max. res.: 5.0 Angstroms ; min. def.: 5000.0 um; max. def. 50000.0 um; num. frames averaged: 1
# 6 lines per micrograph: #1 - spatial frequency (1/Angstroms); #2 - 1D rotational average of spectrum (assuming no astigmatism); #3 - 1D rotational average of spectrum; #4 - CTF fit; #5 - cross-correlation between spectrum and CTF fit; #6 - 2sigma of expected cross correlation of noise
0.000000 0.000651 0.001302 0.001953 0.002604 0.003255 0.003906 0.004557 0.005208 0.005859 0.006510 0.007161 0.007812 0.008464 0.009115 0.009766 0.010417 0.011068 0.011719 0.012370 0.013021 0.013672 0.014323 0.014974 0.015625 0.016276 0.016927 0.017578 0.018229 0.018880 0.019531 0.020182 0.020833 0.021484 0.022135 0.022786 0.023438 0.024089 0.024740 0.025391 0.026042 0.026693 0.027344 0.027995 0.028646 0.029297 0.029948 0.030599 0.031250 0.031901 0.032552 0.033203 0.033854 0.034505 0.035156 0.035807 0.036458 0.037109 0.037760 0.038411 0.039062 0.039714 0.040365 0.041016 0.041667 0.042318 0.042969 0.043620 0.044271 0.044922 0.045573 0.046224 0.046875 0.047526 0.048177 0.048828 0.049479 0.050130 0.050781 0.051432 0.052083 0.052734 0.053385 0.054036 0.054688 0.055339 0.055990 0.056641 0.057292 0.057943 0.058594 0.059245 0.059896 0.060547 0.061198 0.061849 0.062500 0.063151 0.063802 0.064453 0.065104 0.065755 0.066406 0.067057 0.067708 0.068359 0.069010 0.069661 0.070312 0.070964 0.071615 0.072266 0.072917 0.073568 0.074219 0.074870 0.075521 0.076172 0.076823 0.077474 0.078125 0.078776 0.079427 0.080078 0.080729 0.081380 0.082031 0.082682 0.083333 0.083984 0.084635 0.085286 0.085938 0.086589 0.087240 0.087891 0.088542 0.089193 0.089844 0.090495 0.091146 0.091797 0.092448 0.093099 0.093750 0.094401 0.095052 0.095703 0.096354 0.097005 0.097656 0.098307 0.098958 0.099609 0.100260 0.100911 0.101562 0.102214 0.102865 0.103516 0.104167 0.104818 0.105469 0.106120 0.106771 0.107422 0.108073 0.108724 0.109375 0.110026 0.110677 0.111328 0.111979 0.112630 0.113281 0.113932 0.114583 0.115234 0.115885 0.116536 0.117188 0.117839 0.118490 0.119141 0.119792 0.120443 0.121094 0.121745 0.122396 0.123047 0.123698 0.124349 0.125000 0.125651 0.126302 0.126953 0.127604 0.128255 0.128906 0.129557 0.130208 0.130859 0.131510 0.132161 0.132812 0.133464 0.134115 0.134766 0.135417 0.136068 0.136719 0.137370 0.138021 0.138672 0.139323 0.139974 0.140625 0.141276 0.141927 0.142578 0.143229 0.143880 0.144531 0.145182 0.145833 0.146484 0.147135 0.147786 0.148438 0.149089 0.149740 0.150391 0.151042 0.151693 0.152344 0.152995 0.153646 0.154297 0.154948 0.155599 0.156250 0.156901 0.157552 0.158203 0.158854 0.159505 0.160156 0.160807 0.161458 0.162109 0.162760 0.163411 0.164062 0.164714 0.165365 0.166016 0.166667 0.167318 0.167969 0.168620 0.169271 0.169922 0.170573 0.171224 0.171875 0.172526 0.173177 0.173828 0.174479 0.175130 0.175781 0.176432 0.177083 0.177734 0.178385 0.179036 0.179688 0.180339 0.180990 0.181641 0.182292 0.182943 0.183594 0.184245 0.184896 0.185547 0.186198 0.186849 0.187500 0.188151 0.188802 0.189453 0.190104 0.190755 0.191406 0.192057 0.192708 0.193359 0.194010 0.194661 0.195312 0.195964 0.196615 0.197266 0.197917 0.198568 0.199219 0.199870 0.200521 0.201172 0.201823 0.202474 0.203125 0.203776 0.204427 0.205078 0.205729 0.206380 0.207031 0.207682 0.208333 0.208984 0.209635 0.210286 0.210938 0.211589 0.212240 0.212891 0.213542 0.214193 0.214844 0.215495 0.216146 0.216797 0.217448 0.218099 0.218750 0.219401 0.220052 0.220703 0.221354 0.222005 0.222656 0.223307 0.223958 0.224609 0.225260 0.225911 0.226562 0.227214 0.227865 0.228516 0.229167 0.229818 0.230469 0.231120 0.231771 0.232422 0.233073 0.233724 0.234375 0.235026 0.235677
       0.34066        0.34066        0.34066        0.34066        0.34066        0.34066        0.34066        0.34066        0.34066        0.34066        0.34066        0.34066        0.34066        0.34066        0.34066        0.34066        0.34066        0.34066        0.34066        0.34066        0.34066        0.34066        0.34066        0.34066        0.34066        0.34066        0.34066        0.34066        0.34066        0.34066        0.34066        0.34066        0.34066        0.34066        0.34066        0.34066        0.34066        0.34066        0.34066        0.34066        0.34066        0.34066        0.34066        0.34066        0.34066        0.34066        0.34066        0.34066        0.34066        0.34066        0.34066        0.48747        0.70115        0.45433       -0.11532       -0.41443       -0.57512       -0.66727       -0.74909       -0.76770       -0.87164       -0.91812       -0.76170       -0.92745       -0.87453       -1.02653       -1.10118       -0.99171       -0.96620       -0.88577       -0.86350       -0.75335       -0.64393       -0.50355       -0.42864       -0.22194       -0.11815       -0.02196        0.20298        0.24307        0.30618        0.38057        0.43654        0.51475        0.57709        0.59317        0.58897        0.49855        0.54148        0.48493        0.38932        0.31717        0.20236        0.16841        0.10071       -0.06257       -0.10990       -0.09510        0.00795       -0.01674        0.01340        0.02534        0.20774        0.21813        0.39122        0.45456        0.55808        0.69259        0.75609        0.72824        0.70118        0.69779        0.57956        0.53724        0.39833        0.26891        0.18928        0.14282        0.06647        0.02290        0.02074        0.06194        0.07326        0.26730        0.41552        0.50628        0.58755        0.63734        0.70132        0.65832        0.64872        0.66736        0.60672        0.47794        0.28307        0.23498        0.20674        0.12767        0.04132        0.08855        0.12251        0.24760        0.33663        0.41460        0.49944        0.53561        0.66075        0.60758        0.55533        0.51175        0.36340        0.21083        0.21277        0.15045        0.11287        0.12168        0.21528        0.24936        0.35364        0.43984        0.43809        0.55932        0.50675        0.44629        0.45294        0.37999        0.32201        0.27367        0.21544        0.23505        0.20678        0.20460        0.31877        0.44886        0.48169        0.47857        0.54973        0.49314        0.45360        0.39085        0.29343        0.22306        0.23000        0.24112        0.26385        0.27723        0.32229        0.44053        0.49795        0.48407        0.45764        0.41256        0.38515        0.36055        0.24788        0.22157        0.24243        0.29222        0.35373        0.35872        0.38719        0.41150        0.44188        0.36957        0.34676        0.31120        0.30241        0.26735        0.25708        0.30290        0.34341        0.41232        0.41284        0.39369        0.39356        0.40330        0.34778        0.28789        0.29108        0.27901        0.30586        0.35744        0.36783        0.41688        0.35610        0.36684        0.38726        0.34577        0.31795        0.27895        0.29481        0.33756        0.32618        0.32204        0.36982        0.38732        0.32854        0.35080        0.29748        0.30615        0.28411        0.28196        0.29774        0.33028        0.38375        0.36273        0.34402        0.32386        0.28245        0.27444        0.29420        0.28102        0.31107        0.36453        0.39263        0.33583        0.31761        0.30742        0.29628        0.27977        0.28117        0.29852        0.33716        0.33941        0.33748        0.31124        0.34416        0.31959        0.28773        0.31555        0.31932        0.32973        0.34111        0.31794        0.31360        0.30479        0.32375        0.30831        0.33258        0.38300        0.32654        0.36050        0.31892        0.31188        0.29185        0.30911        0.28909        0.30470        0.31190        0.34538        0.35569        0.31452        0.32029        0.31448        0.29062        0.28779        0.29002        0.32596        0.34583        0.35415        0.32945        0.32076        0.25815        0.25762        0.31610        0.34196        0.32459        0.30201        0.28238        0.28461        0.32047        0.30824        0.31233        0.33447        0.34117        0.30264        0.23802        0.29095        0.27924        0.28393        0.32035        0.31812        0.33924        0.33885        0.27853        0.26734        0.29343        0.27463        0.29082        0.27520        0.25112        0.26283        0.24502        0.28128        0.28017        0.27517        0.25948        0.31867        0.32198        0.31281        0.27672        0.29696        0.24465        0.26455        0.25471        0.33787        0.34739        0.23045        0.24790        0.26202        0.23710        0.24223        0.29232        0.21906        0.14522        0.17390        0.24728        0.27174        0.22482        0.12138        0.04372       -0.43246       -0.76945
3.158225 3.118569 3.079170 3.040027 3.001141 2.962510 2.924135 2.886017 2.848155 2.810549 2.773199 2.736105 2.699267 2.662686 2.626361 2.590291 2.554478 2.518921 2.483621 2.448576 2.413788 2.379256 2.344979 2.310959 2.277195 2.243688 2.210436 2.177441 2.144702 2.112218 2.079991 2.048021 2.016306 1.984848 1.953645 1.922699 1.892009 1.861575 1.831397 1.801476 1.771810 1.742401 1.713248 1.684351 1.655710 1.627325 1.599197 1.571324 1.543708 1.516348 1.489244 1.547277 1.735784 1.647014 0.989713 0.707095 0.496572 0.446472 0.338995 0.277335 0.214723 0.032114 0.211205 0.092445 0.002533 -0.047989 -0.193658 -0.146280 -0.086254 -0.085562 -0.092533 0.016071 0.034849 0.241181 0.152543 0.368928 0.453397 0.487058 0.724354 0.708415 0.714448 0.844101 0.827499 0.861649 0.926803 0.898054 0.944703 0.753964 0.838218 0.844140 0.623564 0.603362 0.453525 0.432123 0.382668 0.205772 0.118037 0.092558 0.199689 0.140656 0.191101 0.103059 0.296860 0.289941 0.452939 0.408835 0.576047 0.634171 0.755443 0.689545 0.655282 0.658323 0.521770 0.495426 0.358073 0.282055 0.104562 0.131137 -0.007308 -0.025809 -0.052742 -0.039783 -0.017298 0.016201 0.263912 0.321196 0.375209 0.389859 0.456082 0.483125 0.439453 0.483700 0.379337 0.368712 0.129984 0.048405 0.052424 -0.026011 -0.151347 -0.069210 -0.132866 -0.005295 0.111179 0.136107 0.235336 0.234951 0.361637 0.444650 0.330823 0.370800 0.259618 0.102738 0.028645 0.025975 -0.012034 -0.020595 -0.015028 0.084384 0.102706 0.238954 0.216795 0.286281 0.343347 0.225433 0.227510 0.203572 0.117442 0.066948 0.035060 0.015465 0.025316 -0.031630 0.011289 0.174355 0.213604 0.234279 0.275820 0.224285 0.255854 0.151379 0.114873 -0.012938 -0.012780 0.005769 0.023067 0.020994 0.039826 0.114049 0.202732 0.215730 0.212218 0.136620 0.144160 0.079831 0.057984 -0.061469 -0.019129 -0.006820 0.056398 0.066096 0.073574 0.151474 0.085044 0.173516 0.071512 0.048590 0.048227 0.029472 0.004513 0.006205 0.051425 0.084301 0.131562 0.134568 0.074906 0.134450 0.100256 0.019189 0.010318 0.009092 -0.003017 0.056955 0.063003 0.103959 0.097547 0.079987 0.067259 0.081777 0.037656 0.019053 -0.015975 0.013885 0.056289 0.026102 0.037185 0.088866 0.080579 0.056507 0.034135 0.013453 0.016666 -0.007111 -0.006848 0.013415 0.062931 0.097165 0.066024 0.056940 0.041083 -0.013788 -0.000934 0.015760 0.014884 0.028651 0.091153 0.124106 0.040606 0.045497 0.002490 0.028571 -0.012105 0.004241 0.022124 0.063966 0.045698 0.042192 0.027521 0.055362 0.027413 -0.001682 0.034021 0.041113 0.038146 0.048322 0.021575 0.008502 -0.009599 0.029123 0.004574 0.046180 0.072369 0.041541 0.029769 0.005431 0.003048 -0.005210 0.008581 0.001212 0.007864 -0.008326 0.072424 0.047041 0.034827 0.042744 0.001838 0.009647 0.004445 -0.006190 0.055360 0.061740 0.082733 0.041823 0.047004 -0.028184 0.003475 0.041845 0.074778 0.037757 0.023370 0.004899 0.000327 0.046689 0.049160 0.040423 0.070524 0.067488 0.048234 -0.023760 0.024497 0.039235 0.024906 0.044170 0.071891 0.081890 0.067849 0.017001 0.006994 0.020493 0.007031 0.014518 -0.009988 -0.018883 -0.011249 -0.054815 0.007819 -0.005535 0.006872 -0.058865 -0.002510 0.013738 0.002877 -0.041428 0.023814 -0.066622 -0.038553 -0.040113 0.044480 0.072674 -0.103893 -0.027379 0.030722 0.008078 -0.045679 0.042314 0.020140 0.001014 -0.033550 0.072701 0.236720 0.204403 0.066750 0.042291 -0.681416
0.072396 0.073046 0.074993 0.078239 0.082782 0.088620 0.095752 0.104173 0.113881 0.124870 0.137134 0.150665 0.165451 0.181481 0.198739 0.217208 0.236864 0.257682 0.279631 0.302677 0.326778 0.351887 0.377952 0.404911 0.432697 0.461234 0.490437 0.520211 0.550454 0.581051 0.611878 0.642801 0.673673 0.704336 0.734623 0.764351 0.793331 0.821360 0.848223 0.873699 0.897554 0.919548 0.939432 0.956951 0.971849 0.983862 0.992731 0.998195 0.999998 0.997894 0.991644 0.981023 0.965825 0.945863 0.920976 0.891031 0.855927 0.815602 0.770033 0.719247 0.663314 0.602362 0.536576 0.466199 0.391537 0.312964 0.230917 0.145904 0.058497 0.030663 0.120872 0.211364 0.301319 0.389863 0.476080 0.559019 0.637706 0.711149 0.778360 0.838361 0.890203 0.932984 0.965860 0.988069 0.998947 0.997944 0.984644 0.958783 0.920261 0.869162 0.805763 0.730543 0.644194 0.547621 0.441946 0.328497 0.208807 0.084595 0.042252 0.169702 0.295609 0.417744 0.533836 0.641615 0.738859 0.823443 0.893388 0.946918 0.982510 0.998941 0.995341 0.971229 0.926555 0.861722 0.777612 0.675587 0.557491 0.425630 0.282745 0.131962 0.023259 0.179199 0.331964 0.477581 0.612103 0.731716 0.832861 0.912347 0.967464 0.996090 0.996788 0.968887 0.912543 0.828780 0.719502 0.587482 0.436316 0.270348 0.094566 0.085538 0.264123 0.435189 0.592778 0.731188 0.845191 0.930247 0.982706 0.999990 0.980738 0.924924 0.833914 0.710484 0.558775 0.384187 0.193223 0.006738 0.207702 0.401372 0.579491 0.734207 0.858426 0.946170 0.992891 0.995744 0.953787 0.868115 0.741890 0.580281 0.390303 0.180551 0.039159 0.258229 0.465775 0.651176 0.804634 0.917714 0.983847 0.998758 0.960783 0.871069 0.733621 0.555193 0.345012 0.114357 0.124019 0.356565 0.569699 0.750615 0.888079 0.973165 0.999894 0.965710 0.871768 0.722998 0.527931 0.298282 0.048301 0.206068 0.448183 0.661796 0.832162 0.947101 0.997931 0.980194 0.894115 0.744749 0.541788 0.299021 0.033462 0.235792 0.488908 0.706785 0.872527 0.972808 0.999020 0.948100 0.822953 0.632419 0.390755 0.116662 0.168095 0.440382 0.677571 0.859446 0.969997 0.998907 0.942623 0.804872 0.596568 0.335067 0.042816 0.254489 0.530145 0.758837 0.919017 0.995018 0.978693 0.870410 0.679271 0.422501 0.124016 0.187715 0.482325 0.730518 0.907022 0.993249 0.979381 0.865621 0.662465 0.389893 0.075553 0.247952 0.546398 0.787569 0.944791 0.999997 0.945957 0.787369 0.540660 0.232466 0.103113 0.428210 0.705428 0.902201 0.994718 0.970958 0.832430 0.594346 0.284154 0.061470 0.400847 0.692303 0.899321 0.995227 0.966801 0.816288 0.561510 0.233970 0.124862 0.468722 0.752465 0.938083 0.999918 0.928413 0.731797 0.435407 0.078640 0.290116 0.619981 0.864620 0.988857 0.973927 0.820543 0.549260 0.197978 0.183153 0.538774 0.816357 0.974046 0.987169 0.852333 0.588441 0.234330 0.156728 0.524888 0.812886 0.975040 0.984688 0.838846 0.559218 0.189274 0.212269 0.580645 0.855466 0.990750 0.962855 0.774899 0.456818 0.060940 0.346424 0.695993 0.927304 0.999388 0.898287 0.640082 0.268708 0.151217 0.545475 0.843312 0.990268 0.958402 0.751934 0.407140 0.013647 0.433092 0.772958 0.968807 0.982426 0.809656 0.481867 0.060662 0.373418 0.736159 0.956094 0.988791 0.826203 0.498993 0.071174 0.372095 0.741343 0.960884 0.984589 0.805962 0.460256 0.017971 0.429234 0.787391 0.980064 0.964959 0.743614 0.361920 0.098940 0.539494
1.000000 1.000000 1.000000 1.000000 1.000000 1.000000 1.000000 1.000000 1.000000 1.000000 1.000000 1.000000 1.000000 1.000000 1.000000 1.000000 1.000000 1.000000 1.000000 1.000000 1.000000 1.000000 1.000000 1.000000 1.000000 1.000000 1.000000 1.000000 1.000000 1.000000 1.000000 1.000000 1.000000 1.000000 1.000000 1.000000 1.000000 1.000000 1.000000 1.000000 1.000000 1.000000 1.000000 1.000000 1.000000 1.000000 1.000000 1.000000 1.000000 1.000000 1.000000 1.000000 0.943469 0.943469 0.943469 0.943469 0.943469 0.943469 0.943469 0.943469 0.943469 0.943469 0.943469 0.943469 0.943469 0.943469 0.943469 0.943469 0.943469 0.943469 0.943469 0.943469 0.943469 0.943469 0.943469 0.943469 0.943469 0.943469 0.943469 0.943469 0.943469 0.943469 0.943469 0.943469 0.943469 0.924701 0.926137 0.929078 0.930141 0.930106 0.929653 0.929329 0.929523 0.931210 0.933498 0.950183 0.952287 0.952936 0.954250 0.954709 0.957698 0.956615 0.959500 0.968494 0.967501 0.967749 0.968172 0.969674 0.970046 0.970018 0.968803 0.969103 0.968728 0.967913 0.967077 0.966773 0.966477 0.968090 0.968409 0.968319 0.968736 0.968492 0.968152 0.967906 0.967976 0.969221 0.970833 0.970640 0.977010 0.977443 0.984985 0.984812 0.983218 0.983121 0.983184 0.983281 0.974890 0.969332 0.964699 0.953892 0.944935 0.942251 0.944192 0.944592 0.943227 0.938541 0.937770 0.936043 0.931990 0.931303 0.929370 0.930796 0.925448 0.921160 0.903110 0.900944 0.903166 0.902983 0.901171 0.893523 0.888717 0.889291 0.892127 0.895191 0.892423 0.894864 0.891471 0.892798 0.893676 0.895519 0.898464 0.895446 0.893908 0.889509 0.886318 0.881247 0.882657 0.867374 0.870786 0.858358 0.845219 0.836976 0.840381 0.850807 0.859942 0.868204 0.866953 0.867304 0.867273 0.860664 0.861939 0.853184 0.853771 0.858565 0.864811 0.860802 0.858670 0.864000 0.861847 0.865270 0.868338 0.864808 0.862528 0.853956 0.854651 0.854786 0.872271 0.870828 0.858847 0.851933 0.842053 0.848750 0.853770 0.852448 0.853337 0.847701 0.850104 0.841038 0.826609 0.829297 0.834559 0.832547 0.833920 0.832829 0.836959 0.837726 0.837407 0.834148 0.833480 0.849647 0.832110 0.838666 0.843448 0.841015 0.844503 0.839274 0.832804 0.826442 0.822922 0.823074 0.831872 0.827653 0.799483 0.794287 0.801836 0.782198 0.782073 0.764906 0.750075 0.734107 0.723567 0.704106 0.700895 0.682934 0.675602 0.683669 0.665465 0.669868 0.661701 0.658149 0.666266 0.643991 0.638152 0.633092 0.595327 0.612397 0.607714 0.602558 0.597602 0.604446 0.612441 0.576750 0.572805 0.576368 0.553049 0.550981 0.550691 0.544758 0.519609 0.529260 0.511929 0.526241 0.564956 0.532975 0.513778 0.522584 0.540821 0.553746 0.552627 0.535160 0.509398 0.523087 0.495380 0.482514 0.496847 0.500266 0.485044 0.505640 0.501447 0.536830 0.532421 0.509030 0.532545 0.550286 0.555430 0.550318 0.562855 0.539796 0.543522 0.530043 0.474938 0.492887 0.474355 0.422136 0.430859 0.444149 0.437445 0.437746 0.420296 0.414730 0.390835 0.357507 0.365898 0.357071 0.324950 0.291757 0.293802 0.296651 0.264032 0.233858 0.254443 0.201875 0.191018 0.207009 0.218430 0.211190 0.212740 0.235424 0.235424 0.235424 0.235424 0.235424 0.235424 0.235424 0.235424 0.235424 0.235424 0.235424 0.235424 0.235424 0.235424 0.262605 0.262605 0.262605 0.262605 0.262605 0.262605 0.262605 0.262605 0.262605 0.262605 0.262605 0.262605
0.000000 0.000000 0.000000 0.000000 0.000000 0.000000 0.000000 0.000000 0.000000 0.000000 0.000000 0.000000 0.000000 0.000000 0.000000 0.000000 0.000000 0.000000 0.000000 0.000000 0.000000 0.000000 0.000000 0.000000 0.000000 0.000000 0.000000 0.000000 0.000000 0.000000 0.000000 0.000000 0.000000 0.000000 0.000000 0.000000 0.000000 0.000000 0.000000 0.000000 0.000000 0.000000 0.000000 0.000000 0.000000 0.000000 0.000000 0.000000 0.000000 0.000000 0.000000 0.000000 0.209657 0.209657 0.209657 0.209657 0.209657 0.209657 0.209657 0.209657 0.209657 0.209657 0.209657 0.209657 0.209657 0.209657 0.209657 0.209657 0.209657 0.209657 0.209657 0.209657 0.209657 0.209657 0.209657 0.209657 0.209657 0.209657 0.209657 0.209657 0.209657 0.209657 0.209657 0.209657 0.209657 0.244339 0.244339 0.244339 0.244339 0.244339 0.244339 0.244339 0.244339 0.244339 0.244339 0.244339 0.244339 0.244339 0.244339 0.244339 0.244339 0.244339 0.244339 0.244339 0.244339 0.244339 0.244339 0.244339 0.244339 0.244339 0.260378 0.260378 0.260378 0.260378 0.260378 0.260378 0.260378 0.260378 0.260378 0.260378 0.260378 0.260378 0.260378 0.260378 0.260378 0.260378 0.260378 0.260378 0.260378 0.260378 0.269680 0.269680 0.269680 0.269680 0.269680 0.269680 0.269680 0.269680 0.269680 0.269680 0.269680 0.269680 0.269680 0.269680 0.269680 0.269680 0.269680 0.269680 0.269680 0.269680 0.269680 0.269680 0.269680 0.269680 0.269680 0.269680 0.269680 0.269680 0.269680 0.269680 0.269680 0.269680 0.269680 0.280056 0.280056 0.280056 0.280056 0.280056 0.280056 0.280056 0.280056 0.280056 0.280056 0.280056 0.280056 0.280056 0.280056 0.280056 0.280056 0.280056 0.280056 0.280056 0.280056 0.280056 0.280056 0.280056 0.280056 0.280056 0.280056 0.280056 0.274721 0.274721 0.274721 0.274721 0.274721 0.274721 0.274721 0.274721 0.274721 0.274721 0.274721 0.274721 0.274721 0.285714 0.285714 0.285714 0.285714 0.285714 0.285714 0.285714 0.285714 0.285714 0.285714 0.285714 0.280056 0.280056 0.280056 0.280056 0.280056 0.280056 0.280056 0.280056 0.280056 0.280056 0.280056 0.274721 0.274721 0.274721 0.274721 0.274721 0.274721 0.274721 0.274721 0.274721 0.274721 0.274721 0.280056 0.280056 0.280056 0.280056 0.280056 0.280056 0.280056 0.280056 0.280056 0.280056 0.274721 0.274721 0.274721 0.274721 0.274721 0.274721 0.274721 0.274721 0.274721 0.274721 0.280056 0.280056 0.280056 0.280056 0.280056 0.280056 0.280056 0.280056 0.280056 0.274721 0.274721 0.274721 0.274721 0.274721 0.274721 0.274721 0.274721 0.274721 0.285714 0.285714 0.285714 0.285714 0.285714 0.285714 0.285714 0.285714 0.264906 0.264906 0.264906 0.264906 0.264906 0.264906 0.264906 0.264906 0.264906 0.274721 0.274721 0.274721 0.274721 0.274721 0.274721 0.274721 0.274721 0.269680 0.269680 0.269680 0.269680 0.269680 0.269680 0.269680 0.269680 0.269680 0.269680 0.269680 0.269680 0.269680 0.269680 0.269680 0.269680 0.280056 0.280056 0.280056 0.280056 0.280056 0.280056 0.280056 0.260378 0.260378 0.260378 0.260378 0.260378 0.260378 0.260378 0.260378 0.269680 0.269680 0.269680 0.269680 0.269680 0.269680 0.269680 0.264906 0.264906 0.264906 0.264906 0.264906 0.264906 0.264906 0.264906 0.264906 0.264906 0.264906 0.264906 0.264906 0.264906 0.260378 0.260378 0.260378 0.260378 0.260378 0.260378 0.260378 0.260378 0.260378 0.260378 0.260378 0.260378
