# Output from CTFFind version 4.1.9, run on 2019-11-03 20:02:48
# Input file: stack11_bm3d_averaged_1_10_0_50_half.mrc ; Number of micrographs: 1
# Pixel size: 3.000 Angstroms ; acceleration voltage: 300.0 keV ; spherical aberration: 0.00 mm ; amplitude contrast: 0.07
# Box size: 512 pixels ; min. res.: 30.0 Angstroms ; max. res.: 5.0 Angstroms ; min. def.: 5000.0 um; max. def. 50000.0 um; num. frames averaged: 1
# 6 lines per micrograph: #1 - spatial frequency (1/Angstroms); #2 - 1D rotational average of spectrum (assuming no astigmatism); #3 - 1D rotational average of spectrum; #4 - CTF fit; #5 - cross-correlation between spectrum and CTF fit; #6 - 2sigma of expected cross correlation of noise
0.000000 0.000651 0.001302 0.001953 0.002604 0.003255 0.003906 0.004557 0.005208 0.005859 0.006510 0.007161 0.007812 0.008464 0.009115 0.009766 0.010417 0.011068 0.011719 0.012370 0.013021 0.013672 0.014323 0.014974 0.015625 0.016276 0.016927 0.017578 0.018229 0.018880 0.019531 0.020182 0.020833 0.021484 0.022135 0.022786 0.023438 0.024089 0.024740 0.025391 0.026042 0.026693 0.027344 0.027995 0.028646 0.029297 0.029948 0.030599 0.031250 0.031901 0.032552 0.033203 0.033854 0.034505 0.035156 0.035807 0.036458 0.037109 0.037760 0.038411 0.039062 0.039714 0.040365 0.041016 0.041667 0.042318 0.042969 0.043620 0.044271 0.044922 0.045573 0.046224 0.046875 0.047526 0.048177 0.048828 0.049479 0.050130 0.050781 0.051432 0.052083 0.052734 0.053385 0.054036 0.054688 0.055339 0.055990 0.056641 0.057292 0.057943 0.058594 0.059245 0.059896 0.060547 0.061198 0.061849 0.062500 0.063151 0.063802 0.064453 0.065104 0.065755 0.066406 0.067057 0.067708 0.068359 0.069010 0.069661 0.070312 0.070964 0.071615 0.072266 0.072917 0.073568 0.074219 0.074870 0.075521 0.076172 0.076823 0.077474 0.078125 0.078776 0.079427 0.080078 0.080729 0.081380 0.082031 0.082682 0.083333 0.083984 0.084635 0.085286 0.085938 0.086589 0.087240 0.087891 0.088542 0.089193 0.089844 0.090495 0.091146 0.091797 0.092448 0.093099 0.093750 0.094401 0.095052 0.095703 0.096354 0.097005 0.097656 0.098307 0.098958 0.099609 0.100260 0.100911 0.101562 0.102214 0.102865 0.103516 0.104167 0.104818 0.105469 0.106120 0.106771 0.107422 0.108073 0.108724 0.109375 0.110026 0.110677 0.111328 0.111979 0.112630 0.113281 0.113932 0.114583 0.115234 0.115885 0.116536 0.117188 0.117839 0.118490 0.119141 0.119792 0.120443 0.121094 0.121745 0.122396 0.123047 0.123698 0.124349 0.125000 0.125651 0.126302 0.126953 0.127604 0.128255 0.128906 0.129557 0.130208 0.130859 0.131510 0.132161 0.132812 0.133464 0.134115 0.134766 0.135417 0.136068 0.136719 0.137370 0.138021 0.138672 0.139323 0.139974 0.140625 0.141276 0.141927 0.142578 0.143229 0.143880 0.144531 0.145182 0.145833 0.146484 0.147135 0.147786 0.148438 0.149089 0.149740 0.150391 0.151042 0.151693 0.152344 0.152995 0.153646 0.154297 0.154948 0.155599 0.156250 0.156901 0.157552 0.158203 0.158854 0.159505 0.160156 0.160807 0.161458 0.162109 0.162760 0.163411 0.164062 0.164714 0.165365 0.166016 0.166667 0.167318 0.167969 0.168620 0.169271 0.169922 0.170573 0.171224 0.171875 0.172526 0.173177 0.173828 0.174479 0.175130 0.175781 0.176432 0.177083 0.177734 0.178385 0.179036 0.179688 0.180339 0.180990 0.181641 0.182292 0.182943 0.183594 0.184245 0.184896 0.185547 0.186198 0.186849 0.187500 0.188151 0.188802 0.189453 0.190104 0.190755 0.191406 0.192057 0.192708 0.193359 0.194010 0.194661 0.195312 0.195964 0.196615 0.197266 0.197917 0.198568 0.199219 0.199870 0.200521 0.201172 0.201823 0.202474 0.203125 0.203776 0.204427 0.205078 0.205729 0.206380 0.207031 0.207682 0.208333 0.208984 0.209635 0.210286 0.210938 0.211589 0.212240 0.212891 0.213542 0.214193 0.214844 0.215495 0.216146 0.216797 0.217448 0.218099 0.218750 0.219401 0.220052 0.220703 0.221354 0.222005 0.222656 0.223307 0.223958 0.224609 0.225260 0.225911 0.226562 0.227214 0.227865 0.228516 0.229167 0.229818 0.230469 0.231120 0.231771 0.232422 0.233073 0.233724 0.234375 0.235026 0.235677
       0.34933        0.34933        0.34933        0.34933        0.34933        0.34933        0.34933        0.34933        0.34933        0.34933        0.34933        0.34933        0.34933        0.34933        0.34933        0.34933        0.34933        0.34933        0.34933        0.34933        0.34933        0.34933        0.34933        0.34934        0.34933        0.34933        0.34933        0.34933        0.34933        0.34934        0.34933        0.34933        0.34933        0.34933        0.34933        0.34933        0.34933        0.34933        0.34934        0.34933        0.34933        0.34933        0.34933        0.34934        0.34933        0.34933        0.34934        0.34933        0.34933        0.34933        0.34933        0.70149        0.85798        0.54068        0.10659       -0.02790       -0.37920       -0.17743       -0.28756       -0.11653       -0.05302       -0.11260       -0.05225       -0.16032       -0.20191       -0.20949       -0.30311       -0.31392       -0.43859       -0.35992       -0.42004       -0.41612       -0.38876       -0.39809       -0.43752       -0.50038       -0.55475       -0.54151       -0.51463       -0.35010       -0.31785       -0.28416       -0.26398       -0.18152       -0.16467        0.06562        0.14871        0.18310        0.27173        0.38222        0.45960        0.52547        0.60670        0.60392        0.58895        0.70353        0.80123        0.70177        0.74724        0.61750        0.56998        0.48681        0.43821        0.51433        0.40221        0.28178        0.12257        0.12184        0.10394       -0.00423        0.05718        0.06110        0.02123        0.03165        0.04041        0.23702        0.27374        0.29830        0.43884        0.45666        0.41792        0.60758        0.61539        0.62873        0.72100        0.67553        0.64849        0.65347        0.56059        0.45908        0.42031        0.30901        0.28106        0.19228        0.14100        0.05394        0.07423        0.08728        0.10492        0.16755        0.25202        0.30682        0.43373        0.46850        0.48305        0.56135        0.60198        0.63797        0.61136        0.55553        0.46616        0.47410        0.37956        0.28522        0.21859        0.15807        0.17953        0.15797        0.17309        0.20363        0.33109        0.34658        0.41557        0.45333        0.42494        0.47799        0.56603        0.55877        0.50899        0.45933        0.41843        0.38016        0.34942        0.31761        0.27552        0.25269        0.26735        0.26305        0.23131        0.31560        0.37089        0.38570        0.44144        0.45678        0.46628        0.43196        0.41745        0.40491        0.36868        0.34955        0.27855        0.29058        0.27505        0.25715        0.30397        0.30090        0.35797        0.39148        0.44366        0.47808        0.40735        0.42372        0.43341        0.41634        0.35446        0.33523        0.29446        0.33416        0.28324        0.33168        0.32271        0.34067        0.34876        0.37085        0.31124        0.38709        0.41297        0.38472        0.35573        0.37051        0.32336        0.30158        0.31491        0.32092        0.31127        0.32328        0.35273        0.36589        0.34558        0.36421        0.36198        0.43250        0.39800        0.34548        0.35386        0.30318        0.30208        0.33231        0.32398        0.33433        0.34867        0.35117        0.39355        0.33393        0.33352        0.34094        0.35668        0.30571        0.31498        0.28770        0.30534        0.33859        0.30563        0.33841        0.36583        0.38045        0.30551        0.35333        0.30516        0.29199        0.28201        0.25308        0.31587        0.31510        0.34494        0.34245        0.35169        0.33242        0.35180        0.32139        0.34799        0.30473        0.33245        0.30213        0.34323        0.34329        0.38420        0.34028        0.33919        0.33612        0.29681        0.28224        0.31854        0.25709        0.23666        0.34046        0.32897        0.37467        0.35221        0.36950        0.34355        0.33550        0.35912        0.27248        0.27916        0.32430        0.30179        0.31471        0.31173        0.34191        0.33001        0.28971        0.29711        0.34683        0.32616        0.33123        0.31207        0.32109        0.33802        0.38931        0.37264        0.32921        0.29065        0.30681        0.29393        0.31751        0.28739        0.28113        0.31281        0.32538        0.34882        0.35851        0.33762        0.30213        0.30676        0.27879        0.28749        0.26050        0.30599        0.25638        0.25860        0.28242        0.27536        0.25827        0.29325        0.22839        0.22932        0.23462        0.20055        0.28259        0.35945        0.25977        0.25796        0.32073        0.29631        0.30589        0.31744        0.28402        0.26418        0.20039        0.21382        0.22757        0.30927        0.23910        0.28193        0.37398        0.39427        0.27084        0.21333        0.16579       -0.01315       -0.16878       -0.63883
2.722289 2.693369 2.664608 2.636004 2.607557 2.579267 2.551135 2.523161 2.495344 2.467685 2.440183 2.412838 2.385651 2.358622 2.331750 2.305035 2.278478 2.252079 2.225837 2.199752 2.173825 2.148056 2.122443 2.096989 2.071692 2.046552 2.021570 1.996745 1.972078 1.947568 1.923216 1.899021 1.874984 1.851104 1.827382 1.803817 1.780410 1.757160 1.734068 1.711133 1.688355 1.665735 1.643273 1.620968 1.598821 1.576831 1.554998 1.533323 1.511806 1.490446 1.469243 1.679148 2.092901 1.663151 1.152703 1.018427 0.442405 0.820817 0.538813 0.813599 0.790223 0.789539 0.728452 0.734588 0.577959 0.542452 0.484303 0.410707 0.242287 0.346380 0.191089 0.318860 0.207012 0.205900 0.180808 0.040204 -0.004415 0.017635 -0.068837 0.128954 0.225935 0.182856 0.175700 0.310338 0.175937 0.506133 0.605308 0.620737 0.635765 0.846988 0.808702 0.913160 0.917122 1.008251 0.981750 1.044440 1.155201 1.008945 1.135055 0.879832 0.899104 0.773239 0.636187 0.786676 0.670122 0.488255 0.324741 0.243784 0.265398 0.146195 0.140400 0.164047 0.107939 0.109940 0.084704 0.237553 0.332635 0.327641 0.462923 0.526177 0.401927 0.577831 0.710640 0.610354 0.698280 0.681439 0.695984 0.620058 0.575213 0.465822 0.349972 0.269067 0.213879 0.095259 0.111363 -0.121859 -0.048900 -0.060851 -0.084319 -0.016223 0.122757 0.070429 0.239333 0.298393 0.325048 0.354358 0.474439 0.432746 0.466652 0.467832 0.292427 0.280765 0.274192 0.081574 0.045032 -0.082558 -0.019108 -0.062068 -0.095718 -0.058451 0.040010 0.093242 0.123704 0.222424 0.211489 0.211802 0.299898 0.325034 0.434436 0.244093 0.223500 0.221423 0.138013 0.141682 0.119080 -0.003849 0.014815 0.080956 -0.013778 0.040848 0.129868 0.129076 0.201664 0.225383 0.237611 0.156377 0.203568 0.124925 0.111431 0.118155 0.021626 -0.026492 -0.001960 -0.021323 -0.048077 0.054618 0.000252 0.104432 0.134314 0.190594 0.145359 0.117675 0.132479 0.149351 0.104431 0.030117 -0.027192 0.020740 0.032406 -0.046461 0.042537 0.016191 0.045707 0.038896 0.051144 0.011606 0.121403 0.107951 0.042567 0.031175 0.037595 0.002082 -0.028464 0.006216 -0.001772 -0.007863 -0.001805 0.062167 0.052345 0.035651 0.063373 0.059294 0.165884 0.064305 0.041827 0.043112 -0.035036 0.015321 0.048573 0.007295 0.030477 0.056018 0.074137 0.066129 0.040341 0.007561 0.077337 0.033090 0.014821 0.026808 -0.003314 0.028996 0.029015 0.018103 0.071304 0.077030 0.081084 0.041967 0.057137 0.017123 0.015277 -0.028861 -0.022247 0.040027 0.051449 0.074824 0.074665 0.064022 0.067542 0.088893 0.037816 0.078069 0.046032 0.046754 0.014806 0.103135 0.064323 0.128249 0.062812 0.059348 0.076564 0.021296 0.001509 0.080050 -0.037878 -0.034556 0.077693 0.040388 0.150973 0.089311 0.074330 0.063915 0.016007 0.078444 -0.020821 -0.023562 0.037338 0.020878 0.023554 0.001920 0.103133 0.013401 -0.019861 0.046346 0.028941 0.049190 0.051299 -0.002789 0.041519 0.038332 0.100029 0.064935 0.030169 -0.028740 -0.038614 -0.003516 0.014294 -0.056319 -0.016044 -0.006603 0.020607 0.024685 0.062829 0.003978 -0.030000 -0.022354 -0.015860 -0.055777 -0.042949 -0.044576 -0.126139 -0.087481 -0.073699 -0.108696 -0.116511 -0.036553 -0.148534 -0.089095 -0.123561 -0.199548 -0.069249 0.062144 -0.079687 -0.121195 0.045007 0.004175 -0.036756 0.060753 -0.024423 -0.002972 -0.078018 -0.048408 0.057296 0.146377 0.043049 0.121452 0.148169 0.502632 0.305496 0.361451 0.200407 -0.017118 -0.695081
0.072396 0.072899 0.074409 0.076924 0.080445 0.084970 0.090498 0.097028 0.104557 0.113083 0.122602 0.133110 0.144602 0.157070 0.170508 0.184906 0.200253 0.216537 0.233741 0.251849 0.270841 0.290694 0.311382 0.332874 0.355139 0.378138 0.401830 0.426169 0.451104 0.476580 0.502533 0.528899 0.555602 0.582565 0.609701 0.636919 0.664120 0.691198 0.718042 0.744531 0.770541 0.795938 0.820583 0.844331 0.867029 0.888520 0.908642 0.927228 0.944106 0.959101 0.972037 0.982736 0.991020 0.996710 0.999631 0.999613 0.996488 0.990098 0.980291 0.966929 0.949884 0.929043 0.904311 0.875610 0.842886 0.806105 0.765262 0.720379 0.671505 0.618725 0.562156 0.501951 0.438301 0.371433 0.301617 0.229160 0.154412 0.077762 0.000360 0.079485 0.159108 0.238688 0.317652 0.395395 0.471289 0.544687 0.614923 0.681324 0.743214 0.799919 0.850781 0.895159 0.932442 0.962059 0.983484 0.996249 0.999953 0.994272 0.978965 0.953889 0.919000 0.874366 0.820172 0.756723 0.684451 0.603916 0.515809 0.420947 0.320273 0.214849 0.105849 0.005451 0.117685 0.229414 0.339139 0.445324 0.546417 0.640872 0.727173 0.803866 0.869577 0.923050 0.963165 0.988971 0.999711 0.994845 0.974071 0.937346 0.884901 0.817249 0.735192 0.639825 0.532526 0.414947 0.288996 0.156812 0.020736 0.116729 0.252961 0.385261 0.510917 0.627253 0.731691 0.821814 0.895425 0.950609 0.985789 0.999780 0.991836 0.961686 0.909565 0.836232 0.742977 0.631610 0.504447 0.364267 0.214266 0.057993 0.100727 0.257883 0.409377 0.551134 0.679207 0.789903 0.879889 0.946307 0.986877 0.999983 0.984756 0.941124 0.869855 0.772563 0.651695 0.510493 0.352920 0.183567 0.007528 0.169742 0.342589 0.505349 0.652522 0.778981 0.880150 0.952191 0.992159 0.998149 0.969397 0.906355 0.810720 0.685419 0.534541 0.363241 0.177566 0.015725 0.209414 0.396071 0.568351 0.719288 0.842583 0.932890 0.986065 0.999381 0.971694 0.903544 0.797194 0.656587 0.487240 0.296056 0.091059 0.118917 0.324604 0.516702 0.686312 0.825353 0.926972 0.985904 0.998783 0.964355 0.883615 0.759830 0.598453 0.406917 0.194329 0.028933 0.251719 0.462654 0.650713 0.805827 0.919429 0.984969 0.998320 0.958085 0.865752 0.725699 0.545042 0.333318 0.102014 0.136023 0.367289 0.578385 0.756805 0.891699 0.974564 0.999826 0.965259 0.872219 0.725667 0.533958 0.308426 0.062751 0.187840 0.427501 0.640770 0.813579 0.934222 0.994182 0.988788 0.917636 0.784733 0.598343 0.370533 0.116466 0.146601 0.400448 0.627148 0.810366 0.936557 0.996023 0.983717 0.899736 0.749449 0.543233 0.295833 0.025365 0.247992 0.503451 0.721230 0.884105 0.978813 0.997204 0.937008 0.802175 0.602706 0.353990 0.075697 0.209732 0.478881 0.709275 0.881282 0.979843 0.995863 0.927129 0.778669 0.562493 0.296708 0.004083 0.289868 0.559074 0.779241 0.930089 0.997268 0.973831 0.861030 0.668403 0.413064 0.118287 0.188562 0.478518 0.723767 0.900334 0.990498 0.984667 0.882493 0.693124 0.434498 0.131756 0.185138 0.484310 0.735188 0.911666 0.994895 0.975391 0.854238 0.643197 0.363706 0.044797 0.279845 0.575391 0.809642 0.956574 0.999327 0.932263 0.761821 0.506065 0.192887 0.142930 0.463510 0.732165 0.917618 0.997743 0.962323 0.814485 0.570617 0.258685 0.084841 0.419194 0.704117 0.904758 0.996011 0.965795 0.816793 0.566429 0.244969 0.107988 0.448326 0.732915 0.925103 0.999557 0.945730 0.769523 0.492830 0.151005 0.211573
1.000000 1.000000 1.000000 1.000000 1.000000 1.000000 1.000000 1.000000 1.000000 1.000000 1.000000 1.000000 1.000000 1.000000 1.000000 1.000000 1.000000 1.000000 1.000000 1.000000 1.000000 1.000000 1.000000 1.000000 1.000000 1.000000 1.000000 1.000000 1.000000 1.000000 1.000000 1.000000 1.000000 1.000000 1.000000 1.000000 1.000000 1.000000 1.000000 1.000000 1.000000 1.000000 1.000000 1.000000 1.000000 1.000000 1.000000 1.000000 1.000000 1.000000 1.000000 1.000000 0.914359 0.914359 0.914359 0.911668 0.911668 0.911668 0.911668 0.911668 0.911668 0.911668 0.911668 0.911668 0.911668 0.911668 0.911668 0.911668 0.911668 0.911668 0.911668 0.911668 0.911668 0.911668 0.911668 0.911668 0.911668 0.911668 0.911668 0.911668 0.911668 0.911668 0.911668 0.911668 0.911668 0.911668 0.911668 0.911668 0.911668 0.911668 0.911668 0.911668 0.911668 0.911668 0.911668 0.911668 0.940009 0.941411 0.949803 0.949288 0.948752 0.946815 0.945531 0.945333 0.945254 0.945610 0.946345 0.947338 0.953532 0.954466 0.958847 0.961582 0.961557 0.963323 0.965325 0.964983 0.956814 0.956552 0.955094 0.954397 0.956521 0.955212 0.954030 0.954524 0.952225 0.956387 0.955985 0.954819 0.953226 0.951677 0.948155 0.947736 0.947487 0.948298 0.948387 0.949966 0.952991 0.951321 0.951432 0.948766 0.948327 0.949541 0.949200 0.950910 0.938925 0.938051 0.936398 0.936340 0.938928 0.938714 0.938611 0.939563 0.939275 0.939200 0.939216 0.933462 0.933360 0.926679 0.922096 0.921130 0.915142 0.911002 0.913779 0.916819 0.917857 0.918280 0.907915 0.905121 0.906201 0.904877 0.906167 0.907560 0.908808 0.909160 0.909095 0.904094 0.895266 0.893846 0.882768 0.885453 0.880600 0.877831 0.875109 0.867315 0.859068 0.870534 0.857629 0.811875 0.815436 0.820061 0.813077 0.808976 0.813095 0.813952 0.818897 0.813436 0.812663 0.805810 0.790983 0.789273 0.784161 0.769237 0.763124 0.753235 0.742775 0.736772 0.759701 0.753380 0.765476 0.769064 0.768401 0.764005 0.753337 0.740966 0.741673 0.742500 0.737885 0.713650 0.705867 0.705374 0.704762 0.690148 0.692264 0.681448 0.681864 0.667047 0.672719 0.678864 0.682386 0.676829 0.669323 0.660881 0.655703 0.669945 0.682298 0.672787 0.669541 0.683682 0.675121 0.670921 0.661470 0.663867 0.654517 0.655008 0.652947 0.688902 0.663598 0.653521 0.659820 0.661412 0.656561 0.654301 0.631974 0.626555 0.602011 0.619951 0.624512 0.639558 0.643751 0.649063 0.660374 0.667538 0.677901 0.683395 0.678696 0.637552 0.643688 0.663692 0.671814 0.663728 0.654481 0.644190 0.627055 0.663899 0.642478 0.604748 0.598728 0.603577 0.560279 0.543098 0.540584 0.539040 0.567895 0.568460 0.554609 0.530946 0.532829 0.529468 0.520671 0.519639 0.506356 0.510623 0.493743 0.473039 0.489208 0.496894 0.495879 0.479847 0.471080 0.483752 0.468513 0.486239 0.471081 0.458124 0.473561 0.473833 0.466062 0.392761 0.400309 0.396502 0.377615 0.337322 0.345404 0.356073 0.333650 0.259892 0.255847 0.256574 0.252271 0.224298 0.198633 0.184422 0.177606 0.156812 0.092090 0.040837 0.044693 0.047965 0.074403 0.037546 0.096107 0.168687 0.160777 0.160777 0.160777 0.160777 0.160777 0.160777 0.160777 0.160777 0.140638 0.140638 0.140638 0.140638 0.140638 0.140638 0.140638 0.140638 0.140638 0.160777 0.160777 0.160777 0.160777 0.160777 0.160777 0.160777 0.160777 0.160777 0.160777 0.160777 0.160777 0.160777 0.160777
0.000000 0.000000 0.000000 0.000000 0.000000 0.000000 0.000000 0.000000 0.000000 0.000000 0.000000 0.000000 0.000000 0.000000 0.000000 0.000000 0.000000 0.000000 2.000000 0.000000 0.000000 0.000000 0.000000 0.000000 0.000000 0.000000 0.000000 0.000000 0.000000 0.000000 0.000000 0.000000 0.000000 0.000000 0.000000 0.000000 0.000000 0.000000 0.000000 0.000000 0.000000 0.000000 0.000000 0.000000 0.000000 0.000000 0.000000 0.000000 0.000000 0.000000 0.000000 0.000000 0.180334 0.180334 0.180334 0.199007 0.199007 0.199007 0.199007 0.199007 0.199007 0.199007 0.199007 0.199007 0.199007 0.199007 0.199007 0.199007 0.199007 0.199007 0.199007 0.199007 0.199007 0.199007 0.199007 0.199007 0.199007 0.199007 0.199007 0.199007 0.199007 0.199007 0.199007 0.199007 0.199007 0.199007 0.199007 0.199007 0.199007 0.199007 0.199007 0.199007 0.199007 0.199007 0.199007 0.199007 0.225018 0.225018 0.225018 0.225018 0.225018 0.225018 0.225018 0.225018 0.225018 0.225018 0.225018 0.225018 0.225018 0.225018 0.225018 0.225018 0.225018 0.225018 0.225018 0.225018 0.225018 0.225018 0.225018 0.225018 0.225018 0.225018 0.225018 0.225018 0.225018 0.244339 0.244339 0.244339 0.244339 0.244339 0.244339 0.244339 0.244339 0.244339 0.244339 0.244339 0.244339 0.244339 0.244339 0.244339 0.244339 0.244339 0.244339 0.244339 0.244339 0.244339 0.244339 0.244339 0.256074 0.256074 0.256074 0.256074 0.256074 0.256074 0.256074 0.256074 0.256074 0.256074 0.256074 0.256074 0.256074 0.256074 0.256074 0.256074 0.256074 0.256074 0.256074 0.256074 0.256074 0.256074 0.256074 0.256074 0.256074 0.256074 0.256074 0.256074 0.256074 0.256074 0.256074 0.256074 0.256074 0.256074 0.256074 0.256074 0.256074 0.264906 0.264906 0.264906 0.264906 0.264906 0.264906 0.264906 0.264906 0.264906 0.264906 0.264906 0.264906 0.264906 0.264906 0.264906 0.264906 0.264906 0.264906 0.264906 0.264906 0.264906 0.264906 0.264906 0.264906 0.264906 0.264906 0.264906 0.264906 0.264906 0.264906 0.264906 0.264906 0.264906 0.264906 0.264906 0.264906 0.264906 0.264906 0.264906 0.264906 0.264906 0.264906 0.264906 0.264906 0.264906 0.264906 0.264906 0.264906 0.264906 0.264906 0.264906 0.264906 0.264906 0.264906 0.264906 0.264906 0.264906 0.264906 0.260378 0.260378 0.260378 0.260378 0.260378 0.260378 0.260378 0.260378 0.260378 0.260378 0.260378 0.260378 0.260378 0.264906 0.264906 0.264906 0.264906 0.264906 0.264906 0.264906 0.264906 0.264906 0.264906 0.264906 0.264906 0.269680 0.269680 0.269680 0.269680 0.269680 0.269680 0.269680 0.269680 0.269680 0.269680 0.269680 0.264906 0.264906 0.264906 0.264906 0.264906 0.264906 0.264906 0.264906 0.264906 0.264906 0.264906 0.256074 0.256074 0.256074 0.256074 0.256074 0.256074 0.256074 0.256074 0.256074 0.256074 0.256074 0.264906 0.264906 0.264906 0.264906 0.264906 0.264906 0.264906 0.264906 0.264906 0.264906 0.260378 0.260378 0.260378 0.260378 0.260378 0.260378 0.260378 0.260378 0.260378 0.260378 0.264906 0.264906 0.264906 0.264906 0.264906 0.264906 0.264906 0.264906 0.264906 0.251976 0.251976 0.251976 0.251976 0.251976 0.251976 0.251976 0.251976 0.251976 0.251976 0.256074 0.256074 0.256074 0.256074 0.256074 0.256074 0.256074 0.256074 0.256074 0.251976 0.251976 0.251976 0.251976 0.251976 0.251976 0.251976 0.251976 0.251976 0.251976 0.251976 0.251976 0.251976 0.251976
