# Output from CTFFind version 4.1.9, run on 2019-11-03 20:04:06
# Input file: stack11_bm3d_averaged_1_7.0_0_250_half.mrc ; Number of micrographs: 1
# Pixel size: 3.000 Angstroms ; acceleration voltage: 300.0 keV ; spherical aberration: 0.00 mm ; amplitude contrast: 0.07
# Box size: 512 pixels ; min. res.: 30.0 Angstroms ; max. res.: 5.0 Angstroms ; min. def.: 5000.0 um; max. def. 50000.0 um; num. frames averaged: 1
# 6 lines per micrograph: #1 - spatial frequency (1/Angstroms); #2 - 1D rotational average of spectrum (assuming no astigmatism); #3 - 1D rotational average of spectrum; #4 - CTF fit; #5 - cross-correlation between spectrum and CTF fit; #6 - 2sigma of expected cross correlation of noise
0.000000 0.000651 0.001302 0.001953 0.002604 0.003255 0.003906 0.004557 0.005208 0.005859 0.006510 0.007161 0.007812 0.008464 0.009115 0.009766 0.010417 0.011068 0.011719 0.012370 0.013021 0.013672 0.014323 0.014974 0.015625 0.016276 0.016927 0.017578 0.018229 0.018880 0.019531 0.020182 0.020833 0.021484 0.022135 0.022786 0.023438 0.024089 0.024740 0.025391 0.026042 0.026693 0.027344 0.027995 0.028646 0.029297 0.029948 0.030599 0.031250 0.031901 0.032552 0.033203 0.033854 0.034505 0.035156 0.035807 0.036458 0.037109 0.037760 0.038411 0.039062 0.039714 0.040365 0.041016 0.041667 0.042318 0.042969 0.043620 0.044271 0.044922 0.045573 0.046224 0.046875 0.047526 0.048177 0.048828 0.049479 0.050130 0.050781 0.051432 0.052083 0.052734 0.053385 0.054036 0.054688 0.055339 0.055990 0.056641 0.057292 0.057943 0.058594 0.059245 0.059896 0.060547 0.061198 0.061849 0.062500 0.063151 0.063802 0.064453 0.065104 0.065755 0.066406 0.067057 0.067708 0.068359 0.069010 0.069661 0.070312 0.070964 0.071615 0.072266 0.072917 0.073568 0.074219 0.074870 0.075521 0.076172 0.076823 0.077474 0.078125 0.078776 0.079427 0.080078 0.080729 0.081380 0.082031 0.082682 0.083333 0.083984 0.084635 0.085286 0.085938 0.086589 0.087240 0.087891 0.088542 0.089193 0.089844 0.090495 0.091146 0.091797 0.092448 0.093099 0.093750 0.094401 0.095052 0.095703 0.096354 0.097005 0.097656 0.098307 0.098958 0.099609 0.100260 0.100911 0.101562 0.102214 0.102865 0.103516 0.104167 0.104818 0.105469 0.106120 0.106771 0.107422 0.108073 0.108724 0.109375 0.110026 0.110677 0.111328 0.111979 0.112630 0.113281 0.113932 0.114583 0.115234 0.115885 0.116536 0.117188 0.117839 0.118490 0.119141 0.119792 0.120443 0.121094 0.121745 0.122396 0.123047 0.123698 0.124349 0.125000 0.125651 0.126302 0.126953 0.127604 0.128255 0.128906 0.129557 0.130208 0.130859 0.131510 0.132161 0.132812 0.133464 0.134115 0.134766 0.135417 0.136068 0.136719 0.137370 0.138021 0.138672 0.139323 0.139974 0.140625 0.141276 0.141927 0.142578 0.143229 0.143880 0.144531 0.145182 0.145833 0.146484 0.147135 0.147786 0.148438 0.149089 0.149740 0.150391 0.151042 0.151693 0.152344 0.152995 0.153646 0.154297 0.154948 0.155599 0.156250 0.156901 0.157552 0.158203 0.158854 0.159505 0.160156 0.160807 0.161458 0.162109 0.162760 0.163411 0.164062 0.164714 0.165365 0.166016 0.166667 0.167318 0.167969 0.168620 0.169271 0.169922 0.170573 0.171224 0.171875 0.172526 0.173177 0.173828 0.174479 0.175130 0.175781 0.176432 0.177083 0.177734 0.178385 0.179036 0.179688 0.180339 0.180990 0.181641 0.182292 0.182943 0.183594 0.184245 0.184896 0.185547 0.186198 0.186849 0.187500 0.188151 0.188802 0.189453 0.190104 0.190755 0.191406 0.192057 0.192708 0.193359 0.194010 0.194661 0.195312 0.195964 0.196615 0.197266 0.197917 0.198568 0.199219 0.199870 0.200521 0.201172 0.201823 0.202474 0.203125 0.203776 0.204427 0.205078 0.205729 0.206380 0.207031 0.207682 0.208333 0.208984 0.209635 0.210286 0.210938 0.211589 0.212240 0.212891 0.213542 0.214193 0.214844 0.215495 0.216146 0.216797 0.217448 0.218099 0.218750 0.219401 0.220052 0.220703 0.221354 0.222005 0.222656 0.223307 0.223958 0.224609 0.225260 0.225911 0.226562 0.227214 0.227865 0.228516 0.229167 0.229818 0.230469 0.231120 0.231771 0.232422 0.233073 0.233724 0.234375 0.235026 0.235677
       0.34546        0.34546        0.34546        0.34546        0.34546        0.34546        0.34546        0.34546        0.34546        0.34546        0.34546        0.34546        0.34546        0.34546        0.34546        0.34546        0.34546        0.34546        0.34546        0.34546        0.34546        0.34546        0.34546        0.34546        0.34546        0.34546        0.34546        0.34546        0.34546        0.34546        0.34546        0.34546        0.34546        0.34546        0.34546        0.34546        0.34546        0.34546        0.34546        0.34546        0.34546        0.34546        0.34546        0.34546        0.34546        0.34546        0.34546        0.34546        0.34546        0.34546        0.34546        0.69921        0.85732        0.53825        0.10529       -0.02908       -0.38478       -0.17973       -0.28838       -0.11633       -0.05506       -0.11299       -0.05342       -0.16566       -0.20523       -0.21318       -0.30655       -0.31791       -0.44310       -0.36176       -0.42509       -0.42025       -0.39294       -0.40527       -0.44513       -0.50620       -0.55806       -0.54826       -0.52227       -0.35542       -0.32455       -0.28994       -0.26991       -0.18537       -0.16912        0.06214        0.14321        0.17676        0.26717        0.38146        0.45788        0.52327        0.60188        0.59892        0.58504        0.70061        0.80289        0.70237        0.74437        0.61873        0.56853        0.48369        0.43333        0.51248        0.39834        0.27332        0.11772        0.11485        0.09552       -0.01188        0.04701        0.05413        0.01348        0.02836        0.03257        0.23676        0.27176        0.29660        0.43590        0.45408        0.41517        0.60125        0.61782        0.63393        0.72325        0.67558        0.64729        0.65569        0.56009        0.46013        0.41900        0.30450        0.27197        0.18598        0.13715        0.05264        0.06760        0.07774        0.10068        0.16140        0.24667        0.29980        0.42430        0.46595        0.48158        0.56357        0.60173        0.63653        0.61442        0.55785        0.46265        0.47343        0.37892        0.27894        0.21319        0.15658        0.17404        0.15430        0.16309        0.19291        0.32485        0.33962        0.40923        0.44791        0.42540        0.47958        0.56359        0.55574        0.50394        0.45764        0.41459        0.37438        0.34340        0.31086        0.26657        0.24774        0.25705        0.25788        0.22721        0.31125        0.36567        0.38481        0.43931        0.45610        0.46739        0.42837        0.41349        0.40234        0.36390        0.33977        0.27536        0.28312        0.26999        0.24878        0.29738        0.29481        0.35330        0.38411        0.43661        0.47686        0.40687        0.42263        0.43285        0.41256        0.35117        0.33010        0.29327        0.32805        0.27715        0.32525        0.31704        0.33469        0.34290        0.36593        0.31337        0.38801        0.41196        0.38150        0.35284        0.36959        0.31991        0.29644        0.30937        0.32017        0.30876        0.32105        0.34649        0.35895        0.34151        0.36426        0.36268        0.42498        0.39160        0.34098        0.35018        0.30059        0.29563        0.32764        0.32086        0.33142        0.34442        0.34469        0.38885        0.33147        0.33055        0.33935        0.35054        0.30526        0.31352        0.28346        0.30362        0.33265        0.30474        0.33316        0.36003        0.37243        0.30030        0.34498        0.30073        0.29283        0.27977        0.24793        0.30904        0.30865        0.34349        0.34052        0.34607        0.32874        0.35002        0.31614        0.34662        0.30607        0.32707        0.29412        0.33812        0.33272        0.37461        0.33286        0.33730        0.33721        0.29367        0.27702        0.31370        0.25142        0.23051        0.34129        0.32454        0.36891        0.34839        0.36448        0.33712        0.33440        0.35278        0.26708        0.27105        0.32032        0.30177        0.31167        0.31435        0.33978        0.32941        0.28889        0.29179        0.34619        0.32288        0.32363        0.30061        0.32193        0.33792        0.39278        0.36496        0.32147        0.28391        0.30380        0.29064        0.30912        0.27981        0.27311        0.31315        0.32924        0.34605        0.35684        0.33301        0.29673        0.30215        0.27237        0.27983        0.25757        0.30648        0.26016        0.25023        0.28836        0.28351        0.26262        0.29420        0.22101        0.21739        0.23838        0.19503        0.27531        0.35028        0.25455        0.24632        0.31913        0.30092        0.30916        0.31429        0.27496        0.25322        0.19501        0.21121        0.20990        0.28618        0.23713        0.28431        0.36572        0.37354        0.25674        0.18290        0.13084       -0.01521       -0.13590       -0.62850
2.811285 2.781444 2.751764 2.722247 2.692893 2.663702 2.634672 2.605806 2.577102 2.548560 2.520181 2.491965 2.463911 2.436019 2.408290 2.380724 2.353320 2.326079 2.299000 2.272084 2.245330 2.218739 2.192310 2.166044 2.139941 2.114000 2.088221 2.062605 2.037152 2.011861 1.986732 1.961766 1.936963 1.912322 1.887844 1.863528 1.839375 1.815385 1.791557 1.767891 1.744388 1.721047 1.697869 1.674854 1.652001 1.629310 1.606783 1.584417 1.562214 1.540174 1.518297 1.736719 2.163895 1.718330 1.195030 1.057498 0.456426 0.853235 0.562674 0.848100 0.818674 0.821355 0.759825 0.759225 0.599341 0.563222 0.503320 0.428451 0.250462 0.364963 0.199441 0.331386 0.218762 0.211788 0.186226 0.041915 0.000888 0.018878 -0.070383 0.133787 0.234174 0.189345 0.180473 0.324859 0.184197 0.524366 0.628070 0.638585 0.655468 0.881108 0.839732 0.948374 0.945966 1.042428 1.012650 1.094768 1.177520 1.049301 1.173247 0.914240 0.934283 0.800592 0.657512 0.813636 0.698262 0.500460 0.335301 0.252705 0.271817 0.150003 0.139321 0.167426 0.110086 0.118960 0.083786 0.249014 0.351142 0.342529 0.479400 0.547336 0.418473 0.597783 0.735460 0.646645 0.722491 0.712842 0.722279 0.648191 0.598468 0.491239 0.368078 0.278028 0.220812 0.093043 0.116575 -0.118433 -0.049474 -0.063588 -0.085287 -0.017924 0.128679 0.071836 0.243884 0.308839 0.337584 0.373561 0.497080 0.466457 0.480224 0.491382 0.305862 0.294052 0.287561 0.086591 0.046101 -0.082857 -0.016178 -0.063212 -0.097616 -0.069746 0.040695 0.095709 0.127230 0.227085 0.223255 0.220002 0.315925 0.342430 0.447558 0.256703 0.232808 0.227900 0.144004 0.145868 0.120164 -0.004611 0.014899 0.078067 -0.010917 0.044849 0.134199 0.135686 0.213334 0.233898 0.253482 0.167758 0.212115 0.128965 0.125715 0.115621 0.026860 -0.026582 -0.001281 -0.020622 -0.051997 0.055869 0.003919 0.106879 0.138614 0.194879 0.163630 0.117358 0.140450 0.159601 0.110038 0.035488 -0.026172 0.027907 0.029562 -0.044542 0.038888 0.019884 0.048108 0.039639 0.055337 0.018702 0.139142 0.117732 0.046289 0.036483 0.041577 0.004807 -0.031016 0.008222 0.003424 -0.004863 0.002451 0.058021 0.053783 0.038528 0.073156 0.061665 0.165606 0.064477 0.042351 0.043997 -0.034725 0.012917 0.048203 0.008220 0.033014 0.056821 0.078330 0.058745 0.042400 0.008639 0.080663 0.028636 0.021020 0.025797 -0.005200 0.032759 0.027749 0.021498 0.070580 0.076132 0.080691 0.042955 0.054625 0.023304 0.018933 -0.026621 -0.023925 0.038319 0.053712 0.081511 0.081924 0.067627 0.071674 0.097904 0.043496 0.090487 0.057091 0.046017 0.018860 0.105518 0.063879 0.126886 0.064131 0.071105 0.096166 0.030361 0.003046 0.085761 -0.039777 -0.029303 0.092824 0.043551 0.159634 0.091843 0.088600 0.065336 0.029887 0.089811 -0.027954 -0.024882 0.046598 0.031596 0.031415 0.015979 0.101645 0.029425 -0.014437 0.049156 0.039758 0.053391 0.055829 -0.009338 0.055735 0.048622 0.116137 0.059475 0.027775 -0.030064 -0.029574 -0.004672 0.008822 -0.057984 -0.020969 -0.000103 0.006563 0.042670 0.059892 0.004914 -0.032417 -0.029101 -0.018561 -0.066250 -0.045695 -0.036187 -0.131245 -0.095181 -0.061579 -0.096862 -0.107123 -0.028121 -0.154006 -0.104253 -0.116457 -0.196013 -0.070752 0.061349 -0.075464 -0.135457 0.050556 0.025943 -0.028293 0.071291 -0.024372 -0.004134 -0.084882 -0.041197 0.048394 0.132645 0.052592 0.137587 0.167393 0.440148 0.240901 0.329837 0.166615 -0.020809 -0.704470
0.072396 0.072899 0.074408 0.076923 0.080443 0.084967 0.090493 0.097022 0.104549 0.113072 0.122589 0.133094 0.144582 0.157048 0.170482 0.184876 0.200220 0.216499 0.233699 0.251803 0.270790 0.290638 0.311320 0.332807 0.355067 0.378060 0.401747 0.426081 0.451011 0.476481 0.502429 0.528789 0.555488 0.582446 0.609578 0.636792 0.663990 0.691066 0.717907 0.744395 0.770405 0.795802 0.820448 0.844198 0.866900 0.888396 0.908524 0.927117 0.944004 0.959010 0.971959 0.982672 0.990971 0.996679 0.999620 0.999624 0.996523 0.990159 0.980380 0.967048 0.950035 0.929228 0.904531 0.875867 0.843181 0.806440 0.765638 0.720796 0.671964 0.619226 0.562699 0.502535 0.438925 0.372096 0.302316 0.229893 0.155176 0.078554 0.000456 0.078652 0.158262 0.237835 0.316797 0.394547 0.470455 0.543875 0.614141 0.680582 0.742519 0.799282 0.850210 0.894664 0.932032 0.961742 0.983269 0.996143 0.999964 0.994405 0.979227 0.954282 0.919528 0.875029 0.820969 0.757651 0.685506 0.605093 0.517098 0.422338 0.321753 0.216403 0.107461 0.003801 0.116016 0.227748 0.337501 0.443737 0.544906 0.639463 0.725891 0.802736 0.868623 0.922293 0.962627 0.988669 0.999659 0.995055 0.974550 0.938097 0.885921 0.818531 0.736725 0.641590 0.534500 0.417102 0.291298 0.159223 0.023213 0.114232 0.250491 0.382871 0.508658 0.625177 0.729847 0.820250 0.894185 0.949730 0.985305 0.999715 0.992206 0.962497 0.910814 0.837904 0.745045 0.634039 0.507188 0.367262 0.217450 0.061289 0.097399 0.254608 0.406246 0.548232 0.676623 0.787715 0.878171 0.945122 0.986274 0.999998 0.985406 0.942411 0.871758 0.775044 0.654697 0.513937 0.356712 0.187598 0.011677 0.165604 0.338599 0.501639 0.649226 0.776221 0.878035 0.950810 0.991582 0.998417 0.970524 0.908325 0.813484 0.688895 0.538623 0.367789 0.182425 0.010736 0.204480 0.391388 0.564109 0.715666 0.839743 0.930966 0.985159 0.999557 0.972971 0.905897 0.800547 0.660823 0.492198 0.301535 0.096830 0.113105 0.319011 0.511587 0.681920 0.821906 0.924652 0.984849 0.999071 0.966005 0.886578 0.763992 0.603636 0.412884 0.200802 0.022273 0.245209 0.456630 0.645502 0.801720 0.916668 0.983731 0.998706 0.960109 0.869338 0.730683 0.551177 0.340284 0.109434 0.128563 0.360220 0.572125 0.751739 0.888150 0.972776 0.999942 0.967312 0.876125 0.731221 0.540852 0.316254 0.071039 0.179609 0.419856 0.634213 0.808563 0.931104 0.993206 0.990061 0.921118 0.790230 0.605520 0.378933 0.125524 0.137501 0.391940 0.619850 0.804819 0.933193 0.995127 0.985401 0.903924 0.755878 0.551467 0.305289 0.035343 0.238234 0.494671 0.714124 0.879255 0.976641 0.997929 0.940626 0.808449 0.611173 0.364006 0.086469 0.199079 0.469231 0.701452 0.875977 0.977546 0.996823 0.931321 0.785786 0.571965 0.307748 0.015744 0.278611 0.549236 0.771730 0.925622 0.996305 0.976518 0.867180 0.677500 0.424308 0.130653 0.176229 0.467393 0.714941 0.894693 0.988645 0.986845 0.888552 0.702526 0.446358 0.144922 0.171975 0.472485 0.725936 0.905979 0.993417 0.978341 0.861376 0.653836 0.376771 0.058927 0.266146 0.563617 0.801099 0.952246 0.999756 0.937472 0.771306 0.518821 0.207530 0.128035 0.450056 0.721716 0.911427 0.996592 0.966419 0.823425 0.583415 0.273878 0.069034 0.404665 0.692639 0.897769 0.994433 0.969898 0.826153 0.579954 0.261030 0.091374 0.433257 0.721324 0.918523 0.998903 0.951169 0.780434 0.507864 0.168237 0.194384
1.000000 1.000000 1.000000 1.000000 1.000000 1.000000 1.000000 1.000000 1.000000 1.000000 1.000000 1.000000 1.000000 1.000000 1.000000 1.000000 1.000000 1.000000 1.000000 1.000000 1.000000 1.000000 1.000000 1.000000 1.000000 1.000000 1.000000 1.000000 1.000000 1.000000 1.000000 1.000000 1.000000 1.000000 1.000000 1.000000 1.000000 1.000000 1.000000 1.000000 1.000000 1.000000 1.000000 1.000000 1.000000 1.000000 1.000000 1.000000 1.000000 1.000000 1.000000 1.000000 0.915094 0.915094 0.915094 0.911219 0.911219 0.911219 0.911219 0.911219 0.911219 0.911219 0.911219 0.911219 0.911219 0.911219 0.911219 0.911219 0.911219 0.911219 0.911219 0.911219 0.911219 0.911219 0.911219 0.911219 0.911219 0.911219 0.911219 0.911219 0.911219 0.911219 0.911219 0.911219 0.911219 0.911219 0.911219 0.911219 0.911219 0.911219 0.911219 0.911219 0.911219 0.911219 0.911219 0.911219 0.939670 0.941104 0.949452 0.948983 0.948439 0.946453 0.945190 0.944977 0.944891 0.945243 0.945979 0.946975 0.953196 0.954133 0.958544 0.961263 0.961235 0.962974 0.964941 0.964581 0.956275 0.956030 0.954595 0.953869 0.955980 0.954615 0.953381 0.953854 0.952459 0.955879 0.955441 0.954227 0.952580 0.950980 0.948490 0.948067 0.947832 0.948643 0.948728 0.950316 0.953353 0.953518 0.953258 0.950507 0.950117 0.951324 0.950804 0.952616 0.940446 0.939757 0.938254 0.938233 0.940795 0.940683 0.940578 0.941485 0.941185 0.941106 0.941254 0.936455 0.936198 0.929287 0.925901 0.924667 0.919361 0.915266 0.917836 0.920369 0.921515 0.921883 0.912768 0.910009 0.911106 0.909892 0.911297 0.910953 0.912036 0.912412 0.912318 0.907125 0.897385 0.895818 0.887619 0.890304 0.886865 0.884215 0.881268 0.872465 0.863868 0.876101 0.863054 0.820542 0.824124 0.828352 0.820163 0.815963 0.818650 0.819406 0.824342 0.818536 0.817333 0.811284 0.797889 0.793178 0.785499 0.771445 0.768575 0.759372 0.749135 0.743155 0.766614 0.760266 0.772024 0.776289 0.775798 0.772097 0.762662 0.751490 0.751048 0.750095 0.746281 0.723078 0.714203 0.714220 0.711486 0.698340 0.701536 0.689610 0.690127 0.677719 0.682883 0.688810 0.692371 0.688020 0.681841 0.673465 0.668247 0.682098 0.695724 0.688016 0.684297 0.691569 0.682241 0.676906 0.669099 0.673029 0.665197 0.658213 0.660366 0.695005 0.667659 0.657329 0.664709 0.665884 0.663152 0.663437 0.642748 0.636331 0.613405 0.630815 0.636397 0.653204 0.655009 0.657916 0.668968 0.674736 0.685383 0.689921 0.688199 0.648245 0.652321 0.670428 0.678439 0.667742 0.657961 0.652751 0.644530 0.681048 0.666351 0.624057 0.620119 0.620518 0.575837 0.555128 0.553650 0.555440 0.582332 0.579056 0.561664 0.535676 0.537611 0.538432 0.536091 0.535382 0.514940 0.525393 0.509282 0.486161 0.498563 0.506538 0.504880 0.488996 0.482693 0.496127 0.475241 0.501776 0.478648 0.460674 0.477383 0.476248 0.464345 0.393077 0.400231 0.390130 0.375698 0.332167 0.341577 0.351341 0.332188 0.256974 0.251142 0.251991 0.248439 0.227885 0.204207 0.190901 0.180659 0.158133 0.097979 0.049117 0.051052 0.054834 0.081226 0.040644 0.095491 0.164278 0.161858 0.161858 0.161858 0.161858 0.161858 0.161858 0.161858 0.161858 0.137880 0.137880 0.137880 0.137880 0.137880 0.137880 0.137880 0.137880 0.137880 0.161858 0.161858 0.161858 0.161858 0.161858 0.161858 0.161858 0.161858 0.161858 0.161858 0.161858 0.161858 0.161858 0.161858
0.000000 0.000000 0.000000 0.000000 0.000000 0.000000 0.000000 0.000000 0.000000 0.000000 0.000000 0.000000 0.000000 0.000000 0.000000 0.000000 0.000000 0.000000 0.000000 0.000000 0.000000 0.000000 0.000000 0.000000 0.000000 0.000000 0.000000 0.000000 0.000000 0.000000 0.000000 0.000000 0.000000 0.000000 0.000000 0.000000 0.000000 0.000000 0.000000 0.000000 0.000000 0.000000 0.000000 0.000000 0.000000 0.000000 0.000000 0.000000 0.000000 0.000000 0.000000 0.000000 0.180334 0.180334 0.180334 0.199007 0.199007 0.199007 0.199007 0.199007 0.199007 0.199007 0.199007 0.199007 0.199007 0.199007 0.199007 0.199007 0.199007 0.199007 0.199007 0.199007 0.199007 0.199007 0.199007 0.199007 0.199007 0.199007 0.199007 0.199007 0.199007 0.199007 0.199007 0.199007 0.199007 0.199007 0.199007 0.199007 0.199007 0.199007 0.199007 0.199007 0.199007 0.199007 0.199007 0.199007 0.225018 0.225018 0.225018 0.225018 0.225018 0.225018 0.225018 0.225018 0.225018 0.225018 0.225018 0.225018 0.225018 0.225018 0.225018 0.225018 0.225018 0.225018 0.225018 0.225018 0.225018 0.225018 0.225018 0.225018 0.225018 0.225018 0.225018 0.225018 0.225018 0.244339 0.244339 0.244339 0.244339 0.244339 0.244339 0.244339 0.244339 0.244339 0.244339 0.244339 0.244339 0.244339 0.244339 0.244339 0.244339 0.244339 0.244339 0.244339 0.244339 0.244339 0.244339 0.244339 0.256074 0.256074 0.256074 0.256074 0.256074 0.256074 0.256074 0.256074 0.256074 0.256074 0.256074 0.256074 0.256074 0.256074 0.256074 0.256074 0.256074 0.256074 0.256074 0.256074 0.256074 0.256074 0.256074 0.256074 0.256074 0.256074 0.256074 0.256074 0.256074 0.256074 0.256074 0.256074 0.256074 0.256074 0.256074 0.256074 0.256074 0.264906 0.264906 0.264906 0.264906 0.264906 0.264906 0.264906 0.264906 0.264906 0.264906 0.264906 0.264906 0.264906 0.264906 0.264906 0.264906 0.264906 0.264906 0.264906 0.264906 0.264906 0.264906 0.264906 0.264906 0.264906 0.264906 0.264906 0.264906 0.264906 0.264906 0.264906 0.264906 0.264906 0.264906 0.264906 0.264906 0.264906 0.264906 0.264906 0.264906 0.264906 0.264906 0.264906 0.264906 0.264906 0.264906 0.264906 0.264906 0.264906 0.264906 0.264906 0.264906 0.264906 0.264906 0.264906 0.264906 0.264906 0.264906 0.260378 0.260378 0.260378 0.260378 0.260378 0.260378 0.260378 0.260378 0.260378 0.260378 0.260378 0.260378 0.260378 0.264906 0.264906 0.264906 0.264906 0.264906 0.264906 0.264906 0.264906 0.264906 0.264906 0.264906 0.264906 0.269680 0.269680 0.269680 0.269680 0.269680 0.269680 0.269680 0.269680 0.269680 0.269680 0.269680 0.264906 0.264906 0.264906 0.264906 0.264906 0.264906 0.264906 0.264906 0.264906 0.264906 0.264906 0.256074 0.256074 0.256074 0.256074 0.256074 0.256074 0.256074 0.256074 0.256074 0.256074 0.256074 0.264906 0.264906 0.264906 0.264906 0.264906 0.264906 0.264906 0.264906 0.264906 0.264906 0.260378 0.260378 0.260378 0.260378 0.260378 0.260378 0.260378 0.260378 0.260378 0.260378 0.264906 0.264906 0.264906 0.264906 0.264906 0.264906 0.264906 0.264906 0.264906 0.251976 0.251976 0.251976 0.251976 0.251976 0.251976 0.251976 0.251976 0.251976 0.251976 0.256074 0.256074 0.256074 0.256074 0.256074 0.256074 0.256074 0.256074 0.256074 0.251976 0.251976 0.251976 0.251976 0.251976 0.251976 0.251976 0.251976 0.251976 0.251976 0.251976 0.251976 0.251976 0.251976
