# Output from CTFFind version 4.1.9, run on 2019-11-03 20:10:58
# Input file: stack16_bm3d_averaged_1_6.5_0_3000_half.mrc ; Number of micrographs: 1
# Pixel size: 3.000 Angstroms ; acceleration voltage: 300.0 keV ; spherical aberration: 0.00 mm ; amplitude contrast: 0.07
# Box size: 512 pixels ; min. res.: 30.0 Angstroms ; max. res.: 5.0 Angstroms ; min. def.: 5000.0 um; max. def. 50000.0 um; num. frames averaged: 1
# 6 lines per micrograph: #1 - spatial frequency (1/Angstroms); #2 - 1D rotational average of spectrum (assuming no astigmatism); #3 - 1D rotational average of spectrum; #4 - CTF fit; #5 - cross-correlation between spectrum and CTF fit; #6 - 2sigma of expected cross correlation of noise
0.000000 0.000651 0.001302 0.001953 0.002604 0.003255 0.003906 0.004557 0.005208 0.005859 0.006510 0.007161 0.007812 0.008464 0.009115 0.009766 0.010417 0.011068 0.011719 0.012370 0.013021 0.013672 0.014323 0.014974 0.015625 0.016276 0.016927 0.017578 0.018229 0.018880 0.019531 0.020182 0.020833 0.021484 0.022135 0.022786 0.023438 0.024089 0.024740 0.025391 0.026042 0.026693 0.027344 0.027995 0.028646 0.029297 0.029948 0.030599 0.031250 0.031901 0.032552 0.033203 0.033854 0.034505 0.035156 0.035807 0.036458 0.037109 0.037760 0.038411 0.039062 0.039714 0.040365 0.041016 0.041667 0.042318 0.042969 0.043620 0.044271 0.044922 0.045573 0.046224 0.046875 0.047526 0.048177 0.048828 0.049479 0.050130 0.050781 0.051432 0.052083 0.052734 0.053385 0.054036 0.054688 0.055339 0.055990 0.056641 0.057292 0.057943 0.058594 0.059245 0.059896 0.060547 0.061198 0.061849 0.062500 0.063151 0.063802 0.064453 0.065104 0.065755 0.066406 0.067057 0.067708 0.068359 0.069010 0.069661 0.070312 0.070964 0.071615 0.072266 0.072917 0.073568 0.074219 0.074870 0.075521 0.076172 0.076823 0.077474 0.078125 0.078776 0.079427 0.080078 0.080729 0.081380 0.082031 0.082682 0.083333 0.083984 0.084635 0.085286 0.085938 0.086589 0.087240 0.087891 0.088542 0.089193 0.089844 0.090495 0.091146 0.091797 0.092448 0.093099 0.093750 0.094401 0.095052 0.095703 0.096354 0.097005 0.097656 0.098307 0.098958 0.099609 0.100260 0.100911 0.101562 0.102214 0.102865 0.103516 0.104167 0.104818 0.105469 0.106120 0.106771 0.107422 0.108073 0.108724 0.109375 0.110026 0.110677 0.111328 0.111979 0.112630 0.113281 0.113932 0.114583 0.115234 0.115885 0.116536 0.117188 0.117839 0.118490 0.119141 0.119792 0.120443 0.121094 0.121745 0.122396 0.123047 0.123698 0.124349 0.125000 0.125651 0.126302 0.126953 0.127604 0.128255 0.128906 0.129557 0.130208 0.130859 0.131510 0.132161 0.132812 0.133464 0.134115 0.134766 0.135417 0.136068 0.136719 0.137370 0.138021 0.138672 0.139323 0.139974 0.140625 0.141276 0.141927 0.142578 0.143229 0.143880 0.144531 0.145182 0.145833 0.146484 0.147135 0.147786 0.148438 0.149089 0.149740 0.150391 0.151042 0.151693 0.152344 0.152995 0.153646 0.154297 0.154948 0.155599 0.156250 0.156901 0.157552 0.158203 0.158854 0.159505 0.160156 0.160807 0.161458 0.162109 0.162760 0.163411 0.164062 0.164714 0.165365 0.166016 0.166667 0.167318 0.167969 0.168620 0.169271 0.169922 0.170573 0.171224 0.171875 0.172526 0.173177 0.173828 0.174479 0.175130 0.175781 0.176432 0.177083 0.177734 0.178385 0.179036 0.179688 0.180339 0.180990 0.181641 0.182292 0.182943 0.183594 0.184245 0.184896 0.185547 0.186198 0.186849 0.187500 0.188151 0.188802 0.189453 0.190104 0.190755 0.191406 0.192057 0.192708 0.193359 0.194010 0.194661 0.195312 0.195964 0.196615 0.197266 0.197917 0.198568 0.199219 0.199870 0.200521 0.201172 0.201823 0.202474 0.203125 0.203776 0.204427 0.205078 0.205729 0.206380 0.207031 0.207682 0.208333 0.208984 0.209635 0.210286 0.210938 0.211589 0.212240 0.212891 0.213542 0.214193 0.214844 0.215495 0.216146 0.216797 0.217448 0.218099 0.218750 0.219401 0.220052 0.220703 0.221354 0.222005 0.222656 0.223307 0.223958 0.224609 0.225260 0.225911 0.226562 0.227214 0.227865 0.228516 0.229167 0.229818 0.230469 0.231120 0.231771 0.232422 0.233073 0.233724 0.234375 0.235026 0.235677
       0.35007        0.35007        0.35007        0.35007        0.35007        0.35007        0.35007        0.35007        0.35007        0.35007        0.35007        0.35007        0.35007        0.35007        0.35007        0.35007        0.35007        0.35007        0.35007        0.35007        0.35007        0.35007        0.35007        0.35007        0.35007        0.35007        0.35007        0.35007        0.35007        0.35007        0.35007        0.35007        0.35007        0.35007        0.35007        0.35007        0.35007        0.35007        0.35007        0.35007        0.35007        0.35007        0.35007        0.35007        0.35007        0.35007        0.35007        0.35007        0.35007        0.35007        0.35007        0.42886        0.55638        0.34263       -0.21576       -0.45168       -0.54376       -0.64538       -0.71437       -0.72087       -0.81444       -0.88864       -0.68002       -0.83495       -0.81854       -0.96080       -0.99972       -0.88093       -0.83983       -0.79760       -0.70982       -0.64066       -0.55148       -0.45798       -0.39354       -0.16539       -0.06300        0.03952        0.26103        0.25911        0.31664        0.37197        0.40348        0.52293        0.53860        0.57408        0.53323        0.47389        0.50610        0.52901        0.45232        0.33272        0.21690        0.18347        0.11321        0.01333       -0.00253       -0.01176        0.05982        0.02643        0.07801        0.05095        0.16748        0.19800        0.40945        0.46009        0.54902        0.65755        0.68618        0.71315        0.63833        0.61160        0.54300        0.44184        0.38974        0.27991        0.22073        0.21666        0.10478        0.11519        0.11516        0.08969        0.09875        0.30693        0.41784        0.52496        0.53399        0.56941        0.60725        0.58732        0.57245        0.58381        0.56768        0.46820        0.30870        0.26777        0.25807        0.15439        0.09480        0.17241        0.21196        0.28824        0.35490        0.42757        0.47394        0.53155        0.60226        0.54660        0.50625        0.50415        0.35644        0.27992        0.26316        0.17873        0.20271        0.23995        0.27871        0.28526        0.32982        0.43029        0.46442        0.49940        0.45310        0.44277        0.48795        0.39636        0.33056        0.28927        0.26275        0.23597        0.23006        0.24079        0.33953        0.44739        0.43430        0.48915        0.55404        0.45034        0.41394        0.35713        0.31797        0.27413        0.28415        0.27248        0.29112        0.35395        0.36152        0.43922        0.47332        0.44121        0.46322        0.37878        0.38005        0.35506        0.27406        0.25539        0.25307        0.33507        0.38105        0.36599        0.39095        0.43395        0.44344        0.38085        0.33998        0.32351        0.35403        0.31737        0.28502        0.28872        0.35842        0.37537        0.39333        0.38929        0.39263        0.42137        0.40757        0.32588        0.29150        0.31623        0.34346        0.38204        0.36216        0.40463        0.34580        0.37178        0.39385        0.34076        0.35614        0.32269        0.30298        0.33911        0.34598        0.33110        0.35901        0.37593        0.33032        0.34969        0.32320        0.31864        0.29953        0.32268        0.32227        0.32907        0.36790        0.37498        0.35805        0.31119        0.30278        0.28845        0.33237        0.31531        0.31701        0.37278        0.35928        0.34273        0.31793        0.30751        0.30994        0.27892        0.31946        0.33360        0.34398        0.37278        0.35371        0.31580        0.33855        0.35294        0.33539        0.35712        0.34847        0.31554        0.33484        0.29387        0.32239        0.29963        0.31644        0.28813        0.32181        0.35174        0.32991        0.35639        0.31537        0.33359        0.35508        0.34313        0.31971        0.32563        0.36572        0.34607        0.34407        0.33048        0.31328        0.31917        0.31744        0.32671        0.32422        0.35995        0.33637        0.33699        0.29527        0.28964        0.27018        0.27453        0.36450        0.31386        0.34126        0.29815        0.26451        0.27749        0.36516        0.31060        0.28539        0.31822        0.31842        0.29654        0.26301        0.30504        0.27142        0.29718        0.30849        0.34040        0.33625        0.32184        0.31418        0.26763        0.28007        0.27515        0.27886        0.29782        0.36205        0.29880        0.20360        0.30510        0.29332        0.32985        0.25869        0.29755        0.29408        0.33437        0.28991        0.27663        0.26861        0.24781        0.30836        0.34122        0.33533        0.25259        0.30533        0.25675        0.23844        0.21846        0.32998        0.25568        0.16657        0.11735        0.20475        0.34039        0.24349        0.19038        0.12373       -0.44603       -0.54564
3.212688 3.171891 3.131359 3.091092 3.051090 3.011352 2.971880 2.932672 2.893729 2.855052 2.816638 2.778490 2.740607 2.702989 2.665635 2.628546 2.591722 2.555163 2.518869 2.482840 2.447075 2.411576 2.376341 2.341371 2.306666 2.272226 2.238050 2.204140 2.170494 2.137114 2.103998 2.071147 2.038561 2.006239 1.974183 1.942391 1.910865 1.879603 1.848606 1.817874 1.787406 1.757204 1.727266 1.697594 1.668186 1.639043 1.610165 1.581551 1.553203 1.525120 1.497301 1.532657 1.607449 1.547859 0.845154 0.598274 0.459474 0.389912 0.293614 0.219657 0.187145 -0.049329 0.208773 0.074066 -0.029637 -0.108396 -0.238422 -0.144183 -0.053932 -0.093905 -0.073540 0.036917 0.035585 0.230136 0.108364 0.357285 0.464062 0.495267 0.771719 0.685404 0.696673 0.825478 0.797477 0.843187 0.919463 0.858786 0.889129 0.726199 0.788273 0.846278 0.689071 0.605540 0.435220 0.427493 0.333439 0.190402 0.186412 0.114267 0.208495 0.119714 0.208077 0.104514 0.215644 0.228215 0.439521 0.401934 0.572179 0.610383 0.635595 0.719627 0.605787 0.577515 0.459073 0.410313 0.287993 0.261467 0.092202 0.152126 -0.029518 0.035962 -0.031500 -0.043975 -0.058157 0.025879 0.264286 0.291350 0.357994 0.298510 0.381833 0.391713 0.414711 0.395882 0.355535 0.327382 0.120937 0.073584 0.061905 -0.021855 -0.153854 -0.053328 -0.066464 0.035218 0.075922 0.149134 0.213700 0.223195 0.315791 0.404401 0.284964 0.361056 0.230035 0.140659 0.064900 0.035183 0.000649 0.050199 0.069511 0.094890 0.117276 0.171530 0.238346 0.303396 0.271240 0.210260 0.252623 0.226185 0.109325 0.059671 0.052799 0.025979 0.006105 -0.021315 0.029810 0.167978 0.192113 0.190308 0.297792 0.187135 0.195347 0.072786 0.065649 0.010134 -0.007513 -0.002306 -0.010310 0.043850 0.068921 0.097756 0.156842 0.140491 0.221793 0.135427 0.077166 0.098765 0.042669 -0.051609 -0.021185 0.025859 0.065459 0.073147 0.066557 0.151412 0.120402 0.151169 0.036688 0.048880 0.045188 0.047216 0.027064 -0.020985 0.040346 0.048447 0.090808 0.102177 0.085823 0.112187 0.124808 0.079931 0.012496 -0.008226 0.024128 0.075953 0.071449 0.090161 0.088756 0.049627 0.104940 0.066205 0.041789 0.078223 -0.014513 0.013009 0.065107 0.039234 0.042765 0.066755 0.077533 0.049595 0.065816 0.015597 0.019749 0.006375 0.054194 0.010303 0.041688 0.068641 0.078692 0.043124 -0.005435 -0.003287 -0.019310 0.041743 0.000556 0.012766 0.071902 0.050214 0.000037 0.011691 -0.016279 0.006840 -0.040758 0.006728 0.013824 0.041871 0.045795 0.027072 -0.007583 0.004643 0.030614 0.006822 0.037361 0.011922 -0.016930 0.031290 -0.049690 -0.027975 -0.055281 -0.012506 -0.063722 0.006676 0.020236 -0.011029 -0.009441 -0.005370 -0.001041 0.027419 0.016031 -0.012692 0.006994 0.026895 0.040427 0.022151 0.007995 0.016041 0.004159 -0.004374 0.016983 -0.006598 0.087380 0.044025 0.029704 0.001748 -0.009691 -0.032216 0.002006 0.075568 0.001629 0.058636 -0.019086 -0.024727 -0.022855 0.094729 0.003120 -0.024349 0.054703 0.050753 0.007273 0.002967 0.020340 0.003347 0.036766 0.031257 0.089946 0.055851 0.049120 0.043074 -0.008555 0.015290 -0.005718 -0.008001 0.011981 0.095586 -0.014773 -0.090771 0.044020 0.001413 0.051537 -0.047843 -0.005479 0.000790 0.021997 -0.000335 -0.024126 -0.021816 -0.069938 0.043630 0.046211 0.055390 -0.122970 0.017871 0.006729 -0.006928 -0.100566 0.101821 0.022354 -0.047564 -0.108701 0.170550 0.292156 0.180069 0.136394 0.126255 -0.523140
0.072396 0.073047 0.074998 0.078250 0.082801 0.088650 0.095794 0.104231 0.113956 0.124965 0.137251 0.150806 0.165619 0.181678 0.198967 0.217468 0.237158 0.258012 0.279999 0.303084 0.327225 0.352376 0.378482 0.405484 0.433312 0.461890 0.491134 0.520948 0.551228 0.581860 0.612720 0.643672 0.674568 0.705250 0.735550 0.765285 0.794264 0.822282 0.849127 0.874573 0.898387 0.920327 0.940145 0.957584 0.972386 0.984288 0.993029 0.998348 0.999990 0.997706 0.991258 0.980422 0.964991 0.944779 0.919626 0.889400 0.854002 0.813372 0.767488 0.716379 0.660121 0.598843 0.532733 0.462039 0.387074 0.308213 0.225900 0.140648 0.053035 0.036292 0.126624 0.217190 0.307161 0.395660 0.481767 0.564525 0.642954 0.716063 0.782859 0.842363 0.893627 0.935749 0.967890 0.989292 0.999295 0.997360 0.983079 0.956200 0.916638 0.864490 0.800051 0.723818 0.636503 0.539031 0.432544 0.318394 0.198132 0.073498 0.053601 0.181118 0.306890 0.428678 0.544203 0.651191 0.747421 0.830773 0.899281 0.951186 0.984986 0.999489 0.993859 0.967655 0.920870 0.853959 0.767853 0.663969 0.544205 0.410921 0.266906 0.115338 0.040286 0.196211 0.348522 0.493229 0.626385 0.744190 0.843110 0.919993 0.972186 0.997636 0.994988 0.963663 0.903920 0.816889 0.704588 0.569898 0.416524 0.248906 0.072115 0.108287 0.286414 0.456243 0.611820 0.747476 0.858047 0.939085 0.987063 0.999547 0.975348 0.914621 0.818929 0.691245 0.535900 0.358475 0.165621 0.035154 0.235775 0.427907 0.603305 0.754182 0.873565 0.955649 0.996108 0.992356 0.943745 0.851681 0.719640 0.553098 0.359350 0.147219 0.073295 0.291488 0.496455 0.677634 0.825381 0.931501 0.989745 0.996225 0.949715 0.851829 0.707041 0.522549 0.307976 0.074918 0.163654 0.394091 0.602851 0.777300 0.906519 0.982017 0.998360 0.953609 0.849579 0.691862 0.489606 0.255058 0.002872 0.250763 0.489148 0.696180 0.857462 0.961353 0.999871 0.969379 0.870991 0.710663 0.498927 0.250284 0.017715 0.285675 0.533733 0.743049 0.897259 0.983832 0.995157 0.929302 0.790358 0.588306 0.338410 0.060151 0.224233 0.491494 0.719275 0.888017 0.982712 0.994318 0.920741 0.767221 0.546114 0.276004 0.019754 0.314992 0.583028 0.799074 0.942609 0.999404 0.963049 0.835797 0.628603 0.360334 0.056161 0.254712 0.541814 0.776403 0.934408 0.998977 0.962420 0.827259 0.606255 0.321361 0.001685 0.319401 0.607721 0.831934 0.967025 0.997227 0.917998 0.736843 0.472808 0.154629 0.182248 0.499572 0.760601 0.934437 0.999792 0.947755 0.783185 0.524487 0.201757 0.146584 0.478270 0.752308 0.934103 0.999954 0.940323 0.761410 0.484758 0.144873 0.214933 0.547969 0.810234 0.966306 0.994292 0.889097 0.663535 0.347022 0.018049 0.381848 0.693869 0.909968 0.998754 0.946354 0.758813 0.461704 0.096882 0.283218 0.623052 0.872076 0.992412 0.964795 0.791924 0.498567 0.128276 0.262867 0.614630 0.871937 0.993609 0.959176 0.772604 0.462209 0.076658 0.322459 0.670355 0.909613 0.999810 0.924605 0.695001 0.348090 0.058618 0.456581 0.777664 0.965939 0.987598 0.837355 0.539981 0.146567 0.273983 0.646859 0.904709 0.999933 0.913791 0.660412 0.284916 0.144329 0.547935 0.850147 0.993179 0.948570 0.723190 0.358650 0.075992 0.497102 0.822477 0.987505 0.958282 0.738955 0.371667 0.071154 0.500813 0.830032 0.990807 0.948750 0.710857 0.324865 0.129914 0.558634 0.870638 0.998788 0.914253 0.633436 0.215307 0.250578 0.663034
1.000000 1.000000 1.000000 1.000000 1.000000 1.000000 1.000000 1.000000 1.000000 1.000000 1.000000 1.000000 1.000000 1.000000 1.000000 1.000000 1.000000 1.000000 1.000000 1.000000 1.000000 1.000000 1.000000 1.000000 1.000000 1.000000 1.000000 1.000000 1.000000 1.000000 1.000000 1.000000 1.000000 1.000000 1.000000 1.000000 1.000000 1.000000 1.000000 1.000000 1.000000 1.000000 1.000000 1.000000 1.000000 1.000000 1.000000 1.000000 1.000000 1.000000 1.000000 1.000000 0.923304 0.923304 0.923304 0.923304 0.923304 0.923304 0.923304 0.923304 0.923304 0.923304 0.923304 0.923304 0.923304 0.923304 0.923304 0.923304 0.923304 0.923304 0.923304 0.923304 0.923304 0.923304 0.923304 0.923304 0.923304 0.923304 0.923304 0.923304 0.923304 0.923304 0.923304 0.923304 0.923304 0.913343 0.911432 0.912596 0.911158 0.909687 0.909099 0.908709 0.909750 0.911357 0.913429 0.935051 0.938160 0.939402 0.940721 0.942088 0.944367 0.942214 0.949816 0.956329 0.955282 0.956431 0.950306 0.951695 0.951055 0.950327 0.951665 0.951778 0.950097 0.948092 0.946528 0.945984 0.945676 0.949323 0.949811 0.949977 0.950569 0.950518 0.951236 0.951851 0.950029 0.952308 0.944479 0.943135 0.948397 0.946330 0.947713 0.947679 0.948366 0.949176 0.949495 0.949764 0.946411 0.945975 0.945068 0.937626 0.930539 0.930593 0.932874 0.935854 0.933143 0.930033 0.931337 0.933454 0.932583 0.936063 0.927115 0.922997 0.897119 0.883940 0.874292 0.874548 0.878350 0.880909 0.878587 0.872136 0.863221 0.859652 0.859304 0.855500 0.847515 0.863052 0.857429 0.854528 0.858220 0.861456 0.866858 0.864673 0.860452 0.855699 0.850895 0.841347 0.842806 0.846853 0.850980 0.834213 0.824079 0.840853 0.831643 0.822139 0.829718 0.831606 0.828705 0.827600 0.828074 0.825575 0.818910 0.811543 0.815214 0.824206 0.825096 0.815390 0.812940 0.810477 0.810267 0.802671 0.807176 0.808288 0.804588 0.797181 0.814518 0.781203 0.802414 0.803240 0.786708 0.770893 0.758600 0.767550 0.777622 0.777574 0.771411 0.775431 0.774928 0.767084 0.740163 0.734882 0.741684 0.739772 0.727941 0.714189 0.721294 0.722250 0.718725 0.715522 0.718706 0.718768 0.694344 0.707809 0.712161 0.702147 0.716289 0.718991 0.709957 0.713037 0.716672 0.719624 0.719849 0.688271 0.691922 0.652899 0.642340 0.596341 0.592948 0.590576 0.532241 0.536534 0.508230 0.491089 0.491890 0.473748 0.525421 0.441207 0.428104 0.457528 0.383059 0.332458 0.349576 0.350045 0.363809 0.369817 0.356531 0.358298 0.343580 0.323065 0.310590 0.335081 0.351744 0.320461 0.324766 0.309702 0.286396 0.247329 0.264143 0.268238 0.296131 0.297379 0.276554 0.301317 0.352371 0.290686 0.270670 0.248987 0.275005 0.286133 0.284813 0.274937 0.279787 0.234564 0.227508 0.248152 0.250688 0.282091 0.308999 0.335977 0.331260 0.333344 0.362937 0.314750 0.331759 0.336568 0.325018 0.340255 0.343637 0.344025 0.337864 0.375259 0.363227 0.374108 0.366770 0.358891 0.400878 0.379073 0.352641 0.329949 0.338143 0.335832 0.329746 0.273312 0.258005 0.254843 0.209565 0.173582 0.175337 0.175458 0.130016 0.113646 0.096526 0.059414 0.058871 0.067026 0.095779 0.066821 0.084532 0.091296 0.091296 0.091296 0.091296 0.091296 0.091296 0.091296 0.091296 0.091296 0.091296 0.091296 0.091296 0.091296 0.091296 0.113978 0.113978 0.113978 0.113978 0.113978 0.113978 0.113978 0.113978 0.113978 0.113978 0.113978 0.113978
0.000000 0.000000 0.000000 0.000000 0.000000 0.000000 0.000000 0.000000 0.000000 0.000000 0.000000 0.000000 0.000000 0.000000 0.000000 0.000000 0.000000 0.000000 0.000000 0.000000 0.000000 0.000000 0.000000 0.000000 0.000000 0.000000 0.000000 0.000000 0.000000 0.000000 0.000000 0.000000 0.000000 0.000000 0.000000 0.000000 0.000000 0.000000 0.000000 0.000000 0.000000 0.000000 0.000000 0.000000 0.000000 0.000000 0.000000 0.000000 0.000000 0.000000 0.000000 0.000000 0.209657 0.209657 0.209657 0.209657 0.209657 0.209657 0.209657 0.209657 0.209657 0.209657 0.209657 0.209657 0.209657 0.209657 0.209657 0.209657 0.209657 0.209657 0.209657 0.209657 0.209657 0.209657 0.209657 0.209657 0.209657 0.209657 0.209657 0.209657 0.209657 0.209657 0.209657 0.209657 0.209657 0.244339 0.244339 0.244339 0.244339 0.244339 0.244339 0.244339 0.244339 0.244339 0.244339 0.244339 0.244339 0.244339 0.244339 0.244339 0.244339 0.244339 0.244339 0.244339 0.244339 0.244339 0.244339 0.244339 0.244339 0.244339 0.260378 0.260378 0.260378 0.260378 0.260378 0.260378 0.260378 0.260378 0.260378 0.260378 0.260378 0.260378 0.260378 0.260378 0.260378 0.260378 0.260378 0.260378 0.260378 0.260378 0.269680 0.269680 0.269680 0.269680 0.269680 0.269680 0.269680 0.269680 0.269680 0.269680 0.269680 0.269680 0.269680 0.269680 0.269680 0.269680 0.269680 0.269680 0.269680 0.269680 0.269680 0.269680 0.269680 0.269680 0.269680 0.269680 0.269680 0.269680 0.269680 0.269680 0.269680 0.269680 0.269680 0.280056 0.280056 0.280056 0.280056 0.280056 0.280056 0.280056 0.280056 0.280056 0.280056 0.280056 0.280056 0.280056 0.280056 0.280056 0.280056 0.280056 0.280056 0.280056 0.280056 0.280056 0.280056 0.280056 0.280056 0.280056 0.280056 0.280056 0.274721 0.274721 0.274721 0.274721 0.274721 0.274721 0.274721 0.274721 0.274721 0.274721 0.274721 0.274721 0.274721 0.285714 0.285714 0.285714 0.285714 0.285714 0.285714 0.285714 0.285714 0.285714 0.285714 0.285714 0.280056 0.280056 0.280056 0.280056 0.280056 0.280056 0.280056 0.280056 0.280056 0.280056 0.280056 0.274721 0.274721 0.274721 0.274721 0.274721 0.274721 0.274721 0.274721 0.274721 0.274721 0.274721 0.280056 0.280056 0.280056 0.280056 0.280056 0.280056 0.280056 0.280056 0.280056 0.280056 0.285714 0.285714 0.285714 0.285714 0.285714 0.285714 0.285714 0.285714 0.285714 0.269680 0.269680 0.269680 0.269680 0.269680 0.269680 0.269680 0.269680 0.269680 0.269680 0.274721 0.274721 0.274721 0.274721 0.274721 0.274721 0.274721 0.274721 0.274721 0.285714 0.285714 0.285714 0.285714 0.285714 0.285714 0.285714 0.285714 0.264906 0.264906 0.264906 0.264906 0.264906 0.264906 0.264906 0.264906 0.264906 0.274721 0.274721 0.274721 0.274721 0.274721 0.274721 0.274721 0.274721 0.269680 0.269680 0.269680 0.269680 0.269680 0.269680 0.269680 0.269680 0.269680 0.269680 0.269680 0.269680 0.269680 0.269680 0.269680 0.269680 0.280056 0.280056 0.280056 0.280056 0.280056 0.280056 0.280056 0.260378 0.260378 0.260378 0.260378 0.260378 0.260378 0.260378 0.260378 0.269680 0.269680 0.269680 0.269680 0.269680 0.269680 0.269680 0.264906 0.264906 0.264906 0.264906 0.264906 0.264906 0.264906 0.264906 0.264906 0.264906 0.264906 0.264906 0.264906 0.264906 0.260378 0.260378 0.260378 0.260378 0.260378 0.260378 0.260378 0.260378 0.260378 0.260378 0.260378 0.260378
