# Output from CTFFind version 4.1.9, run on 2019-11-03 19:35:40
# Input file: stack1_bm3d_averaged_1_4.25_0_2000_half.mrc ; Number of micrographs: 1
# Pixel size: 3.000 Angstroms ; acceleration voltage: 300.0 keV ; spherical aberration: 0.00 mm ; amplitude contrast: 0.07
# Box size: 512 pixels ; min. res.: 30.0 Angstroms ; max. res.: 5.0 Angstroms ; min. def.: 5000.0 um; max. def. 50000.0 um; num. frames averaged: 1
# 6 lines per micrograph: #1 - spatial frequency (1/Angstroms); #2 - 1D rotational average of spectrum (assuming no astigmatism); #3 - 1D rotational average of spectrum; #4 - CTF fit; #5 - cross-correlation between spectrum and CTF fit; #6 - 2sigma of expected cross correlation of noise
0.000000 0.000651 0.001302 0.001953 0.002604 0.003255 0.003906 0.004557 0.005208 0.005859 0.006510 0.007161 0.007812 0.008464 0.009115 0.009766 0.010417 0.011068 0.011719 0.012370 0.013021 0.013672 0.014323 0.014974 0.015625 0.016276 0.016927 0.017578 0.018229 0.018880 0.019531 0.020182 0.020833 0.021484 0.022135 0.022786 0.023438 0.024089 0.024740 0.025391 0.026042 0.026693 0.027344 0.027995 0.028646 0.029297 0.029948 0.030599 0.031250 0.031901 0.032552 0.033203 0.033854 0.034505 0.035156 0.035807 0.036458 0.037109 0.037760 0.038411 0.039062 0.039714 0.040365 0.041016 0.041667 0.042318 0.042969 0.043620 0.044271 0.044922 0.045573 0.046224 0.046875 0.047526 0.048177 0.048828 0.049479 0.050130 0.050781 0.051432 0.052083 0.052734 0.053385 0.054036 0.054688 0.055339 0.055990 0.056641 0.057292 0.057943 0.058594 0.059245 0.059896 0.060547 0.061198 0.061849 0.062500 0.063151 0.063802 0.064453 0.065104 0.065755 0.066406 0.067057 0.067708 0.068359 0.069010 0.069661 0.070312 0.070964 0.071615 0.072266 0.072917 0.073568 0.074219 0.074870 0.075521 0.076172 0.076823 0.077474 0.078125 0.078776 0.079427 0.080078 0.080729 0.081380 0.082031 0.082682 0.083333 0.083984 0.084635 0.085286 0.085938 0.086589 0.087240 0.087891 0.088542 0.089193 0.089844 0.090495 0.091146 0.091797 0.092448 0.093099 0.093750 0.094401 0.095052 0.095703 0.096354 0.097005 0.097656 0.098307 0.098958 0.099609 0.100260 0.100911 0.101562 0.102214 0.102865 0.103516 0.104167 0.104818 0.105469 0.106120 0.106771 0.107422 0.108073 0.108724 0.109375 0.110026 0.110677 0.111328 0.111979 0.112630 0.113281 0.113932 0.114583 0.115234 0.115885 0.116536 0.117188 0.117839 0.118490 0.119141 0.119792 0.120443 0.121094 0.121745 0.122396 0.123047 0.123698 0.124349 0.125000 0.125651 0.126302 0.126953 0.127604 0.128255 0.128906 0.129557 0.130208 0.130859 0.131510 0.132161 0.132812 0.133464 0.134115 0.134766 0.135417 0.136068 0.136719 0.137370 0.138021 0.138672 0.139323 0.139974 0.140625 0.141276 0.141927 0.142578 0.143229 0.143880 0.144531 0.145182 0.145833 0.146484 0.147135 0.147786 0.148438 0.149089 0.149740 0.150391 0.151042 0.151693 0.152344 0.152995 0.153646 0.154297 0.154948 0.155599 0.156250 0.156901 0.157552 0.158203 0.158854 0.159505 0.160156 0.160807 0.161458 0.162109 0.162760 0.163411 0.164062 0.164714 0.165365 0.166016 0.166667 0.167318 0.167969 0.168620 0.169271 0.169922 0.170573 0.171224 0.171875 0.172526 0.173177 0.173828 0.174479 0.175130 0.175781 0.176432 0.177083 0.177734 0.178385 0.179036 0.179688 0.180339 0.180990 0.181641 0.182292 0.182943 0.183594 0.184245 0.184896 0.185547 0.186198 0.186849 0.187500 0.188151 0.188802 0.189453 0.190104 0.190755 0.191406 0.192057 0.192708 0.193359 0.194010 0.194661 0.195312 0.195964 0.196615 0.197266 0.197917 0.198568 0.199219 0.199870 0.200521 0.201172 0.201823 0.202474 0.203125 0.203776 0.204427 0.205078 0.205729 0.206380 0.207031 0.207682 0.208333 0.208984 0.209635 0.210286 0.210938 0.211589 0.212240 0.212891 0.213542 0.214193 0.214844 0.215495 0.216146 0.216797 0.217448 0.218099 0.218750 0.219401 0.220052 0.220703 0.221354 0.222005 0.222656 0.223307 0.223958 0.224609 0.225260 0.225911 0.226562 0.227214 0.227865 0.228516 0.229167 0.229818 0.230469 0.231120 0.231771 0.232422 0.233073 0.233724 0.234375 0.235026 0.235677
       0.34500        0.34500        0.34500        0.34500        0.34500        0.34500        0.34500        0.34500        0.34500        0.34500        0.34500        0.34500        0.34500        0.34500        0.34500        0.34500        0.34500        0.34500        0.34500        0.34500        0.34500        0.34500        0.34500        0.34500        0.34500        0.34500        0.34500        0.34500        0.34500        0.34500        0.34500        0.34500        0.34500        0.34500        0.34500        0.34500        0.34500        0.34500        0.34500        0.34500        0.34500        0.34500        0.34500        0.34500        0.34500        0.34500        0.34500        0.34500        0.34500        0.34500        0.34500        0.44960        0.65652        0.33581        0.16589       -0.03594       -0.25932       -0.07051       -0.15815       -0.15229        0.00714       -0.11614       -0.12398       -0.05097       -0.03748       -0.13580       -0.16313       -0.31093       -0.46278       -0.54694       -0.50831       -0.41901       -0.31596       -0.47449       -0.36884       -0.49051       -0.39847       -0.43985       -0.28596       -0.26953       -0.28016       -0.16140       -0.10244       -0.07282        0.06091        0.02307        0.18816        0.17452        0.31219        0.37657        0.49826        0.51759        0.55448        0.59638        0.72288        0.62011        0.59031        0.52185        0.51732        0.60149        0.49517        0.46827        0.40381        0.31006        0.27589        0.28857        0.25936        0.15944        0.15987        0.02756        0.09497        0.08931        0.07216        0.09582        0.13238        0.21171        0.28794        0.28837        0.32283        0.46827        0.48151        0.50177        0.63935        0.63261        0.58299        0.60118        0.59773        0.46747        0.47934        0.37652        0.34284        0.28560        0.22148        0.20731        0.17955        0.14052        0.18958        0.22230        0.23321        0.25602        0.32427        0.36599        0.38346        0.47364        0.50718        0.50364        0.48445        0.57988        0.49560        0.49239        0.47306        0.38310        0.32844        0.27419        0.29140        0.21536        0.22719        0.23805        0.21792        0.22580        0.30612        0.37032        0.41266        0.45163        0.44339        0.48637        0.45500        0.46388        0.40292        0.38917        0.35339        0.37395        0.37476        0.36730        0.26490        0.31501        0.26836        0.26975        0.28669        0.34519        0.37804        0.41540        0.43863        0.46786        0.43774        0.42027        0.45565        0.37737        0.35249        0.35862        0.31178        0.33594        0.28268        0.32061        0.31357        0.32630        0.36328        0.38972        0.41471        0.43564        0.39166        0.39733        0.37741        0.39444        0.29764        0.31510        0.30914        0.24942        0.33069        0.31532        0.33342        0.35106        0.36152        0.37417        0.37574        0.44715        0.38470        0.36078        0.35514        0.30518        0.29392        0.31587        0.31484        0.34942        0.33271        0.35060        0.33200        0.39362        0.36535        0.37846        0.40086        0.38502        0.34299        0.31697        0.34137        0.31927        0.34471        0.30766        0.35112        0.35209        0.34786        0.32340        0.34642        0.32603        0.28463        0.28864        0.28775        0.31420        0.33034        0.35532        0.33376        0.32103        0.33830        0.33341        0.31432        0.29146        0.32519        0.33738        0.31977        0.29821        0.32853        0.32844        0.33998        0.31544        0.33454        0.35084        0.33213        0.33351        0.30560        0.26803        0.30388        0.33962        0.32672        0.31797        0.35876        0.32591        0.29500        0.33578        0.32427        0.30611        0.29803        0.27464        0.32846        0.34895        0.35642        0.29508        0.28470        0.29243        0.26958        0.26367        0.32198        0.31519        0.31133        0.31922        0.30350        0.27827        0.34717        0.33572        0.33855        0.31637        0.30035        0.32849        0.36773        0.39845        0.30675        0.32869        0.33000        0.34695        0.29589        0.32427        0.32463        0.25169        0.32820        0.36511        0.32418        0.33919        0.30187        0.27900        0.25835        0.29999        0.30635        0.35408        0.32612        0.28042        0.23036        0.29901        0.31416        0.27622        0.26607        0.24351        0.29356        0.26462        0.31343        0.27505        0.30034        0.31440        0.24358        0.30150        0.27093        0.19414        0.20017        0.24103        0.19153        0.24281        0.23154        0.22681        0.35701        0.26165        0.29247        0.28699        0.18970        0.24455        0.33184        0.22454        0.13194        0.26170        0.20528        0.23946        0.32701        0.10260        0.06122       -0.38752       -0.55857
2.880561 2.849414 2.818437 2.787630 2.756994 2.726529 2.696233 2.666109 2.636154 2.606370 2.576757 2.547313 2.518041 2.488938 2.460006 2.431245 2.402654 2.374233 2.345983 2.317903 2.289994 2.262255 2.234686 2.207288 2.180061 2.153003 2.126116 2.099400 2.072854 2.046478 2.020273 1.994238 1.968374 1.942680 1.917157 1.891804 1.866621 1.841609 1.816767 1.792096 1.767595 1.743264 1.719104 1.695114 1.671295 1.647646 1.624168 1.600860 1.577722 1.554755 1.531958 1.537501 1.899555 1.697932 1.031228 1.105938 0.475293 0.930995 0.577090 0.741000 0.881797 0.689672 0.599357 0.779823 0.736762 0.605022 0.568172 0.349462 0.056585 0.003053 -0.017127 -0.037626 0.350818 -0.048533 0.071013 -0.052116 0.011458 -0.042247 0.122007 0.132756 0.100152 0.214442 0.311577 0.292783 0.462661 0.387406 0.640819 0.521197 0.769200 0.738857 0.921737 1.017663 0.939904 1.050437 1.132706 1.118743 1.022378 0.868465 0.870269 0.960513 0.816585 0.794889 0.661230 0.551162 0.480667 0.464587 0.453215 0.257023 0.305345 0.112890 0.090457 0.166469 0.080514 0.079506 0.153114 0.186283 0.322367 0.324899 0.374466 0.398973 0.594974 0.428964 0.669871 0.822874 0.604617 0.667872 0.672815 0.488204 0.410770 0.382642 0.248614 0.238240 0.062078 0.096667 -0.007198 -0.007973 -0.050004 0.027154 0.066488 0.046295 0.087523 0.204443 0.228717 0.241423 0.381106 0.339493 0.359263 0.401635 0.377460 0.325759 0.300876 0.255690 0.096002 0.062467 0.003115 -0.027145 -0.087960 -0.042051 -0.049335 -0.090373 -0.061680 0.064902 0.177100 0.188956 0.196510 0.239086 0.297137 0.208907 0.203046 0.204614 0.093702 0.073486 0.178610 0.078307 0.024712 -0.003349 0.043601 -0.060453 0.005016 0.001194 0.119199 0.101676 0.134543 0.201319 0.240315 0.095732 0.170298 0.162549 0.090417 0.049407 0.035107 0.043408 -0.017828 -0.007932 -0.010434 -0.008404 0.052980 0.059172 0.098453 0.163936 0.123498 0.062982 0.068320 0.110478 0.040220 -0.076721 0.001745 -0.051165 -0.075193 0.004446 -0.024849 0.049820 0.005573 0.037408 0.088706 0.135871 0.167068 0.042128 0.071596 0.066627 -0.066289 -0.000661 0.013769 0.013850 0.060216 0.051429 0.028690 0.059028 0.088663 0.084147 0.113136 0.139193 0.053896 0.047983 0.032342 0.031020 0.015068 0.066501 0.006883 0.074362 0.062088 0.009760 -0.001082 0.052099 0.001402 -0.063151 -0.026289 -0.040792 -0.016560 0.035158 0.064668 0.022453 -0.006534 0.028517 0.026623 0.026761 -0.013261 0.024114 0.036645 0.022846 -0.010644 0.030119 0.024079 0.040562 0.020971 0.080837 0.058295 0.051323 0.043235 -0.002230 -0.072839 0.022646 0.051549 0.052211 0.010969 0.095436 0.018685 -0.033699 0.030581 0.005652 0.010924 -0.065947 -0.054397 0.064643 0.028372 0.021069 -0.051423 -0.041408 -0.034405 -0.106644 -0.035950 -0.027144 0.011643 -0.003119 -0.014998 -0.047000 -0.058457 0.022841 -0.025437 -0.083120 -0.002965 -0.095995 -0.012030 0.029608 0.043347 -0.078769 -0.069391 -0.004322 -0.060789 -0.132889 -0.057207 -0.053428 -0.149192 -0.038843 0.039963 -0.063120 -0.067950 -0.056849 -0.086877 -0.094113 -0.009963 -0.080109 0.075601 -0.048953 -0.041042 -0.108107 0.004677 -0.023790 -0.061277 0.003273 -0.121226 0.082461 -0.049704 0.076860 -0.026213 0.014894 0.125845 -0.069041 0.113936 -0.010810 -0.103391 -0.050240 -0.028077 -0.060911 -0.093347 0.037938 -0.016238 0.192275 -0.026406 0.123105 0.039997 -0.062857 0.017771 0.151319 0.263699 0.058781 0.338092 0.307653 0.246327 0.449709 -0.007621 0.087899 -0.730397
0.072396 0.072908 0.074445 0.077005 0.080589 0.085195 0.090823 0.097469 0.105133 0.113811 0.123500 0.134195 0.145891 0.158580 0.172255 0.186906 0.202522 0.219088 0.236590 0.255009 0.274323 0.294509 0.315540 0.337383 0.360005 0.383366 0.407423 0.432126 0.457423 0.483255 0.509556 0.536257 0.563281 0.590544 0.617957 0.645424 0.672840 0.700096 0.727073 0.753647 0.779687 0.805053 0.829599 0.853176 0.875623 0.896777 0.916469 0.934527 0.950771 0.965023 0.977100 0.986818 0.993994 0.998447 1.000000 0.998477 0.993711 0.985544 0.973826 0.958419 0.939201 0.916064 0.888921 0.857705 0.822371 0.782902 0.739306 0.691624 0.639927 0.584323 0.524953 0.461998 0.395679 0.326256 0.254031 0.179348 0.102595 0.024198 0.055375 0.135614 0.215974 0.295877 0.374711 0.451837 0.526594 0.598303 0.666274 0.729813 0.788227 0.840835 0.886974 0.926012 0.957351 0.980443 0.994796 0.999988 0.995670 0.981584 0.957567 0.923561 0.879621 0.825924 0.762769 0.690589 0.609948 0.521544 0.426209 0.324902 0.218709 0.108831 0.003423 0.116655 0.229386 0.340078 0.447152 0.549015 0.644079 0.730791 0.807657 0.873275 0.926358 0.965770 0.990547 0.999931 0.993387 0.970633 0.931656 0.876726 0.806408 0.721569 0.623375 0.513287 0.393047 0.264658 0.130355 0.007422 0.146075 0.282888 0.415083 0.539877 0.654542 0.756463 0.843210 0.912598 0.962748 0.992149 0.999711 0.984807 0.947319 0.887657 0.806776 0.706182 0.587916 0.454529 0.309035 0.154861 0.004233 0.164231 0.320969 0.470230 0.607874 0.729940 0.832784 0.913182 0.968457 0.996568 0.996208 0.966868 0.908890 0.823495 0.712774 0.579666 0.427898 0.261895 0.086669 0.092325 0.269350 0.438570 0.594242 0.730918 0.843645 0.928159 0.981060 0.999972 0.983666 0.932147 0.846707 0.729920 0.585598 0.418691 0.235139 0.041681 0.154383 0.345457 0.523945 0.682555 0.814610 0.914346 0.977179 0.999948 0.981096 0.920793 0.820988 0.685394 0.519379 0.329785 0.124675 0.086992 0.295743 0.492004 0.666552 0.810956 0.918007 0.982097 0.999556 0.968886 0.890909 0.768804 0.608023 0.416088 0.202280 0.022795 0.247702 0.460754 0.650626 0.806968 0.920992 0.985999 0.997814 0.955088 0.859469 0.715595 0.530927 0.315408 0.080962 0.159132 0.390985 0.600892 0.776165 0.905913 0.981764 0.998446 0.954203 0.851010 0.694553 0.493983 0.261431 0.011315 0.240519 0.477794 0.684860 0.847739 0.955110 0.999143 0.976123 0.886825 0.736578 0.535023 0.295568 0.034529 0.229929 0.479053 0.694819 0.861284 0.965782 0.999957 0.960494 0.849502 0.674498 0.447976 0.186587 0.090031 0.360700 0.604319 0.801520 0.936243 0.997110 0.978454 0.880922 0.711584 0.483517 0.214867 0.072520 0.354845 0.608318 0.811174 0.945590 0.999311 0.966856 0.850158 0.658583 0.408265 0.120845 0.178334 0.462451 0.705585 0.885126 0.983936 0.992062 0.907843 0.738259 0.498469 0.210563 0.098397 0.398875 0.661677 0.860802 0.976085 0.995328 0.915690 0.744191 0.497227 0.199110 0.120239 0.428233 0.692948 0.886455 0.987844 0.985579 0.878933 0.678303 0.404340 0.085928 0.242769 0.545926 0.789994 0.947438 0.999953 0.940710 0.775373 0.521720 0.207869 0.130721 0.455219 0.727840 0.916300 0.997726 0.961557 0.811059 0.563219 0.246981 0.100008 0.435812 0.719257 0.915018 0.998116 0.957244 0.796460 0.534984 0.205067 0.151860 0.490321 0.766578 0.944333 0.999612 0.924156 0.726819 0.432718 0.080217 0.283960 0.610884 0.855986 0.985239
1.000000 1.000000 1.000000 1.000000 1.000000 1.000000 1.000000 1.000000 1.000000 1.000000 1.000000 1.000000 1.000000 1.000000 1.000000 1.000000 1.000000 1.000000 1.000000 1.000000 1.000000 1.000000 1.000000 1.000000 1.000000 1.000000 1.000000 1.000000 1.000000 1.000000 1.000000 1.000000 1.000000 1.000000 1.000000 1.000000 1.000000 1.000000 1.000000 1.000000 1.000000 1.000000 1.000000 1.000000 1.000000 1.000000 1.000000 1.000000 1.000000 1.000000 1.000000 1.000000 0.873243 0.873243 0.873243 0.880409 0.880409 0.880409 0.880409 0.880409 0.880409 0.880409 0.880409 0.880409 0.880409 0.880409 0.880409 0.880409 0.880409 0.880409 0.880409 0.880409 0.880409 0.880409 0.880409 0.880409 0.880409 0.880409 0.880409 0.880409 0.880409 0.880409 0.880409 0.880409 0.880409 0.880409 0.880409 0.880409 0.880409 0.880409 0.880409 0.880409 0.880409 0.880409 0.880409 0.880409 0.886219 0.889032 0.890700 0.892534 0.893950 0.891289 0.890370 0.889792 0.890021 0.891320 0.901916 0.916866 0.931732 0.948346 0.955595 0.957268 0.960531 0.960484 0.966933 0.974889 0.973611 0.974248 0.974569 0.975887 0.960864 0.959079 0.953867 0.949064 0.978492 0.961099 0.958519 0.951051 0.944518 0.943259 0.943030 0.942822 0.943190 0.943891 0.944872 0.944724 0.943613 0.943202 0.940568 0.929484 0.925323 0.925158 0.925538 0.917857 0.901168 0.894896 0.892893 0.892617 0.888377 0.888645 0.888974 0.890048 0.887746 0.888252 0.865850 0.862628 0.860618 0.856457 0.854550 0.856889 0.857434 0.861793 0.859578 0.847164 0.823466 0.809276 0.794976 0.767938 0.752525 0.762301 0.763974 0.760089 0.759171 0.756022 0.753320 0.753503 0.747146 0.749821 0.748205 0.743130 0.731147 0.727455 0.711953 0.706620 0.701458 0.678668 0.706256 0.718609 0.718308 0.716324 0.716294 0.708863 0.717223 0.707505 0.698925 0.690675 0.682708 0.675788 0.663902 0.654985 0.670063 0.671687 0.653984 0.662712 0.688404 0.685379 0.692094 0.697881 0.705079 0.703007 0.694870 0.654190 0.642532 0.660365 0.658616 0.656275 0.657263 0.654507 0.652670 0.652119 0.649026 0.613522 0.589979 0.595771 0.602938 0.620599 0.640021 0.649314 0.612243 0.593518 0.541683 0.498418 0.515122 0.500763 0.491070 0.495816 0.475420 0.471192 0.474770 0.483316 0.483556 0.510833 0.508522 0.497744 0.492363 0.478194 0.481255 0.475728 0.444391 0.452639 0.428018 0.411515 0.430655 0.453769 0.423643 0.450627 0.478403 0.433480 0.431763 0.434348 0.391331 0.362231 0.337730 0.287385 0.286376 0.187818 0.169889 0.164357 0.184181 0.181413 0.136950 0.139258 0.155127 0.136159 0.098628 0.069757 0.047367 -0.014624 -0.025316 -0.020064 -0.027990 -0.042870 -0.059470 -0.071975 -0.034371 -0.026987 -0.040054 -0.019567 -0.047362 -0.046888 -0.049032 -0.090544 -0.110744 -0.138476 -0.139250 -0.195162 -0.182003 -0.183748 -0.172835 -0.217844 -0.226126 -0.211864 -0.191342 -0.226396 -0.238197 -0.250815 -0.237902 -0.244284 -0.214419 -0.197078 -0.194513 -0.200767 -0.217753 -0.188787 -0.191201 -0.217260 -0.201354 -0.215796 -0.211046 -0.190947 -0.177318 -0.150524 -0.108270 -0.082727 -0.087961 -0.095926 -0.120982 -0.090310 -0.087451 -0.095988 -0.114478 -0.147363 -0.157908 -0.157908 -0.157908 -0.157908 -0.157908 -0.152419 -0.152419 -0.152419 -0.152419 -0.152419 -0.152419 -0.152419 -0.152419 -0.152419 -0.079359 -0.079359 -0.079359 -0.079359 -0.079359 -0.079359 -0.079359 -0.079359 -0.079359 -0.079359 -0.079359 -0.079359 -0.079359 -0.079359 -0.079359 -0.079359 -0.079359
0.000000 0.000000 0.000000 0.000000 0.000000 0.000000 0.000000 0.000000 0.000000 0.000000 0.000000 0.000000 0.000000 0.000000 0.000000 0.000000 0.000000 0.000000 0.000000 0.000000 0.000000 0.000000 0.000000 0.000000 0.000000 0.000000 0.000000 0.000000 0.000000 0.000000 0.000000 0.000000 0.000000 0.000000 0.000000 0.000000 0.000000 0.000000 0.000000 0.000000 0.000000 0.000000 0.000000 0.000000 0.000000 0.000000 0.000000 0.000000 0.000000 0.000000 0.000000 0.000000 0.180334 0.180334 0.180334 0.199007 0.199007 0.199007 0.199007 0.199007 0.199007 0.199007 0.199007 0.199007 0.199007 0.199007 0.199007 0.199007 0.199007 0.199007 0.199007 0.199007 0.199007 0.199007 0.199007 0.199007 0.199007 0.199007 0.199007 0.199007 0.199007 0.199007 0.199007 0.199007 0.199007 0.199007 0.199007 0.199007 0.199007 0.199007 0.199007 0.199007 0.199007 0.199007 0.199007 0.199007 0.230940 0.230940 0.230940 0.230940 0.230940 0.230940 0.230940 0.230940 0.230940 0.230940 0.230940 0.230940 0.230940 0.230940 0.230940 0.230940 0.230940 0.230940 0.230940 0.230940 0.230940 0.230940 0.230940 0.230940 0.230940 0.230940 0.230940 0.230940 0.248069 0.248069 0.248069 0.248069 0.248069 0.248069 0.248069 0.248069 0.248069 0.248069 0.248069 0.248069 0.248069 0.248069 0.248069 0.248069 0.248069 0.248069 0.248069 0.248069 0.248069 0.248069 0.251976 0.251976 0.251976 0.251976 0.251976 0.251976 0.251976 0.251976 0.251976 0.251976 0.251976 0.251976 0.251976 0.251976 0.251976 0.251976 0.251976 0.251976 0.251976 0.251976 0.256074 0.256074 0.256074 0.256074 0.256074 0.256074 0.256074 0.256074 0.256074 0.256074 0.256074 0.256074 0.256074 0.256074 0.256074 0.256074 0.256074 0.256074 0.264906 0.264906 0.264906 0.264906 0.264906 0.264906 0.264906 0.264906 0.264906 0.264906 0.264906 0.264906 0.264906 0.264906 0.264906 0.264906 0.269680 0.269680 0.269680 0.269680 0.269680 0.269680 0.269680 0.269680 0.269680 0.269680 0.269680 0.269680 0.269680 0.269680 0.264906 0.264906 0.264906 0.264906 0.264906 0.264906 0.264906 0.264906 0.264906 0.264906 0.264906 0.264906 0.264906 0.264906 0.264906 0.264906 0.264906 0.264906 0.264906 0.264906 0.264906 0.264906 0.264906 0.264906 0.264906 0.264906 0.264906 0.260378 0.260378 0.260378 0.260378 0.260378 0.260378 0.260378 0.260378 0.260378 0.260378 0.260378 0.260378 0.260378 0.274721 0.274721 0.274721 0.274721 0.274721 0.274721 0.274721 0.274721 0.274721 0.274721 0.274721 0.260378 0.260378 0.260378 0.260378 0.260378 0.260378 0.260378 0.260378 0.260378 0.260378 0.260378 0.260378 0.264906 0.264906 0.264906 0.264906 0.264906 0.264906 0.264906 0.264906 0.264906 0.264906 0.264906 0.269680 0.269680 0.269680 0.269680 0.269680 0.269680 0.269680 0.269680 0.269680 0.269680 0.264906 0.264906 0.264906 0.264906 0.264906 0.264906 0.264906 0.264906 0.264906 0.264906 0.260378 0.260378 0.260378 0.260378 0.260378 0.260378 0.260378 0.260378 0.260378 0.260378 0.264906 0.264906 0.264906 0.264906 0.264906 0.264906 0.264906 0.264906 0.264906 0.251976 0.251976 0.251976 0.251976 0.251976 0.251976 0.251976 0.251976 0.251976 0.251976 0.256074 0.256074 0.256074 0.256074 0.256074 0.256074 0.256074 0.256074 0.256074 0.269680 0.269680 0.269680 0.269680 0.269680 0.269680 0.269680 0.269680 0.269680 0.269680 0.269680 0.269680 0.269680 0.269680 0.269680 0.269680 0.269680
