# Output from CTFFind version 4.1.9, run on 2019-11-03 19:48:45
# Input file: stack11_bm3d_averaged_1_5.25_0_2000_half.mrc ; Number of micrographs: 1
# Pixel size: 3.000 Angstroms ; acceleration voltage: 300.0 keV ; spherical aberration: 0.00 mm ; amplitude contrast: 0.07
# Box size: 512 pixels ; min. res.: 30.0 Angstroms ; max. res.: 5.0 Angstroms ; min. def.: 5000.0 um; max. def. 50000.0 um; num. frames averaged: 1
# 6 lines per micrograph: #1 - spatial frequency (1/Angstroms); #2 - 1D rotational average of spectrum (assuming no astigmatism); #3 - 1D rotational average of spectrum; #4 - CTF fit; #5 - cross-correlation between spectrum and CTF fit; #6 - 2sigma of expected cross correlation of noise
0.000000 0.000651 0.001302 0.001953 0.002604 0.003255 0.003906 0.004557 0.005208 0.005859 0.006510 0.007161 0.007812 0.008464 0.009115 0.009766 0.010417 0.011068 0.011719 0.012370 0.013021 0.013672 0.014323 0.014974 0.015625 0.016276 0.016927 0.017578 0.018229 0.018880 0.019531 0.020182 0.020833 0.021484 0.022135 0.022786 0.023438 0.024089 0.024740 0.025391 0.026042 0.026693 0.027344 0.027995 0.028646 0.029297 0.029948 0.030599 0.031250 0.031901 0.032552 0.033203 0.033854 0.034505 0.035156 0.035807 0.036458 0.037109 0.037760 0.038411 0.039062 0.039714 0.040365 0.041016 0.041667 0.042318 0.042969 0.043620 0.044271 0.044922 0.045573 0.046224 0.046875 0.047526 0.048177 0.048828 0.049479 0.050130 0.050781 0.051432 0.052083 0.052734 0.053385 0.054036 0.054688 0.055339 0.055990 0.056641 0.057292 0.057943 0.058594 0.059245 0.059896 0.060547 0.061198 0.061849 0.062500 0.063151 0.063802 0.064453 0.065104 0.065755 0.066406 0.067057 0.067708 0.068359 0.069010 0.069661 0.070312 0.070964 0.071615 0.072266 0.072917 0.073568 0.074219 0.074870 0.075521 0.076172 0.076823 0.077474 0.078125 0.078776 0.079427 0.080078 0.080729 0.081380 0.082031 0.082682 0.083333 0.083984 0.084635 0.085286 0.085938 0.086589 0.087240 0.087891 0.088542 0.089193 0.089844 0.090495 0.091146 0.091797 0.092448 0.093099 0.093750 0.094401 0.095052 0.095703 0.096354 0.097005 0.097656 0.098307 0.098958 0.099609 0.100260 0.100911 0.101562 0.102214 0.102865 0.103516 0.104167 0.104818 0.105469 0.106120 0.106771 0.107422 0.108073 0.108724 0.109375 0.110026 0.110677 0.111328 0.111979 0.112630 0.113281 0.113932 0.114583 0.115234 0.115885 0.116536 0.117188 0.117839 0.118490 0.119141 0.119792 0.120443 0.121094 0.121745 0.122396 0.123047 0.123698 0.124349 0.125000 0.125651 0.126302 0.126953 0.127604 0.128255 0.128906 0.129557 0.130208 0.130859 0.131510 0.132161 0.132812 0.133464 0.134115 0.134766 0.135417 0.136068 0.136719 0.137370 0.138021 0.138672 0.139323 0.139974 0.140625 0.141276 0.141927 0.142578 0.143229 0.143880 0.144531 0.145182 0.145833 0.146484 0.147135 0.147786 0.148438 0.149089 0.149740 0.150391 0.151042 0.151693 0.152344 0.152995 0.153646 0.154297 0.154948 0.155599 0.156250 0.156901 0.157552 0.158203 0.158854 0.159505 0.160156 0.160807 0.161458 0.162109 0.162760 0.163411 0.164062 0.164714 0.165365 0.166016 0.166667 0.167318 0.167969 0.168620 0.169271 0.169922 0.170573 0.171224 0.171875 0.172526 0.173177 0.173828 0.174479 0.175130 0.175781 0.176432 0.177083 0.177734 0.178385 0.179036 0.179688 0.180339 0.180990 0.181641 0.182292 0.182943 0.183594 0.184245 0.184896 0.185547 0.186198 0.186849 0.187500 0.188151 0.188802 0.189453 0.190104 0.190755 0.191406 0.192057 0.192708 0.193359 0.194010 0.194661 0.195312 0.195964 0.196615 0.197266 0.197917 0.198568 0.199219 0.199870 0.200521 0.201172 0.201823 0.202474 0.203125 0.203776 0.204427 0.205078 0.205729 0.206380 0.207031 0.207682 0.208333 0.208984 0.209635 0.210286 0.210938 0.211589 0.212240 0.212891 0.213542 0.214193 0.214844 0.215495 0.216146 0.216797 0.217448 0.218099 0.218750 0.219401 0.220052 0.220703 0.221354 0.222005 0.222656 0.223307 0.223958 0.224609 0.225260 0.225911 0.226562 0.227214 0.227865 0.228516 0.229167 0.229818 0.230469 0.231120 0.231771 0.232422 0.233073 0.233724 0.234375 0.235026 0.235677
       0.33991        0.33991        0.33991        0.33991        0.33991        0.33991        0.33991        0.33991        0.33991        0.33991        0.33991        0.33991        0.33991        0.33991        0.33991        0.33991        0.33991        0.33991        0.33991        0.33991        0.33991        0.33991        0.33991        0.33991        0.33991        0.33991        0.33991        0.33991        0.33991        0.33991        0.33991        0.33991        0.33991        0.33991        0.33991        0.33991        0.33991        0.33991        0.33991        0.33991        0.33991        0.33991        0.33991        0.33991        0.33991        0.33991        0.33991        0.33991        0.33991        0.33991        0.33991        0.69638        0.85907        0.53494        0.10428       -0.03127       -0.39336       -0.18252       -0.28756       -0.11380       -0.05619       -0.11110       -0.05385       -0.17330       -0.20927       -0.21960       -0.30997       -0.32227       -0.44983       -0.36382       -0.43213       -0.42557       -0.39884       -0.41834       -0.46024       -0.51538       -0.56168       -0.56120       -0.53509       -0.36458       -0.33640       -0.29838       -0.27835       -0.18933       -0.17631        0.05539        0.13383        0.16609        0.25933        0.38074        0.45623        0.52147        0.59254        0.59026        0.57892        0.69721        0.80646        0.70754        0.74111        0.62591        0.56774        0.48257        0.42775        0.51082        0.39459        0.25817        0.11115        0.10271        0.08005       -0.02311        0.02969        0.04170       -0.00059        0.02232        0.01948        0.23708        0.26883        0.29394        0.43083        0.45114        0.41109        0.58851        0.62423        0.64689        0.72943        0.67805        0.64859        0.66427        0.56325        0.46590        0.41903        0.30084        0.25616        0.17673        0.13263        0.05284        0.05640        0.06167        0.09490        0.15215        0.23839        0.28987        0.41156        0.46121        0.48266        0.57282        0.60607        0.63747        0.62093        0.56225        0.45856        0.47160        0.37735        0.26689        0.20616        0.15830        0.16617        0.14845        0.14631        0.17438        0.31003        0.32297        0.39725        0.43617        0.42763        0.48770        0.55911        0.55294        0.49666        0.45516        0.40888        0.36311        0.33345        0.29953        0.25063        0.24025        0.23826        0.24827        0.22079        0.30533        0.36094        0.38702        0.43879        0.45595        0.47155        0.42519        0.40565        0.40263        0.36019        0.32240        0.27208        0.26878        0.26230        0.23461        0.28344        0.28338        0.34636        0.37747        0.42358        0.47666        0.41083        0.42416        0.43207        0.40746        0.34707        0.32415        0.29236        0.31637        0.26976        0.31352        0.30643        0.32503        0.33302        0.35704        0.31811        0.39390        0.41547        0.37855        0.34749        0.37098        0.31365        0.29172        0.29963        0.32055        0.30464        0.31736        0.33609        0.34851        0.33996        0.36777        0.36741        0.40953        0.38335        0.33408        0.34180        0.29609        0.28491        0.32133        0.31593        0.32704        0.33636        0.33361        0.37820        0.32820        0.32852        0.33362        0.33892        0.30224        0.30980        0.27558        0.30060        0.32412        0.30343        0.32420        0.34885        0.35663        0.29152        0.32942        0.29329        0.29991        0.27987        0.24285        0.29896        0.30047        0.34187        0.33619        0.33699        0.32401        0.34817        0.30978        0.34327        0.31454        0.31418        0.28256        0.32914        0.31667        0.35871        0.32311        0.33491        0.34133        0.29421        0.27350        0.30860        0.24648        0.22593        0.33820        0.32022        0.35471        0.33906        0.35604        0.32642        0.33672        0.34409        0.26229        0.25353        0.31122        0.30334        0.30910        0.31947        0.33873        0.33342        0.29615        0.29132        0.34289        0.32028        0.30725        0.28433        0.32224        0.34413        0.39637        0.34603        0.30780        0.27633        0.30272        0.28187        0.29426        0.26935        0.25838        0.31232        0.33320        0.34359        0.35203        0.32224        0.28457        0.29779        0.26518        0.26954        0.24920        0.31258        0.27346        0.23379        0.30620        0.30367        0.26739        0.29132        0.21014        0.21312        0.24834        0.18849        0.26089        0.33195        0.24522        0.22629        0.31519        0.31778        0.32018        0.31758        0.26075        0.23333        0.18846        0.21724        0.19179        0.23376        0.22315        0.27067        0.33245        0.31655        0.23026        0.12686        0.06395       -0.01496       -0.09701       -0.60675
2.750507 2.721317 2.692286 2.663415 2.634704 2.606153 2.577761 2.549529 2.521457 2.493545 2.465792 2.438199 2.410765 2.383491 2.356378 2.329423 2.302629 2.275994 2.249519 2.223203 2.197048 2.171052 2.145216 2.119539 2.094022 2.068665 2.043468 2.018430 1.993552 1.968834 1.944275 1.919876 1.895637 1.871558 1.847638 1.823878 1.800278 1.776837 1.753556 1.730435 1.707474 1.684672 1.662030 1.639548 1.617225 1.595062 1.573059 1.551216 1.529532 1.508008 1.486644 1.703402 2.122467 1.682871 1.176044 1.042163 0.445233 0.843357 0.561787 0.843564 0.806372 0.814563 0.755869 0.743963 0.591015 0.553382 0.498483 0.428273 0.243621 0.369259 0.199254 0.327541 0.222414 0.203415 0.177947 0.038919 0.012549 0.016304 -0.068177 0.129844 0.228490 0.186994 0.174630 0.327511 0.184483 0.513972 0.618140 0.620787 0.637700 0.873570 0.829573 0.938949 0.922706 1.021044 0.987858 1.076829 1.164818 1.039374 1.151827 0.910114 0.925154 0.790556 0.648316 0.798747 0.698026 0.482908 0.329719 0.250486 0.261234 0.146922 0.127194 0.159559 0.105961 0.126045 0.075281 0.252484 0.358046 0.342411 0.471928 0.544817 0.417965 0.586513 0.724467 0.666709 0.727798 0.708296 0.717707 0.655019 0.598400 0.503932 0.376273 0.277750 0.220081 0.084625 0.119752 -0.096219 -0.045483 -0.060287 -0.074848 -0.018544 0.135813 0.070843 0.241918 0.306380 0.338743 0.387432 0.500419 0.472253 0.480060 0.492196 0.306081 0.292095 0.283961 0.086203 0.042270 -0.070723 -0.009899 -0.061017 -0.092396 -0.082870 0.037510 0.086836 0.123127 0.216764 0.227740 0.235764 0.289208 0.442250 0.389780 0.266720 0.240238 0.225110 0.150953 0.147631 0.117600 0.003207 0.020574 0.072057 0.000538 0.059261 0.143283 0.146841 0.231258 0.246529 0.273310 0.195360 0.219568 0.147322 0.162062 0.122092 0.051003 -0.006228 0.015243 -0.000651 -0.038957 0.065624 0.024546 0.123773 0.153009 0.200118 0.186902 0.152262 0.158748 0.177773 0.127541 0.057340 -0.001785 0.050681 0.031423 -0.020999 0.039565 0.038085 0.059758 0.050301 0.063463 0.064665 0.137863 0.144350 0.054882 0.052778 0.053702 0.016728 -0.022886 0.016722 0.019836 0.007091 0.016206 0.049837 0.060643 0.055412 0.082968 0.056070 0.148669 0.061103 0.032238 0.039354 -0.035647 0.004313 0.040890 0.003094 0.034110 0.050089 0.024626 0.117078 0.028744 0.002107 0.056393 0.004223 0.009955 0.003428 -0.025227 0.022651 0.006724 0.002206 0.052505 0.054521 0.056744 0.033178 0.037613 0.028594 0.019548 -0.019566 -0.026553 0.029541 0.051140 0.080091 0.084433 0.062063 0.074956 0.111998 0.054240 0.109090 0.081833 0.043638 0.034803 0.105788 0.070665 0.116225 0.092337 0.064101 0.124195 0.050838 0.012333 0.091364 -0.032341 -0.010839 0.109264 0.053037 0.153936 0.092837 0.101834 0.051158 0.076273 0.092949 -0.018476 -0.029131 0.056535 0.055507 0.042732 0.037587 0.111676 0.054659 -0.008708 0.056396 0.053677 0.054270 0.052776 -0.016582 0.070070 0.071153 0.131780 0.040188 0.014205 -0.027463 -0.003082 -0.016440 -0.001316 -0.050796 -0.032335 0.008299 0.039013 0.016631 0.037967 -0.001493 -0.043669 -0.038245 -0.027137 -0.074718 -0.061830 -0.015508 0.004779 -0.095933 -0.001221 -0.038863 -0.069381 0.001158 -0.139599 -0.084979 -0.094513 -0.196073 -0.038180 0.054686 -0.053767 -0.156518 0.041705 0.051220 -0.043374 0.054199 -0.064243 0.254627 0.159374 0.225397 0.251207 0.278728 0.241008 0.306932 0.325832 0.361745 0.208730 0.234745 0.082238 -0.020835 -0.662872
0.072396 0.072899 0.074407 0.076920 0.080438 0.084959 0.090482 0.097007 0.104529 0.113048 0.122559 0.133057 0.144539 0.156997 0.170423 0.184809 0.200143 0.216413 0.233603 0.251696 0.270672 0.290509 0.311179 0.332655 0.354902 0.377883 0.401558 0.425879 0.450797 0.476254 0.502191 0.528540 0.555228 0.582175 0.609298 0.636504 0.663694 0.690763 0.717600 0.744085 0.770093 0.795491 0.820140 0.843895 0.866605 0.888111 0.908254 0.926864 0.943771 0.958802 0.971779 0.982524 0.990860 0.996609 0.999596 0.999649 0.996602 0.990297 0.980583 0.967319 0.950378 0.929647 0.905031 0.876452 0.843853 0.807203 0.766494 0.721746 0.673010 0.620368 0.563937 0.503867 0.440348 0.373608 0.303911 0.231566 0.156920 0.080361 0.002315 0.076750 0.156330 0.235886 0.314847 0.392611 0.468551 0.542020 0.612356 0.678885 0.740931 0.797825 0.848904 0.893530 0.931091 0.961014 0.982773 0.995897 0.999984 0.994705 0.979818 0.955174 0.920725 0.876534 0.822780 0.759764 0.687910 0.607772 0.520035 0.425508 0.325127 0.219947 0.111137 0.000034 0.112207 0.223946 0.333758 0.440110 0.541452 0.636240 0.722957 0.800147 0.866434 0.920555 0.961384 0.987964 0.999526 0.995518 0.975626 0.939793 0.888233 0.821443 0.740208 0.645605 0.538994 0.422010 0.296544 0.164721 0.028866 0.108530 0.244851 0.377408 0.503490 0.620422 0.725620 0.816658 0.891329 0.947699 0.984171 0.999536 0.993018 0.964316 0.913631 0.841688 0.749738 0.639556 0.513423 0.374083 0.224704 0.068808 0.089801 0.247128 0.399083 0.541589 0.670693 0.782686 0.874208 0.942370 0.984848 0.999979 0.986838 0.945295 0.876053 0.780662 0.661505 0.521764 0.365344 0.196786 0.021145 0.156152 0.329470 0.493142 0.641661 0.769868 0.873144 0.947589 0.990189 0.998951 0.973019 0.912744 0.819719 0.696769 0.547888 0.378137 0.193493 0.000650 0.193205 0.380664 0.554374 0.707330 0.833175 0.926478 0.982987 0.999848 0.975776 0.911160 0.808106 0.670410 0.503448 0.313996 0.109984 0.099828 0.306205 0.499847 0.671807 0.813927 0.919231 0.982300 0.999584 0.969626 0.893204 0.773370 0.615365 0.426436 0.215538 0.007073 0.230310 0.442808 0.633500 0.792206 0.910202 0.980724 0.999398 0.964542 0.877352 0.741913 0.565066 0.356110 0.126340 0.111517 0.344014 0.557717 0.740012 0.879852 0.968471 0.999973 0.971767 0.884823 0.743715 0.556444 0.334034 0.089931 0.160782 0.402300 0.619085 0.796896 0.923729 0.990696 0.992680 0.928789 0.802534 0.621709 0.397973 0.146155 0.116687 0.372401 0.602992 0.791892 0.925202 0.992742 0.988901 0.913163 0.770280 0.570054 0.326743 0.058099 0.215885 0.474450 0.697629 0.867842 0.971292 0.999177 0.948490 0.822417 0.630230 0.386697 0.111002 0.174687 0.447009 0.683288 0.863466 0.971849 0.998541 0.940435 0.801637 0.593291 0.332776 0.042332 0.252792 0.526505 0.754184 0.914936 0.993565 0.982109 0.880726 0.697872 0.449715 0.158787 0.147984 0.441734 0.694367 0.881276 0.983805 0.991193 0.901809 0.723519 0.473122 0.174861 0.141829 0.445196 0.704331 0.892376 0.989345 0.984376 0.877042 0.677633 0.406296 0.091122 0.234697 0.536319 0.780986 0.941623 0.999937 0.948601 0.792307 0.547496 0.240760 0.093939 0.418975 0.697255 0.896505 0.993079 0.974895 0.843070 0.612075 0.308283 0.032909 0.371132 0.665784 0.880952 0.989851 0.978290 0.846667 0.610214 0.297397 0.053387 0.398423 0.694114 0.902520 0.996321 0.962528 0.804455 0.541586 0.207366 0.154941
1.000000 1.000000 1.000000 1.000000 1.000000 1.000000 1.000000 1.000000 1.000000 1.000000 1.000000 1.000000 1.000000 1.000000 1.000000 1.000000 1.000000 1.000000 1.000000 1.000000 1.000000 1.000000 1.000000 1.000000 1.000000 1.000000 1.000000 1.000000 1.000000 1.000000 1.000000 1.000000 1.000000 1.000000 1.000000 1.000000 1.000000 1.000000 1.000000 1.000000 1.000000 1.000000 1.000000 1.000000 1.000000 1.000000 1.000000 1.000000 1.000000 1.000000 1.000000 1.000000 0.920391 0.920391 0.920391 0.912365 0.912365 0.912365 0.912365 0.912365 0.912365 0.912365 0.912365 0.912365 0.912365 0.912365 0.912365 0.912365 0.912365 0.912365 0.912365 0.912365 0.912365 0.912365 0.912365 0.912365 0.912365 0.912365 0.912365 0.912365 0.912365 0.912365 0.912365 0.912365 0.912365 0.912365 0.912365 0.912365 0.912365 0.912365 0.912365 0.912365 0.912365 0.912365 0.912365 0.912365 0.941508 0.942941 0.951142 0.950760 0.950165 0.948105 0.946921 0.946568 0.946467 0.946797 0.947503 0.948465 0.954711 0.955940 0.960370 0.962035 0.962790 0.963447 0.964117 0.963714 0.955093 0.954881 0.953502 0.952935 0.955461 0.954512 0.953726 0.954695 0.954581 0.955258 0.955181 0.954491 0.953411 0.952318 0.951378 0.950963 0.950755 0.951484 0.951900 0.953370 0.956664 0.957248 0.957379 0.957533 0.957636 0.958925 0.957907 0.957350 0.945350 0.945105 0.943977 0.944064 0.947255 0.947254 0.947829 0.948431 0.950144 0.950493 0.945973 0.944863 0.936986 0.934484 0.931502 0.926011 0.921343 0.923240 0.924812 0.925535 0.925917 0.921018 0.920900 0.918752 0.915346 0.917875 0.917803 0.919122 0.920503 0.918888 0.918257 0.917171 0.915493 0.907824 0.895661 0.894579 0.892992 0.897788 0.898635 0.897611 0.900654 0.889115 0.873533 0.852299 0.854684 0.858009 0.848647 0.845220 0.845456 0.846212 0.849940 0.842600 0.840093 0.835575 0.825406 0.818673 0.812661 0.804196 0.803943 0.795821 0.786414 0.782897 0.807703 0.801447 0.811195 0.815782 0.815397 0.813256 0.807870 0.799801 0.775680 0.775290 0.761439 0.738380 0.738900 0.737555 0.736591 0.734017 0.739899 0.730297 0.728053 0.710966 0.709413 0.714058 0.717666 0.715527 0.714578 0.719252 0.723953 0.707041 0.696787 0.687116 0.691818 0.695862 0.695102 0.697841 0.674218 0.649084 0.632047 0.644508 0.651837 0.625963 0.642472 0.656022 0.630288 0.626995 0.617393 0.619748 0.609837 0.612911 0.611850 0.611412 0.616659 0.630726 0.620000 0.617833 0.628552 0.631750 0.643718 0.643376 0.645917 0.612636 0.614241 0.635718 0.640072 0.624059 0.640134 0.628771 0.641885 0.678503 0.669973 0.629598 0.623810 0.611133 0.575038 0.563688 0.559447 0.567525 0.599578 0.596689 0.569732 0.543242 0.546938 0.557701 0.563305 0.564358 0.551528 0.558643 0.548333 0.525333 0.533421 0.539783 0.537450 0.524301 0.508112 0.509890 0.514727 0.530319 0.527664 0.490931 0.511503 0.506815 0.494648 0.426900 0.440541 0.426968 0.415681 0.373895 0.384515 0.393282 0.378290 0.298496 0.282584 0.283316 0.283353 0.271704 0.250368 0.226765 0.218430 0.184500 0.188974 0.175064 0.150156 0.149544 0.133920 0.124200 0.128659 0.100842 0.156692 0.218679 0.220157 0.220157 0.220157 0.220157 0.220157 0.220157 0.199925 0.199925 0.199925 0.199925 0.199925 0.199925 0.199925 0.199925 0.199925 0.224097 0.224097 0.224097 0.224097 0.224097 0.224097 0.224097 0.224097 0.224097 0.224097 0.224097 0.224097 0.224097 0.224097
0.000000 0.000000 0.000000 0.000000 0.000000 0.000000 0.000000 0.000000 0.000000 0.000000 0.000000 0.000000 0.000000 0.000000 0.000000 0.000000 0.000000 0.000000 0.000000 0.000000 0.000000 0.000000 0.000000 0.000000 0.000000 7.000000 4.000000 0.000000 0.000000 0.000000 0.000000 0.000000 0.000000 0.000000 0.000000 0.000000 0.000000 0.000000 0.000000 0.000000 0.000000 0.000000 0.000000 0.000000 0.000000 0.000000 0.000000 0.000000 0.000000 0.000000 0.000000 0.000000 0.180334 0.180334 0.180334 0.199007 0.199007 0.199007 0.199007 0.199007 0.199007 0.199007 0.199007 0.199007 0.199007 0.199007 0.199007 0.199007 0.199007 0.199007 0.199007 0.199007 0.199007 0.199007 0.199007 0.199007 0.199007 0.199007 0.199007 0.199007 0.199007 0.199007 0.199007 0.199007 0.199007 0.199007 0.199007 0.199007 0.199007 0.199007 0.199007 0.199007 0.199007 0.199007 0.199007 0.199007 0.225018 0.225018 0.225018 0.225018 0.225018 0.225018 0.225018 0.225018 0.225018 0.225018 0.225018 0.225018 0.225018 0.225018 0.225018 0.225018 0.225018 0.225018 0.225018 0.225018 0.225018 0.225018 0.225018 0.225018 0.225018 0.225018 0.225018 0.225018 0.225018 0.244339 0.244339 0.244339 0.244339 0.244339 0.244339 0.244339 0.244339 0.244339 0.244339 0.244339 0.244339 0.244339 0.244339 0.244339 0.244339 0.244339 0.244339 0.244339 0.244339 0.244339 0.244339 0.244339 0.251976 0.251976 0.251976 0.251976 0.251976 0.251976 0.251976 0.251976 0.251976 0.251976 0.251976 0.251976 0.251976 0.251976 0.251976 0.251976 0.251976 0.251976 0.251976 0.251976 0.264906 0.264906 0.264906 0.264906 0.264906 0.264906 0.264906 0.264906 0.264906 0.264906 0.264906 0.264906 0.264906 0.264906 0.264906 0.264906 0.264906 0.264906 0.264906 0.264906 0.264906 0.264906 0.264906 0.264906 0.264906 0.264906 0.264906 0.264906 0.264906 0.264906 0.264906 0.264906 0.264906 0.264906 0.264906 0.264906 0.264906 0.264906 0.264906 0.264906 0.264906 0.264906 0.264906 0.264906 0.264906 0.264906 0.264906 0.264906 0.264906 0.264906 0.264906 0.264906 0.264906 0.264906 0.264906 0.264906 0.264906 0.264906 0.264906 0.264906 0.264906 0.264906 0.256074 0.256074 0.256074 0.256074 0.256074 0.256074 0.256074 0.256074 0.256074 0.256074 0.256074 0.256074 0.256074 0.256074 0.269680 0.269680 0.269680 0.269680 0.269680 0.269680 0.269680 0.269680 0.269680 0.269680 0.269680 0.269680 0.264906 0.264906 0.264906 0.264906 0.264906 0.264906 0.264906 0.264906 0.264906 0.264906 0.264906 0.264906 0.269680 0.269680 0.269680 0.269680 0.269680 0.269680 0.269680 0.269680 0.269680 0.269680 0.269680 0.264906 0.264906 0.264906 0.264906 0.264906 0.264906 0.264906 0.264906 0.264906 0.264906 0.264906 0.256074 0.256074 0.256074 0.256074 0.256074 0.256074 0.256074 0.256074 0.256074 0.256074 0.256074 0.264906 0.264906 0.264906 0.264906 0.264906 0.264906 0.264906 0.264906 0.264906 0.264906 0.260378 0.260378 0.260378 0.260378 0.260378 0.260378 0.260378 0.260378 0.260378 0.260378 0.256074 0.256074 0.256074 0.256074 0.256074 0.256074 0.256074 0.256074 0.256074 0.256074 0.260378 0.260378 0.260378 0.260378 0.260378 0.260378 0.260378 0.260378 0.260378 0.256074 0.256074 0.256074 0.256074 0.256074 0.256074 0.256074 0.256074 0.256074 0.251976 0.251976 0.251976 0.251976 0.251976 0.251976 0.251976 0.251976 0.251976 0.251976 0.251976 0.251976 0.251976 0.251976
