# Output from CTFFind version 4.1.9, run on 2019-11-02 17:49:27
# Input file: stack11_bm3d_averaged_1_0.5_0_2500_half.mrc ; Number of micrographs: 1
# Pixel size: 3.000 Angstroms ; acceleration voltage: 300.0 keV ; spherical aberration: 0.00 mm ; amplitude contrast: 0.07
# Box size: 512 pixels ; min. res.: 30.0 Angstroms ; max. res.: 5.0 Angstroms ; min. def.: 5000.0 um; max. def. 50000.0 um; num. frames averaged: 1
# 6 lines per micrograph: #1 - spatial frequency (1/Angstroms); #2 - 1D rotational average of spectrum (assuming no astigmatism); #3 - 1D rotational average of spectrum; #4 - CTF fit; #5 - cross-correlation between spectrum and CTF fit; #6 - 2sigma of expected cross correlation of noise
0.000000 0.000651 0.001302 0.001953 0.002604 0.003255 0.003906 0.004557 0.005208 0.005859 0.006510 0.007161 0.007812 0.008464 0.009115 0.009766 0.010417 0.011068 0.011719 0.012370 0.013021 0.013672 0.014323 0.014974 0.015625 0.016276 0.016927 0.017578 0.018229 0.018880 0.019531 0.020182 0.020833 0.021484 0.022135 0.022786 0.023438 0.024089 0.024740 0.025391 0.026042 0.026693 0.027344 0.027995 0.028646 0.029297 0.029948 0.030599 0.031250 0.031901 0.032552 0.033203 0.033854 0.034505 0.035156 0.035807 0.036458 0.037109 0.037760 0.038411 0.039062 0.039714 0.040365 0.041016 0.041667 0.042318 0.042969 0.043620 0.044271 0.044922 0.045573 0.046224 0.046875 0.047526 0.048177 0.048828 0.049479 0.050130 0.050781 0.051432 0.052083 0.052734 0.053385 0.054036 0.054688 0.055339 0.055990 0.056641 0.057292 0.057943 0.058594 0.059245 0.059896 0.060547 0.061198 0.061849 0.062500 0.063151 0.063802 0.064453 0.065104 0.065755 0.066406 0.067057 0.067708 0.068359 0.069010 0.069661 0.070312 0.070964 0.071615 0.072266 0.072917 0.073568 0.074219 0.074870 0.075521 0.076172 0.076823 0.077474 0.078125 0.078776 0.079427 0.080078 0.080729 0.081380 0.082031 0.082682 0.083333 0.083984 0.084635 0.085286 0.085938 0.086589 0.087240 0.087891 0.088542 0.089193 0.089844 0.090495 0.091146 0.091797 0.092448 0.093099 0.093750 0.094401 0.095052 0.095703 0.096354 0.097005 0.097656 0.098307 0.098958 0.099609 0.100260 0.100911 0.101562 0.102214 0.102865 0.103516 0.104167 0.104818 0.105469 0.106120 0.106771 0.107422 0.108073 0.108724 0.109375 0.110026 0.110677 0.111328 0.111979 0.112630 0.113281 0.113932 0.114583 0.115234 0.115885 0.116536 0.117188 0.117839 0.118490 0.119141 0.119792 0.120443 0.121094 0.121745 0.122396 0.123047 0.123698 0.124349 0.125000 0.125651 0.126302 0.126953 0.127604 0.128255 0.128906 0.129557 0.130208 0.130859 0.131510 0.132161 0.132812 0.133464 0.134115 0.134766 0.135417 0.136068 0.136719 0.137370 0.138021 0.138672 0.139323 0.139974 0.140625 0.141276 0.141927 0.142578 0.143229 0.143880 0.144531 0.145182 0.145833 0.146484 0.147135 0.147786 0.148438 0.149089 0.149740 0.150391 0.151042 0.151693 0.152344 0.152995 0.153646 0.154297 0.154948 0.155599 0.156250 0.156901 0.157552 0.158203 0.158854 0.159505 0.160156 0.160807 0.161458 0.162109 0.162760 0.163411 0.164062 0.164714 0.165365 0.166016 0.166667 0.167318 0.167969 0.168620 0.169271 0.169922 0.170573 0.171224 0.171875 0.172526 0.173177 0.173828 0.174479 0.175130 0.175781 0.176432 0.177083 0.177734 0.178385 0.179036 0.179688 0.180339 0.180990 0.181641 0.182292 0.182943 0.183594 0.184245 0.184896 0.185547 0.186198 0.186849 0.187500 0.188151 0.188802 0.189453 0.190104 0.190755 0.191406 0.192057 0.192708 0.193359 0.194010 0.194661 0.195312 0.195964 0.196615 0.197266 0.197917 0.198568 0.199219 0.199870 0.200521 0.201172 0.201823 0.202474 0.203125 0.203776 0.204427 0.205078 0.205729 0.206380 0.207031 0.207682 0.208333 0.208984 0.209635 0.210286 0.210938 0.211589 0.212240 0.212891 0.213542 0.214193 0.214844 0.215495 0.216146 0.216797 0.217448 0.218099 0.218750 0.219401 0.220052 0.220703 0.221354 0.222005 0.222656 0.223307 0.223958 0.224609 0.225260 0.225911 0.226562 0.227214 0.227865 0.228516 0.229167 0.229818 0.230469 0.231120 0.231771 0.232422 0.233073 0.233724 0.234375 0.235026 0.235677
       0.31576        0.31576        0.31576        0.31576        0.31576        0.31576        0.31576        0.31576        0.31576        0.31576        0.31576        0.31576        0.31576        0.31576        0.31576        0.31576        0.31576        0.31576        0.31576        0.31576        0.31576        0.31576        0.31576        0.31576        0.31576        0.31576        0.31576        0.31576        0.31576        0.31576        0.31576        0.31576        0.31576        0.31576        0.31576        0.31576        0.31576        0.31576        0.31576        0.31576        0.31576        0.31576        0.31576        0.31576        0.31576        0.31576        0.31576        0.31576        0.31576        0.31576        0.31576        0.68431        0.87239        0.52048        0.08415       -0.07033       -0.42895       -0.21001       -0.29856       -0.11983       -0.08082       -0.11940       -0.07141       -0.21243       -0.24048       -0.26311       -0.33247       -0.33909       -0.49609       -0.38651       -0.46972       -0.45422       -0.42334       -0.47304       -0.55240       -0.56734       -0.59126       -0.63108       -0.58257       -0.41955       -0.38060       -0.33155       -0.31937       -0.21555       -0.20100        0.01938        0.06499        0.09920        0.22078        0.37095        0.44111        0.51604        0.55840        0.55313        0.57175        0.69831        0.81510        0.74779        0.73462        0.67580        0.58259        0.48661        0.40558        0.49159        0.36939        0.19700        0.07562        0.04254        0.00347       -0.06178       -0.04352       -0.03067       -0.07695       -0.00695       -0.02403        0.20799        0.24718        0.29160        0.42947        0.46772        0.40326        0.52946        0.63139        0.70436        0.76907        0.69104        0.66309        0.70133        0.58895        0.50753        0.41773        0.28810        0.18341        0.15602        0.10814        0.03436        0.01164       -0.00257        0.07437        0.13091        0.20087        0.28334        0.40380        0.41503        0.51039        0.60143        0.63655        0.61058        0.63005        0.55195        0.44409        0.44024        0.35000        0.22923        0.18546        0.14894        0.10119        0.11673        0.06159        0.09719        0.21692        0.26217        0.33784        0.34327        0.45251        0.51074        0.53581        0.55145        0.46706        0.42492        0.39329        0.37849        0.30917        0.24964        0.19927        0.18208        0.16036        0.18992        0.17564        0.26808        0.33200        0.36194        0.41934        0.46213        0.47688        0.44570        0.39128        0.41111        0.37588        0.29154        0.27538        0.22959        0.21081        0.19184        0.20919        0.22987        0.32758        0.37085        0.36508        0.45560        0.43800        0.43964        0.43032        0.39421        0.34177        0.32967        0.27764        0.23142        0.23360        0.26519        0.26766        0.29795        0.29538        0.33914        0.32803        0.41020        0.41537        0.37256        0.34248        0.36175        0.27950        0.27821        0.26282        0.27594        0.25820        0.28065        0.29371        0.31618        0.35276        0.35716        0.35883        0.33067        0.35047        0.28702        0.32337        0.26601        0.24851        0.27980        0.27943        0.30517        0.31528        0.33152        0.32239        0.31068        0.31775        0.28685        0.28311        0.25862        0.28177        0.26991        0.31142        0.28256        0.25806        0.30627        0.31024        0.31475        0.29207        0.29656        0.29370        0.24155        0.23560        0.21788        0.27543        0.26913        0.30358        0.31771        0.32007        0.31092        0.30058        0.27586        0.28188        0.33179        0.27592        0.27007        0.29314        0.29707        0.34241        0.33979        0.36288        0.33035        0.31072        0.27997        0.26149        0.26201        0.22433        0.26413        0.29765        0.29669        0.27673        0.29452        0.27005        0.32170        0.33518        0.25065        0.21525        0.26433        0.33662        0.27870        0.31440        0.32609        0.32820        0.29663        0.31788        0.34583        0.29665        0.29592        0.26285        0.27351        0.34760        0.34930        0.25626        0.26824        0.25336        0.27129        0.22862        0.28962        0.22129        0.25245        0.32249        0.31487        0.34145        0.29829        0.23409        0.23722        0.24264        0.24509        0.17708        0.21516        0.25813        0.28763        0.28128        0.29914        0.28747        0.27996        0.28466        0.20887        0.18138        0.18170        0.23350        0.20006        0.22415        0.23312        0.20927        0.24854        0.33110        0.29191        0.30266        0.21863        0.26882        0.23469        0.28046        0.30328        0.14872        0.20999        0.22648        0.13926        0.23967        0.11138        0.17439        0.19317        0.13376       -0.12345       -0.65224
2.585807 2.558825 2.531990 2.505301 2.478759 2.452363 2.426112 2.400009 2.374051 2.348240 2.322575 2.297056 2.271683 2.246457 2.221376 2.196443 2.171655 2.147013 2.122518 2.098169 2.073967 2.049910 2.026000 2.002236 1.978618 1.955147 1.931822 1.908643 1.885610 1.862723 1.839983 1.817389 1.794941 1.772640 1.750484 1.728475 1.706612 1.684896 1.663325 1.641901 1.620623 1.599492 1.578506 1.557667 1.536974 1.516428 1.496027 1.475773 1.455665 1.435703 1.415888 1.638862 2.043797 1.614832 1.127632 0.985669 0.422320 0.811516 0.562676 0.835645 0.771596 0.787945 0.752765 0.710258 0.559766 0.510391 0.486445 0.447583 0.203246 0.379909 0.204591 0.303820 0.239219 0.181340 0.128658 0.002557 0.043879 -0.015613 -0.054985 0.104087 0.206830 0.199075 0.153379 0.331740 0.198657 0.501400 0.571983 0.545186 0.589223 0.878751 0.807431 0.947261 0.889434 0.973939 0.939826 1.081663 1.142936 1.082871 1.126319 0.958774 0.944617 0.786887 0.652170 0.769005 0.701624 0.458592 0.306611 0.253872 0.208571 0.148944 0.088249 0.124829 0.064344 0.158037 0.049238 0.261250 0.376939 0.362516 0.477764 0.587016 0.471791 0.539044 0.699936 0.752882 0.780054 0.736446 0.737167 0.720751 0.628674 0.574847 0.432071 0.284881 0.207047 0.076793 0.134312 -0.043034 -0.027307 -0.081731 -0.036234 0.007849 0.141399 0.093784 0.305778 0.277678 0.367431 0.452412 0.526663 0.509773 0.516980 0.505167 0.333002 0.305975 0.276013 0.102228 0.048578 0.002102 -0.037838 -0.042692 -0.095051 -0.101536 -0.020739 0.054159 0.137918 0.132340 0.226970 0.333932 0.303499 0.413296 0.397633 0.282064 0.232664 0.254283 0.215313 0.101282 0.071766 0.017905 0.002715 0.006776 -0.018292 0.059427 0.148737 0.142286 0.223909 0.251171 0.306541 0.261090 0.219747 0.187871 0.208758 0.154523 0.046348 0.053647 -0.008816 -0.011181 -0.031366 0.014669 0.017879 0.172158 0.121777 0.187020 0.233447 0.203458 0.195613 0.199998 0.133931 0.107404 0.067870 0.043996 -0.041910 0.007078 0.018936 0.052586 0.046371 0.077152 0.099810 0.118233 0.139930 0.182542 0.075635 0.096599 0.068580 -0.000816 0.004333 0.009126 -0.010714 0.016633 0.004789 0.032892 0.071902 0.091123 0.097519 0.052377 0.093044 0.055909 0.013941 0.062043 -0.036317 -0.015352 0.017807 -0.000512 0.048371 0.057242 0.045386 0.055898 0.044095 0.046150 0.016256 -0.005396 0.001146 0.016834 -0.014186 0.067864 -0.017306 0.002405 0.051257 0.047733 0.027330 0.044839 0.037050 0.017253 -0.028271 -0.047767 -0.020146 0.014420 0.015441 0.055179 0.062419 0.050790 0.084356 0.059962 0.024360 0.062719 0.089304 0.025713 0.028926 0.057637 0.059944 0.105525 0.114503 0.119074 0.112322 0.064516 0.047199 0.032972 0.010326 -0.003378 0.048466 0.079247 0.050983 0.032066 0.035278 0.033200 0.085523 0.075157 -0.044826 -0.051980 0.030528 0.095709 0.015217 0.038055 0.065717 0.090097 0.020654 0.058053 0.091719 0.035059 0.043723 -0.023771 0.009638 0.108538 0.068055 -0.060719 -0.019244 -0.051206 -0.000050 -0.099608 0.030969 -0.114162 -0.035060 0.038422 0.020667 0.026853 -0.045944 -0.071103 -0.095325 -0.080189 -0.065963 -0.138856 -0.100597 -0.041201 0.001436 -0.030307 0.027981 -0.027685 -0.043956 0.052797 -0.115334 -0.094275 -0.106338 -0.008151 -0.061502 -0.023065 -0.012716 0.010098 0.011306 0.168324 -0.011226 0.136634 -0.006625 0.275818 0.245747 0.320257 0.279771 0.115478 0.212640 0.272563 0.063239 0.263595 0.115852 0.161482 0.246628 0.136041 -0.672344
0.072396 0.072898 0.074405 0.076917 0.080431 0.084949 0.090468 0.096987 0.104503 0.113015 0.122518 0.133008 0.144481 0.156929 0.170344 0.184718 0.200040 0.216297 0.233474 0.251553 0.270515 0.290336 0.310991 0.332451 0.354682 0.377647 0.401305 0.425609 0.450511 0.475952 0.501873 0.528206 0.554880 0.581814 0.608923 0.636117 0.663297 0.690359 0.717189 0.743669 0.769675 0.795074 0.819727 0.843489 0.866209 0.887731 0.907891 0.926525 0.943460 0.958523 0.971537 0.982326 0.990710 0.996514 0.999561 0.999681 0.996707 0.990481 0.980851 0.967678 0.950834 0.930207 0.905698 0.877232 0.844750 0.808221 0.767636 0.723015 0.674407 0.621893 0.565589 0.505646 0.442250 0.375627 0.306043 0.233802 0.159251 0.082776 0.004802 0.074206 0.153746 0.233280 0.312238 0.390020 0.466001 0.539536 0.609963 0.676610 0.738802 0.795869 0.847150 0.892006 0.929824 0.960031 0.982099 0.995557 0.999998 0.995093 0.980595 0.956352 0.922312 0.878533 0.825189 0.762575 0.691111 0.611345 0.523952 0.429738 0.329631 0.224682 0.116050 0.005001 0.107111 0.218857 0.328747 0.435251 0.536821 0.631914 0.719014 0.796662 0.863480 0.918201 0.959692 0.986989 0.999312 0.996101 0.977030 0.942026 0.891289 0.825302 0.744835 0.650945 0.544979 0.428553 0.303545 0.172063 0.036420 0.100901 0.237298 0.370084 0.496554 0.614029 0.719925 0.811807 0.887455 0.944921 0.982590 0.999228 0.994034 0.966679 0.917331 0.846683 0.755952 0.646882 0.521716 0.383171 0.234384 0.078854 0.079635 0.237103 0.389468 0.532653 0.662700 0.775881 0.868818 0.938589 0.982833 0.999841 0.988638 0.949038 0.881687 0.788074 0.670524 0.532159 0.376833 0.209041 0.033800 0.143493 0.317216 0.481709 0.631449 0.761255 0.866466 0.943128 0.988161 0.999494 0.976184 0.918489 0.827908 0.707166 0.560170 0.391897 0.208252 0.015872 0.178092 0.366250 0.541240 0.696029 0.824209 0.920266 0.979853 1.000000 0.979289 0.917969 0.818007 0.683054 0.518355 0.330573 0.127540 0.082051 0.288998 0.484005 0.658089 0.803016 0.911701 0.978587 0.999952 0.974153 0.901768 0.785646 0.630834 0.444405 0.235161 0.013251 0.210308 0.424164 0.617212 0.779180 0.901199 0.976312 0.999914 0.970068 0.887694 0.756606 0.583387 0.377107 0.148885 0.088678 0.322187 0.538191 0.723975 0.868324 0.962232 0.999506 0.977220 0.895985 0.760019 0.576985 0.357618 0.115135 0.135522 0.378596 0.598499 0.780821 0.913311 0.986731 0.995558 0.938454 0.818465 0.642946 0.423162 0.173635 0.088783 0.346022 0.580027 0.774044 0.913844 0.988817 0.992836 0.924815 0.788934 0.594453 0.355168 0.088477 0.185830 0.447018 0.674990 0.851837 0.963295 0.999962 0.958153 0.840343 0.655127 0.416669 0.143695 0.141912 0.416862 0.658325 0.845875 0.963242 0.999807 0.951635 0.821978 0.621165 0.365876 0.077834 0.217995 0.495522 0.729861 0.899582 0.988728 0.988407 0.897764 0.724249 0.483120 0.196198 0.110041 0.406857 0.665954 0.862169 0.976009 0.995652 0.918283 0.750571 0.508228 0.214632 0.101325 0.408056 0.674403 0.872839 0.982388 0.990916 0.896605 0.708362 0.445114 0.134011 0.192268 0.498934 0.752780 0.925814 0.998450 0.961817 0.818979 0.584843 0.284746 0.048195 0.376650 0.663246 0.874849 0.986470 0.984322 0.867667 0.649164 0.353648 0.015447 0.325540 0.628498 0.856609 0.981609 0.987390 0.872235 0.649314 0.345340 0.002486 0.350945 0.656132 0.879016 0.990509 0.975407 0.834609 0.585329 0.259150 0.101840
1.000000 1.000000 1.000000 1.000000 1.000000 1.000000 1.000000 1.000000 1.000000 1.000000 1.000000 1.000000 1.000000 1.000000 1.000000 1.000000 1.000000 1.000000 1.000000 1.000000 1.000000 1.000000 1.000000 1.000000 1.000000 1.000000 1.000000 1.000000 1.000000 1.000000 1.000000 1.000000 1.000000 1.000000 1.000000 1.000000 1.000000 1.000000 1.000000 1.000000 1.000000 1.000000 1.000000 1.000000 1.000000 1.000000 1.000000 1.000000 1.000000 1.000000 1.000000 1.000000 0.931924 0.931924 0.931924 0.923839 0.923839 0.923839 0.923839 0.923839 0.923839 0.923839 0.923839 0.923839 0.923839 0.923839 0.923839 0.923839 0.923839 0.923839 0.923839 0.923839 0.923839 0.923839 0.923839 0.923839 0.923839 0.923839 0.923839 0.923839 0.923839 0.923839 0.923839 0.923839 0.923839 0.923839 0.923839 0.923839 0.923839 0.923839 0.923839 0.923839 0.923839 0.923839 0.923839 0.923839 0.949854 0.951079 0.958929 0.958753 0.958239 0.956103 0.955203 0.954057 0.953612 0.953882 0.954488 0.955322 0.967089 0.968106 0.969649 0.970445 0.971143 0.971784 0.971622 0.972404 0.971631 0.971072 0.970549 0.966537 0.967196 0.967775 0.967916 0.967659 0.967215 0.971102 0.971255 0.970661 0.969806 0.967560 0.966589 0.966167 0.965880 0.965982 0.966443 0.967747 0.970932 0.970329 0.970046 0.970204 0.970301 0.970473 0.970890 0.971715 0.967693 0.966158 0.964371 0.962104 0.966288 0.963359 0.963159 0.964528 0.964929 0.965351 0.964166 0.959968 0.954147 0.953293 0.950986 0.941849 0.940961 0.941681 0.944170 0.944744 0.943293 0.936363 0.936884 0.929740 0.931463 0.934766 0.928688 0.929055 0.930233 0.930115 0.929457 0.928939 0.926058 0.923714 0.922275 0.921916 0.924874 0.924537 0.925733 0.925699 0.920275 0.912464 0.901272 0.899083 0.894873 0.897885 0.886544 0.889578 0.888241 0.883592 0.886900 0.886484 0.887440 0.884148 0.868642 0.852635 0.846737 0.851233 0.855992 0.855504 0.852419 0.845574 0.856905 0.830216 0.842178 0.851601 0.847404 0.847465 0.845689 0.844179 0.839332 0.840960 0.842440 0.843514 0.840561 0.837835 0.838179 0.817892 0.818915 0.760373 0.743125 0.731675 0.736490 0.744250 0.744704 0.743449 0.751307 0.755869 0.748528 0.732613 0.726166 0.722405 0.726789 0.719567 0.721831 0.701823 0.669789 0.665322 0.638034 0.655390 0.664629 0.628334 0.652479 0.663549 0.664199 0.662956 0.656795 0.654218 0.649023 0.650788 0.655432 0.667145 0.684324 0.707209 0.700480 0.690810 0.684891 0.665583 0.659182 0.655587 0.676172 0.652613 0.649313 0.669173 0.667968 0.650341 0.624876 0.613717 0.609302 0.604468 0.614931 0.599936 0.594158 0.584691 0.562120 0.557095 0.590118 0.605077 0.629148 0.600529 0.588923 0.579609 0.562148 0.572742 0.509239 0.509816 0.531832 0.539895 0.519024 0.507166 0.518107 0.520725 0.517796 0.508246 0.502988 0.493493 0.511158 0.549535 0.536229 0.517193 0.518156 0.517734 0.509882 0.418657 0.413541 0.389819 0.356258 0.297503 0.281162 0.272671 0.256858 0.243445 0.206697 0.203637 0.213021 0.216599 0.230170 0.232525 0.212993 0.225285 0.222211 0.208648 0.145870 0.134848 0.127039 0.116277 0.113568 0.089196 0.117254 0.189517 0.191595 0.191595 0.191595 0.191595 0.191595 0.191595 0.197669 0.197669 0.197669 0.197669 0.197669 0.197669 0.197669 0.197669 0.197669 0.209529 0.209529 0.209529 0.209529 0.209529 0.209529 0.209529 0.209529 0.209529 0.209529 0.209529 0.209529 0.209529 0.209529
0.000000 0.000000 0.000000 0.000000 0.000000 0.000000 0.000000 0.000000 0.000000 0.000000 0.000000 0.000000 0.000000 0.000000 0.000000 0.000000 0.000000 0.000000 0.000000 0.000000 0.000000 0.000000 0.000000 0.000000 0.000000 0.000000 0.000000 0.000000 0.000000 0.000000 0.000000 0.000000 0.000000 0.000000 0.000000 0.000000 0.000000 0.000000 0.000000 0.000000 0.000000 0.000000 0.000000 0.000000 0.000000 0.000000 0.000000 0.000000 0.000000 0.000000 0.000000 0.000000 0.180334 0.180334 0.180334 0.199007 0.199007 0.199007 0.199007 0.199007 0.199007 0.199007 0.199007 0.199007 0.199007 0.199007 0.199007 0.199007 0.199007 0.199007 0.199007 0.199007 0.199007 0.199007 0.199007 0.199007 0.199007 0.199007 0.199007 0.199007 0.199007 0.199007 0.199007 0.199007 0.199007 0.199007 0.199007 0.199007 0.199007 0.199007 0.199007 0.199007 0.199007 0.199007 0.199007 0.199007 0.225018 0.225018 0.225018 0.225018 0.225018 0.225018 0.225018 0.225018 0.225018 0.225018 0.225018 0.225018 0.225018 0.225018 0.225018 0.225018 0.225018 0.225018 0.225018 0.225018 0.225018 0.225018 0.225018 0.225018 0.225018 0.225018 0.225018 0.225018 0.225018 0.244339 0.244339 0.244339 0.244339 0.244339 0.244339 0.244339 0.244339 0.244339 0.244339 0.244339 0.244339 0.244339 0.244339 0.244339 0.244339 0.244339 0.244339 0.244339 0.244339 0.244339 0.244339 0.244339 0.251976 0.251976 0.251976 0.251976 0.251976 0.251976 0.251976 0.251976 0.251976 0.251976 0.251976 0.251976 0.251976 0.251976 0.251976 0.251976 0.251976 0.251976 0.251976 0.251976 0.264906 0.264906 0.264906 0.264906 0.264906 0.264906 0.264906 0.264906 0.264906 0.264906 0.264906 0.264906 0.264906 0.264906 0.264906 0.264906 0.264906 0.264906 0.264906 0.264906 0.264906 0.264906 0.264906 0.264906 0.264906 0.264906 0.264906 0.264906 0.264906 0.264906 0.264906 0.264906 0.264906 0.264906 0.264906 0.264906 0.264906 0.264906 0.264906 0.264906 0.264906 0.264906 0.264906 0.264906 0.264906 0.264906 0.264906 0.264906 0.264906 0.264906 0.264906 0.264906 0.264906 0.264906 0.264906 0.264906 0.264906 0.264906 0.264906 0.264906 0.264906 0.264906 0.256074 0.256074 0.256074 0.256074 0.256074 0.256074 0.256074 0.256074 0.256074 0.256074 0.256074 0.256074 0.256074 0.256074 0.269680 0.269680 0.269680 0.269680 0.269680 0.269680 0.269680 0.269680 0.269680 0.269680 0.269680 0.269680 0.264906 0.264906 0.264906 0.264906 0.264906 0.264906 0.264906 0.264906 0.264906 0.264906 0.264906 0.264906 0.269680 0.269680 0.269680 0.269680 0.269680 0.269680 0.269680 0.269680 0.269680 0.269680 0.269680 0.264906 0.264906 0.264906 0.264906 0.264906 0.264906 0.264906 0.264906 0.264906 0.264906 0.264906 0.256074 0.256074 0.256074 0.256074 0.256074 0.256074 0.256074 0.256074 0.256074 0.256074 0.256074 0.264906 0.264906 0.264906 0.264906 0.264906 0.264906 0.264906 0.264906 0.264906 0.264906 0.260378 0.260378 0.260378 0.260378 0.260378 0.260378 0.260378 0.260378 0.260378 0.260378 0.256074 0.256074 0.256074 0.256074 0.256074 0.256074 0.256074 0.256074 0.256074 0.256074 0.260378 0.260378 0.260378 0.260378 0.260378 0.260378 0.260378 0.260378 0.260378 0.256074 0.256074 0.256074 0.256074 0.256074 0.256074 0.256074 0.256074 0.256074 0.251976 0.251976 0.251976 0.251976 0.251976 0.251976 0.251976 0.251976 0.251976 0.251976 0.251976 0.251976 0.251976 0.251976
