# Output from CTFFind version 4.1.9, run on 2019-11-02 17:45:34
# Input file: stack1_bm3d_averaged_1_1.25_0_1000_half.mrc ; Number of micrographs: 1
# Pixel size: 3.000 Angstroms ; acceleration voltage: 300.0 keV ; spherical aberration: 0.00 mm ; amplitude contrast: 0.07
# Box size: 512 pixels ; min. res.: 30.0 Angstroms ; max. res.: 5.0 Angstroms ; min. def.: 5000.0 um; max. def. 50000.0 um; num. frames averaged: 1
# 6 lines per micrograph: #1 - spatial frequency (1/Angstroms); #2 - 1D rotational average of spectrum (assuming no astigmatism); #3 - 1D rotational average of spectrum; #4 - CTF fit; #5 - cross-correlation between spectrum and CTF fit; #6 - 2sigma of expected cross correlation of noise
0.000000 0.000651 0.001302 0.001953 0.002604 0.003255 0.003906 0.004557 0.005208 0.005859 0.006510 0.007161 0.007812 0.008464 0.009115 0.009766 0.010417 0.011068 0.011719 0.012370 0.013021 0.013672 0.014323 0.014974 0.015625 0.016276 0.016927 0.017578 0.018229 0.018880 0.019531 0.020182 0.020833 0.021484 0.022135 0.022786 0.023438 0.024089 0.024740 0.025391 0.026042 0.026693 0.027344 0.027995 0.028646 0.029297 0.029948 0.030599 0.031250 0.031901 0.032552 0.033203 0.033854 0.034505 0.035156 0.035807 0.036458 0.037109 0.037760 0.038411 0.039062 0.039714 0.040365 0.041016 0.041667 0.042318 0.042969 0.043620 0.044271 0.044922 0.045573 0.046224 0.046875 0.047526 0.048177 0.048828 0.049479 0.050130 0.050781 0.051432 0.052083 0.052734 0.053385 0.054036 0.054688 0.055339 0.055990 0.056641 0.057292 0.057943 0.058594 0.059245 0.059896 0.060547 0.061198 0.061849 0.062500 0.063151 0.063802 0.064453 0.065104 0.065755 0.066406 0.067057 0.067708 0.068359 0.069010 0.069661 0.070312 0.070964 0.071615 0.072266 0.072917 0.073568 0.074219 0.074870 0.075521 0.076172 0.076823 0.077474 0.078125 0.078776 0.079427 0.080078 0.080729 0.081380 0.082031 0.082682 0.083333 0.083984 0.084635 0.085286 0.085938 0.086589 0.087240 0.087891 0.088542 0.089193 0.089844 0.090495 0.091146 0.091797 0.092448 0.093099 0.093750 0.094401 0.095052 0.095703 0.096354 0.097005 0.097656 0.098307 0.098958 0.099609 0.100260 0.100911 0.101562 0.102214 0.102865 0.103516 0.104167 0.104818 0.105469 0.106120 0.106771 0.107422 0.108073 0.108724 0.109375 0.110026 0.110677 0.111328 0.111979 0.112630 0.113281 0.113932 0.114583 0.115234 0.115885 0.116536 0.117188 0.117839 0.118490 0.119141 0.119792 0.120443 0.121094 0.121745 0.122396 0.123047 0.123698 0.124349 0.125000 0.125651 0.126302 0.126953 0.127604 0.128255 0.128906 0.129557 0.130208 0.130859 0.131510 0.132161 0.132812 0.133464 0.134115 0.134766 0.135417 0.136068 0.136719 0.137370 0.138021 0.138672 0.139323 0.139974 0.140625 0.141276 0.141927 0.142578 0.143229 0.143880 0.144531 0.145182 0.145833 0.146484 0.147135 0.147786 0.148438 0.149089 0.149740 0.150391 0.151042 0.151693 0.152344 0.152995 0.153646 0.154297 0.154948 0.155599 0.156250 0.156901 0.157552 0.158203 0.158854 0.159505 0.160156 0.160807 0.161458 0.162109 0.162760 0.163411 0.164062 0.164714 0.165365 0.166016 0.166667 0.167318 0.167969 0.168620 0.169271 0.169922 0.170573 0.171224 0.171875 0.172526 0.173177 0.173828 0.174479 0.175130 0.175781 0.176432 0.177083 0.177734 0.178385 0.179036 0.179688 0.180339 0.180990 0.181641 0.182292 0.182943 0.183594 0.184245 0.184896 0.185547 0.186198 0.186849 0.187500 0.188151 0.188802 0.189453 0.190104 0.190755 0.191406 0.192057 0.192708 0.193359 0.194010 0.194661 0.195312 0.195964 0.196615 0.197266 0.197917 0.198568 0.199219 0.199870 0.200521 0.201172 0.201823 0.202474 0.203125 0.203776 0.204427 0.205078 0.205729 0.206380 0.207031 0.207682 0.208333 0.208984 0.209635 0.210286 0.210938 0.211589 0.212240 0.212891 0.213542 0.214193 0.214844 0.215495 0.216146 0.216797 0.217448 0.218099 0.218750 0.219401 0.220052 0.220703 0.221354 0.222005 0.222656 0.223307 0.223958 0.224609 0.225260 0.225911 0.226562 0.227214 0.227865 0.228516 0.229167 0.229818 0.230469 0.231120 0.231771 0.232422 0.233073 0.233724 0.234375 0.235026 0.235677
       0.33125        0.33125        0.33125        0.33125        0.33125        0.33125        0.33125        0.33125        0.33125        0.33125        0.33125        0.33125        0.33125        0.33125        0.33125        0.33125        0.33125        0.33125        0.33125        0.33125        0.33125        0.33125        0.33125        0.33125        0.33125        0.33125        0.33125        0.33125        0.33125        0.33125        0.33125        0.33125        0.33125        0.33125        0.33125        0.33125        0.33125        0.33125        0.33125        0.33124        0.33125        0.33125        0.33125        0.33125        0.33125        0.33125        0.33125        0.33125        0.33125        0.33125        0.33125        0.50075        0.71744        0.42635        0.18960       -0.08093       -0.26128       -0.06886       -0.13358       -0.05666       -0.00351       -0.14918       -0.09607       -0.05202       -0.00359       -0.15357       -0.22301       -0.34578       -0.46418       -0.56255       -0.52031       -0.45115       -0.37257       -0.55035       -0.45203       -0.62304       -0.50584       -0.47471       -0.39231       -0.38516       -0.33973       -0.25027       -0.16358       -0.14023        0.03084       -0.01436        0.11746        0.16645        0.30440        0.41019        0.46200        0.49657        0.54009        0.54875        0.68981        0.64391        0.67610        0.58874        0.55484        0.65166        0.52586        0.42646        0.38449        0.31755        0.22879        0.26121        0.24996        0.10309        0.08096       -0.00084       -0.00819        0.03407       -0.00868        0.07128        0.09479        0.22978        0.28340        0.29961        0.38258        0.56095        0.53575        0.57661        0.66848        0.69774        0.62803        0.63358        0.63286        0.54989        0.57150        0.39608        0.34586        0.26391        0.18277        0.07218        0.14320        0.11628        0.09392        0.10650        0.20635        0.20685        0.31478        0.35687        0.41117        0.49018        0.57770        0.54310        0.55545        0.60445        0.53578        0.46073        0.48122        0.32300        0.24754        0.25561        0.24160        0.13854        0.14227        0.15032        0.22021        0.24469        0.33053        0.36745        0.39217        0.46411        0.44427        0.47554        0.44663        0.46999        0.44454        0.40180        0.37916        0.35495        0.31258        0.28628        0.20493        0.19884        0.22150        0.26899        0.26350        0.34559        0.37394        0.35498        0.40900        0.45191        0.44432        0.42383        0.44081        0.36869        0.33296        0.27923        0.25934        0.28788        0.26367        0.29291        0.29955        0.34455        0.33737        0.39610        0.39768        0.42239        0.40876        0.43235        0.40258        0.36455        0.28214        0.28865        0.30255        0.27489        0.25304        0.32646        0.36931        0.33755        0.35330        0.36065        0.35117        0.40573        0.40047        0.36109        0.33809        0.30676        0.31039        0.31710        0.31296        0.29879        0.28458        0.33630        0.35781        0.37446        0.33412        0.32972        0.33423        0.34535        0.30715        0.28051        0.30588        0.31627        0.33385        0.31895        0.33006        0.35356        0.32890        0.31441        0.32721        0.29888        0.25894        0.24959        0.26410        0.30414        0.32092        0.35297        0.29918        0.31032        0.33046        0.29097        0.31666        0.28932        0.27977        0.28944        0.29522        0.30790        0.34304        0.32398        0.32771        0.33198        0.31796        0.33322        0.31674        0.31917        0.31281        0.27623        0.28690        0.30546        0.28793        0.32301        0.32983        0.33446        0.32129        0.34537        0.32059        0.27836        0.24743        0.27018        0.32885        0.35729        0.34528        0.31566        0.29175        0.29834        0.31199        0.25104        0.29540        0.30202        0.32611        0.29473        0.30443        0.27648        0.33342        0.33938        0.33992        0.31894        0.29256        0.31114        0.39510        0.33172        0.31091        0.30381        0.29477        0.28264        0.29661        0.27481        0.31237        0.23160        0.26816        0.29718        0.31183        0.29553        0.27032        0.29183        0.23772        0.22377        0.26729        0.30453        0.30405        0.28505        0.28175        0.33238        0.25535        0.22267        0.30015        0.26243        0.26025        0.27741        0.38387        0.28216        0.28378        0.25207        0.24526        0.26773        0.25257        0.23243        0.17245        0.24248        0.23034        0.24748        0.31415        0.27173        0.34652        0.29825        0.25116        0.23352        0.21486        0.24660        0.29595        0.22162        0.13518        0.17626        0.24243        0.23690        0.31666        0.26667        0.04031       -0.42528       -0.93528
2.696248 2.667843 2.639590 2.611489 2.583540 2.555744 2.528099 2.500606 2.473266 2.446077 2.419041 2.392157 2.365425 2.338845 2.312417 2.286141 2.260018 2.234046 2.208227 2.182559 2.157044 2.131681 2.106470 2.081411 2.056504 2.031750 2.007147 1.982696 1.958398 1.934252 1.910258 1.886416 1.862726 1.839188 1.815802 1.792568 1.769487 1.746557 1.723780 1.701154 1.678681 1.656360 1.634191 1.612175 1.590310 1.568597 1.547037 1.525628 1.504372 1.483268 1.462316 1.532788 1.837944 1.531895 1.164805 0.942488 0.545265 0.915347 0.635568 0.873256 0.928084 0.591361 0.707577 0.781841 0.823762 0.627952 0.536634 0.349586 0.100654 0.073281 0.040523 0.075623 0.301855 -0.039780 0.077656 -0.138036 -0.018985 -0.017848 0.078775 0.060983 0.101821 0.177000 0.282344 0.248090 0.483532 0.398805 0.550977 0.530325 0.772904 0.795263 0.884166 0.930920 0.943923 0.953825 1.112387 0.956360 1.149510 0.952555 0.858143 1.022910 0.853797 0.764153 0.625502 0.597721 0.461596 0.421069 0.511269 0.267475 0.199459 0.159771 0.013019 0.208262 -0.006076 0.120181 0.178129 0.260567 0.339586 0.349437 0.433387 0.546795 0.670950 0.544510 0.753014 0.860595 0.644205 0.703366 0.675565 0.596998 0.540919 0.470040 0.305012 0.217333 0.119814 -0.039764 -0.016106 0.056748 -0.091629 -0.056088 0.053227 0.051990 0.111291 0.224068 0.241651 0.314687 0.433482 0.445754 0.452028 0.479661 0.452734 0.329983 0.339611 0.247469 0.049668 0.062644 0.020519 -0.048026 -0.098986 -0.097487 -0.014297 -0.049696 0.076771 0.128575 0.128466 0.263549 0.226614 0.248857 0.284259 0.260384 0.247221 0.214679 0.169783 0.116807 0.109837 0.028067 0.013367 -0.115552 -0.049958 0.011167 0.000082 0.018653 0.100070 0.085057 0.137020 0.186433 0.260146 0.173045 0.192466 0.111954 0.139281 0.020464 -0.036806 0.019482 -0.022892 0.001175 -0.004827 0.034829 0.076937 0.054661 0.148512 0.102977 0.166493 0.067677 0.150103 0.094478 -0.006038 -0.058378 -0.020565 -0.033312 -0.070088 -0.069990 0.055104 0.062100 -0.010589 0.057851 0.060078 0.069986 0.144358 0.070429 0.067168 0.047895 -0.024006 0.028782 0.001454 0.010310 0.003514 -0.004479 0.036982 0.067934 0.068824 0.032160 0.045084 0.019633 0.061003 -0.012104 -0.018937 0.022134 0.012449 0.058395 0.035758 0.041594 0.069823 0.031064 0.016403 0.032732 -0.007028 -0.053117 -0.034017 -0.029488 0.022609 0.039588 0.101431 -0.005908 0.057156 0.053841 -0.002526 0.067128 0.021715 0.010702 0.041535 0.055568 0.044888 0.098510 0.057406 0.077070 0.089066 0.078630 0.068032 0.073426 0.091218 0.043216 -0.008640 0.050715 0.039370 0.049003 0.074510 0.095659 0.004340 0.066617 0.086980 0.014219 0.013159 -0.068862 -0.014481 0.112294 0.082667 0.057355 0.044423 -0.012173 0.046841 0.026855 -0.057124 0.048427 0.038715 0.065823 0.040090 -0.001186 -0.000110 0.056735 0.050458 0.023258 0.040721 -0.032127 0.067987 0.119838 0.017987 -0.005481 -0.001731 -0.010142 -0.020729 -0.021206 -0.037791 -0.001805 -0.100367 -0.025160 -0.022427 0.021201 -0.028417 -0.017705 -0.013395 -0.070986 -0.047044 -0.057597 0.047497 0.013600 0.016787 -0.005469 0.088755 -0.050729 -0.038231 0.034712 -0.015531 0.019858 0.002211 0.192006 -0.036796 0.019285 0.024105 -0.027447 0.005331 -0.013006 -0.021040 -0.149123 0.006297 -0.035723 0.008345 0.018855 0.003075 0.136006 0.035500 -0.004027 -0.034760 -0.029980 -0.038887 0.042901 0.269113 0.167283 0.225685 0.244306 0.319319 0.349443 0.308755 0.049808 -1.105074
0.072396 0.072910 0.074451 0.077019 0.080613 0.085233 0.090876 0.097543 0.105229 0.113932 0.123649 0.134375 0.146104 0.158830 0.172545 0.187238 0.202898 0.219512 0.237063 0.255533 0.274901 0.295142 0.316229 0.338131 0.360812 0.384233 0.408349 0.433113 0.458470 0.484360 0.510718 0.537474 0.564551 0.591863 0.619321 0.646827 0.674278 0.701562 0.728560 0.755146 0.781189 0.806547 0.831075 0.854620 0.877023 0.898118 0.917736 0.935702 0.951838 0.965962 0.977891 0.987442 0.994430 0.998673 0.999994 0.998216 0.993173 0.984706 0.972665 0.956915 0.937331 0.913810 0.886263 0.854626 0.818857 0.778940 0.734887 0.686741 0.634577 0.578507 0.518677 0.455273 0.388519 0.318682 0.246071 0.171034 0.093965 0.015298 0.064492 0.144891 0.225346 0.305272 0.384051 0.461039 0.535570 0.606959 0.674513 0.737534 0.795328 0.847212 0.892525 0.930633 0.960945 0.982916 0.996060 0.999963 0.994288 0.978787 0.953312 0.917819 0.872381 0.817193 0.752576 0.678983 0.597000 0.507351 0.410888 0.308598 0.201589 0.091084 0.021588 0.135006 0.247675 0.358042 0.464518 0.565501 0.659400 0.744664 0.819806 0.883435 0.934284 0.971238 0.993365 0.999940 0.990472 0.964723 0.922732 0.864822 0.791619 0.704048 0.603337 0.491008 0.368861 0.238956 0.103582 0.034778 0.173486 0.309799 0.440921 0.564063 0.676502 0.775645 0.859096 0.924718 0.970698 0.995602 0.998429 0.978657 0.936276 0.871817 0.786360 0.681536 0.559510 0.422950 0.274984 0.119133 0.040758 0.200614 0.356231 0.503382 0.637935 0.755980 0.853944 0.928708 0.977727 0.999118 0.991757 0.955334 0.890409 0.798418 0.681679 0.543347 0.387345 0.218280 0.041311 0.137993 0.313830 0.480340 0.631815 0.762889 0.868753 0.945335 0.989476 0.999085 0.973249 0.912320 0.817942 0.693045 0.541780 0.369410 0.182140 0.013076 0.208800 0.397370 0.571211 0.723143 0.846690 0.936374 0.987982 0.998785 0.967713 0.895455 0.784494 0.639060 0.465009 0.269604 0.061251 0.150855 0.357123 0.547998 0.714412 0.848226 0.942656 0.992641 0.995149 0.949391 0.856937 0.721713 0.549879 0.349592 0.130646 0.095977 0.318645 0.525673 0.705933 0.849484 0.948130 0.995937 0.989623 0.928824 0.816203 0.657400 0.460792 0.237100 0.001156 0.240345 0.466491 0.666084 0.826917 0.938855 0.994515 0.989799 0.924248 0.801173 0.627559 0.413729 0.172778 0.080194 0.328995 0.557379 0.750121 0.894045 0.978975 0.998505 0.950541 0.837561 0.666574 0.448758 0.198780 0.066128 0.327347 0.566166 0.765119 0.909317 0.987588 0.993423 0.925572 0.788282 0.591123 0.348398 0.078160 0.199074 0.461863 0.689506 0.863690 0.970021 0.999266 0.948237 0.820208 0.624806 0.377376 0.097853 0.190799 0.464427 0.699737 0.876289 0.978324 0.996257 0.927657 0.777634 0.558579 0.289224 0.006869 0.303329 0.573298 0.791892 0.938516 0.998893 0.966541 0.843567 0.640666 0.376310 0.075151 0.234198 0.521867 0.759610 0.923621 0.996988 0.971546 0.848885 0.640422 0.366449 0.054274 0.264431 0.556828 0.792282 0.945636 0.999986 0.948650 0.796112 0.557784 0.258584 0.069576 0.391122 0.670660 0.876901 0.986235 0.985546 0.873914 0.662986 0.375900 0.044895 0.292253 0.596473 0.831971 0.970484 0.994798 0.901018 0.699318 0.412996 0.075937 0.271307 0.586348 0.830143 0.971910 0.993128 0.890109 0.674763 0.373401 0.023669 0.330057 0.642246 0.872119 0.989045 0.976764 0.835817 0.583800 0.253368 0.111876 0.463030 0.752434 0.940164 0.999695
1.000000 1.000000 1.000000 1.000000 1.000000 1.000000 1.000000 1.000000 1.000000 1.000000 1.000000 1.000000 1.000000 1.000000 1.000000 1.000000 1.000000 1.000000 1.000000 1.000000 1.000000 1.000000 1.000000 1.000000 1.000000 1.000000 1.000000 1.000000 1.000000 1.000000 1.000000 1.000000 1.000000 1.000000 1.000000 1.000000 1.000000 1.000000 1.000000 1.000000 1.000000 1.000000 1.000000 1.000000 1.000000 1.000000 1.000000 1.000000 1.000000 1.000000 1.000000 1.000000 0.918232 0.918232 0.904380 0.904380 0.904380 0.904380 0.904380 0.904380 0.904380 0.904380 0.904380 0.904380 0.904380 0.904380 0.904380 0.904380 0.904380 0.904380 0.904380 0.904380 0.904380 0.904380 0.904380 0.904380 0.904380 0.904380 0.904380 0.904380 0.904380 0.904380 0.904380 0.904380 0.904380 0.904380 0.904380 0.904380 0.904380 0.904380 0.904380 0.904380 0.904380 0.904380 0.904380 0.900479 0.905158 0.907166 0.905494 0.909103 0.909188 0.908468 0.908760 0.908379 0.908672 0.910064 0.920632 0.931734 0.942860 0.943422 0.948543 0.952964 0.955259 0.956201 0.957644 0.967288 0.966044 0.965494 0.966211 0.967799 0.970031 0.968614 0.968393 0.971507 0.972234 0.970483 0.968415 0.967790 0.967163 0.967240 0.966832 0.966726 0.966623 0.967124 0.967346 0.967557 0.967697 0.967732 0.968756 0.969912 0.972174 0.973146 0.972936 0.971743 0.966105 0.970033 0.970605 0.970296 0.970212 0.969728 0.970058 0.957895 0.952710 0.952664 0.948820 0.947905 0.945106 0.943579 0.941742 0.941866 0.940442 0.941093 0.938244 0.926378 0.913533 0.902335 0.922047 0.907833 0.896164 0.872985 0.872900 0.869139 0.869783 0.862271 0.856351 0.851961 0.848867 0.850057 0.849633 0.853447 0.850927 0.836840 0.839806 0.836781 0.806339 0.791874 0.774952 0.774955 0.772526 0.773826 0.773176 0.769899 0.778205 0.768604 0.767297 0.758925 0.739821 0.707595 0.691795 0.702067 0.711812 0.711530 0.708034 0.692989 0.659071 0.671674 0.699917 0.692187 0.694540 0.686575 0.680544 0.682111 0.684966 0.677111 0.669801 0.669094 0.667942 0.675580 0.679327 0.673820 0.664743 0.649968 0.637036 0.623580 0.637214 0.641004 0.607831 0.602861 0.592951 0.585586 0.574767 0.544204 0.542023 0.518236 0.507436 0.507024 0.509762 0.509281 0.517563 0.519213 0.500944 0.521605 0.525776 0.553832 0.529902 0.528400 0.529873 0.537209 0.522729 0.501285 0.494617 0.495657 0.506965 0.536823 0.573321 0.564093 0.549892 0.538560 0.551715 0.525418 0.534198 0.554883 0.530278 0.463175 0.414273 0.411332 0.372054 0.367921 0.350347 0.343845 0.345616 0.338419 0.327977 0.314671 0.302190 0.247423 0.209364 0.191711 0.168064 0.172336 0.193887 0.183233 0.184259 0.214980 0.262532 0.263543 0.254350 0.257474 0.240837 0.204379 0.211462 0.233872 0.189361 0.183619 0.176379 0.148817 0.136932 0.087615 0.126171 0.028207 0.010083 0.008126 0.029517 0.043377 0.046371 0.051721 0.018245 0.034212 0.072092 0.075248 0.062194 -0.005478 0.009934 0.020722 0.020957 -0.000916 -0.034167 -0.036044 -0.056779 -0.060479 -0.036102 0.028838 0.085543 0.088027 0.066665 0.095579 0.095814 0.079531 0.079739 0.052170 0.038537 0.025998 0.017732 -0.026118 -0.055677 -0.055677 -0.051554 -0.051554 -0.051554 -0.051554 -0.051554 -0.051554 -0.051554 -0.051554 -0.051554 -0.054552 -0.054552 -0.054552 -0.054552 -0.054552 -0.054552 -0.054552 -0.054552 -0.054552 -0.027590 -0.027590 -0.027590 -0.027590 -0.027590 -0.027590 -0.027590 -0.027590 -0.027590
0.000000 0.000000 0.000000 0.000000 0.000000 0.000000 0.000000 0.000000 0.000000 0.000000 0.000000 0.000000 0.000000 0.000000 0.000000 0.000000 0.000000 0.000000 0.000000 0.000000 0.000000 0.000000 0.000000 0.000000 0.000000 0.000000 0.000000 0.000000 0.000000 0.000000 0.000000 0.000000 0.000000 0.000000 0.000000 0.000000 0.000000 0.000000 0.000000 0.000000 0.000000 0.000000 0.000000 0.000000 0.000000 0.000000 0.000000 0.000000 0.000000 0.000000 0.000000 0.000000 0.181818 0.181818 0.199007 0.199007 0.199007 0.199007 0.199007 0.199007 0.199007 0.199007 0.199007 0.199007 0.199007 0.199007 0.199007 0.199007 0.199007 0.199007 0.199007 0.199007 0.199007 0.199007 0.199007 0.199007 0.199007 0.199007 0.199007 0.199007 0.199007 0.199007 0.199007 0.199007 0.199007 0.199007 0.199007 0.199007 0.199007 0.199007 0.199007 0.199007 0.199007 0.199007 0.199007 0.230940 0.230940 0.230940 0.230940 0.230940 0.230940 0.230940 0.230940 0.230940 0.230940 0.230940 0.230940 0.230940 0.230940 0.230940 0.230940 0.230940 0.230940 0.230940 0.230940 0.230940 0.230940 0.230940 0.230940 0.230940 0.230940 0.230940 0.230940 0.244339 0.244339 0.244339 0.244339 0.244339 0.244339 0.244339 0.244339 0.244339 0.244339 0.244339 0.244339 0.244339 0.244339 0.244339 0.244339 0.244339 0.244339 0.244339 0.244339 0.244339 0.244339 0.244339 0.251976 0.251976 0.251976 0.251976 0.251976 0.251976 0.251976 0.251976 0.251976 0.251976 0.251976 0.251976 0.251976 0.251976 0.251976 0.251976 0.251976 0.251976 0.251976 0.251976 0.264906 0.264906 0.264906 0.264906 0.264906 0.264906 0.264906 0.264906 0.264906 0.264906 0.264906 0.264906 0.264906 0.264906 0.264906 0.264906 0.264906 0.264906 0.264906 0.264906 0.264906 0.264906 0.264906 0.264906 0.264906 0.264906 0.264906 0.264906 0.264906 0.264906 0.264906 0.264906 0.264906 0.264906 0.264906 0.264906 0.264906 0.264906 0.264906 0.264906 0.264906 0.264906 0.264906 0.264906 0.264906 0.264906 0.264906 0.264906 0.264906 0.264906 0.264906 0.264906 0.264906 0.264906 0.264906 0.264906 0.264906 0.264906 0.264906 0.264906 0.264906 0.264906 0.264906 0.264906 0.264906 0.264906 0.264906 0.264906 0.264906 0.264906 0.264906 0.264906 0.264906 0.264906 0.264906 0.269680 0.269680 0.269680 0.269680 0.269680 0.269680 0.269680 0.269680 0.269680 0.269680 0.269680 0.269680 0.264906 0.264906 0.264906 0.264906 0.264906 0.264906 0.264906 0.264906 0.264906 0.264906 0.264906 0.264906 0.269680 0.269680 0.269680 0.269680 0.269680 0.269680 0.269680 0.269680 0.269680 0.269680 0.269680 0.264906 0.264906 0.264906 0.264906 0.264906 0.264906 0.264906 0.264906 0.264906 0.264906 0.264906 0.256074 0.256074 0.256074 0.256074 0.256074 0.256074 0.256074 0.256074 0.256074 0.256074 0.256074 0.264906 0.264906 0.264906 0.264906 0.264906 0.264906 0.264906 0.264906 0.264906 0.264906 0.260378 0.260378 0.260378 0.260378 0.260378 0.260378 0.260378 0.260378 0.260378 0.260378 0.264906 0.264906 0.264906 0.264906 0.264906 0.264906 0.264906 0.264906 0.264906 0.260378 0.260378 0.260378 0.260378 0.260378 0.260378 0.260378 0.260378 0.260378 0.256074 0.256074 0.256074 0.256074 0.256074 0.256074 0.256074 0.256074 0.256074 0.251976 0.251976 0.251976 0.251976 0.251976 0.251976 0.251976 0.251976 0.251976 0.264906 0.264906 0.264906 0.264906 0.264906 0.264906 0.264906 0.264906 0.264906
