# Output from CTFFind version 4.1.9, run on 2019-11-03 19:45:12
# Input file: stack11_bm3d_averaged_1_5.25_0_250_half.mrc ; Number of micrographs: 1
# Pixel size: 3.000 Angstroms ; acceleration voltage: 300.0 keV ; spherical aberration: 0.00 mm ; amplitude contrast: 0.07
# Box size: 512 pixels ; min. res.: 30.0 Angstroms ; max. res.: 5.0 Angstroms ; min. def.: 5000.0 um; max. def. 50000.0 um; num. frames averaged: 1
# 6 lines per micrograph: #1 - spatial frequency (1/Angstroms); #2 - 1D rotational average of spectrum (assuming no astigmatism); #3 - 1D rotational average of spectrum; #4 - CTF fit; #5 - cross-correlation between spectrum and CTF fit; #6 - 2sigma of expected cross correlation of noise
0.000000 0.000651 0.001302 0.001953 0.002604 0.003255 0.003906 0.004557 0.005208 0.005859 0.006510 0.007161 0.007812 0.008464 0.009115 0.009766 0.010417 0.011068 0.011719 0.012370 0.013021 0.013672 0.014323 0.014974 0.015625 0.016276 0.016927 0.017578 0.018229 0.018880 0.019531 0.020182 0.020833 0.021484 0.022135 0.022786 0.023438 0.024089 0.024740 0.025391 0.026042 0.026693 0.027344 0.027995 0.028646 0.029297 0.029948 0.030599 0.031250 0.031901 0.032552 0.033203 0.033854 0.034505 0.035156 0.035807 0.036458 0.037109 0.037760 0.038411 0.039062 0.039714 0.040365 0.041016 0.041667 0.042318 0.042969 0.043620 0.044271 0.044922 0.045573 0.046224 0.046875 0.047526 0.048177 0.048828 0.049479 0.050130 0.050781 0.051432 0.052083 0.052734 0.053385 0.054036 0.054688 0.055339 0.055990 0.056641 0.057292 0.057943 0.058594 0.059245 0.059896 0.060547 0.061198 0.061849 0.062500 0.063151 0.063802 0.064453 0.065104 0.065755 0.066406 0.067057 0.067708 0.068359 0.069010 0.069661 0.070312 0.070964 0.071615 0.072266 0.072917 0.073568 0.074219 0.074870 0.075521 0.076172 0.076823 0.077474 0.078125 0.078776 0.079427 0.080078 0.080729 0.081380 0.082031 0.082682 0.083333 0.083984 0.084635 0.085286 0.085938 0.086589 0.087240 0.087891 0.088542 0.089193 0.089844 0.090495 0.091146 0.091797 0.092448 0.093099 0.093750 0.094401 0.095052 0.095703 0.096354 0.097005 0.097656 0.098307 0.098958 0.099609 0.100260 0.100911 0.101562 0.102214 0.102865 0.103516 0.104167 0.104818 0.105469 0.106120 0.106771 0.107422 0.108073 0.108724 0.109375 0.110026 0.110677 0.111328 0.111979 0.112630 0.113281 0.113932 0.114583 0.115234 0.115885 0.116536 0.117188 0.117839 0.118490 0.119141 0.119792 0.120443 0.121094 0.121745 0.122396 0.123047 0.123698 0.124349 0.125000 0.125651 0.126302 0.126953 0.127604 0.128255 0.128906 0.129557 0.130208 0.130859 0.131510 0.132161 0.132812 0.133464 0.134115 0.134766 0.135417 0.136068 0.136719 0.137370 0.138021 0.138672 0.139323 0.139974 0.140625 0.141276 0.141927 0.142578 0.143229 0.143880 0.144531 0.145182 0.145833 0.146484 0.147135 0.147786 0.148438 0.149089 0.149740 0.150391 0.151042 0.151693 0.152344 0.152995 0.153646 0.154297 0.154948 0.155599 0.156250 0.156901 0.157552 0.158203 0.158854 0.159505 0.160156 0.160807 0.161458 0.162109 0.162760 0.163411 0.164062 0.164714 0.165365 0.166016 0.166667 0.167318 0.167969 0.168620 0.169271 0.169922 0.170573 0.171224 0.171875 0.172526 0.173177 0.173828 0.174479 0.175130 0.175781 0.176432 0.177083 0.177734 0.178385 0.179036 0.179688 0.180339 0.180990 0.181641 0.182292 0.182943 0.183594 0.184245 0.184896 0.185547 0.186198 0.186849 0.187500 0.188151 0.188802 0.189453 0.190104 0.190755 0.191406 0.192057 0.192708 0.193359 0.194010 0.194661 0.195312 0.195964 0.196615 0.197266 0.197917 0.198568 0.199219 0.199870 0.200521 0.201172 0.201823 0.202474 0.203125 0.203776 0.204427 0.205078 0.205729 0.206380 0.207031 0.207682 0.208333 0.208984 0.209635 0.210286 0.210938 0.211589 0.212240 0.212891 0.213542 0.214193 0.214844 0.215495 0.216146 0.216797 0.217448 0.218099 0.218750 0.219401 0.220052 0.220703 0.221354 0.222005 0.222656 0.223307 0.223958 0.224609 0.225260 0.225911 0.226562 0.227214 0.227865 0.228516 0.229167 0.229818 0.230469 0.231120 0.231771 0.232422 0.233073 0.233724 0.234375 0.235026 0.235677
       0.34093        0.34093        0.34093        0.34093        0.34092        0.34093        0.34093        0.34093        0.34092        0.34092        0.34093        0.34093        0.34092        0.34093        0.34093        0.34093        0.34093        0.34092        0.34092        0.34093        0.34093        0.34092        0.34093        0.34093        0.34092        0.34092        0.34092        0.34093        0.34092        0.34093        0.34092        0.34092        0.34093        0.34093        0.34092        0.34092        0.34093        0.34092        0.34093        0.34092        0.34093        0.34093        0.34093        0.34092        0.34093        0.34093        0.34093        0.34093        0.34093        0.34093        0.34093        0.69656        0.85964        0.53601        0.10460       -0.03150       -0.39213       -0.18189       -0.28801       -0.11277       -0.05521       -0.11032       -0.05342       -0.17158       -0.20814       -0.21871       -0.30925       -0.32090       -0.44858       -0.36348       -0.42999       -0.42356       -0.39820       -0.41722       -0.45891       -0.51503       -0.56159       -0.56040       -0.53349       -0.36325       -0.33520       -0.29727       -0.27632       -0.18761       -0.17574        0.05579        0.13536        0.16667        0.25993        0.38053        0.45708        0.52198        0.59491        0.59236        0.58006        0.69816        0.80577        0.70744        0.74196        0.62545        0.56835        0.48369        0.42964        0.51153        0.39525        0.26104        0.11199        0.10320        0.08228       -0.02135        0.03214        0.04390        0.00049        0.02388        0.02142        0.23664        0.26901        0.29543        0.43340        0.45311        0.41266        0.59097        0.62344        0.64599        0.72915        0.67879        0.64908        0.66457        0.56320        0.46561        0.41935        0.30290        0.25899        0.17824        0.13257        0.05283        0.05699        0.06306        0.09475        0.15216        0.23883        0.29077        0.41440        0.46243        0.48287        0.57392        0.60778        0.63870        0.61943        0.56205        0.45951        0.47187        0.37851        0.26917        0.20758        0.15837        0.16681        0.14903        0.14894        0.17675        0.31223        0.32461        0.39747        0.43803        0.42830        0.48763        0.56058        0.55434        0.49854        0.45604        0.40999        0.36363        0.33497        0.30066        0.25281        0.24257        0.24163        0.24963        0.22199        0.30621        0.36278        0.38603        0.43975        0.45520        0.47042        0.42554        0.40623        0.40276        0.36182        0.32426        0.27269        0.27042        0.26374        0.23544        0.28576        0.28394        0.34670        0.37850        0.42477        0.47734        0.41219        0.42520        0.43277        0.40939        0.34764        0.32458        0.29302        0.31788        0.27067        0.31587        0.30830        0.32590        0.33491        0.35910        0.31821        0.39428        0.41623        0.37985        0.34820        0.37101        0.31430        0.29325        0.30039        0.31975        0.30527        0.31777        0.33821        0.35013        0.34070        0.36745        0.36680        0.41096        0.38378        0.33557        0.34247        0.29665        0.28633        0.32383        0.31767        0.32751        0.33824        0.33552        0.37986        0.32905        0.33060        0.33411        0.34068        0.30189        0.31056        0.27779        0.30176        0.32576        0.30430        0.32585        0.35109        0.35933        0.29235        0.33114        0.29432        0.30096        0.27941        0.24487        0.30106        0.30139        0.34186        0.33697        0.33734        0.32509        0.34759        0.31173        0.34431        0.31448        0.31581        0.28360        0.32982        0.31862        0.36104        0.32489        0.33348        0.33996        0.29296        0.27467        0.30885        0.24785        0.22709        0.33742        0.32153        0.35801        0.34218        0.35821        0.32728        0.33682        0.34485        0.26377        0.25540        0.31320        0.30038        0.31071        0.32073        0.33991        0.33479        0.29611        0.29041        0.34182        0.31997        0.30856        0.28709        0.32227        0.34370        0.39669        0.35090        0.31263        0.27989        0.30398        0.28510        0.29507        0.26919        0.25793        0.31028        0.33005        0.34217        0.35142        0.32479        0.28621        0.29746        0.26672        0.27220        0.25198        0.31471        0.27348        0.23751        0.30777        0.30282        0.26632        0.29319        0.21141        0.21450        0.25162        0.18959        0.26296        0.33625        0.24812        0.23017        0.31429        0.31274        0.32160        0.31656        0.26110        0.23866        0.18364        0.21294        0.19196        0.24125        0.22387        0.26678        0.33745        0.32198        0.23496        0.14268        0.06816       -0.01615       -0.10960       -0.62890
2.759027 2.729730 2.700595 2.671620 2.642805 2.614150 2.585656 2.557322 2.529149 2.501135 2.473283 2.445590 2.418058 2.390686 2.363475 2.336424 2.309533 2.282802 2.256232 2.229822 2.203573 2.177484 2.151555 2.125787 2.100179 2.074731 2.049444 2.024317 1.999350 1.974544 1.949898 1.925412 1.901087 1.876922 1.852917 1.829073 1.805389 1.781866 1.758502 1.735300 1.712257 1.689375 1.666653 1.644092 1.621690 1.599450 1.577369 1.555449 1.533689 1.512090 1.490651 1.706751 2.127500 1.688166 1.178423 1.043322 0.447431 0.844698 0.561825 0.845599 0.808764 0.816747 0.756418 0.746704 0.592707 0.555101 0.499135 0.429485 0.244964 0.368901 0.201391 0.329407 0.222148 0.204370 0.178466 0.038238 0.011576 0.015951 -0.068635 0.130794 0.228738 0.187859 0.175854 0.328887 0.184028 0.514609 0.619374 0.622476 0.638629 0.873599 0.830605 0.940025 0.926250 1.024184 0.990156 1.078832 1.165728 1.040011 1.154282 0.910400 0.925980 0.791761 0.650999 0.800682 0.697113 0.485795 0.330205 0.250090 0.262195 0.147647 0.128697 0.160825 0.105406 0.126171 0.076367 0.252248 0.356121 0.342199 0.475463 0.546255 0.419328 0.588057 0.725558 0.664021 0.728255 0.708758 0.719129 0.654569 0.598641 0.502301 0.375180 0.278575 0.221744 0.086579 0.118397 -0.099439 -0.046248 -0.061555 -0.076198 -0.020708 0.135050 0.069552 0.243254 0.307144 0.338698 0.388394 0.504395 0.466579 0.480512 0.491583 0.305228 0.291219 0.284079 0.086119 0.043241 -0.072063 -0.012078 -0.061850 -0.093208 -0.081119 0.037192 0.088521 0.121431 0.217064 0.228217 0.233838 0.289501 0.437565 0.397355 0.263632 0.241001 0.224144 0.151462 0.147669 0.118750 0.003756 0.022307 0.074406 -0.001111 0.059579 0.144163 0.145990 0.229919 0.247258 0.271463 0.192378 0.220896 0.145176 0.161930 0.123623 0.050615 -0.007493 0.016960 -0.001575 -0.039344 0.066368 0.022690 0.124079 0.153251 0.201018 0.186191 0.153873 0.157618 0.178543 0.128526 0.056396 -0.003523 0.050922 0.032013 -0.021269 0.041961 0.037576 0.059576 0.051304 0.063799 0.062471 0.139192 0.143540 0.054485 0.052004 0.054574 0.015354 -0.023378 0.016672 0.017621 0.005728 0.015682 0.052087 0.059795 0.058397 0.073052 0.055168 0.148043 0.060090 0.032009 0.037956 -0.037696 0.004299 0.041774 0.001904 0.032518 0.050562 0.023757 0.126828 0.024544 -0.001834 0.057603 0.003794 0.005632 0.004317 -0.025677 0.020726 0.006295 0.000975 0.051527 0.053053 0.058872 0.030440 0.037464 0.026991 0.017614 -0.022437 -0.027304 0.030161 0.048238 0.078819 0.082137 0.056464 0.076282 0.108207 0.054924 0.106299 0.080055 0.043483 0.031964 0.105141 0.069438 0.118175 0.090542 0.059468 0.120240 0.047121 0.011143 0.088937 -0.031883 -0.013044 0.105774 0.053308 0.155409 0.097625 0.096216 0.049421 0.072600 0.092424 -0.018327 -0.029336 0.056949 0.049354 0.043116 0.037653 0.104489 0.054651 -0.001462 0.056315 0.050723 0.053873 0.053480 -0.014726 0.068691 0.068902 0.133074 0.042517 0.024566 -0.024343 -0.004790 -0.011349 -0.002139 -0.050073 -0.033716 0.006839 0.027108 0.025193 0.040689 0.001108 -0.040938 -0.037882 -0.023262 -0.070465 -0.058190 -0.013003 -0.013385 -0.081967 0.000691 -0.040035 -0.071463 0.001477 -0.138036 -0.085835 -0.090338 -0.200103 -0.037988 0.057363 -0.053380 -0.156303 0.037103 0.040395 -0.042711 0.048051 -0.072003 0.261107 0.150403 0.219979 0.255879 0.290714 0.242660 0.300941 0.325066 0.371241 0.215306 0.262338 0.080567 -0.022131 -0.688764
0.072396 0.072899 0.074407 0.076921 0.080439 0.084960 0.090484 0.097009 0.104533 0.113052 0.122564 0.133064 0.144546 0.157005 0.170433 0.184820 0.200156 0.216427 0.233619 0.251714 0.270692 0.290531 0.311203 0.332681 0.354930 0.377913 0.401590 0.425913 0.450833 0.476293 0.502231 0.528582 0.555272 0.582221 0.609345 0.636553 0.663744 0.690814 0.717652 0.744137 0.770145 0.795543 0.820192 0.843946 0.866654 0.888160 0.908299 0.926907 0.943811 0.958837 0.971809 0.982549 0.990879 0.996621 0.999600 0.999645 0.996589 0.990274 0.980549 0.967273 0.950320 0.929576 0.904947 0.876353 0.843740 0.807074 0.766349 0.721585 0.672833 0.620175 0.563728 0.503642 0.440108 0.373352 0.303642 0.231284 0.156626 0.080055 0.002001 0.077071 0.156656 0.236216 0.315177 0.392938 0.468873 0.542334 0.612658 0.679172 0.741200 0.798071 0.849125 0.893722 0.931251 0.961138 0.982857 0.995939 0.999981 0.994655 0.979719 0.955023 0.920523 0.876280 0.822475 0.759407 0.687504 0.607320 0.519539 0.424972 0.324557 0.219349 0.110516 0.000671 0.112851 0.224589 0.334391 0.440724 0.542037 0.636785 0.723454 0.800585 0.866805 0.920850 0.961596 0.988085 0.999550 0.995441 0.975446 0.939508 0.887844 0.820952 0.739621 0.644928 0.538236 0.421182 0.295658 0.163792 0.027910 0.109494 0.245805 0.378332 0.504365 0.621227 0.726336 0.817268 0.891814 0.948045 0.984366 0.999569 0.992884 0.964012 0.913158 0.841051 0.748947 0.638626 0.512371 0.372932 0.223479 0.067538 0.091085 0.248394 0.400295 0.542714 0.671699 0.783540 0.874882 0.942840 0.985094 0.999987 0.986601 0.944812 0.875332 0.779717 0.660358 0.520444 0.363887 0.195233 0.019545 0.157751 0.331014 0.494582 0.642944 0.770948 0.873977 0.948141 0.990432 0.998868 0.972605 0.912004 0.818672 0.695444 0.546327 0.376392 0.191623 0.001274 0.195113 0.382482 0.556025 0.708745 0.834294 0.927246 0.983364 0.999810 0.975313 0.910280 0.806837 0.668796 0.501552 0.311893 0.107762 0.102074 0.308373 0.501838 0.673526 0.815286 0.920160 0.982745 0.999512 0.969028 0.892097 0.771797 0.613392 0.424152 0.213051 0.009642 0.232831 0.445152 0.635539 0.793828 0.911312 0.981250 0.999299 0.963811 0.876014 0.740028 0.562730 0.353440 0.123486 0.114402 0.346760 0.560165 0.742010 0.881274 0.969221 0.999991 0.971036 0.883374 0.741621 0.553822 0.331036 0.086741 0.163969 0.405277 0.621661 0.798890 0.925001 0.991148 0.992265 0.927519 0.800479 0.618989 0.394765 0.142671 0.120210 0.375716 0.605861 0.794102 0.926584 0.993178 0.988343 0.911633 0.767871 0.566931 0.323128 0.054256 0.219671 0.477885 0.700445 0.869804 0.972235 0.999005 0.947199 0.820088 0.627035 0.382877 0.106861 0.178817 0.450785 0.686387 0.865618 0.972856 0.998297 0.938939 0.798995 0.589717 0.328564 0.037838 0.257170 0.530375 0.757190 0.916790 0.994081 0.981217 0.878483 0.694469 0.445444 0.154040 0.152766 0.446096 0.697886 0.883597 0.984683 0.990519 0.899624 0.720015 0.468626 0.169811 0.146936 0.449839 0.708031 0.894736 0.990102 0.983424 0.874454 0.673656 0.401334 0.085688 0.240029 0.540973 0.784445 0.943493 0.999985 0.946795 0.788819 0.542692 0.235161 0.099714 0.424267 0.701451 0.899104 0.993759 0.973547 0.839824 0.607283 0.302493 0.039020 0.376835 0.670388 0.883879 0.990721 0.976966 0.843283 0.605158 0.291279 0.059816 0.404352 0.698786 0.905322 0.996864 0.960711 0.800481 0.535943 0.200771 0.161630
1.000000 1.000000 1.000000 1.000000 1.000000 1.000000 1.000000 1.000000 1.000000 1.000000 1.000000 1.000000 1.000000 1.000000 1.000000 1.000000 1.000000 1.000000 1.000000 1.000000 1.000000 1.000000 1.000000 1.000000 1.000000 1.000000 1.000000 1.000000 1.000000 1.000000 1.000000 1.000000 1.000000 1.000000 1.000000 1.000000 1.000000 1.000000 1.000000 1.000000 1.000000 1.000000 1.000000 1.000000 1.000000 1.000000 1.000000 1.000000 1.000000 1.000000 1.000000 1.000000 0.920743 0.920743 0.920743 0.912686 0.912686 0.912686 0.912686 0.912686 0.912686 0.912686 0.912686 0.912686 0.912686 0.912686 0.912686 0.912686 0.912686 0.912686 0.912686 0.912686 0.912686 0.912686 0.912686 0.912686 0.912686 0.912686 0.912686 0.912686 0.912686 0.912686 0.912686 0.912686 0.912686 0.912686 0.912686 0.912686 0.912686 0.912686 0.912686 0.912686 0.912686 0.912686 0.912686 0.912686 0.941796 0.943212 0.951429 0.951029 0.950440 0.948402 0.947213 0.946867 0.946770 0.947100 0.947804 0.948762 0.954995 0.956221 0.960638 0.962306 0.963067 0.963733 0.964416 0.964024 0.955458 0.955243 0.953858 0.953302 0.955828 0.954898 0.954127 0.955097 0.954989 0.955428 0.955400 0.954722 0.953654 0.952573 0.951643 0.951234 0.951031 0.951757 0.952171 0.953633 0.956913 0.957501 0.957634 0.957787 0.957891 0.959175 0.958199 0.957601 0.945692 0.945401 0.944242 0.944335 0.947534 0.947554 0.948133 0.948735 0.950453 0.950800 0.946091 0.945187 0.937206 0.934836 0.932123 0.926755 0.922045 0.923859 0.925469 0.926093 0.926433 0.921276 0.921216 0.919142 0.915592 0.918129 0.918153 0.919485 0.920854 0.919483 0.918762 0.917598 0.916003 0.908238 0.895740 0.894587 0.892760 0.897529 0.898181 0.897078 0.900003 0.888762 0.873302 0.851135 0.853519 0.856799 0.847445 0.843934 0.844183 0.844912 0.848706 0.841320 0.839125 0.834394 0.824094 0.817957 0.811754 0.804434 0.801608 0.793551 0.784090 0.780517 0.805034 0.798709 0.808619 0.812725 0.811751 0.809379 0.803596 0.795619 0.771832 0.771652 0.753673 0.727378 0.727900 0.726357 0.726281 0.724374 0.730209 0.721112 0.718793 0.700855 0.697696 0.702696 0.706341 0.703364 0.703070 0.708004 0.712440 0.693897 0.684038 0.674804 0.680299 0.680986 0.681888 0.686879 0.664860 0.644239 0.628280 0.638782 0.646023 0.620987 0.635046 0.648446 0.624533 0.621124 0.611443 0.614104 0.602383 0.605254 0.603501 0.602453 0.608535 0.622765 0.611530 0.611403 0.621558 0.626704 0.638729 0.639297 0.642011 0.605926 0.608662 0.630761 0.634814 0.615045 0.630718 0.619542 0.637471 0.676563 0.670272 0.635809 0.629370 0.616617 0.578494 0.564104 0.559302 0.568403 0.601880 0.601814 0.578796 0.551999 0.556432 0.565696 0.572135 0.572259 0.552846 0.561425 0.549853 0.526719 0.536075 0.544608 0.542348 0.528529 0.515217 0.515587 0.518801 0.532755 0.529213 0.499124 0.516861 0.511810 0.499946 0.428737 0.444145 0.431637 0.423388 0.380213 0.390567 0.398234 0.382539 0.305628 0.291814 0.292760 0.292293 0.278210 0.260152 0.236012 0.224292 0.182425 0.186769 0.172538 0.146002 0.147069 0.130416 0.120960 0.125290 0.096294 0.151472 0.214409 0.216032 0.216032 0.216032 0.216032 0.216032 0.216032 0.199103 0.199103 0.199103 0.199103 0.199103 0.199103 0.199103 0.199103 0.199103 0.223872 0.223872 0.223872 0.223872 0.223872 0.223872 0.223872 0.223872 0.223872 0.223872 0.223872 0.223872 0.223872 0.223872
0.000000 0.000000 0.000000 0.000000 0.000000 0.000000 0.000000 0.000000 0.000000 0.000000 0.000000 0.000000 0.000000 0.000000 0.000000 0.000000 0.000000 0.000000 0.000000 0.000000 0.000000 0.000000 0.000000 0.000000 0.000000 0.000000 0.000000 0.000000 0.000000 0.000000 0.000000 0.000000 0.000000 0.000000 0.000000 0.000000 0.000000 0.000000 0.000000 0.000000 0.000000 0.000000 0.000000 0.000000 0.000000 0.000000 0.000000 0.000000 0.000000 0.000000 0.000000 0.000000 0.180334 0.180334 0.180334 0.199007 0.199007 0.199007 0.199007 0.199007 0.199007 0.199007 0.199007 0.199007 0.199007 0.199007 0.199007 0.199007 0.199007 0.199007 0.199007 0.199007 0.199007 0.199007 0.199007 0.199007 0.199007 0.199007 0.199007 0.199007 0.199007 0.199007 0.199007 0.199007 0.199007 0.199007 0.199007 0.199007 0.199007 0.199007 0.199007 0.199007 0.199007 0.199007 0.199007 0.199007 0.225018 0.225018 0.225018 0.225018 0.225018 0.225018 0.225018 0.225018 0.225018 0.225018 0.225018 0.225018 0.225018 0.225018 0.225018 0.225018 0.225018 0.225018 0.225018 0.225018 0.225018 0.225018 0.225018 0.225018 0.225018 0.225018 0.225018 0.225018 0.225018 0.244339 0.244339 0.244339 0.244339 0.244339 0.244339 0.244339 0.244339 0.244339 0.244339 0.244339 0.244339 0.244339 0.244339 0.244339 0.244339 0.244339 0.244339 0.244339 0.244339 0.244339 0.244339 0.244339 0.251976 0.251976 0.251976 0.251976 0.251976 0.251976 0.251976 0.251976 0.251976 0.251976 0.251976 0.251976 0.251976 0.251976 0.251976 0.251976 0.251976 0.251976 0.251976 0.251976 0.264906 0.264906 0.264906 0.264906 0.264906 0.264906 0.264906 0.264906 0.264906 0.264906 0.264906 0.264906 0.264906 0.264906 0.264906 0.264906 0.264906 0.264906 0.264906 0.264906 0.264906 0.264906 0.264906 0.264906 0.264906 0.264906 0.264906 0.264906 0.264906 0.264906 0.264906 0.264906 0.264906 0.264906 0.264906 0.264906 0.264906 0.264906 0.264906 0.264906 0.264906 0.264906 0.264906 0.264906 0.264906 0.264906 0.264906 0.264906 0.264906 0.264906 0.264906 0.264906 0.264906 0.264906 0.264906 0.264906 0.264906 0.264906 0.264906 0.264906 0.264906 0.264906 0.256074 0.256074 0.256074 0.256074 0.256074 0.256074 0.256074 0.256074 0.256074 0.256074 0.256074 0.256074 0.256074 0.256074 0.269680 0.269680 0.269680 0.269680 0.269680 0.269680 0.269680 0.269680 0.269680 0.269680 0.269680 0.269680 0.264906 0.264906 0.264906 0.264906 0.264906 0.264906 0.264906 0.264906 0.264906 0.264906 0.264906 0.264906 0.269680 0.269680 0.269680 0.269680 0.269680 0.269680 0.269680 0.269680 0.269680 0.269680 0.269680 0.264906 0.264906 0.264906 0.264906 0.264906 0.264906 0.264906 0.264906 0.264906 0.264906 0.264906 0.256074 0.256074 0.256074 0.256074 0.256074 0.256074 0.256074 0.256074 0.256074 0.256074 0.256074 0.264906 0.264906 0.264906 0.264906 0.264906 0.264906 0.264906 0.264906 0.264906 0.264906 0.260378 0.260378 0.260378 0.260378 0.260378 0.260378 0.260378 0.260378 0.260378 0.260378 0.256074 0.256074 0.256074 0.256074 0.256074 0.256074 0.256074 0.256074 0.256074 0.256074 0.260378 0.260378 0.260378 0.260378 0.260378 0.260378 0.260378 0.260378 0.260378 0.256074 0.256074 0.256074 0.256074 0.256074 0.256074 0.256074 0.256074 0.256074 0.251976 0.251976 0.251976 0.251976 0.251976 0.251976 0.251976 0.251976 0.251976 0.251976 0.251976 0.251976 0.251976 0.251976
