# Output from CTFFind version 4.1.9, run on 2019-11-03 20:03:52
# Input file: stack6_bm3d_averaged_1_5.5_0_250_half.mrc ; Number of micrographs: 1
# Pixel size: 3.000 Angstroms ; acceleration voltage: 300.0 keV ; spherical aberration: 0.00 mm ; amplitude contrast: 0.07
# Box size: 512 pixels ; min. res.: 30.0 Angstroms ; max. res.: 5.0 Angstroms ; min. def.: 5000.0 um; max. def. 50000.0 um; num. frames averaged: 1
# 6 lines per micrograph: #1 - spatial frequency (1/Angstroms); #2 - 1D rotational average of spectrum (assuming no astigmatism); #3 - 1D rotational average of spectrum; #4 - CTF fit; #5 - cross-correlation between spectrum and CTF fit; #6 - 2sigma of expected cross correlation of noise
0.000000 0.000651 0.001302 0.001953 0.002604 0.003255 0.003906 0.004557 0.005208 0.005859 0.006510 0.007161 0.007812 0.008464 0.009115 0.009766 0.010417 0.011068 0.011719 0.012370 0.013021 0.013672 0.014323 0.014974 0.015625 0.016276 0.016927 0.017578 0.018229 0.018880 0.019531 0.020182 0.020833 0.021484 0.022135 0.022786 0.023438 0.024089 0.024740 0.025391 0.026042 0.026693 0.027344 0.027995 0.028646 0.029297 0.029948 0.030599 0.031250 0.031901 0.032552 0.033203 0.033854 0.034505 0.035156 0.035807 0.036458 0.037109 0.037760 0.038411 0.039062 0.039714 0.040365 0.041016 0.041667 0.042318 0.042969 0.043620 0.044271 0.044922 0.045573 0.046224 0.046875 0.047526 0.048177 0.048828 0.049479 0.050130 0.050781 0.051432 0.052083 0.052734 0.053385 0.054036 0.054688 0.055339 0.055990 0.056641 0.057292 0.057943 0.058594 0.059245 0.059896 0.060547 0.061198 0.061849 0.062500 0.063151 0.063802 0.064453 0.065104 0.065755 0.066406 0.067057 0.067708 0.068359 0.069010 0.069661 0.070312 0.070964 0.071615 0.072266 0.072917 0.073568 0.074219 0.074870 0.075521 0.076172 0.076823 0.077474 0.078125 0.078776 0.079427 0.080078 0.080729 0.081380 0.082031 0.082682 0.083333 0.083984 0.084635 0.085286 0.085938 0.086589 0.087240 0.087891 0.088542 0.089193 0.089844 0.090495 0.091146 0.091797 0.092448 0.093099 0.093750 0.094401 0.095052 0.095703 0.096354 0.097005 0.097656 0.098307 0.098958 0.099609 0.100260 0.100911 0.101562 0.102214 0.102865 0.103516 0.104167 0.104818 0.105469 0.106120 0.106771 0.107422 0.108073 0.108724 0.109375 0.110026 0.110677 0.111328 0.111979 0.112630 0.113281 0.113932 0.114583 0.115234 0.115885 0.116536 0.117188 0.117839 0.118490 0.119141 0.119792 0.120443 0.121094 0.121745 0.122396 0.123047 0.123698 0.124349 0.125000 0.125651 0.126302 0.126953 0.127604 0.128255 0.128906 0.129557 0.130208 0.130859 0.131510 0.132161 0.132812 0.133464 0.134115 0.134766 0.135417 0.136068 0.136719 0.137370 0.138021 0.138672 0.139323 0.139974 0.140625 0.141276 0.141927 0.142578 0.143229 0.143880 0.144531 0.145182 0.145833 0.146484 0.147135 0.147786 0.148438 0.149089 0.149740 0.150391 0.151042 0.151693 0.152344 0.152995 0.153646 0.154297 0.154948 0.155599 0.156250 0.156901 0.157552 0.158203 0.158854 0.159505 0.160156 0.160807 0.161458 0.162109 0.162760 0.163411 0.164062 0.164714 0.165365 0.166016 0.166667 0.167318 0.167969 0.168620 0.169271 0.169922 0.170573 0.171224 0.171875 0.172526 0.173177 0.173828 0.174479 0.175130 0.175781 0.176432 0.177083 0.177734 0.178385 0.179036 0.179688 0.180339 0.180990 0.181641 0.182292 0.182943 0.183594 0.184245 0.184896 0.185547 0.186198 0.186849 0.187500 0.188151 0.188802 0.189453 0.190104 0.190755 0.191406 0.192057 0.192708 0.193359 0.194010 0.194661 0.195312 0.195964 0.196615 0.197266 0.197917 0.198568 0.199219 0.199870 0.200521 0.201172 0.201823 0.202474 0.203125 0.203776 0.204427 0.205078 0.205729 0.206380 0.207031 0.207682 0.208333 0.208984 0.209635 0.210286 0.210938 0.211589 0.212240 0.212891 0.213542 0.214193 0.214844 0.215495 0.216146 0.216797 0.217448 0.218099 0.218750 0.219401 0.220052 0.220703 0.221354 0.222005 0.222656 0.223307 0.223958 0.224609 0.225260 0.225911 0.226562 0.227214 0.227865 0.228516 0.229167 0.229818 0.230469 0.231120 0.231771 0.232422 0.233073 0.233724 0.234375 0.235026 0.235677
       0.31165        0.31165        0.31165        0.31165        0.31165        0.31165        0.31165        0.31165        0.31165        0.31165        0.31165        0.31165        0.31165        0.31165        0.31165        0.31165        0.31165        0.31165        0.31165        0.31165        0.31165        0.31165        0.31165        0.31165        0.31165        0.31165        0.31165        0.31165        0.31165        0.31165        0.31165        0.31165        0.31165        0.31165        0.31165        0.31165        0.31165        0.31165        0.31165        0.31165        0.31165        0.31165        0.31165        0.31165        0.31165        0.31165        0.31165        0.31165        0.31165        0.31165        0.31165        0.59687        0.71932        0.35561        0.18019        0.12669       -0.14756        0.10611        0.02838        0.03253        0.08836        0.30474        0.32156        0.24831        0.14513       -0.04137       -0.01461        0.04033       -0.12649       -0.13446       -0.08454       -0.10155       -0.21894       -0.14330       -0.25900       -0.27354       -0.27288       -0.33727       -0.41374       -0.35296       -0.26063       -0.23007       -0.33062       -0.24517       -0.30009       -0.23953       -0.16500       -0.11288       -0.07747       -0.00978        0.02569        0.12479        0.16768        0.21259        0.33446        0.39996        0.35293        0.46333        0.54663        0.55478        0.63522        0.57169        0.60489        0.59708        0.60818        0.60951        0.55275        0.57313        0.54783        0.39028        0.33019        0.36272        0.34117        0.19299        0.16430        0.13529        0.08613        0.09070        0.00494        0.06403        0.04341        0.00134        0.09956        0.16162        0.25916        0.35002        0.34246        0.37114        0.45369        0.48781        0.41840        0.64582        0.53583        0.47887        0.56842        0.49808        0.53474        0.49584        0.36865        0.30500        0.27520        0.22704        0.21480        0.19478        0.17339        0.12880        0.20850        0.19371        0.23263        0.20148        0.26238        0.30946        0.32840        0.44177        0.42937        0.40998        0.42591        0.46996        0.44103        0.43155        0.39034        0.39784        0.33372        0.28164        0.24084        0.24759        0.24271        0.19083        0.16232        0.21864        0.22597        0.26905        0.34010        0.35707        0.41167        0.39344        0.43276        0.45777        0.45252        0.42216        0.38760        0.40930        0.36754        0.32595        0.33029        0.31086        0.25446        0.27237        0.27114        0.23031        0.29598        0.27454        0.28582        0.31792        0.37247        0.40755        0.40019        0.42217        0.37283        0.40993        0.38942        0.30513        0.28426        0.24155        0.25746        0.22200        0.20126        0.28700        0.34189        0.31382        0.28444        0.34036        0.26529        0.32585        0.37523        0.36798        0.35838        0.37820        0.32423        0.33957        0.32110        0.28399        0.27860        0.24184        0.28872        0.30107        0.31403        0.33277        0.37513        0.37290        0.36829        0.32781        0.34918        0.33650        0.32066        0.31685        0.28456        0.28288        0.25243        0.31655        0.32548        0.31740        0.29114        0.32703        0.33092        0.32971        0.34258        0.31545        0.28329        0.28880        0.28824        0.26552        0.24471        0.23416        0.24398        0.26007        0.24567        0.28344        0.27862        0.31929        0.32081        0.26625        0.29939        0.26659        0.21049        0.26491        0.24382        0.23578        0.27680        0.30125        0.29778        0.29489        0.29809        0.29618        0.31027        0.32615        0.27328        0.31055        0.30735        0.35397        0.27951        0.26493        0.25907        0.30866        0.31527        0.32408        0.33859        0.30939        0.22560        0.28199        0.25202        0.24645        0.24337        0.24931        0.28315        0.23141        0.29701        0.30987        0.34433        0.30819        0.28920        0.24957        0.26610        0.26794        0.23593        0.26015        0.27569        0.31066        0.33248        0.30117        0.28924        0.27041        0.30637        0.26670        0.23106        0.19309        0.28537        0.33329        0.32211        0.31019        0.28836        0.23314        0.21609        0.24254        0.23251        0.23277        0.26736        0.27566        0.25449        0.23821        0.22239        0.26981        0.24292        0.24918        0.26648        0.25602        0.18068        0.22987        0.24978        0.23644        0.28548        0.24590        0.23839        0.19712        0.24273        0.27255        0.20656        0.21887        0.13708        0.14786        0.31245        0.18091        0.19878        0.30046        0.18548        0.17447        0.12420        0.22355        0.14694        0.15181       -0.05564       -0.59855       -0.95131
2.267233 2.248094 2.229039 2.210069 2.191183 2.172382 2.153666 2.135035 2.116488 2.098026 2.079649 2.061356 2.043148 2.025025 2.006987 1.989033 1.971164 1.953379 1.935680 1.918065 1.900535 1.883089 1.865728 1.848452 1.831261 1.814154 1.797132 1.780194 1.763342 1.746574 1.729891 1.713292 1.696778 1.680349 1.664005 1.647745 1.631570 1.615480 1.599474 1.583553 1.567717 1.551966 1.536299 1.520717 1.505219 1.489807 1.474479 1.459236 1.444077 1.429003 1.414014 1.772606 2.100319 1.452198 1.313868 1.063213 0.516440 0.898410 0.812111 0.819266 0.693926 1.351577 1.193229 1.205718 0.968508 0.624323 0.482893 0.741706 0.558772 0.240987 0.298942 0.469959 0.221221 0.248635 0.106673 0.007962 -0.020053 -0.017652 -0.296891 -0.176819 -0.015313 -0.045087 -0.103722 -0.017336 -0.139140 -0.114693 0.061742 0.155894 0.223302 0.265982 0.343063 0.588737 0.538631 0.613882 0.816210 0.996531 0.793095 1.185219 1.152223 1.216832 1.316314 1.224782 1.183782 1.307326 1.195670 1.325846 1.156105 1.102050 1.181330 0.944617 0.659274 0.719160 0.770934 0.476187 0.401530 0.347693 0.200653 0.192619 0.041699 0.178455 0.145508 0.014312 0.112954 0.228488 0.342471 0.600530 0.590713 0.563366 0.707304 0.869763 0.586382 1.016388 0.999233 0.751953 0.898985 0.751151 0.832600 0.857785 0.589143 0.402659 0.385875 0.325736 0.212491 0.178347 0.175708 -0.012801 0.179843 0.153804 0.228545 0.116286 0.264953 0.315367 0.277357 0.482648 0.587148 0.503329 0.368966 0.678658 0.556912 0.478984 0.500971 0.440914 0.308388 0.329364 0.121682 0.181371 0.052025 0.186601 -0.061430 0.044001 0.027219 0.234021 0.096362 0.365165 0.314760 0.373366 0.406455 0.397756 0.547689 0.396370 0.374340 0.428508 0.226800 0.321839 0.162416 0.260450 0.083553 0.124268 0.094256 0.083463 0.036162 0.153556 0.058051 0.140385 0.233722 0.267933 0.344916 0.268346 0.326988 0.255519 0.291003 0.183811 0.099960 0.040121 -0.012081 0.012621 -0.081479 -0.052969 0.095099 0.194054 0.064434 0.098365 0.101080 0.024350 0.171814 0.222504 0.181261 0.226510 0.135198 0.123451 0.107590 0.095302 0.048888 -0.067194 -0.022803 0.133178 -0.007309 0.126949 0.101085 0.221507 0.216706 0.179883 0.141587 0.182192 0.092690 0.110291 0.107219 0.040221 -0.010632 0.018540 0.111760 0.125469 0.098595 0.047546 0.132759 0.105480 0.071678 0.121392 0.019058 -0.020440 0.027705 -0.013605 -0.033034 -0.084020 -0.101337 -0.030842 -0.064193 -0.076235 0.002386 0.008016 0.081828 0.060732 -0.042643 0.052198 -0.064049 -0.114493 0.021658 -0.078272 -0.088325 0.040199 0.051244 0.018280 0.046218 -0.019289 0.045389 0.119055 -0.032978 -0.015229 0.088477 0.029974 0.124195 -0.049113 -0.027639 -0.049572 0.108112 0.022332 0.071969 0.129080 0.028223 -0.095045 0.002054 -0.035961 -0.047762 -0.055250 -0.042454 0.010521 -0.102651 0.109840 0.068183 0.165702 0.048315 0.002540 -0.012927 0.008370 0.035240 -0.057989 0.037675 0.026508 0.127542 0.124340 0.109381 0.083913 0.062229 0.164954 -0.008402 0.008706 -0.104640 0.141816 0.176863 0.138442 0.145970 0.055893 -0.027300 -0.053467 -0.024019 -0.014306 -0.014947 0.045083 0.087878 0.007390 -0.004559 0.020314 0.062475 0.058120 0.062764 0.093141 0.033664 -0.026324 0.030024 0.091060 0.054630 0.161493 0.082793 0.001635 0.070104 0.118429 0.140810 0.130142 0.104538 -0.057499 -0.124938 0.458799 0.377895 0.320711 0.573107 0.270076 0.309446 0.148663 0.484617 0.269992 0.308662 0.174330 -0.833797
0.072396 0.072838 0.074163 0.076371 0.079462 0.083435 0.088289 0.094022 0.100634 0.108122 0.116484 0.125716 0.135815 0.146776 0.158594 0.171262 0.184772 0.199116 0.214282 0.230259 0.247032 0.264586 0.282903 0.301961 0.321739 0.342209 0.363344 0.385111 0.407474 0.430396 0.453833 0.477738 0.502061 0.526747 0.551735 0.576960 0.602354 0.627843 0.653346 0.678779 0.704051 0.729069 0.753731 0.777931 0.801559 0.824499 0.846629 0.867825 0.887956 0.906890 0.924488 0.940610 0.955112 0.967851 0.978680 0.987451 0.994019 0.998237 0.999964 0.999060 0.995388 0.988821 0.979236 0.966518 0.950564 0.931282 0.908590 0.882425 0.852736 0.819493 0.782682 0.742313 0.698416 0.651047 0.600285 0.546238 0.489041 0.428857 0.365881 0.300336 0.232478 0.162594 0.091002 0.018050 0.055883 0.130388 0.205031 0.279348 0.352856 0.425047 0.495396 0.563366 0.628407 0.689964 0.747479 0.800402 0.848190 0.890315 0.926273 0.955588 0.977820 0.992569 0.999485 0.998277 0.988713 0.970632 0.943948 0.908657 0.864842 0.812675 0.752424 0.684454 0.609231 0.527317 0.439375 0.346165 0.248540 0.147440 0.043885 0.061028 0.166143 0.270251 0.372106 0.470437 0.563965 0.651424 0.731572 0.803218 0.865233 0.916578 0.956321 0.983654 0.997916 0.998607 0.985407 0.958192 0.917039 0.862242 0.794319 0.714007 0.622269 0.520285 0.409446 0.291336 0.167716 0.040506 0.088250 0.216406 0.341757 0.462066 0.575119 0.678750 0.770902 0.849658 0.913296 0.960323 0.989521 0.999980 0.991137 0.962795 0.915150 0.848800 0.764752 0.664419 0.549605 0.422480 0.285552 0.141622 0.006269 0.154897 0.300927 0.440980 0.571721 0.689935 0.792613 0.877034 0.940842 0.982127 0.999484 0.992074 0.959665 0.902665 0.822136 0.719788 0.597962 0.459586 0.308120 0.147478 0.018066 0.183983 0.345614 0.498297 0.637510 0.759000 0.858929 0.934004 0.981593 0.999836 0.987727 0.945176 0.873050 0.773168 0.648289 0.502048 0.338864 0.163824 0.017463 0.199040 0.374797 0.538674 0.684877 0.808085 0.903659 0.967832 0.997874 0.992225 0.950588 0.873990 0.764777 0.626575 0.464192 0.283467 0.091080 0.105682 0.299199 0.481803 0.646095 0.785242 0.893285 0.965408 0.998170 0.989698 0.939809 0.850073 0.723801 0.565943 0.382939 0.182460 0.026882 0.235900 0.435226 0.615737 0.768976 0.887568 0.965597 0.998919 0.985421 0.925170 0.820481 0.675864 0.497862 0.294798 0.076395 0.146661 0.363236 0.562304 0.733521 0.867767 0.957665 0.998014 0.986118 0.922006 0.808499 0.651135 0.457938 0.239048 0.006209 0.227834 0.450029 0.647754 0.809529 0.925727 0.989163 0.995583 0.943987 0.836772 0.679681 0.481538 0.253798 0.009912 0.235431 0.467203 0.670938 0.833664 0.944749 0.996643 0.985427 0.911160 0.777971 0.593885 0.370404 0.121820 0.135662 0.384967 0.609279 0.793179 0.923751 0.991510 0.991152 0.922021 0.788260 0.598637 0.366026 0.106581 0.161341 0.418481 0.646035 0.827068 0.947796 0.998685 0.975268 0.878586 0.715243 0.497021 0.240102 0.036101 0.310362 0.561273 0.768927 0.916516 0.991754 0.987952 0.904681 0.747947 0.529842 0.267673 0.017345 0.301778 0.561874 0.775578 0.924413 0.995148 0.981031 0.882517 0.707374 0.470168 0.191118 0.105567 0.393759 0.647693 0.844311 0.965377 0.999256 0.942097 0.798357 0.580554 0.308267 0.006448 0.296823 0.572914 0.795383 0.942524 0.999570 0.960250 0.827572 0.613716 0.339009 0.030078 0.282680 0.568056 0.797160 0.946401 0.999962
1.000000 1.000000 1.000000 1.000000 1.000000 1.000000 1.000000 1.000000 1.000000 1.000000 1.000000 1.000000 1.000000 1.000000 1.000000 1.000000 1.000000 1.000000 1.000000 1.000000 1.000000 1.000000 1.000000 1.000000 1.000000 1.000000 1.000000 1.000000 1.000000 1.000000 1.000000 1.000000 1.000000 1.000000 1.000000 1.000000 1.000000 1.000000 1.000000 1.000000 1.000000 1.000000 1.000000 1.000000 1.000000 1.000000 1.000000 1.000000 1.000000 1.000000 1.000000 1.000000 0.779441 0.779441 0.779441 0.779441 0.779441 0.779441 0.779441 0.764442 0.764442 0.764442 0.764442 0.764442 0.764442 0.764442 0.764442 0.764442 0.764442 0.764442 0.764442 0.764442 0.764442 0.764442 0.764442 0.764442 0.764442 0.764442 0.764442 0.764442 0.764442 0.764442 0.764442 0.764442 0.764442 0.764442 0.764442 0.764442 0.764442 0.764442 0.764442 0.764442 0.764442 0.764442 0.764442 0.764442 0.764442 0.764442 0.764442 0.764442 0.764442 0.764442 0.764442 0.910738 0.910965 0.913740 0.908675 0.910509 0.908434 0.901992 0.904950 0.904246 0.904090 0.905067 0.906363 0.908244 0.911502 0.917916 0.920703 0.928388 0.931684 0.932943 0.932949 0.929937 0.937417 0.934926 0.933157 0.921252 0.924655 0.924325 0.924532 0.923349 0.923475 0.925295 0.925248 0.923114 0.921254 0.919015 0.917181 0.917727 0.917315 0.917267 0.917443 0.917642 0.918082 0.918670 0.914809 0.917073 0.915959 0.912392 0.909138 0.908734 0.909929 0.903949 0.900954 0.891555 0.892729 0.891621 0.896735 0.893169 0.892251 0.893486 0.894252 0.894917 0.893284 0.893337 0.891236 0.893015 0.890044 0.886106 0.882640 0.882869 0.884986 0.891042 0.893758 0.893358 0.890078 0.884059 0.875319 0.873067 0.859326 0.831347 0.832215 0.835189 0.837108 0.837708 0.836946 0.835496 0.831484 0.824353 0.816809 0.821305 0.820892 0.813587 0.800554 0.800716 0.797716 0.805132 0.808781 0.800633 0.803585 0.800598 0.800549 0.801480 0.800194 0.800001 0.796051 0.798849 0.807179 0.807688 0.799984 0.795161 0.789620 0.768186 0.768999 0.775300 0.785965 0.786788 0.781896 0.769102 0.777124 0.772626 0.783818 0.796850 0.795550 0.792907 0.772481 0.733942 0.719493 0.710849 0.712949 0.715289 0.706455 0.699697 0.700618 0.704971 0.654677 0.643187 0.632268 0.629948 0.639407 0.643122 0.635481 0.606694 0.624548 0.621235 0.599825 0.595771 0.556671 0.540985 0.490404 0.493401 0.490405 0.463658 0.450902 0.438327 0.454273 0.466071 0.464942 0.461697 0.432219 0.418102 0.418387 0.419071 0.425708 0.424738 0.428478 0.383843 0.365848 0.353284 0.372461 0.374404 0.374995 0.388659 0.397056 0.397964 0.380071 0.361651 0.355752 0.372016 0.386561 0.396952 0.398303 0.372045 0.352872 0.334074 0.340740 0.378581 0.372721 0.373481 0.365535 0.372607 0.384084 0.365308 0.343992 0.324797 0.373072 0.378014 0.372461 0.337502 0.334636 0.351020 0.353899 0.349031 0.331743 0.349194 0.375092 0.368137 0.375082 0.369637 0.404890 0.456300 0.444290 0.436456 0.459842 0.449378 0.444652 0.421979 0.408510 0.404509 0.384006 0.375869 0.354556 0.341312 0.329241 0.332092 0.357419 0.364897 0.397329 0.373494 0.343071 0.246952 0.318957 0.232962 0.239407 0.239407 0.239407 0.239407 0.239407 0.239407 0.239407 0.239407 0.260262 0.260262 0.260262 0.260262 0.260262 0.260262 0.260262 0.260262 0.260262 0.260262 0.260262 0.260262 0.260262 0.260262 0.260262 0.260262 0.260262 0.260262 0.260262 0.260262 0.260262
0.000000 0.000000 0.000000 0.000000 0.000000 0.000000 0.000000 0.000000 0.000000 0.000000 0.000000 0.000000 0.000000 0.000000 0.000000 0.000000 0.000000 0.000000 0.000000 0.000000 0.000000 0.000000 0.000000 0.000000 0.000000 0.000000 0.000000 0.000000 0.000000 0.000000 0.000000 0.000000 0.000000 0.000000 0.000000 0.000000 0.000000 0.000000 0.000000 0.000000 0.000000 0.000000 0.000000 0.000000 0.000000 0.000000 0.000000 0.000000 0.000000 0.000000 0.000000 0.000000 0.173422 0.173422 0.173422 0.173422 0.173422 0.173422 0.173422 0.191565 0.191565 0.191565 0.191565 0.191565 0.191565 0.191565 0.191565 0.191565 0.191565 0.191565 0.191565 0.191565 0.191565 0.191565 0.191565 0.191565 0.191565 0.191565 0.191565 0.191565 0.191565 0.191565 0.191565 0.191565 0.191565 0.191565 0.191565 0.191565 0.191565 0.191565 0.191565 0.191565 0.191565 0.191565 0.191565 0.191565 0.191565 0.191565 0.191565 0.191565 0.191565 0.191565 0.191565 0.222222 0.222222 0.222222 0.222222 0.222222 0.222222 0.222222 0.222222 0.222222 0.222222 0.222222 0.222222 0.222222 0.222222 0.222222 0.222222 0.222222 0.222222 0.222222 0.222222 0.222222 0.222222 0.222222 0.222222 0.222222 0.222222 0.222222 0.222222 0.222222 0.222222 0.234082 0.234082 0.234082 0.234082 0.234082 0.234082 0.234082 0.234082 0.234082 0.234082 0.234082 0.234082 0.234082 0.234082 0.234082 0.234082 0.234082 0.234082 0.234082 0.234082 0.234082 0.234082 0.234082 0.234082 0.234082 0.244339 0.244339 0.244339 0.244339 0.244339 0.244339 0.244339 0.244339 0.244339 0.244339 0.244339 0.244339 0.244339 0.244339 0.244339 0.244339 0.244339 0.244339 0.244339 0.244339 0.244339 0.248069 0.248069 0.248069 0.248069 0.248069 0.248069 0.248069 0.248069 0.248069 0.248069 0.248069 0.248069 0.248069 0.248069 0.248069 0.248069 0.248069 0.248069 0.248069 0.256074 0.256074 0.256074 0.256074 0.256074 0.256074 0.256074 0.256074 0.256074 0.256074 0.256074 0.256074 0.256074 0.256074 0.256074 0.256074 0.256074 0.256074 0.256074 0.256074 0.256074 0.256074 0.256074 0.256074 0.256074 0.256074 0.256074 0.256074 0.256074 0.256074 0.256074 0.256074 0.256074 0.256074 0.256074 0.256074 0.256074 0.256074 0.256074 0.256074 0.256074 0.256074 0.256074 0.256074 0.256074 0.256074 0.256074 0.256074 0.256074 0.256074 0.256074 0.256074 0.256074 0.256074 0.256074 0.256074 0.256074 0.256074 0.256074 0.256074 0.256074 0.256074 0.260378 0.260378 0.260378 0.260378 0.260378 0.260378 0.260378 0.260378 0.260378 0.260378 0.260378 0.260378 0.260378 0.256074 0.256074 0.256074 0.256074 0.256074 0.256074 0.256074 0.256074 0.256074 0.256074 0.256074 0.256074 0.256074 0.260378 0.260378 0.260378 0.260378 0.260378 0.260378 0.260378 0.260378 0.260378 0.260378 0.260378 0.260378 0.251976 0.251976 0.251976 0.251976 0.251976 0.251976 0.251976 0.251976 0.251976 0.251976 0.251976 0.251976 0.256074 0.256074 0.256074 0.256074 0.256074 0.256074 0.256074 0.256074 0.256074 0.256074 0.256074 0.251976 0.251976 0.251976 0.251976 0.251976 0.251976 0.251976 0.251976 0.251976 0.251976 0.251976 0.260378 0.260378 0.260378 0.260378 0.260378 0.260378 0.260378 0.260378 0.260378 0.260378 0.244339 0.244339 0.244339 0.244339 0.244339 0.244339 0.244339 0.244339 0.244339 0.244339 0.244339 0.244339 0.244339 0.244339 0.244339 0.244339 0.244339 0.244339 0.244339 0.244339 0.244339
