# Output from CTFFind version 4.1.9, run on 2019-11-03 20:10:26
# Input file: stack6_bm3d_averaged_1_7.5_0_3000_half.mrc ; Number of micrographs: 1
# Pixel size: 3.000 Angstroms ; acceleration voltage: 300.0 keV ; spherical aberration: 0.00 mm ; amplitude contrast: 0.07
# Box size: 512 pixels ; min. res.: 30.0 Angstroms ; max. res.: 5.0 Angstroms ; min. def.: 5000.0 um; max. def. 50000.0 um; num. frames averaged: 1
# 6 lines per micrograph: #1 - spatial frequency (1/Angstroms); #2 - 1D rotational average of spectrum (assuming no astigmatism); #3 - 1D rotational average of spectrum; #4 - CTF fit; #5 - cross-correlation between spectrum and CTF fit; #6 - 2sigma of expected cross correlation of noise
0.000000 0.000651 0.001302 0.001953 0.002604 0.003255 0.003906 0.004557 0.005208 0.005859 0.006510 0.007161 0.007812 0.008464 0.009115 0.009766 0.010417 0.011068 0.011719 0.012370 0.013021 0.013672 0.014323 0.014974 0.015625 0.016276 0.016927 0.017578 0.018229 0.018880 0.019531 0.020182 0.020833 0.021484 0.022135 0.022786 0.023438 0.024089 0.024740 0.025391 0.026042 0.026693 0.027344 0.027995 0.028646 0.029297 0.029948 0.030599 0.031250 0.031901 0.032552 0.033203 0.033854 0.034505 0.035156 0.035807 0.036458 0.037109 0.037760 0.038411 0.039062 0.039714 0.040365 0.041016 0.041667 0.042318 0.042969 0.043620 0.044271 0.044922 0.045573 0.046224 0.046875 0.047526 0.048177 0.048828 0.049479 0.050130 0.050781 0.051432 0.052083 0.052734 0.053385 0.054036 0.054688 0.055339 0.055990 0.056641 0.057292 0.057943 0.058594 0.059245 0.059896 0.060547 0.061198 0.061849 0.062500 0.063151 0.063802 0.064453 0.065104 0.065755 0.066406 0.067057 0.067708 0.068359 0.069010 0.069661 0.070312 0.070964 0.071615 0.072266 0.072917 0.073568 0.074219 0.074870 0.075521 0.076172 0.076823 0.077474 0.078125 0.078776 0.079427 0.080078 0.080729 0.081380 0.082031 0.082682 0.083333 0.083984 0.084635 0.085286 0.085938 0.086589 0.087240 0.087891 0.088542 0.089193 0.089844 0.090495 0.091146 0.091797 0.092448 0.093099 0.093750 0.094401 0.095052 0.095703 0.096354 0.097005 0.097656 0.098307 0.098958 0.099609 0.100260 0.100911 0.101562 0.102214 0.102865 0.103516 0.104167 0.104818 0.105469 0.106120 0.106771 0.107422 0.108073 0.108724 0.109375 0.110026 0.110677 0.111328 0.111979 0.112630 0.113281 0.113932 0.114583 0.115234 0.115885 0.116536 0.117188 0.117839 0.118490 0.119141 0.119792 0.120443 0.121094 0.121745 0.122396 0.123047 0.123698 0.124349 0.125000 0.125651 0.126302 0.126953 0.127604 0.128255 0.128906 0.129557 0.130208 0.130859 0.131510 0.132161 0.132812 0.133464 0.134115 0.134766 0.135417 0.136068 0.136719 0.137370 0.138021 0.138672 0.139323 0.139974 0.140625 0.141276 0.141927 0.142578 0.143229 0.143880 0.144531 0.145182 0.145833 0.146484 0.147135 0.147786 0.148438 0.149089 0.149740 0.150391 0.151042 0.151693 0.152344 0.152995 0.153646 0.154297 0.154948 0.155599 0.156250 0.156901 0.157552 0.158203 0.158854 0.159505 0.160156 0.160807 0.161458 0.162109 0.162760 0.163411 0.164062 0.164714 0.165365 0.166016 0.166667 0.167318 0.167969 0.168620 0.169271 0.169922 0.170573 0.171224 0.171875 0.172526 0.173177 0.173828 0.174479 0.175130 0.175781 0.176432 0.177083 0.177734 0.178385 0.179036 0.179688 0.180339 0.180990 0.181641 0.182292 0.182943 0.183594 0.184245 0.184896 0.185547 0.186198 0.186849 0.187500 0.188151 0.188802 0.189453 0.190104 0.190755 0.191406 0.192057 0.192708 0.193359 0.194010 0.194661 0.195312 0.195964 0.196615 0.197266 0.197917 0.198568 0.199219 0.199870 0.200521 0.201172 0.201823 0.202474 0.203125 0.203776 0.204427 0.205078 0.205729 0.206380 0.207031 0.207682 0.208333 0.208984 0.209635 0.210286 0.210938 0.211589 0.212240 0.212891 0.213542 0.214193 0.214844 0.215495 0.216146 0.216797 0.217448 0.218099 0.218750 0.219401 0.220052 0.220703 0.221354 0.222005 0.222656 0.223307 0.223958 0.224609 0.225260 0.225911 0.226562 0.227214 0.227865 0.228516 0.229167 0.229818 0.230469 0.231120 0.231771 0.232422 0.233073 0.233724 0.234375 0.235026 0.235677
       0.33291        0.33291        0.33291        0.33291        0.33291        0.33291        0.33291        0.33291        0.33291        0.33291        0.33291        0.33291        0.33291        0.33291        0.33291        0.33291        0.33291        0.33291        0.33291        0.33291        0.33291        0.33291        0.33291        0.33291        0.33291        0.33291        0.33291        0.33291        0.33291        0.33291        0.33291        0.33291        0.33291        0.33291        0.33291        0.33291        0.33291        0.33291        0.33291        0.33291        0.33291        0.33291        0.33291        0.33291        0.33291        0.33291        0.33291        0.33291        0.33291        0.33291        0.33291        0.59609        0.70885        0.36597        0.17277        0.13977       -0.12817        0.11316        0.04170        0.04406        0.09409        0.30988        0.30715        0.23625        0.14214       -0.03703       -0.00943        0.05243       -0.08882       -0.09534       -0.06818       -0.07445       -0.17266       -0.10963       -0.21878       -0.23798       -0.23624       -0.29445       -0.36507       -0.29399       -0.20303       -0.16736       -0.27468       -0.19988       -0.23950       -0.18077       -0.12147       -0.06289       -0.03493        0.02033        0.06901        0.15192        0.19294        0.23531        0.34717        0.41206        0.36206        0.48406        0.54585        0.55429        0.63011        0.55440        0.58443        0.60454        0.60484        0.59445        0.56022        0.59682        0.54184        0.39941        0.35530        0.37820        0.34454        0.21321        0.20465        0.17454        0.11795        0.11556        0.04374        0.11107        0.08881        0.05629        0.13706        0.19166        0.27846        0.34945        0.36686        0.39908        0.44907        0.48190        0.42315        0.63767        0.55073        0.48235        0.56982        0.50399        0.55915        0.51767        0.39144        0.32936        0.31534        0.26970        0.25966        0.21639        0.19850        0.17677        0.26846        0.24645        0.26559        0.23634        0.27584        0.33928        0.33883        0.45083        0.44631        0.43291        0.41862        0.48244        0.43657        0.41717        0.40843        0.39770        0.33698        0.28412        0.28362        0.27231        0.27087        0.21620        0.20540        0.25350        0.27033        0.29099        0.35201        0.38704        0.42796        0.41774        0.42983        0.49143        0.47543        0.43086        0.38346        0.41884        0.38280        0.33164        0.34134        0.33244        0.27436        0.28536        0.28186        0.25809        0.32196        0.30101        0.32011        0.34003        0.40005        0.42342        0.41338        0.44225        0.39170        0.43443        0.40746        0.33599        0.30202        0.27697        0.28758        0.25985        0.22887        0.31530        0.37791        0.33963        0.31197        0.36781        0.29416        0.35266        0.40411        0.38924        0.36657        0.38058        0.34919        0.36397        0.33632        0.30820        0.28960        0.27130        0.32292        0.33442        0.35414        0.36859        0.39076        0.37304        0.36934        0.32801        0.35792        0.36605        0.34663        0.33075        0.29192        0.29011        0.27241        0.34199        0.33789        0.35065        0.31957        0.35100        0.37354        0.34031        0.35807        0.35070        0.31642        0.31331        0.31082        0.28366        0.27414        0.26460        0.25582        0.27644        0.26916        0.30541        0.27684        0.31840        0.36186        0.26517        0.29700        0.28389        0.25039        0.30516        0.28771        0.28877        0.31520        0.33012        0.33091        0.31826        0.31724        0.31423        0.36312        0.36059        0.30404        0.32841        0.32049        0.37071        0.28120        0.27982        0.29695        0.30826        0.33373        0.36764        0.35904        0.29823        0.23408        0.29904        0.26927        0.26054        0.26190        0.27745        0.31042        0.24005        0.30744        0.33360        0.36862        0.31166        0.31761        0.28523        0.29582        0.29211        0.26808        0.29068        0.27149        0.28653        0.35335        0.34971        0.28597        0.32622        0.33104        0.26300        0.23194        0.18948        0.33333        0.32948        0.36156        0.34682        0.29433        0.23229        0.22147        0.27830        0.27244        0.27185        0.29426        0.29361        0.24750        0.28316        0.28414        0.31018        0.28286        0.28059        0.27556        0.24774        0.23276        0.28931        0.25177        0.21715        0.26218        0.25848        0.26389        0.22648        0.20611        0.27297        0.30337        0.27962        0.20324        0.14716        0.29008        0.22720        0.25979        0.27477        0.16787        0.16280        0.20304        0.24309        0.30140        0.09469       -0.11511       -0.60891       -0.96904
2.426709 2.406154 2.385691 2.365318 2.345037 2.324846 2.304747 2.284738 2.264820 2.244993 2.225258 2.205613 2.186059 2.166596 2.147224 2.127943 2.108753 2.089653 2.070645 2.051728 2.032902 2.014166 1.995522 1.976968 1.958506 1.940134 1.921854 1.903664 1.885566 1.867558 1.849641 1.831815 1.814080 1.796436 1.778883 1.761422 1.744050 1.726770 1.709581 1.692483 1.675476 1.658560 1.641734 1.625000 1.608356 1.591804 1.575342 1.558972 1.542692 1.526503 1.510406 1.868235 2.210308 1.534828 1.331358 1.106132 0.519473 0.936104 0.804170 0.847312 0.701252 1.426980 1.195599 1.212594 0.988281 0.596185 0.470141 0.748512 0.604232 0.284128 0.271618 0.488450 0.248606 0.266378 0.110494 -0.002051 -0.016480 -0.009187 -0.320784 -0.142894 0.013250 0.010760 -0.080937 -0.013606 -0.103972 -0.082920 0.069332 0.198773 0.261152 0.281837 0.388002 0.633707 0.564586 0.671161 0.830370 1.065507 0.807171 1.272333 1.197443 1.274340 1.373934 1.265004 1.163849 1.377899 1.241594 1.348820 1.208674 1.209038 1.224295 0.966407 0.718068 0.751237 0.798159 0.483883 0.449969 0.373615 0.241757 0.198408 0.035206 0.236365 0.175712 0.061850 0.142721 0.239994 0.365766 0.608451 0.611577 0.631550 0.698123 0.881812 0.595359 1.029989 1.056170 0.776767 0.928182 0.772128 0.890752 0.921463 0.653559 0.409391 0.440022 0.388356 0.223311 0.245980 0.162822 -0.014921 0.254435 0.234553 0.262791 0.158405 0.249330 0.334910 0.277279 0.502492 0.604456 0.556882 0.367332 0.650893 0.562435 0.418472 0.542762 0.435078 0.267712 0.312215 0.139349 0.216116 0.025547 0.216076 -0.054239 0.057608 0.066899 0.259817 0.048706 0.400090 0.351042 0.405811 0.380598 0.419532 0.591628 0.410425 0.345634 0.399889 0.197458 0.363109 0.107749 0.268745 0.065064 0.090701 0.081022 0.062156 0.046121 0.158287 0.057710 0.158923 0.242234 0.287369 0.329831 0.264146 0.345440 0.264005 0.293741 0.187509 0.104718 0.019523 -0.007108 0.017610 -0.063871 -0.071594 0.127094 0.219380 0.053380 0.108645 0.130225 0.007994 0.191273 0.259725 0.188667 0.180743 0.130022 0.169475 0.105393 0.096987 0.046134 -0.086939 -0.001591 0.133463 0.054558 0.155054 0.136020 0.222122 0.179451 0.153775 0.107561 0.187975 0.101134 0.145112 0.091949 0.008733 -0.011649 -0.011971 0.129502 0.122452 0.132157 0.060526 0.152525 0.163214 0.044802 0.145439 0.054326 -0.008502 0.028260 0.008566 -0.059843 -0.061170 -0.116837 -0.048661 -0.052828 -0.097619 0.010647 -0.048761 0.045371 0.104021 -0.114000 0.022768 -0.052035 -0.096671 0.049832 -0.023818 -0.061080 0.044168 0.100070 0.031103 0.058573 -0.044748 0.027037 0.204619 0.010490 -0.048016 0.080419 0.041235 0.112632 -0.110878 -0.047771 -0.005855 0.045154 0.060155 0.101837 0.131976 -0.049838 -0.110108 0.008900 -0.062306 -0.065561 -0.047020 -0.045263 0.053283 -0.176208 0.127839 0.131493 0.184965 0.037836 0.056373 0.033833 0.030448 0.094758 -0.024849 0.040723 0.010468 0.053470 0.144043 0.191836 0.043803 0.167541 0.170243 -0.039645 -0.009761 -0.160393 0.238195 0.135345 0.215313 0.174012 0.029701 -0.061613 -0.091262 0.018286 0.011259 -0.018374 0.048900 0.049719 -0.079550 0.017112 0.111670 0.069714 0.037199 0.007790 0.057425 -0.106702 -0.015545 0.058316 -0.031653 -0.120281 0.039754 -0.010477 -0.040462 -0.036849 -0.116724 0.082353 0.122267 -0.001993 -0.092355 -0.346958 0.185007 0.511945 0.452794 0.575875 0.264086 0.323980 0.410168 0.511918 0.578924 0.045597 0.020125 -0.931447
0.072396 0.072838 0.074163 0.076371 0.079462 0.083435 0.088289 0.094022 0.100634 0.108122 0.116484 0.125716 0.135815 0.146776 0.158594 0.171262 0.184772 0.199116 0.214282 0.230259 0.247032 0.264586 0.282903 0.301961 0.321739 0.342209 0.363344 0.385111 0.407474 0.430396 0.453833 0.477738 0.502061 0.526747 0.551735 0.576960 0.602354 0.627843 0.653346 0.678779 0.704051 0.729069 0.753731 0.777931 0.801559 0.824499 0.846629 0.867825 0.887956 0.906890 0.924488 0.940610 0.955112 0.967851 0.978680 0.987451 0.994019 0.998237 0.999964 0.999060 0.995388 0.988821 0.979236 0.966518 0.950564 0.931282 0.908590 0.882425 0.852736 0.819493 0.782682 0.742313 0.698416 0.651047 0.600285 0.546238 0.489041 0.428857 0.365881 0.300336 0.232478 0.162594 0.091002 0.018050 0.055883 0.130388 0.205031 0.279348 0.352856 0.425047 0.495396 0.563366 0.628407 0.689964 0.747479 0.800402 0.848190 0.890315 0.926273 0.955588 0.977820 0.992569 0.999485 0.998277 0.988713 0.970632 0.943948 0.908657 0.864842 0.812675 0.752424 0.684454 0.609231 0.527317 0.439375 0.346165 0.248540 0.147440 0.043885 0.061028 0.166143 0.270251 0.372106 0.470437 0.563965 0.651424 0.731572 0.803218 0.865233 0.916578 0.956321 0.983654 0.997916 0.998607 0.985407 0.958192 0.917039 0.862242 0.794319 0.714007 0.622269 0.520285 0.409446 0.291336 0.167716 0.040506 0.088250 0.216406 0.341757 0.462066 0.575119 0.678750 0.770902 0.849658 0.913296 0.960323 0.989521 0.999980 0.991137 0.962795 0.915150 0.848800 0.764752 0.664419 0.549605 0.422480 0.285552 0.141622 0.006269 0.154897 0.300927 0.440980 0.571721 0.689935 0.792613 0.877034 0.940842 0.982127 0.999484 0.992074 0.959665 0.902665 0.822136 0.719788 0.597962 0.459586 0.308120 0.147478 0.018066 0.183983 0.345614 0.498297 0.637510 0.759000 0.858929 0.934004 0.981593 0.999836 0.987727 0.945176 0.873050 0.773168 0.648289 0.502048 0.338864 0.163824 0.017463 0.199040 0.374797 0.538674 0.684877 0.808085 0.903659 0.967832 0.997874 0.992225 0.950588 0.873990 0.764777 0.626575 0.464192 0.283467 0.091080 0.105682 0.299199 0.481803 0.646095 0.785242 0.893285 0.965408 0.998170 0.989698 0.939809 0.850073 0.723801 0.565943 0.382939 0.182460 0.026882 0.235900 0.435226 0.615737 0.768976 0.887568 0.965597 0.998919 0.985421 0.925170 0.820481 0.675864 0.497862 0.294798 0.076395 0.146661 0.363236 0.562304 0.733521 0.867767 0.957665 0.998014 0.986118 0.922006 0.808499 0.651135 0.457938 0.239048 0.006209 0.227834 0.450029 0.647754 0.809529 0.925727 0.989163 0.995583 0.943987 0.836772 0.679681 0.481538 0.253798 0.009912 0.235431 0.467203 0.670938 0.833664 0.944749 0.996643 0.985427 0.911160 0.777971 0.593885 0.370404 0.121820 0.135662 0.384967 0.609279 0.793179 0.923751 0.991510 0.991152 0.922021 0.788260 0.598637 0.366026 0.106581 0.161341 0.418481 0.646035 0.827068 0.947796 0.998685 0.975268 0.878586 0.715243 0.497021 0.240102 0.036101 0.310362 0.561273 0.768927 0.916516 0.991754 0.987952 0.904681 0.747947 0.529842 0.267673 0.017345 0.301778 0.561874 0.775578 0.924413 0.995148 0.981031 0.882517 0.707374 0.470168 0.191118 0.105567 0.393759 0.647693 0.844311 0.965377 0.999256 0.942097 0.798357 0.580554 0.308267 0.006448 0.296823 0.572914 0.795383 0.942524 0.999570 0.960250 0.827572 0.613716 0.339009 0.030078 0.282680 0.568056 0.797160 0.946401 0.999962
1.000000 1.000000 1.000000 1.000000 1.000000 1.000000 1.000000 1.000000 1.000000 1.000000 1.000000 1.000000 1.000000 1.000000 1.000000 1.000000 1.000000 1.000000 1.000000 1.000000 1.000000 1.000000 1.000000 1.000000 1.000000 1.000000 1.000000 1.000000 1.000000 1.000000 1.000000 1.000000 1.000000 1.000000 1.000000 1.000000 1.000000 1.000000 1.000000 1.000000 1.000000 1.000000 1.000000 1.000000 1.000000 1.000000 1.000000 1.000000 1.000000 1.000000 1.000000 1.000000 0.771317 0.771317 0.771317 0.771317 0.771317 0.771317 0.771317 0.759911 0.759911 0.759911 0.759911 0.759911 0.759911 0.759911 0.759911 0.759911 0.759911 0.759911 0.759911 0.759911 0.759911 0.759911 0.759911 0.759911 0.759911 0.759911 0.759911 0.759911 0.759911 0.759911 0.759911 0.759911 0.759911 0.759911 0.759911 0.759911 0.759911 0.759911 0.759911 0.759911 0.759911 0.759911 0.759911 0.759911 0.759911 0.759911 0.759911 0.759911 0.759911 0.759911 0.759911 0.900294 0.901761 0.904817 0.900235 0.902166 0.900008 0.893575 0.896503 0.897123 0.896935 0.897724 0.899374 0.901375 0.908709 0.917617 0.919502 0.926485 0.929922 0.929907 0.931426 0.930049 0.937530 0.935043 0.933276 0.921372 0.924770 0.926665 0.925672 0.924512 0.921335 0.927103 0.925697 0.923617 0.918331 0.914407 0.912490 0.914130 0.911889 0.912471 0.912652 0.913578 0.911764 0.912563 0.908717 0.909659 0.908558 0.905005 0.901979 0.901689 0.903066 0.901376 0.898006 0.891753 0.897726 0.897892 0.897285 0.896194 0.896404 0.897198 0.897970 0.898635 0.896190 0.896241 0.893697 0.895479 0.892038 0.887374 0.881293 0.881622 0.884066 0.891104 0.893103 0.891740 0.888872 0.880449 0.869876 0.867789 0.856260 0.821572 0.823554 0.827413 0.829464 0.829896 0.828903 0.825110 0.820904 0.812792 0.803955 0.808727 0.809244 0.801954 0.797937 0.798862 0.799667 0.807032 0.810701 0.802544 0.799335 0.801851 0.797832 0.799012 0.802990 0.795936 0.792881 0.799750 0.807879 0.807916 0.792302 0.788050 0.785498 0.773494 0.780653 0.787188 0.786619 0.788051 0.785062 0.773292 0.771902 0.765187 0.776062 0.783185 0.782457 0.777494 0.760604 0.717115 0.702717 0.668754 0.667070 0.668677 0.634901 0.635130 0.636632 0.640811 0.584773 0.561532 0.547421 0.548367 0.557456 0.562538 0.556204 0.529801 0.547452 0.543832 0.529342 0.525283 0.506794 0.493141 0.475503 0.477977 0.477216 0.469678 0.438472 0.439737 0.459647 0.468756 0.463938 0.460104 0.432346 0.411896 0.411495 0.403760 0.403530 0.409768 0.418326 0.360900 0.337668 0.324021 0.352837 0.350899 0.349133 0.367733 0.360610 0.353982 0.328912 0.308254 0.278254 0.290878 0.311510 0.314972 0.318565 0.286969 0.277762 0.262431 0.266525 0.311638 0.300810 0.323699 0.329206 0.334222 0.359180 0.332505 0.308974 0.287087 0.329686 0.337350 0.308169 0.301766 0.316082 0.329235 0.328298 0.324161 0.318854 0.365391 0.369367 0.347695 0.347997 0.315210 0.335372 0.366414 0.364321 0.370345 0.380462 0.386475 0.349837 0.274665 0.245655 0.249082 0.225798 0.225708 0.211923 0.196986 0.189052 0.201385 0.223110 0.229174 0.261301 0.229928 0.184817 0.094344 0.161135 0.077655 0.092260 0.092260 0.092260 0.092260 0.092260 0.092260 0.092260 0.092260 0.128724 0.128724 0.128724 0.128724 0.128724 0.128724 0.128724 0.128724 0.128724 0.128724 0.128724 0.128724 0.128724 0.128724 0.128724 0.128724 0.128724 0.128724 0.128724 0.128724 0.128724
0.000000 0.000000 0.000000 0.000000 0.000000 0.000000 0.000000 0.000000 0.000000 0.000000 0.000000 0.000000 0.000000 0.000000 0.000000 0.000000 0.000000 0.000000 0.000000 0.000000 0.000000 0.000000 0.000000 0.000000 0.000000 0.000000 0.000000 0.000000 0.000000 0.000000 0.000000 0.000000 0.000000 0.000000 0.000000 0.000000 0.000000 0.000000 0.000000 0.000000 0.000000 0.000000 0.000000 0.000000 0.000000 0.000000 0.000000 0.000000 0.000000 0.000000 0.000000 0.000000 0.173422 0.173422 0.173422 0.173422 0.173422 0.173422 0.173422 0.191565 0.191565 0.191565 0.191565 0.191565 0.191565 0.191565 0.191565 0.191565 0.191565 0.191565 0.191565 0.191565 0.191565 0.191565 0.191565 0.191565 0.191565 0.191565 0.191565 0.191565 0.191565 0.191565 0.191565 0.191565 0.191565 0.191565 0.191565 0.191565 0.191565 0.191565 0.191565 0.191565 0.191565 0.191565 0.191565 0.191565 0.191565 0.191565 0.191565 0.191565 0.191565 0.191565 0.191565 0.222222 0.222222 0.222222 0.222222 0.222222 0.222222 0.222222 0.222222 0.222222 0.222222 0.222222 0.222222 0.222222 0.222222 0.222222 0.222222 0.222222 0.222222 0.222222 0.222222 0.222222 0.222222 0.222222 0.222222 0.222222 0.222222 0.222222 0.222222 0.222222 0.222222 0.234082 0.234082 0.234082 0.234082 0.234082 0.234082 0.234082 0.234082 0.234082 0.234082 0.234082 0.234082 0.234082 0.234082 0.234082 0.234082 0.234082 0.234082 0.234082 0.234082 0.234082 0.234082 0.234082 0.234082 0.234082 0.244339 0.244339 0.244339 0.244339 0.244339 0.244339 0.244339 0.244339 0.244339 0.244339 0.244339 0.244339 0.244339 0.244339 0.244339 0.244339 0.244339 0.244339 0.244339 0.244339 0.244339 0.248069 0.248069 0.248069 0.248069 0.248069 0.248069 0.248069 0.248069 0.248069 0.248069 0.248069 0.248069 0.248069 0.248069 0.248069 0.248069 0.248069 0.248069 0.248069 0.256074 0.256074 0.256074 0.256074 0.256074 0.256074 0.256074 0.256074 0.256074 0.256074 0.256074 0.256074 0.256074 0.256074 0.256074 0.256074 0.256074 0.256074 0.256074 0.256074 0.256074 0.256074 0.256074 0.256074 0.256074 0.256074 0.256074 0.256074 0.256074 0.256074 0.256074 0.256074 0.256074 0.256074 0.256074 0.256074 0.256074 0.256074 0.256074 0.256074 0.256074 0.256074 0.256074 0.256074 0.256074 0.256074 0.256074 0.256074 0.256074 0.256074 0.256074 0.256074 0.256074 0.256074 0.256074 0.256074 0.256074 0.256074 0.256074 0.256074 0.256074 0.256074 0.260378 0.260378 0.260378 0.260378 0.260378 0.260378 0.260378 0.260378 0.260378 0.260378 0.260378 0.260378 0.260378 0.256074 0.256074 0.256074 0.256074 0.256074 0.256074 0.256074 0.256074 0.256074 0.256074 0.256074 0.256074 0.256074 0.260378 0.260378 0.260378 0.260378 0.260378 0.260378 0.260378 0.260378 0.260378 0.260378 0.260378 0.260378 0.251976 0.251976 0.251976 0.251976 0.251976 0.251976 0.251976 0.251976 0.251976 0.251976 0.251976 0.251976 0.256074 0.256074 0.256074 0.256074 0.256074 0.256074 0.256074 0.256074 0.256074 0.256074 0.256074 0.251976 0.251976 0.251976 0.251976 0.251976 0.251976 0.251976 0.251976 0.251976 0.251976 0.251976 0.260378 0.260378 0.260378 0.260378 0.260378 0.260378 0.260378 0.260378 0.260378 0.260378 0.244339 0.244339 0.244339 0.244339 0.244339 0.244339 0.244339 0.244339 0.244339 0.244339 0.244339 0.244339 0.244339 0.244339 0.244339 0.244339 0.244339 0.244339 0.244339 0.244339 0.244339
