# Output from CTFFind version 4.1.9, run on 2019-11-02 17:44:32
# Input file: stack16_bm3d_averaged_1_1.0_0_250_half.mrc ; Number of micrographs: 1
# Pixel size: 3.000 Angstroms ; acceleration voltage: 300.0 keV ; spherical aberration: 0.00 mm ; amplitude contrast: 0.07
# Box size: 512 pixels ; min. res.: 30.0 Angstroms ; max. res.: 5.0 Angstroms ; min. def.: 5000.0 um; max. def. 50000.0 um; num. frames averaged: 1
# 6 lines per micrograph: #1 - spatial frequency (1/Angstroms); #2 - 1D rotational average of spectrum (assuming no astigmatism); #3 - 1D rotational average of spectrum; #4 - CTF fit; #5 - cross-correlation between spectrum and CTF fit; #6 - 2sigma of expected cross correlation of noise
0.000000 0.000651 0.001302 0.001953 0.002604 0.003255 0.003906 0.004557 0.005208 0.005859 0.006510 0.007161 0.007812 0.008464 0.009115 0.009766 0.010417 0.011068 0.011719 0.012370 0.013021 0.013672 0.014323 0.014974 0.015625 0.016276 0.016927 0.017578 0.018229 0.018880 0.019531 0.020182 0.020833 0.021484 0.022135 0.022786 0.023438 0.024089 0.024740 0.025391 0.026042 0.026693 0.027344 0.027995 0.028646 0.029297 0.029948 0.030599 0.031250 0.031901 0.032552 0.033203 0.033854 0.034505 0.035156 0.035807 0.036458 0.037109 0.037760 0.038411 0.039062 0.039714 0.040365 0.041016 0.041667 0.042318 0.042969 0.043620 0.044271 0.044922 0.045573 0.046224 0.046875 0.047526 0.048177 0.048828 0.049479 0.050130 0.050781 0.051432 0.052083 0.052734 0.053385 0.054036 0.054688 0.055339 0.055990 0.056641 0.057292 0.057943 0.058594 0.059245 0.059896 0.060547 0.061198 0.061849 0.062500 0.063151 0.063802 0.064453 0.065104 0.065755 0.066406 0.067057 0.067708 0.068359 0.069010 0.069661 0.070312 0.070964 0.071615 0.072266 0.072917 0.073568 0.074219 0.074870 0.075521 0.076172 0.076823 0.077474 0.078125 0.078776 0.079427 0.080078 0.080729 0.081380 0.082031 0.082682 0.083333 0.083984 0.084635 0.085286 0.085938 0.086589 0.087240 0.087891 0.088542 0.089193 0.089844 0.090495 0.091146 0.091797 0.092448 0.093099 0.093750 0.094401 0.095052 0.095703 0.096354 0.097005 0.097656 0.098307 0.098958 0.099609 0.100260 0.100911 0.101562 0.102214 0.102865 0.103516 0.104167 0.104818 0.105469 0.106120 0.106771 0.107422 0.108073 0.108724 0.109375 0.110026 0.110677 0.111328 0.111979 0.112630 0.113281 0.113932 0.114583 0.115234 0.115885 0.116536 0.117188 0.117839 0.118490 0.119141 0.119792 0.120443 0.121094 0.121745 0.122396 0.123047 0.123698 0.124349 0.125000 0.125651 0.126302 0.126953 0.127604 0.128255 0.128906 0.129557 0.130208 0.130859 0.131510 0.132161 0.132812 0.133464 0.134115 0.134766 0.135417 0.136068 0.136719 0.137370 0.138021 0.138672 0.139323 0.139974 0.140625 0.141276 0.141927 0.142578 0.143229 0.143880 0.144531 0.145182 0.145833 0.146484 0.147135 0.147786 0.148438 0.149089 0.149740 0.150391 0.151042 0.151693 0.152344 0.152995 0.153646 0.154297 0.154948 0.155599 0.156250 0.156901 0.157552 0.158203 0.158854 0.159505 0.160156 0.160807 0.161458 0.162109 0.162760 0.163411 0.164062 0.164714 0.165365 0.166016 0.166667 0.167318 0.167969 0.168620 0.169271 0.169922 0.170573 0.171224 0.171875 0.172526 0.173177 0.173828 0.174479 0.175130 0.175781 0.176432 0.177083 0.177734 0.178385 0.179036 0.179688 0.180339 0.180990 0.181641 0.182292 0.182943 0.183594 0.184245 0.184896 0.185547 0.186198 0.186849 0.187500 0.188151 0.188802 0.189453 0.190104 0.190755 0.191406 0.192057 0.192708 0.193359 0.194010 0.194661 0.195312 0.195964 0.196615 0.197266 0.197917 0.198568 0.199219 0.199870 0.200521 0.201172 0.201823 0.202474 0.203125 0.203776 0.204427 0.205078 0.205729 0.206380 0.207031 0.207682 0.208333 0.208984 0.209635 0.210286 0.210938 0.211589 0.212240 0.212891 0.213542 0.214193 0.214844 0.215495 0.216146 0.216797 0.217448 0.218099 0.218750 0.219401 0.220052 0.220703 0.221354 0.222005 0.222656 0.223307 0.223958 0.224609 0.225260 0.225911 0.226562 0.227214 0.227865 0.228516 0.229167 0.229818 0.230469 0.231120 0.231771 0.232422 0.233073 0.233724 0.234375 0.235026 0.235677
       0.34053        0.34053        0.34053        0.34053        0.34053        0.34053        0.34053        0.34053        0.34053        0.34053        0.34053        0.34053        0.34053        0.34053        0.34053        0.34053        0.34053        0.34053        0.34053        0.34053        0.34053        0.34053        0.34053        0.34053        0.34053        0.34053        0.34053        0.34053        0.34053        0.34053        0.34053        0.34053        0.34053        0.34053        0.34053        0.34053        0.34053        0.34053        0.34053        0.34053        0.34053        0.34053        0.34053        0.34053        0.34053        0.34053        0.34053        0.34053        0.34053        0.34053        0.34053        0.48692        0.69937        0.45470       -0.11509       -0.41425       -0.57475       -0.66607       -0.74759       -0.76590       -0.87146       -0.91786       -0.76099       -0.92728       -0.87429       -1.02633       -1.10091       -0.99081       -0.96556       -0.88586       -0.86073       -0.75142       -0.64310       -0.50279       -0.42741       -0.22228       -0.11794       -0.02246        0.20189        0.24206        0.30605        0.37995        0.43499        0.51300        0.57619        0.59339        0.58772        0.49774        0.54218        0.48456        0.39105        0.31946        0.20214        0.16766        0.09858       -0.06062       -0.11080       -0.09423        0.00942       -0.01762        0.01447        0.02483        0.20604        0.21722        0.38981        0.45375        0.55716        0.69326        0.75692        0.72985        0.70066        0.69627        0.57927        0.53705        0.39743        0.26995        0.19120        0.14438        0.06638        0.02526        0.02139        0.06201        0.07542        0.26938        0.41577        0.50543        0.58817        0.63685        0.69993        0.65682        0.64924        0.66773        0.60590        0.47890        0.28382        0.23596        0.20546        0.12685        0.04026        0.08918        0.11840        0.24790        0.33924        0.41369        0.50018        0.53686        0.65837        0.60598        0.55297        0.51076        0.36091        0.20784        0.21170        0.15085        0.11540        0.12178        0.21456        0.24963        0.35351        0.43901        0.43581        0.55604        0.50614        0.44881        0.45504        0.37878        0.32178        0.27278        0.21273        0.23286        0.20906        0.20384        0.31718        0.45013        0.48214        0.48051        0.55110        0.49354        0.45260        0.39275        0.29472        0.22413        0.23073        0.23983        0.26303        0.27587        0.32393        0.44022        0.49831        0.48532        0.45818        0.41287        0.38679        0.35994        0.24873        0.22087        0.24368        0.29162        0.35462        0.35874        0.38710        0.41134        0.44038        0.36996        0.34644        0.31206        0.30497        0.26751        0.25653        0.30242        0.34385        0.41159        0.41341        0.39202        0.39163        0.40197        0.34559        0.28642        0.29241        0.28077        0.30581        0.35632        0.36948        0.41586        0.35538        0.36425        0.38592        0.34400        0.31567        0.27952        0.29237        0.33746        0.32432        0.32120        0.36954        0.38840        0.32848        0.34946        0.29838        0.30687        0.28428        0.28112        0.29859        0.32947        0.38294        0.36238        0.34397        0.32348        0.28161        0.27378        0.29445        0.28156        0.31197        0.36505        0.39289        0.33443        0.31665        0.30606        0.29783        0.28426        0.28112        0.29961        0.33685        0.33683        0.33887        0.31380        0.34662        0.31915        0.28735        0.31397        0.31917        0.33346        0.34243        0.31697        0.31067        0.30131        0.32524        0.30929        0.33504        0.38355        0.32723        0.36046        0.31637        0.30789        0.29065        0.30812        0.29016        0.30557        0.31290        0.34598        0.35502        0.31017        0.32016        0.31520        0.29224        0.28665        0.29089        0.32501        0.34494        0.35196        0.32910        0.31864        0.26122        0.25807        0.31506        0.34322        0.32444        0.29845        0.27869        0.28504        0.32378        0.30924        0.31035        0.33341        0.33843        0.30281        0.23858        0.28871        0.28344        0.28304        0.32186        0.32144        0.34132        0.33897        0.28178        0.26895        0.29448        0.27251        0.29295        0.27364        0.25035        0.25889        0.25028        0.28110        0.28547        0.27776        0.26154        0.31902        0.32077        0.30901        0.27427        0.29042        0.24086        0.26228        0.25510        0.33005        0.35012        0.22924        0.24655        0.26611        0.23703        0.24016        0.29825        0.22603        0.14071        0.17444        0.23603        0.26633        0.21905        0.12107        0.06417       -0.42625       -0.78825
3.166508 3.126706 3.087160 3.047872 3.008842 2.970068 2.931553 2.893294 2.855293 2.817548 2.780062 2.742832 2.705860 2.669145 2.632688 2.596488 2.560545 2.524859 2.489431 2.454260 2.419346 2.384690 2.350291 2.316149 2.282265 2.248638 2.215268 2.182156 2.149300 2.116702 2.084362 2.052279 2.020453 1.988884 1.957573 1.926519 1.895722 1.865183 1.834901 1.804876 1.775109 1.745598 1.716346 1.687350 1.658612 1.630131 1.601907 1.573941 1.546232 1.518781 1.491586 1.550170 1.735770 1.649916 0.991748 0.708738 0.498047 0.448474 0.341144 0.279891 0.216182 0.032620 0.212462 0.093475 0.002532 -0.047629 -0.193444 -0.145450 -0.084859 -0.086040 -0.090163 0.017434 0.036719 0.240592 0.153904 0.369450 0.453132 0.487006 0.723981 0.707594 0.715253 0.843528 0.826802 0.859025 0.926596 0.898619 0.943363 0.753684 0.838525 0.843154 0.625531 0.604718 0.453374 0.432218 0.378768 0.206843 0.116797 0.091868 0.200752 0.138201 0.192000 0.103023 0.293651 0.288414 0.450891 0.407361 0.574529 0.633818 0.754541 0.691745 0.655074 0.656450 0.520152 0.494864 0.355669 0.281859 0.104769 0.132869 -0.009526 -0.024304 -0.052951 -0.041707 -0.016932 0.016609 0.264915 0.318634 0.374757 0.388705 0.454620 0.482138 0.438435 0.483536 0.377555 0.368601 0.129924 0.047861 0.052003 -0.028975 -0.152693 -0.069868 -0.137064 -0.007266 0.112838 0.135155 0.234242 0.236089 0.362028 0.439894 0.327562 0.370779 0.257601 0.100159 0.026006 0.025633 -0.009370 -0.020678 -0.015400 0.084758 0.101172 0.240675 0.215072 0.283417 0.346536 0.220367 0.234243 0.203806 0.116239 0.068021 0.033095 0.012981 0.026246 -0.030859 0.011021 0.174327 0.214258 0.236326 0.274852 0.237794 0.249316 0.151969 0.117021 -0.012216 -0.011115 0.004700 0.022827 0.020497 0.039682 0.114530 0.203578 0.216905 0.215421 0.134673 0.145643 0.079695 0.059663 -0.062425 -0.019290 -0.005022 0.056309 0.066353 0.072989 0.150817 0.091095 0.169904 0.068326 0.048326 0.050531 0.029660 0.005258 0.004938 0.050245 0.085636 0.129685 0.136098 0.070240 0.131755 0.097744 0.015507 0.010790 0.008784 -0.001945 0.054353 0.061822 0.104369 0.098177 0.074164 0.066262 0.079710 0.036184 0.017153 -0.015315 0.011057 0.056701 0.024347 0.038758 0.078235 0.085136 0.055877 0.032166 0.014597 0.016261 -0.006823 -0.008153 0.013254 0.060937 0.105081 0.059660 0.057355 0.038727 -0.013902 -0.002620 0.016940 0.014692 0.028626 0.106007 0.061350 0.021301 0.044868 0.001475 0.029302 -0.009221 0.003340 0.023055 0.061525 0.042739 0.043058 0.029633 0.055263 0.026077 -0.003397 0.032514 0.040396 0.043082 0.045255 0.024893 0.001302 -0.010309 0.030727 0.006396 0.050228 0.072314 0.045923 0.025214 0.004605 0.001536 -0.002821 0.009927 0.004716 0.010366 -0.004562 0.081150 0.047397 0.034056 0.042757 0.004135 0.011137 0.004200 -0.002661 0.051619 0.066920 0.080484 0.044884 0.047628 -0.024320 0.003691 0.040444 0.074781 0.033599 0.033807 0.000505 0.003429 0.050082 0.050580 0.037391 0.067417 0.063219 0.044579 -0.025884 0.019242 0.041739 0.019223 0.044757 0.068457 0.082106 0.064690 0.018127 0.007504 0.017823 0.002360 0.024481 -0.018328 -0.018126 -0.019425 -0.048210 0.004295 -0.002719 0.007058 -0.071234 0.014387 0.009724 -0.002242 -0.044850 0.015778 -0.092243 -0.028190 -0.040901 0.032486 0.070787 -0.110269 -0.032685 0.028675 -0.001058 -0.050710 0.041353 0.017549 -0.019706 -0.049386 0.051816 0.233115 0.198009 0.064237 0.060411 -0.698662
0.072396 0.073046 0.074994 0.078240 0.082784 0.088623 0.095756 0.104179 0.113888 0.124879 0.137145 0.150678 0.165467 0.181500 0.198761 0.217233 0.236892 0.257713 0.279667 0.302716 0.326821 0.351934 0.378003 0.404966 0.432756 0.461297 0.490503 0.520282 0.550528 0.581128 0.611959 0.642884 0.673758 0.704424 0.734711 0.764441 0.793421 0.821448 0.848310 0.873783 0.897634 0.919623 0.939500 0.957012 0.971900 0.983903 0.992760 0.998210 0.999998 0.997876 0.991607 0.980966 0.965746 0.945760 0.920847 0.890875 0.855743 0.815389 0.769791 0.718973 0.663009 0.602026 0.536209 0.465801 0.391111 0.312510 0.230438 0.145401 0.057975 0.031201 0.121422 0.211922 0.301878 0.390418 0.476624 0.559547 0.638209 0.711621 0.778792 0.838746 0.890533 0.933250 0.966057 0.988189 0.998983 0.997891 0.984498 0.958539 0.919918 0.868719 0.805220 0.729903 0.643461 0.546802 0.441048 0.327532 0.207787 0.083534 0.043338 0.170796 0.296690 0.418793 0.534831 0.642536 0.739683 0.824150 0.893958 0.947334 0.982755 0.999002 0.995208 0.970896 0.926019 0.860988 0.776686 0.674483 0.556226 0.424228 0.281232 0.130373 0.024887 0.180828 0.333552 0.479085 0.613478 0.732920 0.833855 0.913093 0.967931 0.996255 0.996633 0.968405 0.911735 0.827658 0.718089 0.585811 0.434432 0.268303 0.092421 0.087716 0.266262 0.437213 0.594614 0.732765 0.846443 0.931118 0.983150 0.999976 0.980251 0.923966 0.832506 0.708666 0.556605 0.381740 0.190588 0.009457 0.210396 0.403924 0.581792 0.736146 0.859908 0.947115 0.993240 0.995462 0.952868 0.866582 0.739795 0.577707 0.387360 0.177371 0.042428 0.261425 0.468735 0.653743 0.806664 0.919085 0.984469 0.998575 0.959782 0.869282 0.731125 0.552105 0.341492 0.110591 0.127821 0.360180 0.572913 0.753224 0.889910 0.974087 0.999826 0.964630 0.869717 0.720079 0.524309 0.294172 0.043959 0.210364 0.452146 0.665150 0.834663 0.948558 0.998218 0.979260 0.891995 0.741566 0.537745 0.294389 0.028568 0.240593 0.493255 0.710339 0.875000 0.973984 0.998777 0.946423 0.819942 0.628282 0.385798 0.111269 0.173491 0.445337 0.681662 0.862309 0.971362 0.998623 0.940678 0.801397 0.591837 0.329468 0.036831 0.260328 0.535301 0.762825 0.921443 0.995622 0.977379 0.867263 0.674554 0.416635 0.117544 0.194167 0.488119 0.735066 0.909840 0.994015 0.977974 0.862143 0.657234 0.383423 0.068499 0.254853 0.552403 0.792012 0.947158 0.999988 0.943526 0.782740 0.534310 0.225076 0.110722 0.435164 0.710914 0.905550 0.995496 0.969027 0.827966 0.587841 0.276351 0.069638 0.408389 0.698277 0.902949 0.996015 0.964595 0.811315 0.554355 0.225520 0.133535 0.476485 0.758279 0.941141 0.999762 0.925007 0.725545 0.427112 0.069407 0.299026 0.627320 0.869331 0.990229 0.971708 0.814991 0.541115 0.188378 0.192827 0.547103 0.822082 0.976271 0.985503 0.846962 0.580120 0.224282 0.166982 0.533762 0.818973 0.977338 0.982773 0.832954 0.550229 0.178584 0.222955 0.589579 0.861154 0.992202 0.959764 0.767707 0.446676 0.049513 0.357208 0.704268 0.931605 0.998909 0.893038 0.630911 0.257181 0.163092 0.555576 0.849793 0.991899 0.954813 0.743699 0.395715 0.026195 0.444438 0.780955 0.971893 0.979947 0.801998 0.470429 0.047597 0.385594 0.745053 0.959910 0.986703 0.818542 0.487205 0.057576 0.384778 0.750525 0.964631 0.982056 0.797582 0.447694 0.003789 0.442076 0.796152 0.982828 0.961050 0.733782 0.348212 0.113604 0.551916
1.000000 1.000000 1.000000 1.000000 1.000000 1.000000 1.000000 1.000000 1.000000 1.000000 1.000000 1.000000 1.000000 1.000000 1.000000 1.000000 1.000000 1.000000 1.000000 1.000000 1.000000 1.000000 1.000000 1.000000 1.000000 1.000000 1.000000 1.000000 1.000000 1.000000 1.000000 1.000000 1.000000 1.000000 1.000000 1.000000 1.000000 1.000000 1.000000 1.000000 1.000000 1.000000 1.000000 1.000000 1.000000 1.000000 1.000000 1.000000 1.000000 1.000000 1.000000 1.000000 0.943669 0.943669 0.943669 0.943669 0.943669 0.943669 0.943669 0.943669 0.943669 0.943669 0.943669 0.943669 0.943669 0.943669 0.943669 0.943669 0.943669 0.943669 0.943669 0.943669 0.943669 0.943669 0.943669 0.943669 0.943669 0.943669 0.943669 0.943669 0.943669 0.943669 0.943669 0.943669 0.943669 0.924922 0.926357 0.929276 0.930330 0.930296 0.929849 0.929533 0.929735 0.931422 0.933705 0.950361 0.952468 0.953115 0.954416 0.954866 0.957838 0.956751 0.959713 0.968650 0.967654 0.967937 0.968376 0.969848 0.970223 0.970201 0.968996 0.969273 0.968897 0.968096 0.967279 0.966992 0.966705 0.968313 0.968628 0.968560 0.968968 0.968736 0.968414 0.964801 0.963474 0.964768 0.966472 0.966124 0.972339 0.972636 0.979961 0.979806 0.978269 0.978170 0.978268 0.978390 0.968686 0.963611 0.958678 0.947370 0.938512 0.935766 0.937973 0.938696 0.937430 0.932636 0.931790 0.929864 0.925461 0.924733 0.924191 0.925578 0.920497 0.916649 0.899146 0.897386 0.899757 0.899676 0.897729 0.889850 0.884999 0.885645 0.888651 0.891667 0.888912 0.891342 0.887445 0.888758 0.889605 0.891342 0.894538 0.891278 0.889503 0.885102 0.881738 0.876294 0.877675 0.866029 0.869287 0.861646 0.848970 0.841374 0.844754 0.854769 0.863631 0.871774 0.870647 0.871030 0.870562 0.863058 0.864208 0.854002 0.854811 0.859858 0.865900 0.862454 0.860139 0.865335 0.863348 0.866103 0.868728 0.865885 0.863783 0.854351 0.854987 0.855491 0.872382 0.871905 0.860299 0.852415 0.843213 0.850396 0.854364 0.853507 0.854604 0.847511 0.849687 0.840453 0.826854 0.829740 0.835074 0.829359 0.830281 0.829348 0.833880 0.835912 0.835240 0.831037 0.829620 0.835001 0.808687 0.817030 0.821250 0.815801 0.819854 0.813740 0.806356 0.801358 0.800006 0.800065 0.810453 0.808300 0.777349 0.772251 0.780256 0.760138 0.750345 0.747476 0.748769 0.735363 0.716776 0.688648 0.681182 0.663781 0.666623 0.654716 0.632481 0.619667 0.605272 0.596927 0.611082 0.613045 0.581085 0.581660 0.571716 0.566870 0.562347 0.558294 0.554347 0.561536 0.567614 0.532407 0.527594 0.537041 0.509303 0.508415 0.508567 0.500787 0.473638 0.481454 0.479064 0.502209 0.525778 0.487789 0.481247 0.496589 0.514048 0.526660 0.527791 0.511731 0.488006 0.497254 0.470179 0.451630 0.465316 0.470848 0.454376 0.474102 0.470391 0.504672 0.497275 0.471021 0.495161 0.507069 0.509562 0.516213 0.530771 0.517397 0.520932 0.510632 0.466548 0.488684 0.477320 0.428893 0.430811 0.447162 0.437598 0.439983 0.414252 0.413557 0.390159 0.358256 0.363235 0.356356 0.321191 0.282294 0.285904 0.288415 0.255969 0.223396 0.245359 0.194475 0.184471 0.201279 0.209262 0.203261 0.201771 0.225126 0.225126 0.225126 0.225126 0.225126 0.225126 0.225126 0.225126 0.225126 0.225126 0.225126 0.225126 0.225126 0.225126 0.251565 0.251565 0.251565 0.251565 0.251565 0.251565 0.251565 0.251565 0.251565 0.251565 0.251565 0.251565
0.000000 0.000000 0.000000 0.000000 0.000000 0.000000 0.000000 0.000000 0.000000 0.000000 0.000000 0.000000 0.000000 0.000000 0.000000 0.000000 0.000000 0.000000 0.000000 0.000000 0.000000 0.000000 0.000000 0.000000 0.000000 0.000000 0.000000 0.000000 0.000000 0.000000 0.000000 0.000000 0.000000 0.000000 0.000000 0.000000 0.000000 0.000000 0.000000 0.000000 0.000000 0.000000 0.000000 0.000000 0.000000 0.000000 0.000000 0.000000 0.000000 0.000000 0.000000 0.000000 0.209657 0.209657 0.209657 0.209657 0.209657 0.209657 0.209657 0.209657 0.209657 0.209657 0.209657 0.209657 0.209657 0.209657 0.209657 0.209657 0.209657 0.209657 0.209657 0.209657 0.209657 0.209657 0.209657 0.209657 0.209657 0.209657 0.209657 0.209657 0.209657 0.209657 0.209657 0.209657 0.209657 0.244339 0.244339 0.244339 0.244339 0.244339 0.244339 0.244339 0.244339 0.244339 0.244339 0.244339 0.244339 0.244339 0.244339 0.244339 0.244339 0.244339 0.244339 0.244339 0.244339 0.244339 0.244339 0.244339 0.244339 0.244339 0.260378 0.260378 0.260378 0.260378 0.260378 0.260378 0.260378 0.260378 0.260378 0.260378 0.260378 0.260378 0.260378 0.260378 0.260378 0.260378 0.260378 0.260378 0.260378 0.260378 0.269680 0.269680 0.269680 0.269680 0.269680 0.269680 0.269680 0.269680 0.269680 0.269680 0.269680 0.269680 0.269680 0.269680 0.269680 0.269680 0.269680 0.269680 0.269680 0.269680 0.269680 0.269680 0.269680 0.269680 0.269680 0.269680 0.269680 0.269680 0.269680 0.269680 0.269680 0.269680 0.269680 0.280056 0.280056 0.280056 0.280056 0.280056 0.280056 0.280056 0.280056 0.280056 0.280056 0.280056 0.280056 0.280056 0.280056 0.280056 0.280056 0.280056 0.280056 0.280056 0.280056 0.280056 0.280056 0.280056 0.280056 0.280056 0.280056 0.280056 0.274721 0.274721 0.274721 0.274721 0.274721 0.274721 0.274721 0.274721 0.274721 0.274721 0.274721 0.274721 0.274721 0.285714 0.285714 0.285714 0.285714 0.285714 0.285714 0.285714 0.285714 0.285714 0.285714 0.285714 0.280056 0.280056 0.280056 0.280056 0.280056 0.280056 0.280056 0.280056 0.280056 0.280056 0.280056 0.274721 0.274721 0.274721 0.274721 0.274721 0.274721 0.274721 0.274721 0.274721 0.274721 0.274721 0.280056 0.280056 0.280056 0.280056 0.280056 0.280056 0.280056 0.280056 0.280056 0.280056 0.285714 0.285714 0.285714 0.285714 0.285714 0.285714 0.285714 0.285714 0.285714 0.269680 0.269680 0.269680 0.269680 0.269680 0.269680 0.269680 0.269680 0.269680 0.269680 0.274721 0.274721 0.274721 0.274721 0.274721 0.274721 0.274721 0.274721 0.274721 0.285714 0.285714 0.285714 0.285714 0.285714 0.285714 0.285714 0.285714 0.264906 0.264906 0.264906 0.264906 0.264906 0.264906 0.264906 0.264906 0.264906 0.274721 0.274721 0.274721 0.274721 0.274721 0.274721 0.274721 0.274721 0.269680 0.269680 0.269680 0.269680 0.269680 0.269680 0.269680 0.269680 0.269680 0.269680 0.269680 0.269680 0.269680 0.269680 0.269680 0.269680 0.280056 0.280056 0.280056 0.280056 0.280056 0.280056 0.280056 0.260378 0.260378 0.260378 0.260378 0.260378 0.260378 0.260378 0.260378 0.269680 0.269680 0.269680 0.269680 0.269680 0.269680 0.269680 0.264906 0.264906 0.264906 0.264906 0.264906 0.264906 0.264906 0.264906 0.264906 0.264906 0.264906 0.264906 0.264906 0.264906 0.260378 0.260378 0.260378 0.260378 0.260378 0.260378 0.260378 0.260378 0.260378 0.260378 0.260378 0.260378
