# Output from CTFFind version 4.1.9, run on 2019-11-03 20:03:09
# Input file: stack16_bm3d_averaged_1_6.5_0_50_half.mrc ; Number of micrographs: 1
# Pixel size: 3.000 Angstroms ; acceleration voltage: 300.0 keV ; spherical aberration: 0.00 mm ; amplitude contrast: 0.07
# Box size: 512 pixels ; min. res.: 30.0 Angstroms ; max. res.: 5.0 Angstroms ; min. def.: 5000.0 um; max. def. 50000.0 um; num. frames averaged: 1
# 6 lines per micrograph: #1 - spatial frequency (1/Angstroms); #2 - 1D rotational average of spectrum (assuming no astigmatism); #3 - 1D rotational average of spectrum; #4 - CTF fit; #5 - cross-correlation between spectrum and CTF fit; #6 - 2sigma of expected cross correlation of noise
0.000000 0.000651 0.001302 0.001953 0.002604 0.003255 0.003906 0.004557 0.005208 0.005859 0.006510 0.007161 0.007812 0.008464 0.009115 0.009766 0.010417 0.011068 0.011719 0.012370 0.013021 0.013672 0.014323 0.014974 0.015625 0.016276 0.016927 0.017578 0.018229 0.018880 0.019531 0.020182 0.020833 0.021484 0.022135 0.022786 0.023438 0.024089 0.024740 0.025391 0.026042 0.026693 0.027344 0.027995 0.028646 0.029297 0.029948 0.030599 0.031250 0.031901 0.032552 0.033203 0.033854 0.034505 0.035156 0.035807 0.036458 0.037109 0.037760 0.038411 0.039062 0.039714 0.040365 0.041016 0.041667 0.042318 0.042969 0.043620 0.044271 0.044922 0.045573 0.046224 0.046875 0.047526 0.048177 0.048828 0.049479 0.050130 0.050781 0.051432 0.052083 0.052734 0.053385 0.054036 0.054688 0.055339 0.055990 0.056641 0.057292 0.057943 0.058594 0.059245 0.059896 0.060547 0.061198 0.061849 0.062500 0.063151 0.063802 0.064453 0.065104 0.065755 0.066406 0.067057 0.067708 0.068359 0.069010 0.069661 0.070312 0.070964 0.071615 0.072266 0.072917 0.073568 0.074219 0.074870 0.075521 0.076172 0.076823 0.077474 0.078125 0.078776 0.079427 0.080078 0.080729 0.081380 0.082031 0.082682 0.083333 0.083984 0.084635 0.085286 0.085938 0.086589 0.087240 0.087891 0.088542 0.089193 0.089844 0.090495 0.091146 0.091797 0.092448 0.093099 0.093750 0.094401 0.095052 0.095703 0.096354 0.097005 0.097656 0.098307 0.098958 0.099609 0.100260 0.100911 0.101562 0.102214 0.102865 0.103516 0.104167 0.104818 0.105469 0.106120 0.106771 0.107422 0.108073 0.108724 0.109375 0.110026 0.110677 0.111328 0.111979 0.112630 0.113281 0.113932 0.114583 0.115234 0.115885 0.116536 0.117188 0.117839 0.118490 0.119141 0.119792 0.120443 0.121094 0.121745 0.122396 0.123047 0.123698 0.124349 0.125000 0.125651 0.126302 0.126953 0.127604 0.128255 0.128906 0.129557 0.130208 0.130859 0.131510 0.132161 0.132812 0.133464 0.134115 0.134766 0.135417 0.136068 0.136719 0.137370 0.138021 0.138672 0.139323 0.139974 0.140625 0.141276 0.141927 0.142578 0.143229 0.143880 0.144531 0.145182 0.145833 0.146484 0.147135 0.147786 0.148438 0.149089 0.149740 0.150391 0.151042 0.151693 0.152344 0.152995 0.153646 0.154297 0.154948 0.155599 0.156250 0.156901 0.157552 0.158203 0.158854 0.159505 0.160156 0.160807 0.161458 0.162109 0.162760 0.163411 0.164062 0.164714 0.165365 0.166016 0.166667 0.167318 0.167969 0.168620 0.169271 0.169922 0.170573 0.171224 0.171875 0.172526 0.173177 0.173828 0.174479 0.175130 0.175781 0.176432 0.177083 0.177734 0.178385 0.179036 0.179688 0.180339 0.180990 0.181641 0.182292 0.182943 0.183594 0.184245 0.184896 0.185547 0.186198 0.186849 0.187500 0.188151 0.188802 0.189453 0.190104 0.190755 0.191406 0.192057 0.192708 0.193359 0.194010 0.194661 0.195312 0.195964 0.196615 0.197266 0.197917 0.198568 0.199219 0.199870 0.200521 0.201172 0.201823 0.202474 0.203125 0.203776 0.204427 0.205078 0.205729 0.206380 0.207031 0.207682 0.208333 0.208984 0.209635 0.210286 0.210938 0.211589 0.212240 0.212891 0.213542 0.214193 0.214844 0.215495 0.216146 0.216797 0.217448 0.218099 0.218750 0.219401 0.220052 0.220703 0.221354 0.222005 0.222656 0.223307 0.223958 0.224609 0.225260 0.225911 0.226562 0.227214 0.227865 0.228516 0.229167 0.229818 0.230469 0.231120 0.231771 0.232422 0.233073 0.233724 0.234375 0.235026 0.235677
       0.35421        0.35421        0.35421        0.35421        0.35421        0.35421        0.35421        0.35421        0.35421        0.35421        0.35421        0.35421        0.35421        0.35421        0.35421        0.35421        0.35421        0.35421        0.35421        0.35421        0.35421        0.35421        0.35421        0.35421        0.35421        0.35421        0.35421        0.35421        0.35421        0.35421        0.35421        0.35421        0.35421        0.35421        0.35421        0.35421        0.35421        0.35421        0.35421        0.35421        0.35421        0.35421        0.35421        0.35421        0.35421        0.35421        0.35421        0.35421        0.35421        0.35421        0.35421        0.43245        0.55805        0.34427       -0.21550       -0.44865       -0.53979       -0.64243       -0.71052       -0.71604       -0.80887       -0.88445       -0.67484       -0.82867       -0.81355       -0.95408       -0.99372       -0.87529       -0.83420       -0.79314       -0.70359       -0.63475       -0.54509       -0.45222       -0.38835       -0.16020       -0.05849        0.04576        0.26626        0.26255        0.32075        0.37426        0.40672        0.52847        0.54162        0.57674        0.53519        0.47698        0.50849        0.53390        0.45772        0.33626        0.22192        0.18796        0.11660        0.02015        0.00389       -0.00571        0.06545        0.03207        0.08355        0.05639        0.17334        0.20215        0.41230        0.46280        0.55045        0.65902        0.68650        0.71435        0.64140        0.61329        0.54823        0.44557        0.39276        0.28525        0.22504        0.22168        0.10965        0.12148        0.12348        0.09498        0.10272        0.30926        0.42161        0.52935        0.53582        0.56959        0.60814        0.58881        0.57301        0.58627        0.57063        0.47204        0.31324        0.27185        0.26371        0.16157        0.09955        0.17785        0.21993        0.29357        0.35779        0.43103        0.47705        0.53402        0.60442        0.54926        0.50721        0.50948        0.36013        0.28697        0.26819        0.18313        0.21104        0.24681        0.28418        0.28923        0.33572        0.43482        0.46839        0.50117        0.45555        0.44511        0.49180        0.40065        0.33337        0.29311        0.26809        0.24052        0.23227        0.24399        0.34393        0.45245        0.43866        0.49079        0.55641        0.45527        0.41724        0.36055        0.32377        0.28030        0.28853        0.27590        0.29497        0.36151        0.36841        0.44433        0.47545        0.44483        0.46749        0.38391        0.38312        0.35727        0.27886        0.26018        0.25820        0.34177        0.38455        0.36822        0.39340        0.43589        0.44707        0.38624        0.34235        0.32753        0.35800        0.32206        0.28987        0.29434        0.36344        0.38043        0.39888        0.39224        0.39721        0.42548        0.41185        0.33066        0.29485        0.31833        0.34621        0.38880        0.36663        0.40757        0.35014        0.37434        0.39704        0.34559        0.35916        0.32659        0.30752        0.34246        0.35096        0.33552        0.36569        0.38190        0.33413        0.35343        0.32743        0.32226        0.30518        0.32652        0.32868        0.33195        0.37153        0.37981        0.36368        0.31426        0.30738        0.29246        0.33674        0.32041        0.32064        0.37627        0.36173        0.34615        0.32172        0.31105        0.31146        0.28301        0.32470        0.33870        0.35073        0.37614        0.35875        0.32242        0.34351        0.36079        0.34109        0.36027        0.35208        0.32021        0.33815        0.29694        0.32490        0.30451        0.32008        0.29038        0.32587        0.35405        0.33279        0.36091        0.31996        0.33929        0.35952        0.34660        0.32401        0.33313        0.37179        0.35089        0.35291        0.33544        0.31661        0.32545        0.32089        0.33183        0.32902        0.36655        0.33616        0.33759        0.30000        0.29729        0.27468        0.28041        0.36777        0.31729        0.33900        0.30019        0.26802        0.27856        0.36812        0.31284        0.28948        0.32598        0.32221        0.29834        0.26363        0.30530        0.27370        0.30460        0.31251        0.34700        0.33999        0.32570        0.31945        0.27108        0.28590        0.28326        0.28551        0.30313        0.36462        0.30388        0.20904        0.30853        0.30220        0.33699        0.26785        0.29863        0.28949        0.33353        0.28892        0.27680        0.27440        0.25090        0.31269        0.34022        0.33084        0.25876        0.31709        0.26749        0.24234        0.22516        0.33032        0.25650        0.16285        0.11306        0.20321        0.34733        0.25633        0.19252        0.14143       -0.41712       -0.53547
3.226994 3.185933 3.145139 3.104612 3.064352 3.024358 2.984631 2.945172 2.905978 2.867052 2.828393 2.790001 2.751876 2.714017 2.676426 2.639101 2.602043 2.565252 2.528728 2.492470 2.456480 2.420757 2.385300 2.350110 2.315187 2.280531 2.246142 2.212020 2.178164 2.144576 2.111254 2.078200 2.045412 2.012891 1.980636 1.948649 1.916929 1.885475 1.854289 1.823369 1.792716 1.762330 1.732211 1.702359 1.672774 1.643455 1.614403 1.585619 1.557101 1.528850 1.500866 1.536769 1.607852 1.548335 0.843602 0.599722 0.461103 0.391287 0.294779 0.222057 0.190224 -0.048377 0.211111 0.077287 -0.027784 -0.104893 -0.236537 -0.142488 -0.051174 -0.093627 -0.071403 0.038405 0.038124 0.232100 0.108914 0.358202 0.463817 0.497399 0.773006 0.683381 0.697380 0.822889 0.795599 0.844072 0.923193 0.851781 0.885872 0.725021 0.784796 0.844505 0.689555 0.604461 0.433272 0.427588 0.329199 0.191570 0.187050 0.113180 0.207720 0.119115 0.206911 0.104131 0.214350 0.226845 0.435619 0.398680 0.567635 0.605762 0.627453 0.715689 0.602092 0.571376 0.456703 0.408488 0.284072 0.259193 0.089757 0.149193 -0.031338 0.034715 -0.031178 -0.045522 -0.061237 0.022529 0.259154 0.288908 0.353095 0.292061 0.376726 0.385242 0.407930 0.388830 0.352680 0.322856 0.117374 0.069518 0.060337 -0.024463 -0.153672 -0.057492 -0.066252 0.033748 0.072670 0.144909 0.208445 0.219808 0.312649 0.400367 0.278258 0.359033 0.225299 0.141147 0.063361 0.032611 -0.000041 0.051491 0.068404 0.091693 0.116924 0.169198 0.236505 0.302443 0.264768 0.206616 0.250353 0.224353 0.108002 0.055563 0.053931 0.024218 0.005298 -0.025852 0.028747 0.166443 0.193228 0.187650 0.294848 0.185968 0.194003 0.071227 0.064222 0.013582 -0.006891 -0.004276 -0.011628 0.044861 0.073004 0.099305 0.156630 0.139159 0.221724 0.136930 0.077068 0.098205 0.040777 -0.049612 -0.019450 0.027210 0.067859 0.072076 0.064779 0.150546 0.115902 0.152197 0.036751 0.046781 0.045509 0.045934 0.027553 -0.020184 0.040443 0.050249 0.091795 0.099711 0.086389 0.112533 0.123640 0.080230 0.011688 -0.010083 0.021589 0.074769 0.074305 0.088747 0.083894 0.053297 0.102391 0.066103 0.041490 0.076038 -0.012789 0.011604 0.066021 0.039489 0.044125 0.069233 0.079843 0.048312 0.066089 0.016758 0.019433 0.008899 0.054914 0.013605 0.039768 0.073464 0.077538 0.044108 -0.005141 -0.002327 -0.019224 0.043714 0.001061 0.012371 0.073219 0.046008 0.003124 0.011529 -0.016968 0.005331 -0.039089 0.008434 0.017156 0.045089 0.045243 0.028998 -0.003698 0.005343 0.036912 0.008535 0.036665 0.012133 -0.015552 0.016537 -0.044551 -0.029081 -0.054604 -0.012400 -0.066840 0.006631 0.009355 -0.005670 -0.010534 -0.005094 -0.002281 0.027289 0.013217 -0.013188 0.009583 0.026646 0.035250 0.026823 0.005501 0.012196 0.006540 -0.006529 0.016656 -0.007032 0.093256 0.035502 0.026204 0.002423 -0.008225 -0.030670 0.003251 0.079766 -0.003021 0.054972 -0.023417 -0.025452 -0.023801 0.093281 0.003665 -0.024985 0.064167 0.051928 0.005653 0.001586 0.017055 0.003590 0.041152 0.038584 0.092301 0.051392 0.051730 0.044361 -0.007708 0.019269 -0.002259 -0.004730 0.016156 0.091791 -0.010411 -0.086791 0.040692 -0.000361 0.075139 -0.049420 -0.007908 -0.005177 0.019672 -0.003061 -0.026562 -0.017009 -0.068008 0.047633 0.044365 0.052522 -0.116532 0.029437 0.018077 -0.003884 -0.088784 0.102852 0.024153 -0.048879 -0.120886 0.165033 0.342709 0.197072 0.133181 0.142903 -0.513630
0.072396 0.073047 0.074998 0.078249 0.082800 0.088648 0.095791 0.104227 0.113952 0.124959 0.137244 0.150797 0.165608 0.181665 0.198952 0.217451 0.237139 0.257991 0.279976 0.303058 0.327197 0.352345 0.378448 0.405447 0.433273 0.461848 0.491089 0.520901 0.551179 0.581809 0.612667 0.643616 0.674511 0.705192 0.735491 0.765226 0.794205 0.822224 0.849070 0.874518 0.898334 0.920278 0.940100 0.957544 0.972352 0.984261 0.993010 0.998339 0.999991 0.997718 0.991283 0.980460 0.965044 0.944849 0.919713 0.889504 0.854125 0.813514 0.767650 0.716562 0.660324 0.599067 0.532977 0.462304 0.387358 0.308515 0.226219 0.140982 0.053382 0.035935 0.126259 0.216820 0.306790 0.395292 0.481406 0.564176 0.642622 0.715752 0.782574 0.842110 0.893411 0.935575 0.967763 0.989216 0.999275 0.997399 0.983181 0.956366 0.916870 0.864789 0.800416 0.724247 0.636993 0.539578 0.433143 0.319037 0.198811 0.074204 0.052880 0.180393 0.306175 0.427985 0.543547 0.650586 0.746881 0.830311 0.898912 0.950920 0.984834 0.999460 0.993959 0.967888 0.921237 0.854458 0.768479 0.664712 0.545053 0.411859 0.267915 0.116395 0.039204 0.195132 0.347473 0.492240 0.625484 0.743405 0.842467 0.919517 0.971897 0.997549 0.995114 0.964007 0.904479 0.817655 0.705545 0.571024 0.417788 0.250272 0.073543 0.106843 0.285002 0.454913 0.610620 0.746454 0.857246 0.938541 0.986805 0.999595 0.975710 0.915294 0.819898 0.692482 0.537366 0.360117 0.167380 0.033349 0.233997 0.426230 0.601807 0.752932 0.872627 0.955073 0.995932 0.992600 0.944411 0.852750 0.721077 0.554843 0.361328 0.149343 0.071128 0.289386 0.494523 0.675979 0.824094 0.930661 0.989410 0.996427 0.950459 0.853088 0.708760 0.524647 0.310343 0.077428 0.161142 0.391726 0.600775 0.775644 0.905394 0.981507 0.998512 0.954430 0.851037 0.693880 0.492070 0.257819 0.005759 0.247939 0.486576 0.694041 0.855911 0.960512 0.999817 0.970134 0.872524 0.712881 0.501688 0.253402 0.014465 0.282528 0.530927 0.740804 0.895763 0.983216 0.995490 0.930580 0.792502 0.591165 0.341770 0.063749 0.220687 0.488295 0.716697 0.886294 0.982006 0.994716 0.922232 0.769701 0.549382 0.279789 0.015780 0.311185 0.579735 0.796613 0.941227 0.999252 0.964169 0.838108 0.631909 0.364337 0.060483 0.250485 0.538109 0.773600 0.932804 0.998762 0.963646 0.829826 0.609925 0.325772 0.006384 0.314912 0.603925 0.829253 0.965779 0.997579 0.919940 0.740192 0.477209 0.159609 0.177249 0.495127 0.757240 0.932573 0.999672 0.949426 0.786481 0.529043 0.207041 0.141201 0.473452 0.748660 0.932104 0.999885 0.942229 0.765082 0.489758 0.150577 0.209255 0.543065 0.806765 0.964762 0.994912 0.891836 0.668058 0.352744 0.011900 0.376119 0.689367 0.907346 0.998418 0.948392 0.762971 0.467416 0.103346 0.276941 0.617885 0.868813 0.991569 0.966540 0.796039 0.504458 0.135071 0.256203 0.609135 0.868492 0.992790 0.961155 0.777110 0.468560 0.083856 0.315568 0.664908 0.906528 0.999639 0.927421 0.700374 0.355161 0.051030 0.449759 0.772806 0.963906 0.988791 0.841617 0.546604 0.154411 0.266292 0.640711 0.901234 0.999806 0.917085 0.666577 0.292848 0.136081 0.540902 0.845674 0.992154 0.951238 0.729091 0.366705 0.067324 0.489497 0.817446 0.986073 0.960786 0.744955 0.380010 0.062126 0.492914 0.824892 0.989519 0.951636 0.717372 0.333704 0.120574 0.550756 0.865915 0.998271 0.918111 0.640898 0.224811 0.241082 0.655629
1.000000 1.000000 1.000000 1.000000 1.000000 1.000000 1.000000 1.000000 1.000000 1.000000 1.000000 1.000000 1.000000 1.000000 1.000000 1.000000 1.000000 1.000000 1.000000 1.000000 1.000000 1.000000 1.000000 1.000000 1.000000 1.000000 1.000000 1.000000 1.000000 1.000000 1.000000 1.000000 1.000000 1.000000 1.000000 1.000000 1.000000 1.000000 1.000000 1.000000 1.000000 1.000000 1.000000 1.000000 1.000000 1.000000 1.000000 1.000000 1.000000 1.000000 1.000000 1.000000 0.923108 0.923108 0.923108 0.923108 0.923108 0.923108 0.923108 0.923108 0.923108 0.923108 0.923108 0.923108 0.923108 0.923108 0.923108 0.923108 0.923108 0.923108 0.923108 0.923108 0.923108 0.923108 0.923108 0.923108 0.923108 0.923108 0.923108 0.923108 0.923108 0.923108 0.923108 0.923108 0.923108 0.913246 0.911358 0.912510 0.911052 0.909612 0.909023 0.908629 0.909668 0.911268 0.913347 0.934991 0.938093 0.939337 0.940665 0.942041 0.944330 0.942164 0.949723 0.956225 0.955154 0.956288 0.950099 0.951521 0.950855 0.950110 0.951463 0.951605 0.949899 0.947868 0.946163 0.945589 0.945356 0.949012 0.949504 0.949654 0.950249 0.950193 0.950909 0.951507 0.949638 0.951895 0.943981 0.942647 0.947917 0.945819 0.947184 0.947144 0.947832 0.948633 0.948953 0.949218 0.946051 0.945555 0.944574 0.937687 0.930613 0.930831 0.932978 0.935754 0.933088 0.930404 0.931719 0.933568 0.932693 0.936063 0.927181 0.923010 0.896511 0.882888 0.873689 0.873865 0.877911 0.880581 0.878334 0.872385 0.863837 0.860346 0.859722 0.856083 0.847710 0.862988 0.857239 0.853734 0.857294 0.860533 0.865858 0.864030 0.859861 0.855024 0.850054 0.839693 0.840930 0.844126 0.848338 0.830904 0.819917 0.836513 0.828366 0.819135 0.826928 0.828847 0.826071 0.824878 0.825134 0.822971 0.816613 0.809029 0.812865 0.821863 0.823074 0.813534 0.811209 0.809429 0.808954 0.803371 0.808504 0.810269 0.806734 0.799270 0.816965 0.784990 0.805462 0.806700 0.789324 0.773757 0.762436 0.770669 0.780132 0.777983 0.773258 0.779511 0.779313 0.772162 0.747244 0.738014 0.745548 0.743844 0.733083 0.719843 0.726646 0.723879 0.721014 0.718508 0.721751 0.721056 0.697811 0.711079 0.715568 0.707916 0.721400 0.724447 0.715409 0.718525 0.722265 0.725443 0.726180 0.697989 0.701535 0.648302 0.636273 0.590401 0.586590 0.584105 0.526848 0.532016 0.512044 0.497394 0.498067 0.468114 0.518640 0.435709 0.422455 0.448845 0.375874 0.332870 0.350762 0.352141 0.365309 0.371287 0.364482 0.367252 0.351449 0.327645 0.308102 0.333371 0.349910 0.322628 0.324267 0.303062 0.287175 0.239097 0.254524 0.258936 0.289470 0.292810 0.276523 0.300183 0.340860 0.280641 0.264385 0.242589 0.268507 0.275230 0.269003 0.258198 0.272497 0.217416 0.219602 0.239350 0.240985 0.284230 0.311913 0.337220 0.332801 0.336851 0.367144 0.320762 0.330907 0.334918 0.324938 0.349836 0.353236 0.359515 0.353386 0.383325 0.372461 0.380645 0.381729 0.394037 0.435052 0.410812 0.388013 0.355535 0.365162 0.362995 0.366582 0.309755 0.288057 0.286626 0.248516 0.207686 0.209309 0.209551 0.164201 0.155247 0.138617 0.105568 0.104374 0.111444 0.140074 0.110301 0.127035 0.131259 0.131259 0.131259 0.131259 0.131259 0.131259 0.131259 0.131259 0.131259 0.131259 0.131259 0.131259 0.131259 0.131259 0.153133 0.153133 0.153133 0.153133 0.153133 0.153133 0.153133 0.153133 0.153133 0.153133 0.153133 0.153133
0.000000 0.000000 0.000000 0.000000 0.000000 0.000000 0.000000 0.000000 0.000000 0.000000 0.000000 0.000000 0.000000 0.000000 0.000000 0.000000 0.000000 0.000000 0.000000 0.000000 0.000000 0.000000 0.000000 0.000000 0.000000 0.000000 0.000000 0.000000 0.000000 0.000000 0.000000 0.000000 0.000000 0.000000 0.000000 0.000000 0.000000 0.000000 0.000000 0.000000 0.000000 0.000000 0.000000 0.000000 0.000000 0.000000 0.000000 0.000000 0.000000 0.000000 0.000000 0.000000 0.209657 0.209657 0.209657 0.209657 0.209657 0.209657 0.209657 0.209657 0.209657 0.209657 0.209657 0.209657 0.209657 0.209657 0.209657 0.209657 0.209657 0.209657 0.209657 0.209657 0.209657 0.209657 0.209657 0.209657 0.209657 0.209657 0.209657 0.209657 0.209657 0.209657 0.209657 0.209657 0.209657 0.244339 0.244339 0.244339 0.244339 0.244339 0.244339 0.244339 0.244339 0.244339 0.244339 0.244339 0.244339 0.244339 0.244339 0.244339 0.244339 0.244339 0.244339 0.244339 0.244339 0.244339 0.244339 0.244339 0.244339 0.244339 0.260378 0.260378 0.260378 0.260378 0.260378 0.260378 0.260378 0.260378 0.260378 0.260378 0.260378 0.260378 0.260378 0.260378 0.260378 0.260378 0.260378 0.260378 0.260378 0.260378 0.269680 0.269680 0.269680 0.269680 0.269680 0.269680 0.269680 0.269680 0.269680 0.269680 0.269680 0.269680 0.269680 0.269680 0.269680 0.269680 0.269680 0.269680 0.269680 0.269680 0.269680 0.269680 0.269680 0.269680 0.269680 0.269680 0.269680 0.269680 0.269680 0.269680 0.269680 0.269680 0.269680 0.280056 0.280056 0.280056 0.280056 0.280056 0.280056 0.280056 0.280056 0.280056 0.280056 0.280056 0.280056 0.280056 0.280056 0.280056 0.280056 0.280056 0.280056 0.280056 0.280056 0.280056 0.280056 0.280056 0.280056 0.280056 0.280056 0.280056 0.274721 0.274721 0.274721 0.274721 0.274721 0.274721 0.274721 0.274721 0.274721 0.274721 0.274721 0.274721 0.274721 0.285714 0.285714 0.285714 0.285714 0.285714 0.285714 0.285714 0.285714 0.285714 0.285714 0.285714 0.280056 0.280056 0.280056 0.280056 0.280056 0.280056 0.280056 0.280056 0.280056 0.280056 0.280056 0.274721 0.274721 0.274721 0.274721 0.274721 0.274721 0.274721 0.274721 0.274721 0.274721 0.274721 0.280056 0.280056 0.280056 0.280056 0.280056 0.280056 0.280056 0.280056 0.280056 0.280056 0.285714 0.285714 0.285714 0.285714 0.285714 0.285714 0.285714 0.285714 0.285714 0.269680 0.269680 0.269680 0.269680 0.269680 0.269680 0.269680 0.269680 0.269680 0.269680 0.274721 0.274721 0.274721 0.274721 0.274721 0.274721 0.274721 0.274721 0.274721 0.285714 0.285714 0.285714 0.285714 0.285714 0.285714 0.285714 0.285714 0.264906 0.264906 0.264906 0.264906 0.264906 0.264906 0.264906 0.264906 0.264906 0.274721 0.274721 0.274721 0.274721 0.274721 0.274721 0.274721 0.274721 0.269680 0.269680 0.269680 0.269680 0.269680 0.269680 0.269680 0.269680 0.269680 0.269680 0.269680 0.269680 0.269680 0.269680 0.269680 0.269680 0.280056 0.280056 0.280056 0.280056 0.280056 0.280056 0.280056 0.260378 0.260378 0.260378 0.260378 0.260378 0.260378 0.260378 0.260378 0.269680 0.269680 0.269680 0.269680 0.269680 0.269680 0.269680 0.264906 0.264906 0.264906 0.264906 0.264906 0.264906 0.264906 0.264906 0.264906 0.264906 0.264906 0.264906 0.264906 0.264906 0.260378 0.260378 0.260378 0.260378 0.260378 0.260378 0.260378 0.260378 0.260378 0.260378 0.260378 0.260378
