# Output from CTFFind version 4.1.9, run on 2019-11-02 17:45:36
# Input file: stack1_bm3d_averaged_1_0.75_0_1000_half.mrc ; Number of micrographs: 1
# Pixel size: 3.000 Angstroms ; acceleration voltage: 300.0 keV ; spherical aberration: 0.00 mm ; amplitude contrast: 0.07
# Box size: 512 pixels ; min. res.: 30.0 Angstroms ; max. res.: 5.0 Angstroms ; min. def.: 5000.0 um; max. def. 50000.0 um; num. frames averaged: 1
# 6 lines per micrograph: #1 - spatial frequency (1/Angstroms); #2 - 1D rotational average of spectrum (assuming no astigmatism); #3 - 1D rotational average of spectrum; #4 - CTF fit; #5 - cross-correlation between spectrum and CTF fit; #6 - 2sigma of expected cross correlation of noise
0.000000 0.000651 0.001302 0.001953 0.002604 0.003255 0.003906 0.004557 0.005208 0.005859 0.006510 0.007161 0.007812 0.008464 0.009115 0.009766 0.010417 0.011068 0.011719 0.012370 0.013021 0.013672 0.014323 0.014974 0.015625 0.016276 0.016927 0.017578 0.018229 0.018880 0.019531 0.020182 0.020833 0.021484 0.022135 0.022786 0.023438 0.024089 0.024740 0.025391 0.026042 0.026693 0.027344 0.027995 0.028646 0.029297 0.029948 0.030599 0.031250 0.031901 0.032552 0.033203 0.033854 0.034505 0.035156 0.035807 0.036458 0.037109 0.037760 0.038411 0.039062 0.039714 0.040365 0.041016 0.041667 0.042318 0.042969 0.043620 0.044271 0.044922 0.045573 0.046224 0.046875 0.047526 0.048177 0.048828 0.049479 0.050130 0.050781 0.051432 0.052083 0.052734 0.053385 0.054036 0.054688 0.055339 0.055990 0.056641 0.057292 0.057943 0.058594 0.059245 0.059896 0.060547 0.061198 0.061849 0.062500 0.063151 0.063802 0.064453 0.065104 0.065755 0.066406 0.067057 0.067708 0.068359 0.069010 0.069661 0.070312 0.070964 0.071615 0.072266 0.072917 0.073568 0.074219 0.074870 0.075521 0.076172 0.076823 0.077474 0.078125 0.078776 0.079427 0.080078 0.080729 0.081380 0.082031 0.082682 0.083333 0.083984 0.084635 0.085286 0.085938 0.086589 0.087240 0.087891 0.088542 0.089193 0.089844 0.090495 0.091146 0.091797 0.092448 0.093099 0.093750 0.094401 0.095052 0.095703 0.096354 0.097005 0.097656 0.098307 0.098958 0.099609 0.100260 0.100911 0.101562 0.102214 0.102865 0.103516 0.104167 0.104818 0.105469 0.106120 0.106771 0.107422 0.108073 0.108724 0.109375 0.110026 0.110677 0.111328 0.111979 0.112630 0.113281 0.113932 0.114583 0.115234 0.115885 0.116536 0.117188 0.117839 0.118490 0.119141 0.119792 0.120443 0.121094 0.121745 0.122396 0.123047 0.123698 0.124349 0.125000 0.125651 0.126302 0.126953 0.127604 0.128255 0.128906 0.129557 0.130208 0.130859 0.131510 0.132161 0.132812 0.133464 0.134115 0.134766 0.135417 0.136068 0.136719 0.137370 0.138021 0.138672 0.139323 0.139974 0.140625 0.141276 0.141927 0.142578 0.143229 0.143880 0.144531 0.145182 0.145833 0.146484 0.147135 0.147786 0.148438 0.149089 0.149740 0.150391 0.151042 0.151693 0.152344 0.152995 0.153646 0.154297 0.154948 0.155599 0.156250 0.156901 0.157552 0.158203 0.158854 0.159505 0.160156 0.160807 0.161458 0.162109 0.162760 0.163411 0.164062 0.164714 0.165365 0.166016 0.166667 0.167318 0.167969 0.168620 0.169271 0.169922 0.170573 0.171224 0.171875 0.172526 0.173177 0.173828 0.174479 0.175130 0.175781 0.176432 0.177083 0.177734 0.178385 0.179036 0.179688 0.180339 0.180990 0.181641 0.182292 0.182943 0.183594 0.184245 0.184896 0.185547 0.186198 0.186849 0.187500 0.188151 0.188802 0.189453 0.190104 0.190755 0.191406 0.192057 0.192708 0.193359 0.194010 0.194661 0.195312 0.195964 0.196615 0.197266 0.197917 0.198568 0.199219 0.199870 0.200521 0.201172 0.201823 0.202474 0.203125 0.203776 0.204427 0.205078 0.205729 0.206380 0.207031 0.207682 0.208333 0.208984 0.209635 0.210286 0.210938 0.211589 0.212240 0.212891 0.213542 0.214193 0.214844 0.215495 0.216146 0.216797 0.217448 0.218099 0.218750 0.219401 0.220052 0.220703 0.221354 0.222005 0.222656 0.223307 0.223958 0.224609 0.225260 0.225911 0.226562 0.227214 0.227865 0.228516 0.229167 0.229818 0.230469 0.231120 0.231771 0.232422 0.233073 0.233724 0.234375 0.235026 0.235677
       0.33337        0.33337        0.33337        0.33337        0.33337        0.33337        0.33337        0.33337        0.33337        0.33337        0.33337        0.33337        0.33337        0.33337        0.33337        0.33337        0.33337        0.33337        0.33337        0.33337        0.33337        0.33337        0.33337        0.33337        0.33337        0.33337        0.33337        0.33337        0.33337        0.33337        0.33337        0.33337        0.33337        0.33337        0.33337        0.33337        0.33337        0.33337        0.33337        0.33337        0.33337        0.33337        0.33337        0.33337        0.33337        0.33337        0.33337        0.33337        0.33337        0.33337        0.33337        0.50304        0.71990        0.42951        0.19081       -0.08049       -0.26186       -0.06861       -0.13280       -0.05266       -0.00197       -0.14651       -0.09196       -0.05166       -0.00324       -0.15171       -0.22101       -0.34606       -0.46184       -0.55737       -0.51665       -0.44749       -0.37087       -0.54631       -0.44977       -0.62072       -0.50275       -0.47444       -0.38940       -0.38458       -0.34002       -0.25123       -0.16016       -0.13561        0.03333       -0.01159        0.12040        0.16853        0.30501        0.41041        0.46365        0.49867        0.54132        0.55119        0.69319        0.64564        0.67768        0.59181        0.55668        0.65460        0.52878        0.42829        0.38369        0.32100        0.22964        0.26330        0.25157        0.10725        0.08368        0.00069       -0.00524        0.03814       -0.00427        0.07468        0.10053        0.23255        0.28466        0.30283        0.38133        0.56199        0.53631        0.57897        0.67048        0.70154        0.63031        0.63618        0.63367        0.55536        0.57415        0.39846        0.34576        0.26667        0.18417        0.07299        0.14436        0.11942        0.09261        0.10641        0.20901        0.21342        0.31707        0.35979        0.41259        0.49323        0.58312        0.54279        0.55613        0.60799        0.53892        0.46206        0.47987        0.32459        0.25065        0.25923        0.24270        0.14272        0.14487        0.15234        0.21971        0.24685        0.33093        0.36561        0.39227        0.46794        0.44769        0.47931        0.45310        0.46795        0.44628        0.40723        0.38342        0.35315        0.31155        0.28788        0.20556        0.19710        0.22054        0.27129        0.26864        0.35111        0.37567        0.35903        0.41288        0.45521        0.44746        0.42429        0.44003        0.37371        0.33518        0.28231        0.26280        0.29064        0.26987        0.29479        0.30041        0.34831        0.34279        0.39747        0.40412        0.42658        0.41073        0.43168        0.40417        0.36478        0.28324        0.29196        0.30833        0.27287        0.25481        0.32872        0.37061        0.34197        0.35346        0.36030        0.35561        0.40892        0.40190        0.36116        0.33920        0.30945        0.31070        0.31797        0.31779        0.30120        0.28595        0.33640        0.36065        0.37901        0.33386        0.33054        0.33591        0.34609        0.30700        0.28290        0.30677        0.31484        0.33747        0.32048        0.33129        0.35847        0.32972        0.31325        0.32852        0.30359        0.26525        0.25287        0.26614        0.30717        0.32214        0.35149        0.30145        0.31332        0.33528        0.29461        0.31575        0.28726        0.28299        0.29345        0.29771        0.30933        0.34501        0.32697        0.33023        0.33814        0.31368        0.33461        0.31977        0.31983        0.31045        0.28255        0.29195        0.31208        0.29255        0.32629        0.33709        0.33601        0.32249        0.34254        0.31941        0.27760        0.25297        0.27084        0.33174        0.35799        0.34416        0.31595        0.29370        0.29758        0.31333        0.24980        0.29873        0.30506        0.33170        0.30002        0.31533        0.28669        0.33723        0.34183        0.34399        0.32023        0.29194        0.31585        0.39882        0.33010        0.31566        0.31206        0.29027        0.28593        0.30016        0.26693        0.31540        0.23791        0.27325        0.29643        0.31321        0.29601        0.27222        0.29849        0.23882        0.22643        0.26189        0.30172        0.30536        0.27857        0.28638        0.33414        0.25749        0.21672        0.30985        0.27363        0.25817        0.28356        0.39274        0.29502        0.28820        0.24820        0.25174        0.27110        0.24695        0.23538        0.17319        0.25831        0.23035        0.24725        0.31767        0.26706        0.35252        0.29052        0.24411        0.22734        0.21394        0.23936        0.30547        0.22630        0.12813        0.16889        0.24372        0.24776        0.31266        0.27639        0.03230       -0.43192       -0.92552
2.689436 2.661042 2.632800 2.604710 2.576773 2.548988 2.521356 2.493875 2.466547 2.439371 2.412348 2.385476 2.358757 2.332190 2.305776 2.279513 2.253403 2.227445 2.201640 2.175987 2.150486 2.125137 2.099941 2.074896 2.050004 2.025265 2.000677 1.976242 1.951959 1.927829 1.903850 1.880024 1.856350 1.832829 1.809460 1.786243 1.763178 1.740265 1.717505 1.694897 1.672441 1.650138 1.627987 1.605988 1.584141 1.562447 1.540905 1.519515 1.498277 1.477192 1.456259 1.526188 1.828041 1.512339 1.193747 0.938840 0.543565 0.910397 0.632697 0.874034 0.925695 0.590242 0.709212 0.779097 0.817435 0.629072 0.535846 0.347147 0.103840 0.079896 0.045020 0.083184 0.301773 -0.034825 0.081605 -0.134470 -0.013087 -0.018034 0.083923 0.060523 0.100748 0.175313 0.282055 0.251408 0.483038 0.397029 0.549437 0.526457 0.766454 0.788190 0.878666 0.920477 0.939860 0.943409 1.112129 0.941197 1.139353 0.946047 0.851065 1.014276 0.847806 0.759089 0.616240 0.593312 0.457107 0.416665 0.508814 0.265307 0.198028 0.157211 0.013221 0.209846 -0.004873 0.119785 0.181492 0.258799 0.332585 0.347299 0.425252 0.539130 0.661844 0.539953 0.738512 0.863329 0.638063 0.696034 0.667012 0.594111 0.535783 0.464038 0.298689 0.214350 0.115797 -0.042363 -0.019721 0.057370 -0.097514 -0.057679 0.048350 0.053099 0.111652 0.221162 0.237083 0.308911 0.432874 0.442564 0.439371 0.479050 0.445598 0.327473 0.331923 0.240785 0.050674 0.062318 0.018898 -0.047961 -0.097250 -0.099771 -0.015195 -0.052959 0.072043 0.123378 0.120652 0.260977 0.229920 0.244660 0.288277 0.245173 0.240115 0.212147 0.172859 0.109683 0.102889 0.026684 0.008395 -0.118017 -0.053716 0.001227 0.003805 0.021079 0.098229 0.084500 0.137422 0.183814 0.255980 0.174503 0.182643 0.108721 0.139022 0.019202 -0.034051 0.020315 -0.022578 0.002097 -0.007144 0.033995 0.079710 0.053581 0.152524 0.099620 0.163582 0.063391 0.144821 0.093355 -0.010169 -0.061867 -0.015023 -0.035944 -0.073770 -0.068387 0.054022 0.058270 -0.009819 0.047438 0.062930 0.070971 0.142978 0.066172 0.060552 0.046523 -0.027723 0.024122 0.001405 0.011304 0.002010 -0.009343 0.040373 0.062098 0.069200 0.028041 0.044157 0.021011 0.057665 -0.012904 -0.019028 0.020228 0.008623 0.060130 0.034889 0.042014 0.054067 0.044197 0.018375 0.030531 -0.002084 -0.046197 -0.032813 -0.027321 0.022780 0.039234 0.095186 -0.005413 0.050762 0.066396 -0.008466 0.063838 0.013184 0.011290 0.040165 0.051623 0.039714 0.096286 0.054978 0.072115 0.094185 0.062027 0.067667 0.066795 0.085257 0.035082 -0.005856 0.046317 0.043268 0.049231 0.069352 0.087793 0.014620 0.063877 0.076829 0.008116 0.007351 -0.065510 -0.021985 0.109798 0.077796 0.046200 0.042753 -0.026487 0.049072 0.022155 -0.063566 0.049349 0.034579 0.067031 0.036660 0.008763 0.005207 0.057677 0.043868 0.018286 0.037397 -0.037687 0.065225 0.118900 0.008313 -0.003603 0.001927 -0.003386 -0.031035 -0.021754 -0.054205 0.001301 -0.094643 -0.022203 -0.032575 0.019998 -0.035471 -0.051796 0.028549 -0.074606 -0.054944 -0.078664 0.047949 0.010807 0.007504 -0.007542 0.081002 -0.035486 -0.068939 0.056170 -0.005575 0.014517 0.009372 0.198167 -0.020346 0.025544 0.002028 -0.006678 0.001527 -0.023864 -0.016723 -0.155125 0.021401 -0.041002 0.002793 0.023119 -0.003915 0.123188 0.007536 -0.016567 -0.045920 -0.030038 -0.064051 0.059975 0.271113 0.153837 0.215738 0.238115 0.334026 0.343015 0.330980 0.040099 -1.083738
0.072396 0.072910 0.074452 0.077021 0.080617 0.085239 0.090886 0.097555 0.105245 0.113953 0.123675 0.134406 0.146142 0.158874 0.172595 0.187296 0.202964 0.219585 0.237145 0.255624 0.275001 0.295252 0.316349 0.338261 0.360952 0.384383 0.408510 0.433284 0.458651 0.484552 0.510920 0.537686 0.564771 0.592092 0.619558 0.647071 0.674528 0.701816 0.728818 0.755406 0.781449 0.806806 0.831331 0.854871 0.877265 0.898350 0.917955 0.935905 0.952022 0.966124 0.978028 0.987549 0.994504 0.998711 0.999991 0.998169 0.993078 0.984558 0.972461 0.956651 0.937004 0.913415 0.885798 0.854088 0.818244 0.778248 0.734116 0.685889 0.633645 0.577494 0.517584 0.454102 0.387273 0.317365 0.244686 0.169588 0.092465 0.013752 0.066075 0.146501 0.226972 0.306901 0.385670 0.462633 0.537123 0.608456 0.675936 0.738866 0.796551 0.848308 0.893475 0.931422 0.961554 0.983328 0.996262 0.999941 0.994029 0.978282 0.952552 0.916801 0.871103 0.815656 0.750786 0.676948 0.594735 0.504871 0.408215 0.305757 0.198608 0.087997 0.024743 0.138189 0.250843 0.361149 0.467517 0.568343 0.662035 0.747042 0.821880 0.885160 0.935616 0.972140 0.993804 0.999889 0.989912 0.963642 0.921128 0.862703 0.789001 0.700960 0.599816 0.487104 0.364634 0.234475 0.098923 0.039528 0.178234 0.314450 0.445374 0.568217 0.680258 0.778907 0.861775 0.926735 0.971984 0.996101 0.998102 0.977483 0.934254 0.868966 0.782721 0.677172 0.554505 0.417410 0.269031 0.112910 0.047098 0.206908 0.362307 0.509067 0.643063 0.760388 0.857486 0.931256 0.979175 0.999391 0.990810 0.953160 0.887034 0.793911 0.676146 0.536928 0.380220 0.210656 0.033420 0.145899 0.321491 0.487490 0.638197 0.768266 0.872907 0.948087 0.990689 0.998673 0.971183 0.908628 0.812717 0.686441 0.534009 0.360736 0.172875 0.022591 0.218194 0.406266 0.579240 0.729957 0.851978 0.939879 0.989511 0.998223 0.965031 0.890714 0.777850 0.630757 0.455372 0.259033 0.050200 0.161893 0.367640 0.557492 0.722412 0.854318 0.946503 0.994004 0.993903 0.945536 0.850602 0.713158 0.539483 0.337844 0.118120 0.108648 0.330802 0.536660 0.715141 0.856375 0.952280 0.997058 0.987584 0.923669 0.808154 0.646849 0.448288 0.223322 0.015436 0.254302 0.479290 0.676938 0.835134 0.943880 0.995974 0.987527 0.918309 0.791862 0.615394 0.399426 0.157211 0.096043 0.344100 0.570732 0.760800 0.901284 0.982219 0.997454 0.945180 0.828174 0.653735 0.433297 0.181736 0.083573 0.343956 0.580720 0.776523 0.916675 0.990280 0.991160 0.918428 0.776706 0.575912 0.330645 0.059192 0.217806 0.478890 0.703452 0.873393 0.974626 0.998307 0.941692 0.808512 0.608827 0.358364 0.077337 0.211116 0.482824 0.714611 0.886297 0.982519 0.994171 0.919362 0.763756 0.540252 0.268012 0.029101 0.324585 0.591623 0.805547 0.946160 0.999711 0.960341 0.830816 0.622466 0.354312 0.051415 0.257407 0.542272 0.775164 0.932705 0.998593 0.965389 0.835461 0.620972 0.342863 0.028910 0.288983 0.578001 0.807806 0.953786 0.999780 0.939978 0.779773 0.535422 0.232533 0.096524 0.416017 0.690715 0.889809 0.990439 0.980438 0.859932 0.641589 0.349435 0.016334 0.319621 0.619435 0.847759 0.977126 0.991368 0.887777 0.677712 0.385518 0.045843 0.300368 0.610783 0.846856 0.978709 0.989017 0.875448 0.651258 0.343919 0.008097 0.360041 0.666539 0.887474 0.993319 0.969238 0.817325 0.556653 0.221078 0.145021 0.492558 0.774262 0.951199 0.998267
1.000000 1.000000 1.000000 1.000000 1.000000 1.000000 1.000000 1.000000 1.000000 1.000000 1.000000 1.000000 1.000000 1.000000 1.000000 1.000000 1.000000 1.000000 1.000000 1.000000 1.000000 1.000000 1.000000 1.000000 1.000000 1.000000 1.000000 1.000000 1.000000 1.000000 1.000000 1.000000 1.000000 1.000000 1.000000 1.000000 1.000000 1.000000 1.000000 1.000000 1.000000 1.000000 1.000000 1.000000 1.000000 1.000000 1.000000 1.000000 1.000000 1.000000 1.000000 1.000000 0.918887 0.918887 0.905136 0.905136 0.905136 0.905136 0.905136 0.905136 0.905136 0.905136 0.905136 0.905136 0.905136 0.905136 0.905136 0.905136 0.905136 0.905136 0.905136 0.905136 0.905136 0.905136 0.905136 0.905136 0.905136 0.905136 0.905136 0.905136 0.905136 0.905136 0.905136 0.905136 0.905136 0.905136 0.905136 0.905136 0.905136 0.905136 0.905136 0.905136 0.905136 0.905136 0.905136 0.901003 0.905845 0.907737 0.906177 0.909736 0.909805 0.909093 0.909418 0.909066 0.909388 0.910781 0.921296 0.932331 0.943593 0.944121 0.949259 0.953674 0.956069 0.956955 0.958495 0.968414 0.967102 0.966598 0.967285 0.968751 0.970892 0.969590 0.969203 0.972366 0.973032 0.971405 0.969201 0.968596 0.967996 0.968096 0.967720 0.967607 0.967483 0.967989 0.968192 0.968355 0.968498 0.968548 0.969567 0.970721 0.973074 0.974052 0.973894 0.972800 0.970895 0.974930 0.975822 0.975549 0.975487 0.975004 0.975273 0.963475 0.958297 0.958216 0.954965 0.954005 0.951216 0.949641 0.947807 0.947966 0.946659 0.946740 0.943381 0.930106 0.916540 0.905519 0.926276 0.911196 0.899828 0.875855 0.876508 0.872671 0.873192 0.865717 0.859807 0.855046 0.852264 0.853616 0.850536 0.854336 0.851254 0.837773 0.840940 0.837702 0.808527 0.791095 0.776308 0.777147 0.774368 0.775504 0.775104 0.771068 0.779472 0.771109 0.769420 0.761210 0.742070 0.708241 0.694970 0.705310 0.714885 0.712879 0.709110 0.693888 0.661488 0.674518 0.695174 0.692643 0.695198 0.686858 0.680500 0.681879 0.682976 0.679729 0.672847 0.672026 0.671382 0.680332 0.685206 0.680845 0.672156 0.657698 0.645437 0.630953 0.643724 0.653696 0.621086 0.615197 0.604855 0.598328 0.584068 0.555172 0.554611 0.531282 0.520495 0.523561 0.526553 0.518472 0.525934 0.527209 0.512135 0.534495 0.541293 0.567800 0.551522 0.549805 0.551221 0.558854 0.543835 0.527560 0.522490 0.523355 0.535406 0.565418 0.605577 0.591497 0.578717 0.566283 0.580958 0.547672 0.556231 0.577155 0.554025 0.483425 0.436218 0.434103 0.393189 0.388554 0.378565 0.369090 0.372451 0.364815 0.354467 0.341139 0.328208 0.269966 0.229809 0.213478 0.192763 0.201086 0.219084 0.211289 0.200738 0.225387 0.273427 0.272617 0.263975 0.249652 0.254010 0.226952 0.237376 0.265496 0.220244 0.213441 0.206363 0.180038 0.180768 0.143899 0.169842 0.084826 0.059321 0.058396 0.074895 0.088046 0.086495 0.090012 0.061822 0.081777 0.077113 0.047561 0.036661 0.053701 0.040828 0.010443 0.021488 0.038712 0.025883 -0.002337 0.022238 0.036389 0.051161 0.042424 0.038997 0.092168 0.122149 0.109317 0.110487 0.104036 0.109432 0.085288 0.076877 0.064073 0.053093 0.002207 -0.026282 -0.026282 -0.021047 -0.021047 -0.021047 -0.021047 -0.021047 -0.021047 -0.021047 -0.021047 -0.021047 -0.024494 -0.024494 -0.024494 -0.024494 -0.024494 -0.024494 -0.024494 -0.024494 -0.024494 0.000320 0.000320 0.000320 0.000320 0.000320 0.000320 0.000320 0.000320 0.000320
0.000000 0.000000 0.000000 0.000000 0.000000 0.000000 0.000000 0.000000 0.000000 0.000000 0.000000 0.000000 0.000000 0.000000 0.000000 0.000000 0.000000 0.000000 0.000000 0.000000 0.000000 0.000000 0.000000 0.000000 0.000000 0.000000 0.000000 0.000000 0.000000 0.000000 0.000000 0.000000 0.000000 0.000000 0.000000 0.000000 0.000000 0.000000 0.000000 0.000000 0.000000 0.000000 0.000000 0.000000 0.000000 0.000000 0.000000 0.000000 0.000000 0.000000 0.000000 0.000000 0.181818 0.181818 0.199007 0.199007 0.199007 0.199007 0.199007 0.199007 0.199007 0.199007 0.199007 0.199007 0.199007 0.199007 0.199007 0.199007 0.199007 0.199007 0.199007 0.199007 0.199007 0.199007 0.199007 0.199007 0.199007 0.199007 0.199007 0.199007 0.199007 0.199007 0.199007 0.199007 0.199007 0.199007 0.199007 0.199007 0.199007 0.199007 0.199007 0.199007 0.199007 0.199007 0.199007 0.230940 0.230940 0.230940 0.230940 0.230940 0.230940 0.230940 0.230940 0.230940 0.230940 0.230940 0.230940 0.230940 0.230940 0.230940 0.230940 0.230940 0.230940 0.230940 0.230940 0.230940 0.230940 0.230940 0.230940 0.230940 0.230940 0.230940 0.230940 0.244339 0.244339 0.244339 0.244339 0.244339 0.244339 0.244339 0.244339 0.244339 0.244339 0.244339 0.244339 0.244339 0.244339 0.244339 0.244339 0.244339 0.244339 0.244339 0.244339 0.244339 0.244339 0.244339 0.251976 0.251976 0.251976 0.251976 0.251976 0.251976 0.251976 0.251976 0.251976 0.251976 0.251976 0.251976 0.251976 0.251976 0.251976 0.251976 0.251976 0.251976 0.251976 0.251976 0.264906 0.264906 0.264906 0.264906 0.264906 0.264906 0.264906 0.264906 0.264906 0.264906 0.264906 0.264906 0.264906 0.264906 0.264906 0.264906 0.264906 0.264906 0.264906 0.264906 0.264906 0.264906 0.264906 0.264906 0.264906 0.264906 0.264906 0.264906 0.264906 0.264906 0.264906 0.264906 0.264906 0.264906 0.264906 0.264906 0.264906 0.264906 0.264906 0.264906 0.264906 0.264906 0.264906 0.264906 0.264906 0.264906 0.264906 0.264906 0.264906 0.264906 0.264906 0.264906 0.264906 0.264906 0.264906 0.264906 0.264906 0.264906 0.264906 0.264906 0.264906 0.264906 0.264906 0.264906 0.264906 0.264906 0.264906 0.264906 0.264906 0.264906 0.264906 0.264906 0.264906 0.264906 0.264906 0.269680 0.269680 0.269680 0.269680 0.269680 0.269680 0.269680 0.269680 0.269680 0.269680 0.269680 0.269680 0.264906 0.264906 0.264906 0.264906 0.264906 0.264906 0.264906 0.264906 0.264906 0.264906 0.264906 0.264906 0.269680 0.269680 0.269680 0.269680 0.269680 0.269680 0.269680 0.269680 0.269680 0.269680 0.269680 0.264906 0.264906 0.264906 0.264906 0.264906 0.264906 0.264906 0.264906 0.264906 0.264906 0.264906 0.256074 0.256074 0.256074 0.256074 0.256074 0.256074 0.256074 0.256074 0.256074 0.256074 0.256074 0.264906 0.264906 0.264906 0.264906 0.264906 0.264906 0.264906 0.264906 0.264906 0.264906 0.269680 0.269680 0.269680 0.269680 0.269680 0.269680 0.269680 0.269680 0.269680 0.256074 0.256074 0.256074 0.256074 0.256074 0.256074 0.256074 0.256074 0.256074 0.256074 0.260378 0.260378 0.260378 0.260378 0.260378 0.260378 0.260378 0.260378 0.260378 0.256074 0.256074 0.256074 0.256074 0.256074 0.256074 0.256074 0.256074 0.256074 0.251976 0.251976 0.251976 0.251976 0.251976 0.251976 0.251976 0.251976 0.251976 0.264906 0.264906 0.264906 0.264906 0.264906 0.264906 0.264906 0.264906 0.264906
