# Output from CTFFind version 4.1.9, run on 2019-11-03 20:10:20
# Input file: stack6_bm3d_averaged_1_6.0_0_3000_half.mrc ; Number of micrographs: 1
# Pixel size: 3.000 Angstroms ; acceleration voltage: 300.0 keV ; spherical aberration: 0.00 mm ; amplitude contrast: 0.07
# Box size: 512 pixels ; min. res.: 30.0 Angstroms ; max. res.: 5.0 Angstroms ; min. def.: 5000.0 um; max. def. 50000.0 um; num. frames averaged: 1
# 6 lines per micrograph: #1 - spatial frequency (1/Angstroms); #2 - 1D rotational average of spectrum (assuming no astigmatism); #3 - 1D rotational average of spectrum; #4 - CTF fit; #5 - cross-correlation between spectrum and CTF fit; #6 - 2sigma of expected cross correlation of noise
0.000000 0.000651 0.001302 0.001953 0.002604 0.003255 0.003906 0.004557 0.005208 0.005859 0.006510 0.007161 0.007812 0.008464 0.009115 0.009766 0.010417 0.011068 0.011719 0.012370 0.013021 0.013672 0.014323 0.014974 0.015625 0.016276 0.016927 0.017578 0.018229 0.018880 0.019531 0.020182 0.020833 0.021484 0.022135 0.022786 0.023438 0.024089 0.024740 0.025391 0.026042 0.026693 0.027344 0.027995 0.028646 0.029297 0.029948 0.030599 0.031250 0.031901 0.032552 0.033203 0.033854 0.034505 0.035156 0.035807 0.036458 0.037109 0.037760 0.038411 0.039062 0.039714 0.040365 0.041016 0.041667 0.042318 0.042969 0.043620 0.044271 0.044922 0.045573 0.046224 0.046875 0.047526 0.048177 0.048828 0.049479 0.050130 0.050781 0.051432 0.052083 0.052734 0.053385 0.054036 0.054688 0.055339 0.055990 0.056641 0.057292 0.057943 0.058594 0.059245 0.059896 0.060547 0.061198 0.061849 0.062500 0.063151 0.063802 0.064453 0.065104 0.065755 0.066406 0.067057 0.067708 0.068359 0.069010 0.069661 0.070312 0.070964 0.071615 0.072266 0.072917 0.073568 0.074219 0.074870 0.075521 0.076172 0.076823 0.077474 0.078125 0.078776 0.079427 0.080078 0.080729 0.081380 0.082031 0.082682 0.083333 0.083984 0.084635 0.085286 0.085938 0.086589 0.087240 0.087891 0.088542 0.089193 0.089844 0.090495 0.091146 0.091797 0.092448 0.093099 0.093750 0.094401 0.095052 0.095703 0.096354 0.097005 0.097656 0.098307 0.098958 0.099609 0.100260 0.100911 0.101562 0.102214 0.102865 0.103516 0.104167 0.104818 0.105469 0.106120 0.106771 0.107422 0.108073 0.108724 0.109375 0.110026 0.110677 0.111328 0.111979 0.112630 0.113281 0.113932 0.114583 0.115234 0.115885 0.116536 0.117188 0.117839 0.118490 0.119141 0.119792 0.120443 0.121094 0.121745 0.122396 0.123047 0.123698 0.124349 0.125000 0.125651 0.126302 0.126953 0.127604 0.128255 0.128906 0.129557 0.130208 0.130859 0.131510 0.132161 0.132812 0.133464 0.134115 0.134766 0.135417 0.136068 0.136719 0.137370 0.138021 0.138672 0.139323 0.139974 0.140625 0.141276 0.141927 0.142578 0.143229 0.143880 0.144531 0.145182 0.145833 0.146484 0.147135 0.147786 0.148438 0.149089 0.149740 0.150391 0.151042 0.151693 0.152344 0.152995 0.153646 0.154297 0.154948 0.155599 0.156250 0.156901 0.157552 0.158203 0.158854 0.159505 0.160156 0.160807 0.161458 0.162109 0.162760 0.163411 0.164062 0.164714 0.165365 0.166016 0.166667 0.167318 0.167969 0.168620 0.169271 0.169922 0.170573 0.171224 0.171875 0.172526 0.173177 0.173828 0.174479 0.175130 0.175781 0.176432 0.177083 0.177734 0.178385 0.179036 0.179688 0.180339 0.180990 0.181641 0.182292 0.182943 0.183594 0.184245 0.184896 0.185547 0.186198 0.186849 0.187500 0.188151 0.188802 0.189453 0.190104 0.190755 0.191406 0.192057 0.192708 0.193359 0.194010 0.194661 0.195312 0.195964 0.196615 0.197266 0.197917 0.198568 0.199219 0.199870 0.200521 0.201172 0.201823 0.202474 0.203125 0.203776 0.204427 0.205078 0.205729 0.206380 0.207031 0.207682 0.208333 0.208984 0.209635 0.210286 0.210938 0.211589 0.212240 0.212891 0.213542 0.214193 0.214844 0.215495 0.216146 0.216797 0.217448 0.218099 0.218750 0.219401 0.220052 0.220703 0.221354 0.222005 0.222656 0.223307 0.223958 0.224609 0.225260 0.225911 0.226562 0.227214 0.227865 0.228516 0.229167 0.229818 0.230469 0.231120 0.231771 0.232422 0.233073 0.233724 0.234375 0.235026 0.235677
       0.31652        0.31652        0.31652        0.31652        0.31652        0.31652        0.31652        0.31652        0.31652        0.31652        0.31652        0.31652        0.31652        0.31652        0.31652        0.31652        0.31652        0.31652        0.31652        0.31652        0.31652        0.31652        0.31652        0.31652        0.31652        0.31652        0.31652        0.31652        0.31652        0.31652        0.31652        0.31652        0.31652        0.31652        0.31652        0.31652        0.31652        0.31652        0.31652        0.31652        0.31652        0.31652        0.31652        0.31652        0.31652        0.31652        0.31652        0.31652        0.31652        0.31652        0.31652        0.59790        0.71877        0.35775        0.17957        0.12936       -0.14360        0.10844        0.03204        0.03490        0.08996        0.30672        0.31951        0.24582        0.14459       -0.03921       -0.01318        0.04314       -0.11859       -0.12582       -0.08050       -0.09542       -0.20920       -0.13635       -0.25137       -0.26774       -0.26430       -0.32725       -0.40372       -0.34026       -0.24773       -0.21726       -0.31910       -0.23562       -0.28804       -0.22889       -0.15599       -0.10157       -0.06711       -0.00134        0.03696        0.13182        0.17434        0.21591        0.33796        0.40516        0.35599        0.46726        0.54581        0.55448        0.63603        0.56800        0.60009        0.59930        0.60868        0.60915        0.55349        0.57893        0.54649        0.39076        0.33354        0.36730        0.34403        0.19722        0.17223        0.14501        0.09192        0.09742        0.01549        0.07400        0.05377        0.01106        0.10564        0.16786        0.26258        0.35203        0.34755        0.37532        0.45242        0.48777        0.41763        0.64592        0.53835        0.48148        0.57206        0.49859        0.53900        0.50166        0.37086        0.30878        0.28447        0.23488        0.22451        0.19922        0.17866        0.14339        0.22297        0.20389        0.24072        0.20988        0.26717        0.31929        0.33438        0.44368        0.43632        0.41415        0.42364        0.47101        0.43859        0.42759        0.39292        0.40066        0.33599        0.28515        0.24871        0.25346        0.24897        0.19576        0.17106        0.22805        0.23580        0.27299        0.34440        0.36328        0.41550        0.39712        0.43048        0.46597        0.45716        0.42650        0.38858        0.41304        0.37078        0.32619        0.33276        0.31470        0.25793        0.27645        0.27408        0.23844        0.30423        0.28020        0.29466        0.32097        0.38017        0.41169        0.40378        0.42891        0.37550        0.41518        0.39085        0.30885        0.28701        0.24923        0.26419        0.22766        0.20270        0.29380        0.35227        0.32019        0.29229        0.34709        0.27156        0.32994        0.38210        0.37250        0.36061        0.38266        0.32932        0.34708        0.32952        0.28955        0.28104        0.24473        0.29681        0.30952        0.32320        0.33899        0.37848        0.37353        0.37182        0.32680        0.34976        0.34225        0.32617        0.32128        0.29035        0.28601        0.25601        0.32329        0.33008        0.32519        0.29604        0.33315        0.33804        0.33151        0.34613        0.32425        0.29099        0.29068        0.29411        0.26767        0.24980        0.24099        0.24625        0.26349        0.25001        0.29027        0.28200        0.32184        0.33066        0.26541        0.29964        0.27496        0.21807        0.26928        0.25087        0.24551        0.28208        0.30818        0.30558        0.30125        0.30141        0.29837        0.31561        0.33523        0.28466        0.31491        0.31167        0.35998        0.28279        0.26878        0.26452        0.31000        0.31952        0.33007        0.34680        0.30981        0.22914        0.28812        0.25362        0.24647        0.24764        0.25120        0.28851        0.22900        0.29876        0.31779        0.35254        0.31307        0.29066        0.25495        0.27563        0.28140        0.23823        0.26156        0.27827        0.30943        0.33495        0.31551        0.29311        0.28015        0.31496        0.26480        0.23347        0.19170        0.29782        0.33806        0.32847        0.31141        0.29745        0.23786        0.21280        0.24631        0.24722        0.24494        0.27016        0.28104        0.25165        0.25112        0.23311        0.28719        0.25238        0.25089        0.26209        0.25741        0.18379        0.23644        0.24464        0.23250        0.29285        0.24971        0.25016        0.20995        0.21746        0.26614        0.22066        0.22965        0.15071        0.15169        0.31927        0.20178        0.20632        0.29112        0.17439        0.16160        0.13681        0.24910        0.17511        0.16181       -0.05347       -0.59426       -0.92068
2.316173 2.296468 2.276852 2.257323 2.237882 2.218530 2.199265 2.180088 2.161000 2.141999 2.123086 2.104261 2.085525 2.066876 2.048315 2.029842 2.011458 1.993161 1.974952 1.956831 1.938798 1.920854 1.902997 1.885228 1.867547 1.849954 1.832449 1.815032 1.797704 1.780463 1.763310 1.746245 1.729268 1.712379 1.695578 1.678865 1.662240 1.645703 1.629254 1.612894 1.596620 1.580436 1.564339 1.548330 1.532409 1.516576 1.500831 1.485173 1.469604 1.454123 1.438730 1.798239 2.129156 1.472720 1.323723 1.075670 0.522389 0.909224 0.818665 0.828268 0.699817 1.371457 1.197909 1.212204 0.972106 0.626536 0.484536 0.745047 0.571683 0.251887 0.296387 0.477799 0.228234 0.254372 0.108449 0.002640 -0.015887 -0.010396 -0.301457 -0.169173 -0.004857 -0.035314 -0.096723 -0.018134 -0.130631 -0.111981 0.061942 0.166327 0.234076 0.272148 0.355944 0.598827 0.545996 0.623372 0.818174 1.013795 0.796086 1.201763 1.158361 1.224285 1.330068 1.230520 1.177383 1.318846 1.204526 1.334967 1.161308 1.121338 1.185946 0.948712 0.662929 0.724130 0.775598 0.479593 0.405472 0.354994 0.203551 0.192501 0.042582 0.187777 0.152538 0.018734 0.111544 0.227796 0.341929 0.602078 0.593125 0.568352 0.702320 0.873295 0.581844 1.014972 1.007209 0.755080 0.910169 0.753320 0.834587 0.869507 0.599926 0.392503 0.394275 0.334604 0.212800 0.186214 0.170652 -0.010793 0.198303 0.164557 0.234198 0.122316 0.262659 0.319994 0.282519 0.486305 0.589804 0.512693 0.362328 0.672842 0.552102 0.468468 0.503888 0.440742 0.304140 0.329697 0.123946 0.190812 0.043239 0.192734 -0.065567 0.051928 0.036997 0.237778 0.086773 0.373170 0.321937 0.377171 0.398302 0.398361 0.563207 0.399656 0.377078 0.426954 0.225422 0.327632 0.153305 0.263614 0.079318 0.120506 0.095810 0.084553 0.044606 0.157493 0.063913 0.145684 0.236040 0.277092 0.344436 0.269587 0.336010 0.256087 0.295916 0.180253 0.097745 0.038391 -0.008810 0.019390 -0.084508 -0.059431 0.107850 0.204177 0.068638 0.108636 0.108027 0.024559 0.175552 0.230411 0.183425 0.223019 0.139846 0.135037 0.111496 0.104615 0.053534 -0.074184 -0.023218 0.141319 0.007813 0.135419 0.101593 0.228323 0.213206 0.184028 0.134539 0.185549 0.101186 0.116397 0.114649 0.047658 -0.008592 0.017830 0.122138 0.133249 0.109174 0.051107 0.144447 0.114396 0.067248 0.128974 0.029542 -0.016332 0.023675 -0.004418 -0.042607 -0.076672 -0.099429 -0.035189 -0.060186 -0.079227 0.014285 0.005344 0.084425 0.074418 -0.056339 0.058403 -0.048104 -0.111635 0.024986 -0.067877 -0.081025 0.039764 0.068323 0.024712 0.057406 -0.030269 0.048412 0.127824 -0.015892 -0.011890 0.087647 0.039187 0.126977 -0.053050 -0.030998 -0.048031 0.101346 0.031461 0.068594 0.140714 0.016889 -0.096422 0.005513 -0.047933 -0.061357 -0.055822 -0.054795 0.021558 -0.132869 0.106721 0.075366 0.173249 0.042133 -0.007074 -0.011012 0.013032 0.054320 -0.071117 0.029593 0.021467 0.115649 0.109310 0.131416 0.082666 0.072838 0.167738 -0.024718 0.009967 -0.124849 0.160758 0.175556 0.152139 0.134331 0.066044 -0.029059 -0.070409 -0.028775 -0.000450 -0.010736 0.035294 0.084708 -0.010914 0.004648 0.026154 0.078701 0.060448 0.050352 0.076277 0.016946 -0.039259 0.030415 0.062358 0.024872 0.163666 0.058127 0.020863 0.058712 0.048370 0.113160 0.136260 0.078057 -0.056272 -0.152277 0.428444 0.438523 0.347186 0.554312 0.261529 0.292953 0.191634 0.539960 0.326985 0.320445 0.197436 -0.859186
0.072396 0.072838 0.074163 0.076371 0.079462 0.083435 0.088289 0.094022 0.100634 0.108122 0.116484 0.125716 0.135815 0.146776 0.158594 0.171262 0.184772 0.199116 0.214282 0.230259 0.247032 0.264586 0.282903 0.301961 0.321739 0.342209 0.363344 0.385111 0.407474 0.430396 0.453833 0.477738 0.502061 0.526747 0.551735 0.576960 0.602354 0.627843 0.653346 0.678779 0.704051 0.729069 0.753731 0.777931 0.801559 0.824499 0.846629 0.867825 0.887956 0.906890 0.924488 0.940610 0.955112 0.967851 0.978680 0.987451 0.994019 0.998237 0.999964 0.999060 0.995388 0.988821 0.979236 0.966518 0.950564 0.931282 0.908590 0.882425 0.852736 0.819493 0.782682 0.742313 0.698416 0.651047 0.600285 0.546238 0.489041 0.428857 0.365881 0.300336 0.232478 0.162594 0.091002 0.018050 0.055883 0.130388 0.205031 0.279348 0.352856 0.425047 0.495396 0.563366 0.628407 0.689964 0.747479 0.800402 0.848190 0.890315 0.926273 0.955588 0.977820 0.992569 0.999485 0.998277 0.988713 0.970632 0.943948 0.908657 0.864842 0.812675 0.752424 0.684454 0.609231 0.527317 0.439375 0.346165 0.248540 0.147440 0.043885 0.061028 0.166143 0.270251 0.372106 0.470437 0.563965 0.651424 0.731572 0.803218 0.865233 0.916578 0.956321 0.983654 0.997916 0.998607 0.985407 0.958192 0.917039 0.862242 0.794319 0.714007 0.622269 0.520285 0.409446 0.291336 0.167716 0.040506 0.088250 0.216406 0.341757 0.462066 0.575119 0.678750 0.770902 0.849658 0.913296 0.960323 0.989521 0.999980 0.991137 0.962795 0.915150 0.848800 0.764752 0.664419 0.549605 0.422480 0.285552 0.141622 0.006269 0.154897 0.300927 0.440980 0.571721 0.689935 0.792613 0.877034 0.940842 0.982127 0.999484 0.992074 0.959665 0.902665 0.822136 0.719788 0.597962 0.459586 0.308120 0.147478 0.018066 0.183983 0.345614 0.498297 0.637510 0.759000 0.858929 0.934004 0.981593 0.999836 0.987727 0.945176 0.873050 0.773168 0.648289 0.502048 0.338864 0.163824 0.017463 0.199040 0.374797 0.538674 0.684877 0.808085 0.903659 0.967832 0.997874 0.992225 0.950588 0.873990 0.764777 0.626575 0.464192 0.283467 0.091080 0.105682 0.299199 0.481803 0.646095 0.785242 0.893285 0.965408 0.998170 0.989698 0.939809 0.850073 0.723801 0.565943 0.382939 0.182460 0.026882 0.235900 0.435226 0.615737 0.768976 0.887568 0.965597 0.998919 0.985421 0.925170 0.820481 0.675864 0.497862 0.294798 0.076395 0.146661 0.363236 0.562304 0.733521 0.867767 0.957665 0.998014 0.986118 0.922006 0.808499 0.651135 0.457938 0.239048 0.006209 0.227834 0.450029 0.647754 0.809529 0.925727 0.989163 0.995583 0.943987 0.836772 0.679681 0.481538 0.253798 0.009912 0.235431 0.467203 0.670938 0.833664 0.944749 0.996643 0.985427 0.911160 0.777971 0.593885 0.370404 0.121820 0.135662 0.384967 0.609279 0.793179 0.923751 0.991510 0.991152 0.922021 0.788260 0.598637 0.366026 0.106581 0.161341 0.418481 0.646035 0.827068 0.947796 0.998685 0.975268 0.878586 0.715243 0.497021 0.240102 0.036101 0.310362 0.561273 0.768927 0.916516 0.991754 0.987952 0.904681 0.747947 0.529842 0.267673 0.017345 0.301778 0.561874 0.775578 0.924413 0.995148 0.981031 0.882517 0.707374 0.470168 0.191118 0.105567 0.393759 0.647693 0.844311 0.965377 0.999256 0.942097 0.798357 0.580554 0.308267 0.006448 0.296823 0.572914 0.795383 0.942524 0.999570 0.960250 0.827572 0.613716 0.339009 0.030078 0.282680 0.568056 0.797160 0.946401 0.999962
1.000000 1.000000 1.000000 1.000000 1.000000 1.000000 1.000000 1.000000 1.000000 1.000000 1.000000 1.000000 1.000000 1.000000 1.000000 1.000000 1.000000 1.000000 1.000000 1.000000 1.000000 1.000000 1.000000 1.000000 1.000000 1.000000 1.000000 1.000000 1.000000 1.000000 1.000000 1.000000 1.000000 1.000000 1.000000 1.000000 1.000000 1.000000 1.000000 1.000000 1.000000 1.000000 1.000000 1.000000 1.000000 1.000000 1.000000 1.000000 1.000000 1.000000 1.000000 1.000000 0.781190 0.781190 0.781190 0.781190 0.781190 0.781190 0.781190 0.766365 0.766365 0.766365 0.766365 0.766365 0.766365 0.766365 0.766365 0.766365 0.766365 0.766365 0.766365 0.766365 0.766365 0.766365 0.766365 0.766365 0.766365 0.766365 0.766365 0.766365 0.766365 0.766365 0.766365 0.766365 0.766365 0.766365 0.766365 0.766365 0.766365 0.766365 0.766365 0.766365 0.766365 0.766365 0.766365 0.766365 0.766365 0.766365 0.766365 0.766365 0.766365 0.766365 0.766365 0.911497 0.912800 0.915519 0.910437 0.912256 0.910198 0.903747 0.906711 0.906008 0.905855 0.906813 0.908080 0.909931 0.914967 0.921411 0.923209 0.930934 0.934268 0.935546 0.935598 0.932687 0.940218 0.937841 0.936097 0.924212 0.927492 0.927121 0.927275 0.926089 0.926208 0.927481 0.927402 0.925285 0.923452 0.921247 0.919449 0.920007 0.919594 0.919777 0.919948 0.920139 0.920567 0.921151 0.917293 0.919554 0.918435 0.914863 0.911532 0.911091 0.912224 0.905350 0.901969 0.892619 0.893814 0.892730 0.897915 0.894344 0.893427 0.894656 0.895419 0.896080 0.894048 0.894101 0.891667 0.893452 0.890076 0.885815 0.882225 0.882650 0.884375 0.891711 0.894377 0.893505 0.889958 0.883262 0.873842 0.871423 0.858067 0.829685 0.830707 0.833823 0.835658 0.836517 0.835877 0.834140 0.829831 0.821158 0.812443 0.817068 0.816735 0.808687 0.798564 0.799008 0.795764 0.803364 0.806600 0.798150 0.800826 0.798560 0.797098 0.797930 0.797688 0.797219 0.791802 0.793765 0.802450 0.803049 0.793380 0.787895 0.783546 0.763072 0.765947 0.772427 0.780621 0.781829 0.776814 0.762644 0.771267 0.766174 0.781716 0.794966 0.793368 0.789591 0.768769 0.726661 0.714133 0.703330 0.705971 0.707854 0.693928 0.687328 0.688228 0.692871 0.644226 0.631056 0.619670 0.618708 0.627402 0.631653 0.625712 0.589975 0.608148 0.605393 0.588042 0.584465 0.549537 0.531109 0.484436 0.487076 0.484206 0.459207 0.444028 0.433731 0.448754 0.459636 0.457933 0.456666 0.427325 0.410530 0.411995 0.411885 0.416623 0.416151 0.423034 0.378361 0.357581 0.344750 0.366070 0.368187 0.368100 0.378222 0.380073 0.378915 0.360144 0.343647 0.334823 0.349185 0.367225 0.376439 0.378256 0.345387 0.327727 0.305453 0.311972 0.353633 0.344539 0.348074 0.341578 0.347289 0.369240 0.354373 0.332825 0.312244 0.350125 0.347168 0.339101 0.312598 0.312451 0.331414 0.334033 0.329864 0.319022 0.350995 0.380258 0.372166 0.378609 0.365972 0.399881 0.449990 0.436236 0.432621 0.457380 0.449366 0.444629 0.419876 0.407870 0.405175 0.380724 0.372560 0.351056 0.335319 0.322227 0.328127 0.353919 0.359911 0.394517 0.371213 0.339010 0.239710 0.316580 0.228959 0.233588 0.233588 0.233588 0.233588 0.233588 0.233588 0.233588 0.233588 0.252127 0.252127 0.252127 0.252127 0.252127 0.252127 0.252127 0.252127 0.252127 0.252127 0.252127 0.252127 0.252127 0.252127 0.252127 0.252127 0.252127 0.252127 0.252127 0.252127 0.252127
0.000000 0.000000 0.000000 0.000000 0.000000 0.000000 0.000000 0.000000 0.000000 0.000000 0.000000 0.000000 0.000000 0.000000 0.000000 0.000000 0.000000 0.000000 0.000000 0.000000 0.000000 0.000000 0.000000 0.000000 0.000000 0.000000 0.000000 0.000000 0.000000 0.000000 0.000000 0.000000 0.000000 0.000000 0.000000 0.000000 0.000000 0.000000 0.000000 0.000000 0.000000 0.000000 0.000000 0.000000 0.000000 0.000000 0.000000 0.000000 0.000000 0.000000 0.000000 0.000000 0.173422 0.173422 0.173422 0.173422 0.173422 0.173422 0.173422 0.191565 0.191565 0.191565 0.191565 0.191565 0.191565 0.191565 0.191565 0.191565 0.191565 0.191565 0.191565 0.191565 0.191565 0.191565 0.191565 0.191565 0.191565 0.191565 0.191565 0.191565 0.191565 0.191565 0.191565 0.191565 0.191565 0.191565 0.191565 0.191565 0.191565 0.191565 0.191565 0.191565 0.191565 0.191565 0.191565 0.191565 0.191565 0.191565 0.191565 0.191565 0.191565 0.191565 0.191565 0.222222 0.222222 0.222222 0.222222 0.222222 0.222222 0.222222 0.222222 0.222222 0.222222 0.222222 0.222222 0.222222 0.222222 0.222222 0.222222 0.222222 0.222222 0.222222 0.222222 0.222222 0.222222 0.222222 0.222222 0.222222 0.222222 0.222222 0.222222 0.222222 0.222222 0.234082 0.234082 0.234082 0.234082 0.234082 0.234082 0.234082 0.234082 0.234082 0.234082 0.234082 0.234082 0.234082 0.234082 0.234082 0.234082 0.234082 0.234082 0.234082 0.234082 0.234082 0.234082 0.234082 0.234082 0.234082 0.244339 0.244339 0.244339 0.244339 0.244339 0.244339 0.244339 0.244339 0.244339 0.244339 0.244339 0.244339 0.244339 0.244339 0.244339 0.244339 0.244339 0.244339 0.244339 0.244339 0.244339 0.248069 0.248069 0.248069 0.248069 0.248069 0.248069 0.248069 0.248069 0.248069 0.248069 0.248069 0.248069 0.248069 0.248069 0.248069 0.248069 0.248069 0.248069 0.248069 0.256074 0.256074 0.256074 0.256074 0.256074 0.256074 0.256074 0.256074 0.256074 0.256074 0.256074 0.256074 0.256074 0.256074 0.256074 0.256074 0.256074 0.256074 0.256074 0.256074 0.256074 0.256074 0.256074 0.256074 0.256074 0.256074 0.256074 0.256074 0.256074 0.256074 0.256074 0.256074 0.256074 0.256074 0.256074 0.256074 0.256074 0.256074 0.256074 0.256074 0.256074 0.256074 0.256074 0.256074 0.256074 0.256074 0.256074 0.256074 0.256074 0.256074 0.256074 0.256074 0.256074 0.256074 0.256074 0.256074 0.256074 0.256074 0.256074 0.256074 0.256074 0.256074 0.260378 0.260378 0.260378 0.260378 0.260378 0.260378 0.260378 0.260378 0.260378 0.260378 0.260378 0.260378 0.260378 0.256074 0.256074 0.256074 0.256074 0.256074 0.256074 0.256074 0.256074 0.256074 0.256074 0.256074 0.256074 0.256074 0.260378 0.260378 0.260378 0.260378 0.260378 0.260378 0.260378 0.260378 0.260378 0.260378 0.260378 0.260378 0.251976 0.251976 0.251976 0.251976 0.251976 0.251976 0.251976 0.251976 0.251976 0.251976 0.251976 0.251976 0.256074 0.256074 0.256074 0.256074 0.256074 0.256074 0.256074 0.256074 0.256074 0.256074 0.256074 0.251976 0.251976 0.251976 0.251976 0.251976 0.251976 0.251976 0.251976 0.251976 0.251976 0.251976 0.260378 0.260378 0.260378 0.260378 0.260378 0.260378 0.260378 0.260378 0.260378 0.260378 0.244339 0.244339 0.244339 0.244339 0.244339 0.244339 0.244339 0.244339 0.244339 0.244339 0.244339 0.244339 0.244339 0.244339 0.244339 0.244339 0.244339 0.244339 0.244339 0.244339 0.244339
