# Output from CTFFind version 4.1.9, run on 2019-11-03 19:47:09
# Input file: stack6_bm3d_averaged_1_5.25_0_1250_half.mrc ; Number of micrographs: 1
# Pixel size: 3.000 Angstroms ; acceleration voltage: 300.0 keV ; spherical aberration: 0.00 mm ; amplitude contrast: 0.07
# Box size: 512 pixels ; min. res.: 30.0 Angstroms ; max. res.: 5.0 Angstroms ; min. def.: 5000.0 um; max. def. 50000.0 um; num. frames averaged: 1
# 6 lines per micrograph: #1 - spatial frequency (1/Angstroms); #2 - 1D rotational average of spectrum (assuming no astigmatism); #3 - 1D rotational average of spectrum; #4 - CTF fit; #5 - cross-correlation between spectrum and CTF fit; #6 - 2sigma of expected cross correlation of noise
0.000000 0.000651 0.001302 0.001953 0.002604 0.003255 0.003906 0.004557 0.005208 0.005859 0.006510 0.007161 0.007812 0.008464 0.009115 0.009766 0.010417 0.011068 0.011719 0.012370 0.013021 0.013672 0.014323 0.014974 0.015625 0.016276 0.016927 0.017578 0.018229 0.018880 0.019531 0.020182 0.020833 0.021484 0.022135 0.022786 0.023438 0.024089 0.024740 0.025391 0.026042 0.026693 0.027344 0.027995 0.028646 0.029297 0.029948 0.030599 0.031250 0.031901 0.032552 0.033203 0.033854 0.034505 0.035156 0.035807 0.036458 0.037109 0.037760 0.038411 0.039062 0.039714 0.040365 0.041016 0.041667 0.042318 0.042969 0.043620 0.044271 0.044922 0.045573 0.046224 0.046875 0.047526 0.048177 0.048828 0.049479 0.050130 0.050781 0.051432 0.052083 0.052734 0.053385 0.054036 0.054688 0.055339 0.055990 0.056641 0.057292 0.057943 0.058594 0.059245 0.059896 0.060547 0.061198 0.061849 0.062500 0.063151 0.063802 0.064453 0.065104 0.065755 0.066406 0.067057 0.067708 0.068359 0.069010 0.069661 0.070312 0.070964 0.071615 0.072266 0.072917 0.073568 0.074219 0.074870 0.075521 0.076172 0.076823 0.077474 0.078125 0.078776 0.079427 0.080078 0.080729 0.081380 0.082031 0.082682 0.083333 0.083984 0.084635 0.085286 0.085938 0.086589 0.087240 0.087891 0.088542 0.089193 0.089844 0.090495 0.091146 0.091797 0.092448 0.093099 0.093750 0.094401 0.095052 0.095703 0.096354 0.097005 0.097656 0.098307 0.098958 0.099609 0.100260 0.100911 0.101562 0.102214 0.102865 0.103516 0.104167 0.104818 0.105469 0.106120 0.106771 0.107422 0.108073 0.108724 0.109375 0.110026 0.110677 0.111328 0.111979 0.112630 0.113281 0.113932 0.114583 0.115234 0.115885 0.116536 0.117188 0.117839 0.118490 0.119141 0.119792 0.120443 0.121094 0.121745 0.122396 0.123047 0.123698 0.124349 0.125000 0.125651 0.126302 0.126953 0.127604 0.128255 0.128906 0.129557 0.130208 0.130859 0.131510 0.132161 0.132812 0.133464 0.134115 0.134766 0.135417 0.136068 0.136719 0.137370 0.138021 0.138672 0.139323 0.139974 0.140625 0.141276 0.141927 0.142578 0.143229 0.143880 0.144531 0.145182 0.145833 0.146484 0.147135 0.147786 0.148438 0.149089 0.149740 0.150391 0.151042 0.151693 0.152344 0.152995 0.153646 0.154297 0.154948 0.155599 0.156250 0.156901 0.157552 0.158203 0.158854 0.159505 0.160156 0.160807 0.161458 0.162109 0.162760 0.163411 0.164062 0.164714 0.165365 0.166016 0.166667 0.167318 0.167969 0.168620 0.169271 0.169922 0.170573 0.171224 0.171875 0.172526 0.173177 0.173828 0.174479 0.175130 0.175781 0.176432 0.177083 0.177734 0.178385 0.179036 0.179688 0.180339 0.180990 0.181641 0.182292 0.182943 0.183594 0.184245 0.184896 0.185547 0.186198 0.186849 0.187500 0.188151 0.188802 0.189453 0.190104 0.190755 0.191406 0.192057 0.192708 0.193359 0.194010 0.194661 0.195312 0.195964 0.196615 0.197266 0.197917 0.198568 0.199219 0.199870 0.200521 0.201172 0.201823 0.202474 0.203125 0.203776 0.204427 0.205078 0.205729 0.206380 0.207031 0.207682 0.208333 0.208984 0.209635 0.210286 0.210938 0.211589 0.212240 0.212891 0.213542 0.214193 0.214844 0.215495 0.216146 0.216797 0.217448 0.218099 0.218750 0.219401 0.220052 0.220703 0.221354 0.222005 0.222656 0.223307 0.223958 0.224609 0.225260 0.225911 0.226562 0.227214 0.227865 0.228516 0.229167 0.229818 0.230469 0.231120 0.231771 0.232422 0.233073 0.233724 0.234375 0.235026 0.235677
       0.30587        0.30587        0.30587        0.30587        0.30587        0.30587        0.30587        0.30587        0.30587        0.30587        0.30587        0.30587        0.30587        0.30587        0.30587        0.30587        0.30587        0.30587        0.30587        0.30587        0.30587        0.30587        0.30587        0.30587        0.30587        0.30587        0.30587        0.30587        0.30587        0.30587        0.30587        0.30587        0.30587        0.30587        0.30587        0.30587        0.30587        0.30587        0.30587        0.30587        0.30587        0.30587        0.30587        0.30587        0.30587        0.30587        0.30587        0.30587        0.30587        0.30587        0.30587        0.59701        0.72344        0.35326        0.18300        0.12381       -0.15223        0.10467        0.02393        0.02856        0.08614        0.30510        0.32713        0.25419        0.14811       -0.04193       -0.01452        0.03845       -0.13701       -0.14636       -0.08923       -0.10927       -0.23157       -0.15103       -0.27098       -0.28354       -0.28465       -0.34971       -0.42749       -0.37102       -0.27890       -0.24902       -0.34823       -0.25941       -0.31734       -0.25497       -0.17913       -0.12892       -0.09166       -0.02017        0.01194        0.11513        0.15893        0.20922        0.33141        0.39594        0.35225        0.46000        0.54788        0.55618        0.63745        0.57879        0.61389        0.59660        0.61110        0.61250        0.55217        0.56863        0.55028        0.38964        0.32576        0.35816        0.34093        0.18786        0.15288        0.12189        0.07807        0.08287       -0.00652        0.05158        0.02813       -0.01573        0.09049        0.15711        0.25425        0.34742        0.33608        0.36503        0.45741        0.49124        0.42093        0.64566        0.53087        0.47814        0.56532        0.49742        0.52671        0.48672        0.36274        0.30342        0.26345        0.21602        0.20041        0.18436        0.16336        0.11383        0.18851        0.17864        0.22049        0.19392        0.25883        0.30018        0.32474        0.44288        0.42505        0.40742        0.43252        0.47375        0.44894        0.43731        0.38441        0.39812        0.33444        0.28037        0.23097        0.24120        0.23195        0.18207        0.15447        0.20748        0.20983        0.25721        0.33030        0.34907        0.40639        0.38652        0.43803        0.45320        0.44700        0.42039        0.38816        0.40528        0.36770        0.32783        0.32409        0.30426        0.25165        0.26791        0.26622        0.22109        0.28212        0.26375        0.27376        0.31246        0.36342        0.40186        0.39611        0.41400        0.37292        0.40326        0.38644        0.29733        0.27978        0.23771        0.25248        0.21374        0.19501        0.27831        0.32923        0.30492        0.27519        0.33230        0.25981        0.32469        0.36644        0.36246        0.35924        0.37881        0.31928        0.33033        0.31211        0.27716        0.27381        0.23912        0.28059        0.29529        0.30293        0.32399        0.36690        0.37163        0.36291        0.32994        0.34879        0.32728        0.31267        0.31077        0.27822        0.28094        0.25047        0.30582        0.31836        0.30761        0.28622        0.31893        0.32176        0.32599        0.33533        0.30426        0.27138        0.28428        0.28030        0.26155        0.24064        0.22770        0.24187        0.25575        0.24059        0.27402        0.27749        0.32008        0.31183        0.27040        0.29970        0.25568        0.20286        0.25962        0.23980        0.22198        0.26798        0.29768        0.28655        0.29295        0.29400        0.29166        0.30227        0.31359        0.26561        0.30273        0.29766        0.34108        0.27226        0.26397        0.24936        0.30094        0.30651        0.31592        0.33176        0.30796        0.21737        0.27579        0.25454        0.23759        0.23879        0.24185        0.28149        0.24144        0.29778        0.30629        0.34170        0.30445        0.28112        0.23974        0.25175        0.25471        0.23574        0.26160        0.28054        0.31086        0.32615        0.28614        0.28311        0.25759        0.29083        0.26553        0.23013        0.19586        0.26102        0.32875        0.30848        0.29997        0.28621        0.23250        0.23024        0.23786        0.21750        0.22107        0.26795        0.27500        0.26026        0.22253        0.21142        0.25855        0.23796        0.24922        0.26120        0.25582        0.17881        0.21751        0.25120        0.23731        0.28242        0.24012        0.22938        0.18176        0.25774        0.28680        0.18920        0.19367        0.11949        0.14217        0.29856        0.16605        0.17221        0.32305        0.19882        0.16266        0.11294        0.20011        0.11790        0.14994       -0.05485       -0.63709       -0.99301
2.228667 2.209827 2.191071 2.172399 2.153810 2.135305 2.116883 2.098545 2.080290 2.062119 2.044031 2.026027 2.008106 1.990269 1.972516 1.954846 1.937259 1.919756 1.902337 1.885001 1.867749 1.850580 1.833494 1.816493 1.799575 1.782740 1.765989 1.749321 1.732737 1.716237 1.699819 1.683486 1.667236 1.651070 1.634987 1.618988 1.603072 1.587239 1.571491 1.555825 1.540244 1.524746 1.509331 1.494000 1.478753 1.463589 1.448508 1.433511 1.418598 1.403768 1.389022 1.744671 2.069930 1.431009 1.309849 1.052963 0.520305 0.890475 0.814905 0.811160 0.692155 1.333748 1.194604 1.206338 0.966008 0.634684 0.488713 0.743663 0.549689 0.231519 0.308966 0.465555 0.217551 0.250845 0.106586 0.015012 -0.020692 -0.016459 -0.289826 -0.180408 -0.025211 -0.057422 -0.109647 -0.017775 -0.145137 -0.116707 0.058567 0.145183 0.210354 0.260364 0.327802 0.573632 0.527089 0.602000 0.816176 0.970398 0.794717 1.160032 1.139196 1.200370 1.297120 1.212443 1.191841 1.286730 1.183316 1.312774 1.138551 1.076743 1.166894 0.934507 0.650040 0.706185 0.763940 0.471350 0.391463 0.332839 0.192853 0.188950 0.042515 0.167078 0.131536 -0.003428 0.109860 0.229483 0.337906 0.591620 0.582130 0.547217 0.709125 0.863472 0.587338 1.009936 0.975177 0.742408 0.882476 0.739286 0.815808 0.832857 0.562626 0.414047 0.367101 0.308997 0.208274 0.152105 0.170457 -0.013017 0.153063 0.127471 0.215505 0.102148 0.275593 0.305299 0.269876 0.479803 0.580647 0.491250 0.376061 0.686811 0.564159 0.493464 0.483281 0.436791 0.322271 0.323136 0.121291 0.168077 0.061462 0.162219 -0.056355 0.040122 0.011075 0.211067 0.100654 0.339890 0.309658 0.356398 0.409549 0.403546 0.535614 0.390582 0.376931 0.426978 0.234283 0.319849 0.168966 0.251141 0.092706 0.131963 0.088082 0.084883 0.023567 0.141222 0.046809 0.134485 0.228584 0.255569 0.344808 0.272599 0.316493 0.257245 0.289446 0.186721 0.093129 0.055080 -0.002811 0.008386 -0.077730 -0.048563 0.084918 0.178345 0.062588 0.089640 0.098327 0.033961 0.173416 0.208164 0.186116 0.236068 0.142114 0.110734 0.102826 0.085490 0.044639 -0.056483 -0.017024 0.128017 -0.015566 0.118571 0.092350 0.211871 0.218419 0.169164 0.154805 0.171141 0.083682 0.093145 0.104630 0.033584 -0.013642 0.026964 0.091956 0.114678 0.083950 0.043484 0.120183 0.094647 0.076028 0.108418 0.010653 -0.028754 0.029202 -0.024033 -0.018141 -0.086955 -0.096096 -0.025864 -0.067606 -0.067231 -0.007470 0.014857 0.090541 0.053456 -0.022927 0.048521 -0.079564 -0.103645 0.015607 -0.080210 -0.096396 0.042674 0.044123 0.009714 0.045578 -0.004527 0.049290 0.105262 -0.042993 -0.003169 0.090610 0.015699 0.116038 -0.041833 -0.010965 -0.054147 0.104784 0.011502 0.084999 0.119424 0.041093 -0.100986 0.013037 -0.017619 -0.046249 -0.051302 -0.032873 0.015124 -0.056059 0.117609 0.070474 0.161091 0.063652 -0.005081 -0.016698 -0.003605 0.014457 -0.039766 0.051262 0.047002 0.127752 0.122499 0.082162 0.084797 0.037448 0.134849 0.001340 0.014560 -0.098954 0.090618 0.177794 0.101479 0.132987 0.055932 -0.018232 -0.021606 -0.018776 -0.035703 -0.020062 0.056875 0.098705 0.029977 -0.019295 0.002573 0.060620 0.055275 0.057758 0.093391 0.045764 -0.009594 0.010950 0.104709 0.081555 0.158365 0.080401 0.000859 0.064498 0.160177 0.188107 0.106297 0.075692 -0.068890 -0.102419 0.450078 0.333537 0.279707 0.604630 0.278295 0.277271 0.123144 0.464675 0.198435 0.283401 0.203816 -0.873505
0.072396 0.072838 0.074163 0.076371 0.079462 0.083435 0.088289 0.094022 0.100634 0.108122 0.116484 0.125716 0.135815 0.146776 0.158594 0.171262 0.184772 0.199116 0.214282 0.230259 0.247032 0.264586 0.282903 0.301961 0.321739 0.342209 0.363344 0.385111 0.407474 0.430396 0.453833 0.477738 0.502061 0.526747 0.551735 0.576960 0.602354 0.627843 0.653346 0.678779 0.704051 0.729069 0.753731 0.777931 0.801559 0.824499 0.846629 0.867825 0.887956 0.906890 0.924488 0.940610 0.955112 0.967851 0.978680 0.987451 0.994019 0.998237 0.999964 0.999060 0.995388 0.988821 0.979236 0.966518 0.950564 0.931282 0.908590 0.882425 0.852736 0.819493 0.782682 0.742313 0.698416 0.651047 0.600285 0.546238 0.489041 0.428857 0.365881 0.300336 0.232478 0.162594 0.091002 0.018050 0.055883 0.130388 0.205031 0.279348 0.352856 0.425047 0.495396 0.563366 0.628407 0.689964 0.747479 0.800402 0.848190 0.890315 0.926273 0.955588 0.977820 0.992569 0.999485 0.998277 0.988713 0.970632 0.943948 0.908657 0.864842 0.812675 0.752424 0.684454 0.609231 0.527317 0.439375 0.346165 0.248540 0.147440 0.043885 0.061028 0.166143 0.270251 0.372106 0.470437 0.563965 0.651424 0.731572 0.803218 0.865233 0.916578 0.956321 0.983654 0.997916 0.998607 0.985407 0.958192 0.917039 0.862242 0.794319 0.714007 0.622269 0.520285 0.409446 0.291336 0.167716 0.040506 0.088250 0.216406 0.341757 0.462066 0.575119 0.678750 0.770902 0.849658 0.913296 0.960323 0.989521 0.999980 0.991137 0.962795 0.915150 0.848800 0.764752 0.664419 0.549605 0.422480 0.285552 0.141622 0.006269 0.154897 0.300927 0.440980 0.571721 0.689935 0.792613 0.877034 0.940842 0.982127 0.999484 0.992074 0.959665 0.902665 0.822136 0.719788 0.597962 0.459586 0.308120 0.147478 0.018066 0.183983 0.345614 0.498297 0.637510 0.759000 0.858929 0.934004 0.981593 0.999836 0.987727 0.945176 0.873050 0.773168 0.648289 0.502048 0.338864 0.163824 0.017463 0.199040 0.374797 0.538674 0.684877 0.808085 0.903659 0.967832 0.997874 0.992225 0.950588 0.873990 0.764777 0.626575 0.464192 0.283467 0.091080 0.105682 0.299199 0.481803 0.646095 0.785242 0.893285 0.965408 0.998170 0.989698 0.939809 0.850073 0.723801 0.565943 0.382939 0.182460 0.026882 0.235900 0.435226 0.615737 0.768976 0.887568 0.965597 0.998919 0.985421 0.925170 0.820481 0.675864 0.497862 0.294798 0.076395 0.146661 0.363236 0.562304 0.733521 0.867767 0.957665 0.998014 0.986118 0.922006 0.808499 0.651135 0.457938 0.239048 0.006209 0.227834 0.450029 0.647754 0.809529 0.925727 0.989163 0.995583 0.943987 0.836772 0.679681 0.481538 0.253798 0.009912 0.235431 0.467203 0.670938 0.833664 0.944749 0.996643 0.985427 0.911160 0.777971 0.593885 0.370404 0.121820 0.135662 0.384967 0.609279 0.793179 0.923751 0.991510 0.991152 0.922021 0.788260 0.598637 0.366026 0.106581 0.161341 0.418481 0.646035 0.827068 0.947796 0.998685 0.975268 0.878586 0.715243 0.497021 0.240102 0.036101 0.310362 0.561273 0.768927 0.916516 0.991754 0.987952 0.904681 0.747947 0.529842 0.267673 0.017345 0.301778 0.561874 0.775578 0.924413 0.995148 0.981031 0.882517 0.707374 0.470168 0.191118 0.105567 0.393759 0.647693 0.844311 0.965377 0.999256 0.942097 0.798357 0.580554 0.308267 0.006448 0.296823 0.572914 0.795383 0.942524 0.999570 0.960250 0.827572 0.613716 0.339009 0.030078 0.282680 0.568056 0.797160 0.946401 0.999962
1.000000 1.000000 1.000000 1.000000 1.000000 1.000000 1.000000 1.000000 1.000000 1.000000 1.000000 1.000000 1.000000 1.000000 1.000000 1.000000 1.000000 1.000000 1.000000 1.000000 1.000000 1.000000 1.000000 1.000000 1.000000 1.000000 1.000000 1.000000 1.000000 1.000000 1.000000 1.000000 1.000000 1.000000 1.000000 1.000000 1.000000 1.000000 1.000000 1.000000 1.000000 1.000000 1.000000 1.000000 1.000000 1.000000 1.000000 1.000000 1.000000 1.000000 1.000000 1.000000 0.779570 0.779570 0.779570 0.779570 0.779570 0.779570 0.779570 0.764610 0.764610 0.764610 0.764610 0.764610 0.764610 0.764610 0.764610 0.764610 0.764610 0.764610 0.764610 0.764610 0.764610 0.764610 0.764610 0.764610 0.764610 0.764610 0.764610 0.764610 0.764610 0.764610 0.764610 0.764610 0.764610 0.764610 0.764610 0.764610 0.764610 0.764610 0.764610 0.764610 0.764610 0.764610 0.764610 0.764610 0.764610 0.764610 0.764610 0.764610 0.764610 0.764610 0.764610 0.911952 0.912169 0.914905 0.909608 0.911434 0.909369 0.902922 0.905883 0.905179 0.905025 0.905991 0.907273 0.909137 0.912387 0.918794 0.921574 0.929604 0.932880 0.934148 0.934175 0.931211 0.938713 0.936275 0.934518 0.922622 0.925969 0.925619 0.925802 0.924617 0.924740 0.925947 0.925891 0.923762 0.921909 0.919681 0.917857 0.917678 0.917258 0.917210 0.917390 0.917985 0.918423 0.919011 0.915150 0.917414 0.916300 0.912732 0.909467 0.909058 0.910244 0.904269 0.901276 0.891893 0.893073 0.891974 0.897110 0.893543 0.892625 0.893858 0.894622 0.895287 0.894476 0.894529 0.892924 0.894646 0.892077 0.887827 0.885279 0.885743 0.888097 0.894019 0.896680 0.896604 0.893960 0.888053 0.878747 0.876714 0.863185 0.837754 0.839101 0.841349 0.843707 0.843567 0.843046 0.841788 0.838475 0.833523 0.827775 0.831979 0.831129 0.824610 0.808515 0.808189 0.803626 0.810833 0.815045 0.807326 0.810470 0.806029 0.808301 0.809167 0.806792 0.806825 0.803096 0.806216 0.814030 0.814059 0.808877 0.804604 0.797038 0.774643 0.772978 0.779224 0.792103 0.792620 0.787905 0.775044 0.782327 0.779223 0.783850 0.796886 0.795997 0.794031 0.772420 0.737918 0.721257 0.712471 0.714150 0.716820 0.710815 0.706194 0.705585 0.710111 0.668502 0.659506 0.647795 0.646173 0.655613 0.655713 0.653063 0.635644 0.653141 0.648934 0.627325 0.622320 0.575860 0.562509 0.508335 0.512191 0.512563 0.484324 0.473146 0.458862 0.477697 0.490264 0.490156 0.485632 0.457386 0.442643 0.434650 0.436877 0.444174 0.442796 0.447000 0.414042 0.398056 0.387684 0.402334 0.404163 0.405459 0.428729 0.446744 0.449668 0.433372 0.415564 0.410995 0.426122 0.436435 0.447894 0.447287 0.434688 0.412945 0.392080 0.400588 0.435435 0.436662 0.436341 0.424925 0.433593 0.444072 0.427063 0.411517 0.393389 0.441176 0.446559 0.437432 0.389542 0.373318 0.388472 0.391171 0.390049 0.367383 0.373628 0.395781 0.394712 0.401059 0.401522 0.440372 0.494689 0.482859 0.471137 0.493907 0.482177 0.473234 0.451164 0.440913 0.434332 0.416405 0.406497 0.387132 0.382339 0.370908 0.373553 0.396809 0.402493 0.421984 0.397216 0.369536 0.270276 0.343784 0.246604 0.259899 0.259899 0.259899 0.259899 0.259899 0.259899 0.259899 0.259899 0.294511 0.294511 0.294511 0.294511 0.294511 0.294511 0.294511 0.294511 0.294511 0.294511 0.294511 0.294511 0.294511 0.294511 0.294511 0.294511 0.294511 0.294511 0.294511 0.294511 0.294511
0.000000 0.000000 0.000000 0.000000 0.000000 0.000000 0.000000 0.000000 0.000000 0.000000 0.000000 0.000000 0.000000 0.000000 0.000000 0.000000 0.000000 0.000000 0.000000 0.000000 0.000000 0.000000 0.000000 0.000000 0.000000 0.000000 0.000000 0.000000 0.000000 0.000000 0.000000 0.000000 0.000000 0.000000 0.000000 0.000000 0.000000 0.000000 0.000000 0.000000 0.000000 0.000000 0.000000 0.000000 0.000000 0.000000 0.000000 0.000000 0.000000 0.000000 0.000000 0.000000 0.173422 0.173422 0.173422 0.173422 0.173422 0.173422 0.173422 0.191565 0.191565 0.191565 0.191565 0.191565 0.191565 0.191565 0.191565 0.191565 0.191565 0.191565 0.191565 0.191565 0.191565 0.191565 0.191565 0.191565 0.191565 0.191565 0.191565 0.191565 0.191565 0.191565 0.191565 0.191565 0.191565 0.191565 0.191565 0.191565 0.191565 0.191565 0.191565 0.191565 0.191565 0.191565 0.191565 0.191565 0.191565 0.191565 0.191565 0.191565 0.191565 0.191565 0.191565 0.222222 0.222222 0.222222 0.222222 0.222222 0.222222 0.222222 0.222222 0.222222 0.222222 0.222222 0.222222 0.222222 0.222222 0.222222 0.222222 0.222222 0.222222 0.222222 0.222222 0.222222 0.222222 0.222222 0.222222 0.222222 0.222222 0.222222 0.222222 0.222222 0.222222 0.234082 0.234082 0.234082 0.234082 0.234082 0.234082 0.234082 0.234082 0.234082 0.234082 0.234082 0.234082 0.234082 0.234082 0.234082 0.234082 0.234082 0.234082 0.234082 0.234082 0.234082 0.234082 0.234082 0.234082 0.234082 0.244339 0.244339 0.244339 0.244339 0.244339 0.244339 0.244339 0.244339 0.244339 0.244339 0.244339 0.244339 0.244339 0.244339 0.244339 0.244339 0.244339 0.244339 0.244339 0.244339 0.244339 0.248069 0.248069 0.248069 0.248069 0.248069 0.248069 0.248069 0.248069 0.248069 0.248069 0.248069 0.248069 0.248069 0.248069 0.248069 0.248069 0.248069 0.248069 0.248069 0.256074 0.256074 0.256074 0.256074 0.256074 0.256074 0.256074 0.256074 0.256074 0.256074 0.256074 0.256074 0.256074 0.256074 0.256074 0.256074 0.256074 0.256074 0.256074 0.256074 0.256074 0.256074 0.256074 0.256074 0.256074 0.256074 0.256074 0.256074 0.256074 0.256074 0.256074 0.256074 0.256074 0.256074 0.256074 0.256074 0.256074 0.256074 0.256074 0.256074 0.256074 0.256074 0.256074 0.256074 0.256074 0.256074 0.256074 0.256074 0.256074 0.256074 0.256074 0.256074 0.256074 0.256074 0.256074 0.256074 0.256074 0.256074 0.256074 0.256074 0.256074 0.256074 0.260378 0.260378 0.260378 0.260378 0.260378 0.260378 0.260378 0.260378 0.260378 0.260378 0.260378 0.260378 0.260378 0.256074 0.256074 0.256074 0.256074 0.256074 0.256074 0.256074 0.256074 0.256074 0.256074 0.256074 0.256074 0.256074 0.260378 0.260378 0.260378 0.260378 0.260378 0.260378 0.260378 0.260378 0.260378 0.260378 0.260378 0.260378 0.251976 0.251976 0.251976 0.251976 0.251976 0.251976 0.251976 0.251976 0.251976 0.251976 0.251976 0.251976 0.256074 0.256074 0.256074 0.256074 0.256074 0.256074 0.256074 0.256074 0.256074 0.256074 0.256074 0.251976 0.251976 0.251976 0.251976 0.251976 0.251976 0.251976 0.251976 0.251976 0.251976 0.251976 0.260378 0.260378 0.260378 0.260378 0.260378 0.260378 0.260378 0.260378 0.260378 0.260378 0.244339 0.244339 0.244339 0.244339 0.244339 0.244339 0.244339 0.244339 0.244339 0.244339 0.244339 0.244339 0.244339 0.244339 0.244339 0.244339 0.244339 0.244339 0.244339 0.244339 0.244339
