# Output from CTFFind version 4.1.9, run on 2019-11-02 17:49:28
# Input file: stack11_bm3d_averaged_1_1.0_0_2500_half.mrc ; Number of micrographs: 1
# Pixel size: 3.000 Angstroms ; acceleration voltage: 300.0 keV ; spherical aberration: 0.00 mm ; amplitude contrast: 0.07
# Box size: 512 pixels ; min. res.: 30.0 Angstroms ; max. res.: 5.0 Angstroms ; min. def.: 5000.0 um; max. def. 50000.0 um; num. frames averaged: 1
# 6 lines per micrograph: #1 - spatial frequency (1/Angstroms); #2 - 1D rotational average of spectrum (assuming no astigmatism); #3 - 1D rotational average of spectrum; #4 - CTF fit; #5 - cross-correlation between spectrum and CTF fit; #6 - 2sigma of expected cross correlation of noise
0.000000 0.000651 0.001302 0.001953 0.002604 0.003255 0.003906 0.004557 0.005208 0.005859 0.006510 0.007161 0.007812 0.008464 0.009115 0.009766 0.010417 0.011068 0.011719 0.012370 0.013021 0.013672 0.014323 0.014974 0.015625 0.016276 0.016927 0.017578 0.018229 0.018880 0.019531 0.020182 0.020833 0.021484 0.022135 0.022786 0.023438 0.024089 0.024740 0.025391 0.026042 0.026693 0.027344 0.027995 0.028646 0.029297 0.029948 0.030599 0.031250 0.031901 0.032552 0.033203 0.033854 0.034505 0.035156 0.035807 0.036458 0.037109 0.037760 0.038411 0.039062 0.039714 0.040365 0.041016 0.041667 0.042318 0.042969 0.043620 0.044271 0.044922 0.045573 0.046224 0.046875 0.047526 0.048177 0.048828 0.049479 0.050130 0.050781 0.051432 0.052083 0.052734 0.053385 0.054036 0.054688 0.055339 0.055990 0.056641 0.057292 0.057943 0.058594 0.059245 0.059896 0.060547 0.061198 0.061849 0.062500 0.063151 0.063802 0.064453 0.065104 0.065755 0.066406 0.067057 0.067708 0.068359 0.069010 0.069661 0.070312 0.070964 0.071615 0.072266 0.072917 0.073568 0.074219 0.074870 0.075521 0.076172 0.076823 0.077474 0.078125 0.078776 0.079427 0.080078 0.080729 0.081380 0.082031 0.082682 0.083333 0.083984 0.084635 0.085286 0.085938 0.086589 0.087240 0.087891 0.088542 0.089193 0.089844 0.090495 0.091146 0.091797 0.092448 0.093099 0.093750 0.094401 0.095052 0.095703 0.096354 0.097005 0.097656 0.098307 0.098958 0.099609 0.100260 0.100911 0.101562 0.102214 0.102865 0.103516 0.104167 0.104818 0.105469 0.106120 0.106771 0.107422 0.108073 0.108724 0.109375 0.110026 0.110677 0.111328 0.111979 0.112630 0.113281 0.113932 0.114583 0.115234 0.115885 0.116536 0.117188 0.117839 0.118490 0.119141 0.119792 0.120443 0.121094 0.121745 0.122396 0.123047 0.123698 0.124349 0.125000 0.125651 0.126302 0.126953 0.127604 0.128255 0.128906 0.129557 0.130208 0.130859 0.131510 0.132161 0.132812 0.133464 0.134115 0.134766 0.135417 0.136068 0.136719 0.137370 0.138021 0.138672 0.139323 0.139974 0.140625 0.141276 0.141927 0.142578 0.143229 0.143880 0.144531 0.145182 0.145833 0.146484 0.147135 0.147786 0.148438 0.149089 0.149740 0.150391 0.151042 0.151693 0.152344 0.152995 0.153646 0.154297 0.154948 0.155599 0.156250 0.156901 0.157552 0.158203 0.158854 0.159505 0.160156 0.160807 0.161458 0.162109 0.162760 0.163411 0.164062 0.164714 0.165365 0.166016 0.166667 0.167318 0.167969 0.168620 0.169271 0.169922 0.170573 0.171224 0.171875 0.172526 0.173177 0.173828 0.174479 0.175130 0.175781 0.176432 0.177083 0.177734 0.178385 0.179036 0.179688 0.180339 0.180990 0.181641 0.182292 0.182943 0.183594 0.184245 0.184896 0.185547 0.186198 0.186849 0.187500 0.188151 0.188802 0.189453 0.190104 0.190755 0.191406 0.192057 0.192708 0.193359 0.194010 0.194661 0.195312 0.195964 0.196615 0.197266 0.197917 0.198568 0.199219 0.199870 0.200521 0.201172 0.201823 0.202474 0.203125 0.203776 0.204427 0.205078 0.205729 0.206380 0.207031 0.207682 0.208333 0.208984 0.209635 0.210286 0.210938 0.211589 0.212240 0.212891 0.213542 0.214193 0.214844 0.215495 0.216146 0.216797 0.217448 0.218099 0.218750 0.219401 0.220052 0.220703 0.221354 0.222005 0.222656 0.223307 0.223958 0.224609 0.225260 0.225911 0.226562 0.227214 0.227865 0.228516 0.229167 0.229818 0.230469 0.231120 0.231771 0.232422 0.233073 0.233724 0.234375 0.235026 0.235677
       0.31657        0.31657        0.31657        0.31657        0.31657        0.31657        0.31657        0.31657        0.31657        0.31657        0.31657        0.31657        0.31657        0.31657        0.31657        0.31657        0.31657        0.31657        0.31657        0.31657        0.31657        0.31657        0.31657        0.31657        0.31657        0.31657        0.31657        0.31657        0.31657        0.31657        0.31657        0.31657        0.31657        0.31657        0.31657        0.31657        0.31657        0.31657        0.31657        0.31657        0.31657        0.31657        0.31657        0.31657        0.31657        0.31657        0.31657        0.31657        0.31657        0.31657        0.31657        0.68477        0.87231        0.52148        0.08541       -0.06799       -0.42812       -0.20784       -0.29662       -0.11847       -0.07907       -0.11880       -0.07027       -0.21071       -0.23890       -0.26091       -0.33178       -0.33880       -0.49465       -0.38543       -0.46853       -0.45267       -0.42297       -0.47205       -0.54988       -0.56607       -0.58995       -0.62895       -0.58103       -0.41797       -0.37921       -0.33134       -0.31842       -0.21455       -0.19985        0.01924        0.06657        0.10165        0.22286        0.37131        0.44240        0.51758        0.55932        0.55350        0.57289        0.69872        0.81526        0.74748        0.73435        0.67482        0.58260        0.48672        0.40591        0.49281        0.37156        0.19862        0.07651        0.04374        0.00551       -0.06065       -0.04181       -0.02812       -0.07560       -0.00702       -0.02285        0.21006        0.24845        0.29164        0.42924        0.46596        0.40332        0.53150        0.63183        0.70414        0.76863        0.69152        0.66248        0.70135        0.58834        0.50625        0.41841        0.28915        0.18554        0.15754        0.10924        0.03544        0.01211       -0.00168        0.07534        0.13266        0.20186        0.28310        0.40319        0.41563        0.51131        0.60196        0.63641        0.61219        0.63182        0.55238        0.44483        0.44162        0.35046        0.22813        0.18518        0.14974        0.10315        0.11906        0.06465        0.09888        0.21918        0.26330        0.33888        0.34583        0.45302        0.51264        0.53762        0.55071        0.46771        0.42648        0.39292        0.37709        0.30862        0.24971        0.20062        0.18378        0.16111        0.19161        0.17659        0.26769        0.33302        0.36372        0.42173        0.46303        0.47788        0.44583        0.39261        0.41171        0.37618        0.29165        0.27570        0.22830        0.21245        0.19304        0.21024        0.22936        0.32856        0.37281        0.36666        0.45789        0.43852        0.44051        0.42992        0.39489        0.34184        0.32916        0.27880        0.23378        0.23540        0.26792        0.27006        0.29859        0.29738        0.33971        0.33000        0.40965        0.41588        0.37405        0.34279        0.36283        0.28109        0.27943        0.26344        0.27640        0.25898        0.28141        0.29405        0.31653        0.35172        0.35747        0.35906        0.33212        0.35069        0.28731        0.32493        0.26797        0.24907        0.28176        0.28136        0.30606        0.31520        0.33084        0.32416        0.31172        0.31717        0.28700        0.28452        0.25831        0.28217        0.27132        0.31156        0.28258        0.25997        0.30784        0.31052        0.31409        0.29138        0.29848        0.29295        0.24320        0.23979        0.22063        0.27613        0.27076        0.30691        0.31614        0.32148        0.31403        0.30254        0.27781        0.28361        0.33175        0.27267        0.26695        0.29398        0.29534        0.34201        0.33995        0.36236        0.33123        0.31188        0.28098        0.26480        0.26250        0.22518        0.26410        0.30047        0.29682        0.27715        0.29462        0.27035        0.32324        0.33534        0.25047        0.21724        0.26753        0.33881        0.27943        0.31420        0.32753        0.32757        0.29699        0.32092        0.34366        0.29555        0.29407        0.26115        0.27467        0.34903        0.35128        0.25772        0.26934        0.25402        0.27568        0.22593        0.29124        0.22213        0.25110        0.32745        0.31728        0.34748        0.30015        0.23508        0.23758        0.24363        0.24411        0.17905        0.21768        0.25858        0.28984        0.28040        0.30298        0.28985        0.27722        0.28428        0.21017        0.18140        0.18725        0.23258        0.19723        0.22254        0.23384        0.20863        0.25047        0.33318        0.29272        0.30559        0.21822        0.26792        0.23331        0.28454        0.30293        0.14704        0.21514        0.21978        0.13608        0.23626        0.11699        0.17289        0.20182        0.15237       -0.12462       -0.65790
2.580441 2.553541 2.526786 2.500177 2.473713 2.447396 2.421223 2.395197 2.369316 2.343581 2.317991 2.292548 2.267249 2.242097 2.217090 2.192229 2.167513 2.142943 2.118519 2.094241 2.070108 2.046120 2.022279 1.998583 1.975032 1.951628 1.928369 1.905255 1.882288 1.859466 1.836789 1.814259 1.791874 1.769634 1.747541 1.725593 1.703790 1.682133 1.660622 1.639257 1.618037 1.596963 1.576035 1.555252 1.534615 1.514123 1.493777 1.473577 1.453523 1.433614 1.413851 1.636415 2.042003 1.613284 1.126106 0.985139 0.419459 0.810826 0.561483 0.834063 0.770626 0.786197 0.751143 0.708900 0.559223 0.510109 0.484401 0.445061 0.202251 0.377836 0.202719 0.304036 0.237019 0.179640 0.128194 0.001715 0.042480 -0.016521 -0.055230 0.102993 0.206936 0.196522 0.152629 0.330392 0.198218 0.499042 0.572526 0.545930 0.590351 0.877720 0.808428 0.946834 0.889193 0.973578 0.940866 1.081000 1.141845 1.081706 1.125877 0.956851 0.943916 0.786397 0.651712 0.768941 0.703295 0.458756 0.306942 0.253461 0.209918 0.149223 0.089219 0.125573 0.065050 0.156060 0.050225 0.261994 0.377982 0.361655 0.477856 0.584966 0.469116 0.541347 0.700064 0.753228 0.780089 0.735554 0.737054 0.719543 0.628346 0.573892 0.430880 0.285527 0.207942 0.078613 0.134863 -0.043041 -0.027822 -0.080992 -0.036471 0.008131 0.143314 0.092397 0.305281 0.277149 0.366764 0.453695 0.525504 0.511655 0.518098 0.505239 0.333212 0.306861 0.276405 0.101346 0.047331 0.001528 -0.036551 -0.042613 -0.091730 -0.101249 -0.017835 0.053923 0.138414 0.134140 0.227952 0.333625 0.307214 0.412615 0.397115 0.281737 0.232725 0.252999 0.212436 0.100116 0.073433 0.018097 0.002241 0.007188 -0.016991 0.057886 0.147342 0.143067 0.225603 0.252876 0.306552 0.260250 0.218911 0.186045 0.209720 0.151909 0.046867 0.050985 -0.011439 -0.010693 -0.032079 0.013532 0.015990 0.171411 0.123830 0.185830 0.234217 0.200751 0.194295 0.196835 0.134250 0.104120 0.065017 0.045249 -0.042351 0.007284 0.019958 0.052396 0.046159 0.075326 0.098595 0.118375 0.136615 0.182569 0.075100 0.093913 0.069333 -0.001518 0.002567 0.009181 -0.013073 0.015757 0.004093 0.031061 0.070459 0.089526 0.093801 0.049882 0.093910 0.053173 0.012272 0.062068 -0.037009 -0.015656 0.018342 -0.000929 0.048532 0.054960 0.043576 0.057789 0.044426 0.044763 0.016491 -0.004984 0.001171 0.016810 -0.012038 0.067035 -0.018137 0.005096 0.052809 0.047296 0.027651 0.045901 0.038245 0.017761 -0.025683 -0.042017 -0.017783 0.015956 0.018313 0.058615 0.059991 0.057584 0.083922 0.062131 0.026257 0.065881 0.088480 0.021258 0.026864 0.060359 0.058572 0.105418 0.115060 0.119114 0.114393 0.067026 0.048952 0.035364 0.010824 -0.001458 0.048814 0.082407 0.051271 0.032046 0.036199 0.031179 0.090257 0.072836 -0.044379 -0.050293 0.032978 0.098123 0.014538 0.036299 0.067680 0.087869 0.021005 0.058080 0.087644 0.031668 0.041260 -0.029101 0.009321 0.108292 0.067700 -0.058561 -0.018999 -0.052805 0.006084 -0.104564 0.032852 -0.113593 -0.037418 0.044693 0.022250 0.032980 -0.046467 -0.071376 -0.096003 -0.081085 -0.068668 -0.137401 -0.098461 -0.042028 0.005035 -0.032178 0.031791 -0.026846 -0.046713 0.051893 -0.113703 -0.095332 -0.099925 -0.008696 -0.065679 -0.022300 -0.013047 0.008988 0.014281 0.173062 -0.012719 0.140324 -0.004778 0.275144 0.243565 0.326222 0.276738 0.111967 0.218249 0.260166 0.056958 0.260978 0.123736 0.149799 0.257413 0.155674 -0.678778
0.072396 0.072898 0.074405 0.076917 0.080431 0.084949 0.090468 0.096987 0.104504 0.113015 0.122518 0.133009 0.144481 0.156929 0.170345 0.184719 0.200041 0.216298 0.233475 0.251554 0.270516 0.290338 0.310993 0.332453 0.354684 0.377649 0.401307 0.425612 0.450513 0.475955 0.501876 0.528210 0.554883 0.581817 0.608927 0.636121 0.663301 0.690362 0.717193 0.743674 0.769679 0.795078 0.819731 0.843493 0.866213 0.887735 0.907895 0.926528 0.943463 0.958525 0.971540 0.982328 0.990712 0.996515 0.999561 0.999681 0.996706 0.990479 0.980849 0.967675 0.950830 0.930201 0.905692 0.877224 0.844742 0.808211 0.767625 0.723002 0.674393 0.621878 0.565573 0.505628 0.442231 0.375607 0.306022 0.233780 0.159229 0.082752 0.004777 0.074231 0.153771 0.233305 0.312263 0.390045 0.466026 0.539561 0.609987 0.676632 0.738823 0.795888 0.847167 0.892020 0.929836 0.960041 0.982106 0.995560 0.999998 0.995089 0.980588 0.956340 0.922296 0.878514 0.825166 0.762548 0.691080 0.611309 0.523914 0.429696 0.329587 0.224636 0.116002 0.004952 0.107161 0.218907 0.328796 0.435298 0.536866 0.631956 0.719052 0.796696 0.863509 0.918224 0.959709 0.986998 0.999315 0.996096 0.977016 0.942004 0.891260 0.825265 0.744790 0.650893 0.544920 0.428490 0.303476 0.171991 0.036347 0.100976 0.237372 0.370156 0.496621 0.614092 0.719980 0.811855 0.887493 0.944949 0.982606 0.999231 0.994025 0.966656 0.917295 0.846634 0.755892 0.646810 0.521635 0.383082 0.234290 0.078756 0.079734 0.237202 0.389562 0.532741 0.662778 0.775948 0.868872 0.938627 0.982853 0.999843 0.988621 0.949002 0.881633 0.788002 0.670436 0.532058 0.376722 0.208922 0.033676 0.143617 0.317336 0.481821 0.631550 0.761339 0.866532 0.943173 0.988182 0.999489 0.976153 0.918434 0.827828 0.707065 0.560050 0.391762 0.208106 0.015723 0.178240 0.366390 0.541368 0.696141 0.824297 0.920328 0.979885 0.999999 0.979256 0.917904 0.817911 0.682932 0.518211 0.330411 0.127368 0.082224 0.289168 0.484160 0.658224 0.803124 0.911776 0.978625 0.999950 0.974111 0.901687 0.785528 0.630685 0.444230 0.234970 0.013051 0.210504 0.424347 0.617373 0.779308 0.901289 0.976357 0.999911 0.970016 0.887595 0.756464 0.583209 0.376902 0.148666 0.088902 0.322401 0.538384 0.724133 0.868438 0.962295 0.999514 0.977169 0.895879 0.759862 0.576786 0.357388 0.114889 0.135769 0.378829 0.598700 0.780980 0.913415 0.986773 0.995534 0.938363 0.818313 0.642742 0.422917 0.173368 0.089057 0.346279 0.580254 0.774220 0.913958 0.988860 0.992801 0.924705 0.788754 0.594217 0.354890 0.088180 0.186122 0.447291 0.675215 0.851999 0.963378 0.999959 0.958063 0.840173 0.654887 0.416377 0.143378 0.142233 0.417157 0.658572 0.846052 0.963331 0.999800 0.951531 0.821785 0.620896 0.365553 0.077488 0.218334 0.495826 0.730103 0.899737 0.988782 0.988352 0.897602 0.723996 0.482796 0.195835 0.110412 0.407201 0.666235 0.862362 0.976092 0.995616 0.918129 0.750313 0.507889 0.214244 0.101723 0.408422 0.674699 0.873039 0.982464 0.990860 0.896421 0.708069 0.444738 0.133596 0.192683 0.499304 0.753061 0.925977 0.998474 0.961696 0.818727 0.584484 0.284319 0.048645 0.377067 0.663585 0.875071 0.986545 0.984241 0.867435 0.648807 0.353209 0.014975 0.325987 0.628869 0.856857 0.981701 0.987313 0.871997 0.648939 0.344878 0.002982 0.351413 0.656512 0.879256 0.990579 0.975294 0.834327 0.584908 0.258649 0.102356
1.000000 1.000000 1.000000 1.000000 1.000000 1.000000 1.000000 1.000000 1.000000 1.000000 1.000000 1.000000 1.000000 1.000000 1.000000 1.000000 1.000000 1.000000 1.000000 1.000000 1.000000 1.000000 1.000000 1.000000 1.000000 1.000000 1.000000 1.000000 1.000000 1.000000 1.000000 1.000000 1.000000 1.000000 1.000000 1.000000 1.000000 1.000000 1.000000 1.000000 1.000000 1.000000 1.000000 1.000000 1.000000 1.000000 1.000000 1.000000 1.000000 1.000000 1.000000 1.000000 0.931972 0.931972 0.931972 0.923890 0.923890 0.923890 0.923890 0.923890 0.923890 0.923890 0.923890 0.923890 0.923890 0.923890 0.923890 0.923890 0.923890 0.923890 0.923890 0.923890 0.923890 0.923890 0.923890 0.923890 0.923890 0.923890 0.923890 0.923890 0.923890 0.923890 0.923890 0.923890 0.923890 0.923890 0.923890 0.923890 0.923890 0.923890 0.923890 0.923890 0.923890 0.923890 0.923890 0.923890 0.949863 0.951087 0.958937 0.958761 0.958248 0.956114 0.955213 0.954069 0.953623 0.953893 0.954499 0.955334 0.967099 0.968116 0.969659 0.970455 0.971154 0.971795 0.971634 0.972416 0.971645 0.971087 0.970565 0.966556 0.967213 0.967793 0.967936 0.967680 0.967235 0.971120 0.971272 0.970679 0.969825 0.967581 0.966610 0.966189 0.965902 0.966004 0.966465 0.967768 0.970953 0.970351 0.970067 0.970224 0.970322 0.970494 0.970911 0.971737 0.967718 0.966182 0.964398 0.962133 0.966314 0.963390 0.963188 0.964557 0.964959 0.965380 0.964170 0.959933 0.953936 0.953148 0.950693 0.941762 0.940766 0.941404 0.943832 0.944421 0.942947 0.935848 0.936374 0.929581 0.930904 0.934214 0.928546 0.928871 0.930052 0.929718 0.928956 0.928388 0.925526 0.922992 0.921470 0.921019 0.924016 0.923625 0.924798 0.924765 0.919339 0.911227 0.899773 0.898001 0.893308 0.896357 0.885420 0.888323 0.887221 0.882963 0.886317 0.885420 0.886396 0.883211 0.868104 0.851995 0.846143 0.850622 0.855484 0.854911 0.851005 0.844072 0.855344 0.827222 0.839359 0.848767 0.844013 0.844080 0.842113 0.840501 0.835408 0.837113 0.839071 0.840170 0.837649 0.835438 0.835547 0.814352 0.814413 0.755752 0.738141 0.729036 0.734034 0.741700 0.742391 0.740976 0.748826 0.753479 0.747502 0.731769 0.725092 0.719933 0.724607 0.722118 0.724205 0.706308 0.678369 0.673320 0.646782 0.664869 0.675485 0.640695 0.665781 0.676842 0.676481 0.675394 0.669309 0.666865 0.661227 0.662948 0.667933 0.680371 0.697816 0.721185 0.715300 0.706307 0.700410 0.679132 0.671316 0.665501 0.686089 0.664465 0.660887 0.680746 0.679690 0.663045 0.639318 0.627105 0.621061 0.616987 0.626349 0.612559 0.607077 0.599850 0.579766 0.574183 0.607122 0.622578 0.643976 0.614212 0.601283 0.590826 0.573028 0.584703 0.524651 0.524830 0.544803 0.552541 0.530821 0.517633 0.529036 0.533430 0.533810 0.524157 0.513049 0.501872 0.517646 0.551314 0.538644 0.520016 0.522510 0.521824 0.515292 0.423126 0.418009 0.392900 0.360085 0.302945 0.287855 0.280051 0.263769 0.247769 0.210428 0.207548 0.217235 0.222071 0.235292 0.237034 0.219677 0.230874 0.226483 0.213032 0.150732 0.140472 0.133701 0.122760 0.120691 0.095128 0.120293 0.192307 0.194668 0.194668 0.194668 0.194668 0.194668 0.194668 0.202125 0.202125 0.202125 0.202125 0.202125 0.202125 0.202125 0.202125 0.202125 0.214432 0.214432 0.214432 0.214432 0.214432 0.214432 0.214432 0.214432 0.214432 0.214432 0.214432 0.214432 0.214432 0.214432
0.000000 0.000000 0.000000 0.000000 0.000000 0.000000 0.000000 0.000000 0.000000 0.000000 0.000000 0.000000 0.000000 0.000000 0.000000 0.000000 0.000000 0.000000 0.000000 0.000000 0.000000 0.000000 0.000000 0.000000 0.000000 0.000000 0.000000 0.000000 0.000000 0.000000 0.000000 0.000000 0.000000 0.000000 0.000000 0.000000 0.000000 0.000000 0.000000 0.000000 0.000000 0.000000 0.000000 0.000000 0.000000 0.000000 0.000000 0.000000 0.000000 0.000000 0.000000 0.000000 0.180334 0.180334 0.180334 0.199007 0.199007 0.199007 0.199007 0.199007 0.199007 0.199007 0.199007 0.199007 0.199007 0.199007 0.199007 0.199007 0.199007 0.199007 0.199007 0.199007 0.199007 0.199007 0.199007 0.199007 0.199007 0.199007 0.199007 0.199007 0.199007 0.199007 0.199007 0.199007 0.199007 0.199007 0.199007 0.199007 0.199007 0.199007 0.199007 0.199007 0.199007 0.199007 0.199007 0.199007 0.225018 0.225018 0.225018 0.225018 0.225018 0.225018 0.225018 0.225018 0.225018 0.225018 0.225018 0.225018 0.225018 0.225018 0.225018 0.225018 0.225018 0.225018 0.225018 0.225018 0.225018 0.225018 0.225018 0.225018 0.225018 0.225018 0.225018 0.225018 0.225018 0.244339 0.244339 0.244339 0.244339 0.244339 0.244339 0.244339 0.244339 0.244339 0.244339 0.244339 0.244339 0.244339 0.244339 0.244339 0.244339 0.244339 0.244339 0.244339 0.244339 0.244339 0.244339 0.244339 0.251976 0.251976 0.251976 0.251976 0.251976 0.251976 0.251976 0.251976 0.251976 0.251976 0.251976 0.251976 0.251976 0.251976 0.251976 0.251976 0.251976 0.251976 0.251976 0.251976 0.264906 0.264906 0.264906 0.264906 0.264906 0.264906 0.264906 0.264906 0.264906 0.264906 0.264906 0.264906 0.264906 0.264906 0.264906 0.264906 0.264906 0.264906 0.264906 0.264906 0.264906 0.264906 0.264906 0.264906 0.264906 0.264906 0.264906 0.264906 0.264906 0.264906 0.264906 0.264906 0.264906 0.264906 0.264906 0.264906 0.264906 0.264906 0.264906 0.264906 0.264906 0.264906 0.264906 0.264906 0.264906 0.264906 0.264906 0.264906 0.264906 0.264906 0.264906 0.264906 0.264906 0.264906 0.264906 0.264906 0.264906 0.264906 0.264906 0.264906 0.264906 0.264906 0.256074 0.256074 0.256074 0.256074 0.256074 0.256074 0.256074 0.256074 0.256074 0.256074 0.256074 0.256074 0.256074 0.256074 0.269680 0.269680 0.269680 0.269680 0.269680 0.269680 0.269680 0.269680 0.269680 0.269680 0.269680 0.269680 0.264906 0.264906 0.264906 0.264906 0.264906 0.264906 0.264906 0.264906 0.264906 0.264906 0.264906 0.264906 0.269680 0.269680 0.269680 0.269680 0.269680 0.269680 0.269680 0.269680 0.269680 0.269680 0.269680 0.264906 0.264906 0.264906 0.264906 0.264906 0.264906 0.264906 0.264906 0.264906 0.264906 0.264906 0.256074 0.256074 0.256074 0.256074 0.256074 0.256074 0.256074 0.256074 0.256074 0.256074 0.256074 0.264906 0.264906 0.264906 0.264906 0.264906 0.264906 0.264906 0.264906 0.264906 0.264906 0.260378 0.260378 0.260378 0.260378 0.260378 0.260378 0.260378 0.260378 0.260378 0.260378 0.256074 0.256074 0.256074 0.256074 0.256074 0.256074 0.256074 0.256074 0.256074 0.256074 0.260378 0.260378 0.260378 0.260378 0.260378 0.260378 0.260378 0.260378 0.260378 0.256074 0.256074 0.256074 0.256074 0.256074 0.256074 0.256074 0.256074 0.256074 0.251976 0.251976 0.251976 0.251976 0.251976 0.251976 0.251976 0.251976 0.251976 0.251976 0.251976 0.251976 0.251976 0.251976
