# Output from CTFFind version 4.1.9, run on 2019-11-02 17:43:40
# Input file: stack16_bm3d_averaged_1_0.75_0_50_half.mrc ; Number of micrographs: 1
# Pixel size: 3.000 Angstroms ; acceleration voltage: 300.0 keV ; spherical aberration: 0.00 mm ; amplitude contrast: 0.07
# Box size: 512 pixels ; min. res.: 30.0 Angstroms ; max. res.: 5.0 Angstroms ; min. def.: 5000.0 um; max. def. 50000.0 um; num. frames averaged: 1
# 6 lines per micrograph: #1 - spatial frequency (1/Angstroms); #2 - 1D rotational average of spectrum (assuming no astigmatism); #3 - 1D rotational average of spectrum; #4 - CTF fit; #5 - cross-correlation between spectrum and CTF fit; #6 - 2sigma of expected cross correlation of noise
0.000000 0.000651 0.001302 0.001953 0.002604 0.003255 0.003906 0.004557 0.005208 0.005859 0.006510 0.007161 0.007812 0.008464 0.009115 0.009766 0.010417 0.011068 0.011719 0.012370 0.013021 0.013672 0.014323 0.014974 0.015625 0.016276 0.016927 0.017578 0.018229 0.018880 0.019531 0.020182 0.020833 0.021484 0.022135 0.022786 0.023438 0.024089 0.024740 0.025391 0.026042 0.026693 0.027344 0.027995 0.028646 0.029297 0.029948 0.030599 0.031250 0.031901 0.032552 0.033203 0.033854 0.034505 0.035156 0.035807 0.036458 0.037109 0.037760 0.038411 0.039062 0.039714 0.040365 0.041016 0.041667 0.042318 0.042969 0.043620 0.044271 0.044922 0.045573 0.046224 0.046875 0.047526 0.048177 0.048828 0.049479 0.050130 0.050781 0.051432 0.052083 0.052734 0.053385 0.054036 0.054688 0.055339 0.055990 0.056641 0.057292 0.057943 0.058594 0.059245 0.059896 0.060547 0.061198 0.061849 0.062500 0.063151 0.063802 0.064453 0.065104 0.065755 0.066406 0.067057 0.067708 0.068359 0.069010 0.069661 0.070312 0.070964 0.071615 0.072266 0.072917 0.073568 0.074219 0.074870 0.075521 0.076172 0.076823 0.077474 0.078125 0.078776 0.079427 0.080078 0.080729 0.081380 0.082031 0.082682 0.083333 0.083984 0.084635 0.085286 0.085938 0.086589 0.087240 0.087891 0.088542 0.089193 0.089844 0.090495 0.091146 0.091797 0.092448 0.093099 0.093750 0.094401 0.095052 0.095703 0.096354 0.097005 0.097656 0.098307 0.098958 0.099609 0.100260 0.100911 0.101562 0.102214 0.102865 0.103516 0.104167 0.104818 0.105469 0.106120 0.106771 0.107422 0.108073 0.108724 0.109375 0.110026 0.110677 0.111328 0.111979 0.112630 0.113281 0.113932 0.114583 0.115234 0.115885 0.116536 0.117188 0.117839 0.118490 0.119141 0.119792 0.120443 0.121094 0.121745 0.122396 0.123047 0.123698 0.124349 0.125000 0.125651 0.126302 0.126953 0.127604 0.128255 0.128906 0.129557 0.130208 0.130859 0.131510 0.132161 0.132812 0.133464 0.134115 0.134766 0.135417 0.136068 0.136719 0.137370 0.138021 0.138672 0.139323 0.139974 0.140625 0.141276 0.141927 0.142578 0.143229 0.143880 0.144531 0.145182 0.145833 0.146484 0.147135 0.147786 0.148438 0.149089 0.149740 0.150391 0.151042 0.151693 0.152344 0.152995 0.153646 0.154297 0.154948 0.155599 0.156250 0.156901 0.157552 0.158203 0.158854 0.159505 0.160156 0.160807 0.161458 0.162109 0.162760 0.163411 0.164062 0.164714 0.165365 0.166016 0.166667 0.167318 0.167969 0.168620 0.169271 0.169922 0.170573 0.171224 0.171875 0.172526 0.173177 0.173828 0.174479 0.175130 0.175781 0.176432 0.177083 0.177734 0.178385 0.179036 0.179688 0.180339 0.180990 0.181641 0.182292 0.182943 0.183594 0.184245 0.184896 0.185547 0.186198 0.186849 0.187500 0.188151 0.188802 0.189453 0.190104 0.190755 0.191406 0.192057 0.192708 0.193359 0.194010 0.194661 0.195312 0.195964 0.196615 0.197266 0.197917 0.198568 0.199219 0.199870 0.200521 0.201172 0.201823 0.202474 0.203125 0.203776 0.204427 0.205078 0.205729 0.206380 0.207031 0.207682 0.208333 0.208984 0.209635 0.210286 0.210938 0.211589 0.212240 0.212891 0.213542 0.214193 0.214844 0.215495 0.216146 0.216797 0.217448 0.218099 0.218750 0.219401 0.220052 0.220703 0.221354 0.222005 0.222656 0.223307 0.223958 0.224609 0.225260 0.225911 0.226562 0.227214 0.227865 0.228516 0.229167 0.229818 0.230469 0.231120 0.231771 0.232422 0.233073 0.233724 0.234375 0.235026 0.235677
       0.34028        0.34028        0.34028        0.34028        0.34028        0.34028        0.34028        0.34028        0.34028        0.34028        0.34028        0.34028        0.34028        0.34028        0.34028        0.34028        0.34028        0.34028        0.34028        0.34028        0.34028        0.34028        0.34028        0.34028        0.34028        0.34028        0.34028        0.34028        0.34028        0.34028        0.34028        0.34028        0.34028        0.34028        0.34028        0.34028        0.34028        0.34028        0.34028        0.34028        0.34028        0.34028        0.34028        0.34028        0.34028        0.34028        0.34028        0.34028        0.34028        0.34028        0.34028        0.48698        0.70011        0.45446       -0.11562       -0.41456       -0.57525       -0.66734       -0.74875       -0.76729       -0.87178       -0.91822       -0.76132       -0.92740       -0.87474       -1.02653       -1.10129       -0.99143       -0.96615       -0.88580       -0.86273       -0.75297       -0.64370       -0.50320       -0.42831       -0.22237       -0.11838       -0.02209        0.20224        0.24247        0.30583        0.37985        0.43543        0.51346        0.57622        0.59311        0.58830        0.49800        0.54116        0.48471        0.38944        0.31727        0.20210        0.16748        0.09936       -0.06183       -0.11006       -0.09534        0.00797       -0.01735        0.01397        0.02503        0.20709        0.21742        0.38995        0.45356        0.55689        0.69208        0.75578        0.72851        0.70056        0.69668        0.57911        0.53650        0.39787        0.26917        0.18935        0.14315        0.06661        0.02356        0.02026        0.06190        0.07391        0.26770        0.41547        0.50623        0.58789        0.63696        0.70052        0.65714        0.64834        0.66729        0.60617        0.47776        0.28304        0.23535        0.20627        0.12680        0.04009        0.08820        0.12082        0.24720        0.33766        0.41429        0.49962        0.53559        0.65902        0.60664        0.55452        0.51145        0.36158        0.20924        0.21226        0.15014        0.11391        0.12179        0.21527        0.24906        0.35299        0.43915        0.43713        0.55724        0.50606        0.44678        0.45372        0.37901        0.32159        0.27292        0.21374        0.23343        0.20730        0.20343        0.31772        0.44952        0.48113        0.47866        0.55027        0.49296        0.45303        0.39081        0.29371        0.22345        0.22991        0.24021        0.26334        0.27731        0.32301        0.44008        0.49769        0.48429        0.45744        0.41222        0.38552        0.35996        0.24795        0.22106        0.24249        0.29162        0.35414        0.35837        0.38639        0.41139        0.44118        0.36929        0.34610        0.31127        0.30296        0.26695        0.25668        0.30209        0.34312        0.41194        0.41270        0.39280        0.39257        0.40214        0.34663        0.28662        0.29105        0.27956        0.30530        0.35664        0.36848        0.41627        0.35531        0.36616        0.38644        0.34475        0.31726        0.27935        0.29352        0.33764        0.32505        0.32110        0.36939        0.38652        0.32745        0.34976        0.29772        0.30621        0.28372        0.28177        0.29793        0.32973        0.38304        0.36258        0.34354        0.32316        0.28165        0.27385        0.29417        0.28068        0.31064        0.36392        0.39229        0.33468        0.31681        0.30653        0.29682        0.28144        0.28166        0.29832        0.33614        0.33847        0.33744        0.31130        0.34449        0.31863        0.28807        0.31484        0.31867        0.33089        0.34217        0.31794        0.31251        0.30309        0.32378        0.30812        0.33317        0.38215        0.32534        0.36056        0.31759        0.31001        0.29137        0.30844        0.28989        0.30433        0.31200        0.34525        0.35540        0.31271        0.32018        0.31457        0.29069        0.28679        0.28988        0.32531        0.34526        0.35325        0.32899        0.31955        0.25887        0.25663        0.31552        0.34141        0.32501        0.30014        0.28080        0.28489        0.32151        0.30915        0.31251        0.33414        0.34012        0.30145        0.23717        0.29007        0.27976        0.28297        0.32128        0.31894        0.33947        0.33776        0.27980        0.26863        0.29457        0.27480        0.29215        0.27374        0.25004        0.25905        0.24518        0.28078        0.28186        0.27466        0.25957        0.31862        0.32132        0.31027        0.27337        0.29394        0.24367        0.26415        0.25444        0.33459        0.34863        0.23125        0.24831        0.26356        0.23669        0.24185        0.29430        0.22114        0.14248        0.17432        0.24383        0.26948        0.22316        0.11736        0.05017       -0.43645       -0.78853
3.159525 3.119851 3.080433 3.041271 3.002366 2.963717 2.925324 2.887188 2.849307 2.811683 2.774316 2.737204 2.700349 2.663750 2.627408 2.591322 2.555492 2.519918 2.484601 2.449540 2.414735 2.380186 2.345894 2.311858 2.278078 2.244555 2.211288 2.178277 2.145523 2.113025 2.080783 2.048797 2.017068 1.985595 1.954378 1.923418 1.892714 1.862266 1.832074 1.802139 1.772460 1.743037 1.713871 1.684960 1.656307 1.627909 1.599768 1.571883 1.544254 1.516882 1.489766 1.548176 1.735491 1.648228 0.989966 0.707294 0.496752 0.446409 0.339475 0.277769 0.214788 0.031820 0.211548 0.092648 0.001943 -0.047879 -0.194069 -0.146331 -0.086022 -0.085757 -0.092088 0.016317 0.035296 0.241275 0.153021 0.369094 0.453208 0.487391 0.724341 0.708149 0.715060 0.843845 0.827425 0.860541 0.926731 0.898929 0.944446 0.754227 0.838552 0.844259 0.624436 0.603822 0.453642 0.432486 0.380792 0.206782 0.118403 0.092154 0.200193 0.139967 0.192135 0.103448 0.296229 0.289774 0.452082 0.408539 0.575363 0.634304 0.754988 0.691043 0.655747 0.657928 0.521673 0.495439 0.357568 0.282889 0.104489 0.131921 -0.007041 -0.024638 -0.052995 -0.040075 -0.016300 0.016521 0.264959 0.321030 0.376211 0.389937 0.456266 0.484410 0.438311 0.484021 0.379363 0.369079 0.130097 0.048926 0.052872 -0.026832 -0.152071 -0.069645 -0.133936 -0.006028 0.112375 0.136543 0.235468 0.235809 0.363160 0.440769 0.330229 0.371744 0.258732 0.101554 0.028217 0.025957 -0.010764 -0.019907 -0.014342 0.084737 0.102176 0.239853 0.216157 0.285580 0.347152 0.219103 0.232954 0.203941 0.117250 0.067360 0.033934 0.014587 0.025141 -0.031290 0.010715 0.174668 0.214167 0.234709 0.274048 0.230628 0.255902 0.151320 0.115597 -0.012396 -0.012385 0.005358 0.022799 0.021561 0.040047 0.114443 0.203032 0.216137 0.212327 0.136606 0.144661 0.079898 0.058538 -0.061719 -0.019074 -0.006453 0.056633 0.066487 0.073108 0.150931 0.087448 0.173037 0.069184 0.048154 0.049019 0.028588 0.004955 0.005195 0.050665 0.084764 0.130643 0.133925 0.074484 0.132898 0.099051 0.017327 0.010015 0.008792 -0.002728 0.055508 0.062532 0.104346 0.098395 0.076789 0.067352 0.080765 0.037249 0.018990 -0.015655 0.012667 0.056981 0.025089 0.036230 0.087989 0.080690 0.056027 0.033275 0.014210 0.016589 -0.007022 -0.006785 0.013310 0.062424 0.098444 0.064311 0.056748 0.039703 -0.014004 -0.001943 0.016150 0.014386 0.028100 0.105483 0.060571 0.023263 0.045217 0.001622 0.028831 -0.010854 0.004359 0.021517 0.062296 0.045111 0.042011 0.027474 0.055092 0.026348 -0.001743 0.033296 0.040206 0.041386 0.044738 0.025486 0.002967 -0.010558 0.029134 0.004246 0.046896 0.070843 0.044242 0.022853 0.004619 0.000870 -0.004780 0.008266 0.002433 0.007412 -0.007647 0.070947 0.047097 0.033666 0.042347 0.001297 0.009851 0.002827 -0.006311 0.054862 0.060589 0.081265 0.041747 0.046219 -0.028050 0.001740 0.040398 0.074545 0.037789 0.021555 0.002280 0.000929 0.047008 0.049580 0.039813 0.069174 0.065751 0.045264 -0.024656 0.022763 0.039345 0.022657 0.046762 0.066523 0.082586 0.065670 0.017838 0.008484 0.020407 0.006607 0.024760 -0.016728 -0.017738 -0.015601 -0.053838 0.007698 -0.003642 0.005922 -0.058079 -0.001636 0.012864 0.000734 -0.044222 0.021743 -0.087525 -0.023992 -0.040641 0.040627 0.072462 -0.104094 -0.028391 0.031624 0.004958 -0.045693 0.042606 0.019447 -0.008116 -0.043815 0.065891 0.234813 0.204739 0.059672 0.048031 -0.698801
0.072396 0.073046 0.074994 0.078240 0.082783 0.088622 0.095754 0.104176 0.113885 0.124875 0.137140 0.150672 0.165460 0.181491 0.198751 0.217221 0.236879 0.257699 0.279650 0.302698 0.326801 0.351912 0.377979 0.404941 0.432729 0.461268 0.490472 0.520249 0.550493 0.581092 0.611921 0.642846 0.673719 0.704383 0.734670 0.764399 0.793379 0.821407 0.848270 0.873744 0.897597 0.919588 0.939468 0.956984 0.971876 0.983884 0.992746 0.998203 0.999998 0.997885 0.991624 0.980992 0.965783 0.945808 0.920907 0.890948 0.855829 0.815488 0.769904 0.719100 0.663151 0.602183 0.536380 0.465986 0.391310 0.312721 0.230661 0.145635 0.058218 0.030950 0.121166 0.211662 0.301618 0.390159 0.476371 0.559301 0.637974 0.711401 0.778591 0.838566 0.890379 0.933126 0.965965 0.988133 0.998966 0.997916 0.984566 0.958653 0.920078 0.868926 0.805473 0.730201 0.643802 0.547184 0.441466 0.327982 0.208262 0.084029 0.042832 0.170286 0.296186 0.418304 0.534367 0.642107 0.739300 0.823821 0.893693 0.947141 0.982641 0.998974 0.995270 0.971051 0.926269 0.861330 0.777118 0.674997 0.556816 0.424882 0.281938 0.131113 0.024129 0.180068 0.332812 0.478384 0.612837 0.732359 0.833392 0.912746 0.967714 0.996178 0.996706 0.968630 0.912112 0.828181 0.718748 0.586590 0.435310 0.269256 0.093421 0.086701 0.265265 0.436271 0.593759 0.732031 0.845860 0.930713 0.982944 0.999983 0.980479 0.924413 0.833162 0.709514 0.557617 0.382881 0.191816 0.008191 0.209141 0.402736 0.580720 0.735243 0.859218 0.946676 0.993079 0.995595 0.953298 0.867298 0.740772 0.578907 0.388733 0.178853 0.040905 0.259937 0.467356 0.652547 0.805719 0.918447 0.984181 0.998662 0.960250 0.870116 0.732290 0.553545 0.343133 0.112346 0.126050 0.358496 0.571416 0.752010 0.889059 0.973660 0.999860 0.965135 0.870674 0.721441 0.525999 0.296089 0.045983 0.208363 0.450300 0.663589 0.833499 0.947881 0.998087 0.979698 0.892985 0.743051 0.539632 0.296549 0.030848 0.238356 0.491231 0.708685 0.873851 0.973439 0.998894 0.947208 0.821348 0.630212 0.388109 0.113784 0.170977 0.443029 0.679756 0.860979 0.970729 0.998759 0.941588 0.803021 0.594046 0.332078 0.039622 0.257609 0.532901 0.760969 0.920317 0.995346 0.977996 0.868733 0.676756 0.419369 0.120559 0.191161 0.485423 0.732952 0.908531 0.993664 0.978636 0.863770 0.659677 0.386440 0.071787 0.251639 0.549608 0.789947 0.946061 0.999999 0.944665 0.784903 0.537273 0.228524 0.107176 0.431926 0.708363 0.903995 0.995141 0.969935 0.830055 0.590876 0.279989 0.065832 0.404876 0.695497 0.901265 0.995656 0.965632 0.813639 0.557694 0.229461 0.129497 0.472872 0.755577 0.939725 0.999845 0.926603 0.728465 0.430982 0.073710 0.294877 0.623907 0.867145 0.989600 0.972754 0.817589 0.544917 0.192857 0.188322 0.543227 0.819423 0.975247 0.986292 0.849477 0.584007 0.228967 0.162204 0.529633 0.816148 0.976281 0.983680 0.835713 0.554427 0.183570 0.217977 0.585424 0.858515 0.991540 0.961220 0.771070 0.451414 0.054847 0.352186 0.700423 0.929617 0.999149 0.895500 0.635198 0.262559 0.157564 0.550879 0.846787 0.991158 0.956504 0.747552 0.401047 0.020345 0.439155 0.777243 0.970475 0.981122 0.805584 0.475772 0.053685 0.379927 0.740922 0.958153 0.987698 0.822129 0.492712 0.063920 0.378876 0.746264 0.962908 0.983260 0.801509 0.453558 0.010396 0.436098 0.792090 0.981566 0.962898 0.738383 0.354612 0.106772 0.546138
1.000000 1.000000 1.000000 1.000000 1.000000 1.000000 1.000000 1.000000 1.000000 1.000000 1.000000 1.000000 1.000000 1.000000 1.000000 1.000000 1.000000 1.000000 1.000000 1.000000 1.000000 1.000000 1.000000 1.000000 1.000000 1.000000 1.000000 1.000000 1.000000 1.000000 1.000000 1.000000 1.000000 1.000000 1.000000 1.000000 1.000000 1.000000 1.000000 1.000000 1.000000 1.000000 1.000000 1.000000 1.000000 1.000000 1.000000 1.000000 1.000000 1.000000 1.000000 1.000000 0.943577 0.943577 0.943577 0.943577 0.943577 0.943577 0.943577 0.943577 0.943577 0.943577 0.943577 0.943577 0.943577 0.943577 0.943577 0.943577 0.943577 0.943577 0.943577 0.943577 0.943577 0.943577 0.943577 0.943577 0.943577 0.943577 0.943577 0.943577 0.943577 0.943577 0.943577 0.943577 0.943577 0.924820 0.926255 0.929184 0.930243 0.930208 0.929758 0.929438 0.929637 0.931324 0.933610 0.950279 0.952385 0.953032 0.954339 0.954794 0.957773 0.956688 0.959615 0.968578 0.967584 0.967851 0.968282 0.969768 0.970142 0.970117 0.968908 0.969195 0.968820 0.968013 0.967187 0.966891 0.966601 0.968211 0.968528 0.968449 0.968861 0.968624 0.968294 0.964644 0.963341 0.964639 0.966362 0.966023 0.972244 0.972536 0.979854 0.979692 0.978134 0.978041 0.978138 0.978261 0.968297 0.963017 0.958051 0.946873 0.937866 0.935171 0.937378 0.938182 0.936996 0.932250 0.931393 0.929442 0.924919 0.924177 0.923082 0.924612 0.919491 0.915476 0.897870 0.895953 0.898303 0.898193 0.896339 0.888590 0.883792 0.884435 0.887420 0.890345 0.887503 0.889921 0.886495 0.887844 0.888749 0.890513 0.893661 0.890511 0.888867 0.884300 0.880983 0.875691 0.877146 0.863086 0.866507 0.858654 0.845523 0.837516 0.841057 0.851295 0.860345 0.868474 0.867222 0.867584 0.867481 0.861922 0.863154 0.853816 0.854566 0.859427 0.865570 0.861838 0.859668 0.864786 0.862749 0.865842 0.868645 0.865595 0.863433 0.854502 0.855127 0.855178 0.872321 0.871414 0.859613 0.852057 0.841407 0.848042 0.852907 0.851658 0.852611 0.846662 0.848995 0.839747 0.825336 0.828070 0.833454 0.830734 0.832322 0.831381 0.835900 0.836783 0.836352 0.832788 0.831362 0.838773 0.814530 0.823404 0.828317 0.823017 0.826860 0.821056 0.813851 0.808761 0.807642 0.808028 0.816459 0.812690 0.782573 0.778160 0.786266 0.766008 0.756539 0.753755 0.754777 0.740739 0.722492 0.695746 0.687854 0.671980 0.676864 0.664873 0.646658 0.636194 0.621824 0.612096 0.626019 0.627838 0.596310 0.595941 0.588048 0.583980 0.579712 0.573604 0.568584 0.574897 0.582432 0.546502 0.542478 0.547029 0.520910 0.518493 0.518634 0.511828 0.485270 0.494063 0.492064 0.513810 0.535113 0.501001 0.494825 0.509691 0.526531 0.539256 0.540756 0.524080 0.498717 0.507981 0.479950 0.465950 0.480261 0.485090 0.466703 0.487151 0.483602 0.519522 0.513031 0.489287 0.512387 0.526979 0.531028 0.532097 0.545344 0.526187 0.529866 0.516182 0.470662 0.490520 0.472951 0.421788 0.428503 0.441791 0.435035 0.434576 0.408221 0.408704 0.385466 0.354039 0.359138 0.352972 0.319972 0.284749 0.287074 0.289693 0.257032 0.227365 0.248089 0.197511 0.187448 0.203638 0.212910 0.204525 0.206504 0.229663 0.229663 0.229663 0.229663 0.229663 0.229663 0.229663 0.229663 0.229663 0.229663 0.229663 0.229663 0.229663 0.229663 0.255987 0.255987 0.255987 0.255987 0.255987 0.255987 0.255987 0.255987 0.255987 0.255987 0.255987 0.255987
0.000000 0.000000 0.000000 0.000000 0.000000 0.000000 0.000000 0.000000 0.000000 0.000000 0.000000 0.000000 0.000000 0.000000 0.000000 0.000000 0.000000 0.000000 0.000000 0.000000 0.000000 0.000000 0.000000 0.000000 0.000000 0.000000 0.000000 0.000000 0.000000 0.000000 0.000000 0.000000 0.000000 0.000000 0.000000 0.000000 0.000000 0.000000 0.000000 0.000000 0.000000 0.000000 0.000000 0.000000 0.000000 0.000000 0.000000 0.000000 0.000000 0.000000 0.000000 0.000000 0.209657 0.209657 0.209657 0.209657 0.209657 0.209657 0.209657 0.209657 0.209657 0.209657 0.209657 0.209657 0.209657 0.209657 0.209657 0.209657 0.209657 0.209657 0.209657 0.209657 0.209657 0.209657 0.209657 0.209657 0.209657 0.209657 0.209657 0.209657 0.209657 0.209657 0.209657 0.209657 0.209657 0.244339 0.244339 0.244339 0.244339 0.244339 0.244339 0.244339 0.244339 0.244339 0.244339 0.244339 0.244339 0.244339 0.244339 0.244339 0.244339 0.244339 0.244339 0.244339 0.244339 0.244339 0.244339 0.244339 0.244339 0.244339 0.260378 0.260378 0.260378 0.260378 0.260378 0.260378 0.260378 0.260378 0.260378 0.260378 0.260378 0.260378 0.260378 0.260378 0.260378 0.260378 0.260378 0.260378 0.260378 0.260378 0.269680 0.269680 0.269680 0.269680 0.269680 0.269680 0.269680 0.269680 0.269680 0.269680 0.269680 0.269680 0.269680 0.269680 0.269680 0.269680 0.269680 0.269680 0.269680 0.269680 0.269680 0.269680 0.269680 0.269680 0.269680 0.269680 0.269680 0.269680 0.269680 0.269680 0.269680 0.269680 0.269680 0.280056 0.280056 0.280056 0.280056 0.280056 0.280056 0.280056 0.280056 0.280056 0.280056 0.280056 0.280056 0.280056 0.280056 0.280056 0.280056 0.280056 0.280056 0.280056 0.280056 0.280056 0.280056 0.280056 0.280056 0.280056 0.280056 0.280056 0.274721 0.274721 0.274721 0.274721 0.274721 0.274721 0.274721 0.274721 0.274721 0.274721 0.274721 0.274721 0.274721 0.285714 0.285714 0.285714 0.285714 0.285714 0.285714 0.285714 0.285714 0.285714 0.285714 0.285714 0.280056 0.280056 0.280056 0.280056 0.280056 0.280056 0.280056 0.280056 0.280056 0.280056 0.280056 0.274721 0.274721 0.274721 0.274721 0.274721 0.274721 0.274721 0.274721 0.274721 0.274721 0.274721 0.280056 0.280056 0.280056 0.280056 0.280056 0.280056 0.280056 0.280056 0.280056 0.280056 0.285714 0.285714 0.285714 0.285714 0.285714 0.285714 0.285714 0.285714 0.285714 0.269680 0.269680 0.269680 0.269680 0.269680 0.269680 0.269680 0.269680 0.269680 0.269680 0.274721 0.274721 0.274721 0.274721 0.274721 0.274721 0.274721 0.274721 0.274721 0.285714 0.285714 0.285714 0.285714 0.285714 0.285714 0.285714 0.285714 0.264906 0.264906 0.264906 0.264906 0.264906 0.264906 0.264906 0.264906 0.264906 0.274721 0.274721 0.274721 0.274721 0.274721 0.274721 0.274721 0.274721 0.269680 0.269680 0.269680 0.269680 0.269680 0.269680 0.269680 0.269680 0.269680 0.269680 0.269680 0.269680 0.269680 0.269680 0.269680 0.269680 0.280056 0.280056 0.280056 0.280056 0.280056 0.280056 0.280056 0.260378 0.260378 0.260378 0.260378 0.260378 0.260378 0.260378 0.260378 0.269680 0.269680 0.269680 0.269680 0.269680 0.269680 0.269680 0.264906 0.264906 0.264906 0.264906 0.264906 0.264906 0.264906 0.264906 0.264906 0.264906 0.264906 0.264906 0.264906 0.264906 0.260378 0.260378 0.260378 0.260378 0.260378 0.260378 0.260378 0.260378 0.260378 0.260378 0.260378 0.260378
