# Output from CTFFind version 4.1.9, run on 2019-11-03 20:05:32
# Input file: stack16_bm3d_averaged_1_6.0_0_750_half.mrc ; Number of micrographs: 1
# Pixel size: 3.000 Angstroms ; acceleration voltage: 300.0 keV ; spherical aberration: 0.00 mm ; amplitude contrast: 0.07
# Box size: 512 pixels ; min. res.: 30.0 Angstroms ; max. res.: 5.0 Angstroms ; min. def.: 5000.0 um; max. def. 50000.0 um; num. frames averaged: 1
# 6 lines per micrograph: #1 - spatial frequency (1/Angstroms); #2 - 1D rotational average of spectrum (assuming no astigmatism); #3 - 1D rotational average of spectrum; #4 - CTF fit; #5 - cross-correlation between spectrum and CTF fit; #6 - 2sigma of expected cross correlation of noise
0.000000 0.000651 0.001302 0.001953 0.002604 0.003255 0.003906 0.004557 0.005208 0.005859 0.006510 0.007161 0.007812 0.008464 0.009115 0.009766 0.010417 0.011068 0.011719 0.012370 0.013021 0.013672 0.014323 0.014974 0.015625 0.016276 0.016927 0.017578 0.018229 0.018880 0.019531 0.020182 0.020833 0.021484 0.022135 0.022786 0.023438 0.024089 0.024740 0.025391 0.026042 0.026693 0.027344 0.027995 0.028646 0.029297 0.029948 0.030599 0.031250 0.031901 0.032552 0.033203 0.033854 0.034505 0.035156 0.035807 0.036458 0.037109 0.037760 0.038411 0.039062 0.039714 0.040365 0.041016 0.041667 0.042318 0.042969 0.043620 0.044271 0.044922 0.045573 0.046224 0.046875 0.047526 0.048177 0.048828 0.049479 0.050130 0.050781 0.051432 0.052083 0.052734 0.053385 0.054036 0.054688 0.055339 0.055990 0.056641 0.057292 0.057943 0.058594 0.059245 0.059896 0.060547 0.061198 0.061849 0.062500 0.063151 0.063802 0.064453 0.065104 0.065755 0.066406 0.067057 0.067708 0.068359 0.069010 0.069661 0.070312 0.070964 0.071615 0.072266 0.072917 0.073568 0.074219 0.074870 0.075521 0.076172 0.076823 0.077474 0.078125 0.078776 0.079427 0.080078 0.080729 0.081380 0.082031 0.082682 0.083333 0.083984 0.084635 0.085286 0.085938 0.086589 0.087240 0.087891 0.088542 0.089193 0.089844 0.090495 0.091146 0.091797 0.092448 0.093099 0.093750 0.094401 0.095052 0.095703 0.096354 0.097005 0.097656 0.098307 0.098958 0.099609 0.100260 0.100911 0.101562 0.102214 0.102865 0.103516 0.104167 0.104818 0.105469 0.106120 0.106771 0.107422 0.108073 0.108724 0.109375 0.110026 0.110677 0.111328 0.111979 0.112630 0.113281 0.113932 0.114583 0.115234 0.115885 0.116536 0.117188 0.117839 0.118490 0.119141 0.119792 0.120443 0.121094 0.121745 0.122396 0.123047 0.123698 0.124349 0.125000 0.125651 0.126302 0.126953 0.127604 0.128255 0.128906 0.129557 0.130208 0.130859 0.131510 0.132161 0.132812 0.133464 0.134115 0.134766 0.135417 0.136068 0.136719 0.137370 0.138021 0.138672 0.139323 0.139974 0.140625 0.141276 0.141927 0.142578 0.143229 0.143880 0.144531 0.145182 0.145833 0.146484 0.147135 0.147786 0.148438 0.149089 0.149740 0.150391 0.151042 0.151693 0.152344 0.152995 0.153646 0.154297 0.154948 0.155599 0.156250 0.156901 0.157552 0.158203 0.158854 0.159505 0.160156 0.160807 0.161458 0.162109 0.162760 0.163411 0.164062 0.164714 0.165365 0.166016 0.166667 0.167318 0.167969 0.168620 0.169271 0.169922 0.170573 0.171224 0.171875 0.172526 0.173177 0.173828 0.174479 0.175130 0.175781 0.176432 0.177083 0.177734 0.178385 0.179036 0.179688 0.180339 0.180990 0.181641 0.182292 0.182943 0.183594 0.184245 0.184896 0.185547 0.186198 0.186849 0.187500 0.188151 0.188802 0.189453 0.190104 0.190755 0.191406 0.192057 0.192708 0.193359 0.194010 0.194661 0.195312 0.195964 0.196615 0.197266 0.197917 0.198568 0.199219 0.199870 0.200521 0.201172 0.201823 0.202474 0.203125 0.203776 0.204427 0.205078 0.205729 0.206380 0.207031 0.207682 0.208333 0.208984 0.209635 0.210286 0.210938 0.211589 0.212240 0.212891 0.213542 0.214193 0.214844 0.215495 0.216146 0.216797 0.217448 0.218099 0.218750 0.219401 0.220052 0.220703 0.221354 0.222005 0.222656 0.223307 0.223958 0.224609 0.225260 0.225911 0.226562 0.227214 0.227865 0.228516 0.229167 0.229818 0.230469 0.231120 0.231771 0.232422 0.233073 0.233724 0.234375 0.235026 0.235677
       0.34677        0.34677        0.34677        0.34677        0.34677        0.34677        0.34677        0.34677        0.34677        0.34677        0.34677        0.34677        0.34677        0.34677        0.34677        0.34677        0.34677        0.34677        0.34677        0.34677        0.34677        0.34677        0.34677        0.34677        0.34677        0.34677        0.34677        0.34677        0.34677        0.34677        0.34677        0.34677        0.34677        0.34677        0.34677        0.34677        0.34677        0.34677        0.34677        0.34677        0.34677        0.34677        0.34677        0.34677        0.34677        0.34677        0.34677        0.34677        0.34677        0.34677        0.34677        0.42665        0.55645        0.34236       -0.21416       -0.45332       -0.54682       -0.64744       -0.71713       -0.72480       -0.81966       -0.89245       -0.68515       -0.84070       -0.82275       -0.96676       -1.00476       -0.88629       -0.84526       -0.80128       -0.71558       -0.64627       -0.55741       -0.46354       -0.39828       -0.16971       -0.06730        0.03398        0.25613        0.25642        0.31352        0.37060        0.40106        0.51864        0.53721        0.57268        0.53241        0.47279        0.50561        0.52502        0.44758        0.33037        0.21288        0.17969        0.11047        0.00765       -0.00868       -0.01753        0.05493        0.02129        0.07323        0.04690        0.16261        0.19473        0.40703        0.45886        0.54870        0.65756        0.68730        0.71344        0.63617        0.61108        0.53893        0.43945        0.38713        0.27506        0.21686        0.21205        0.10059        0.10928        0.10607        0.08522        0.09522        0.30481        0.41474        0.52157        0.53277        0.56997        0.60758        0.58729        0.57355        0.58266        0.56609        0.46592        0.30445        0.26408        0.25328        0.14840        0.08999        0.16689        0.20480        0.28422        0.35254        0.42513        0.47197        0.52994        0.60087        0.54498        0.50600        0.50107        0.35522        0.27363        0.25848        0.17460        0.19456        0.23340        0.27415        0.28131        0.32521        0.42692        0.46098        0.49865        0.45183        0.44225        0.48523        0.39231        0.32881        0.28623        0.25824        0.23138        0.22843        0.23802        0.33608        0.44284        0.43027        0.48872        0.55320        0.44663        0.41147        0.35560        0.31362        0.26941        0.28037        0.26969        0.28830        0.34714        0.35565        0.43515        0.47195        0.43797        0.45941        0.37438        0.37779        0.35398        0.26953        0.25102        0.24831        0.32847        0.37830        0.36518        0.38909        0.43239        0.44025        0.37581        0.33831        0.32054        0.35063        0.31329        0.28076        0.28353        0.35401        0.37132        0.38823        0.38805        0.38870        0.41757        0.40329        0.32180        0.28849        0.31423        0.34227        0.37623        0.35955        0.40345        0.34288        0.36990        0.39183        0.33666        0.35384        0.31993        0.30026        0.33709        0.34193        0.32801        0.35394        0.37178        0.32681        0.34623        0.31959        0.31569        0.29457        0.31927        0.31710        0.32694        0.36544        0.37133        0.35367        0.30788        0.29871        0.28591        0.32914        0.31137        0.31418        0.36947        0.35762        0.34094        0.31414        0.30445        0.30957        0.27528        0.31390        0.32781        0.33694        0.36993        0.34935        0.30978        0.33509        0.34554        0.32918        0.35526        0.34563        0.31204        0.33255        0.29166        0.32150        0.29528        0.31318        0.28727        0.32024        0.35216        0.32984        0.35417        0.31129        0.32847        0.35072        0.33981        0.31562        0.31939        0.35877        0.34035        0.33677        0.32570        0.31131        0.31333        0.31414        0.32320        0.32154        0.35404        0.33836        0.33749        0.29278        0.28435        0.26727        0.27004        0.36189        0.31065        0.34411        0.29616        0.26192        0.27752        0.36299        0.30743        0.28270        0.31097        0.31641        0.29575        0.26441        0.30498        0.26974        0.29003        0.30551        0.33457        0.33357        0.31972        0.30739        0.26586        0.27333        0.26828        0.27434        0.29440        0.36003        0.29323        0.19889        0.30295        0.28746        0.32367        0.25248        0.29812        0.29928        0.33396        0.29005        0.27665        0.26648        0.24367        0.30203        0.34186        0.34040        0.24777        0.29609        0.24325        0.23328        0.21363        0.33160        0.25139        0.17289        0.12044        0.20768        0.33288        0.23150        0.19150        0.11397       -0.47611       -0.58008
3.176107 3.135877 3.095908 3.056200 3.016754 2.977567 2.938642 2.899977 2.861573 2.823430 2.785548 2.747926 2.710566 2.673466 2.636627 2.600049 2.563731 2.527675 2.491879 2.456344 2.421070 2.386056 2.351304 2.316812 2.282581 2.248611 2.214901 2.181453 2.148265 2.115338 2.082672 2.050267 2.018122 1.986238 1.954616 1.923253 1.892152 1.861312 1.830732 1.800413 1.770355 1.740558 1.711021 1.681746 1.652731 1.623977 1.595484 1.567251 1.539280 1.511569 1.484119 1.519282 1.597588 1.537780 0.842335 0.593658 0.454608 0.386113 0.290427 0.215943 0.182597 -0.050784 0.204325 0.070084 -0.031286 -0.111314 -0.238652 -0.145368 -0.056917 -0.093721 -0.075294 0.034964 0.032654 0.226527 0.106595 0.354630 0.461240 0.489992 0.765769 0.683267 0.692178 0.823466 0.795136 0.837960 0.916384 0.856612 0.887330 0.724683 0.788854 0.843389 0.684480 0.603704 0.435103 0.425498 0.335904 0.188930 0.184864 0.114897 0.208482 0.119866 0.208790 0.105057 0.216703 0.228878 0.441470 0.403326 0.574054 0.613020 0.640894 0.720600 0.608593 0.581248 0.459389 0.411026 0.290519 0.262682 0.094773 0.154663 -0.027140 0.037552 -0.032228 -0.041954 -0.053481 0.028495 0.268815 0.292980 0.361575 0.303203 0.386371 0.423227 0.397255 0.401084 0.357478 0.331455 0.124172 0.077241 0.064032 -0.018380 -0.152935 -0.049042 -0.066008 0.038023 0.079380 0.152975 0.218450 0.226991 0.322133 0.400274 0.290134 0.362767 0.235606 0.140545 0.066365 0.037347 0.001771 0.048860 0.070665 0.097644 0.117392 0.173897 0.243313 0.300369 0.277428 0.212197 0.254202 0.226459 0.110345 0.064072 0.051486 0.027100 0.006933 -0.016944 0.031478 0.168865 0.189644 0.191039 0.305471 0.183288 0.195988 0.075150 0.067780 0.007172 -0.007111 -0.000673 -0.008565 0.043141 0.064650 0.096314 0.156749 0.144814 0.213058 0.133377 0.077498 0.099309 0.045035 -0.053641 -0.022366 0.024164 0.062937 0.074210 0.069061 0.150316 0.124580 0.150421 0.036774 0.046576 0.050096 0.048376 0.026354 -0.021031 0.039779 0.047327 0.090711 0.100778 0.089791 0.110659 0.125043 0.079059 0.013571 -0.006949 0.026854 0.077396 0.068803 0.092327 0.090040 0.049584 0.108960 0.066335 0.041971 0.079789 -0.015591 0.016086 0.063738 0.040835 0.040834 0.066670 0.073336 0.049480 0.063830 0.014449 0.019799 0.003217 0.052466 0.007416 0.042473 0.073919 0.073770 0.041957 -0.007232 -0.004058 -0.019020 0.039496 0.000557 0.012175 0.071016 0.052282 -0.000722 0.010492 -0.014678 0.008403 -0.042013 0.003753 0.010613 0.036698 0.042834 0.027215 -0.010451 0.005278 0.023864 0.004540 0.039750 0.011917 -0.017251 0.039828 -0.049707 -0.024479 -0.054601 -0.012389 -0.058442 0.009531 0.024847 -0.005757 -0.009093 -0.004551 0.001275 0.026539 0.019184 -0.011948 0.005147 0.026054 0.038112 0.021070 0.009214 0.021257 0.000563 -0.002408 0.018199 -0.005156 0.075573 0.058062 0.029834 0.002144 -0.010308 -0.033363 0.000615 0.077398 -0.011015 0.069027 -0.019000 -0.024512 -0.021047 0.095498 0.000157 -0.021600 0.048705 0.049626 0.010962 0.004941 0.023449 0.003513 0.032069 0.025411 0.087630 0.060986 0.048605 0.039592 -0.006241 0.009319 -0.003472 0.001603 0.019063 0.101279 -0.018731 -0.092507 0.050182 -0.001106 0.057820 -0.051588 0.001000 0.010308 0.025622 0.003605 -0.018648 -0.031164 -0.058644 0.039995 0.056146 0.055849 -0.122492 0.012946 -0.006612 -0.008298 -0.107175 0.104604 0.018591 -0.038313 -0.097610 0.116623 0.281228 0.165728 0.141497 0.116415 -0.552479
0.072396 0.073047 0.074999 0.078251 0.082803 0.088653 0.095799 0.104237 0.113965 0.124976 0.137264 0.150821 0.165637 0.181699 0.198991 0.217496 0.237190 0.258048 0.280039 0.303128 0.327274 0.352429 0.378539 0.405545 0.433378 0.461961 0.491209 0.521027 0.551312 0.581948 0.612811 0.643766 0.674664 0.705349 0.735650 0.765386 0.794365 0.822382 0.849225 0.874667 0.898477 0.920412 0.940222 0.957652 0.972444 0.984334 0.993061 0.998365 0.999989 0.997685 0.991215 0.980356 0.964900 0.944661 0.919480 0.889223 0.853793 0.813129 0.767212 0.716068 0.659774 0.598461 0.532316 0.461589 0.386590 0.307698 0.225357 0.140079 0.052444 0.036902 0.127247 0.217820 0.307793 0.396287 0.482381 0.565119 0.643521 0.716593 0.783343 0.842793 0.893994 0.936045 0.968106 0.989420 0.999329 0.997292 0.982905 0.955916 0.916241 0.863980 0.799428 0.723086 0.635666 0.538098 0.431524 0.317298 0.196975 0.072297 0.054829 0.182352 0.308109 0.429858 0.545320 0.652222 0.748341 0.831558 0.899910 0.951637 0.985243 0.999537 0.993686 0.967255 0.920243 0.853107 0.766786 0.662702 0.542759 0.409321 0.265187 0.113536 0.042129 0.198049 0.350307 0.494914 0.627919 0.745525 0.844201 0.920801 0.972675 0.997780 0.994769 0.963074 0.902963 0.815580 0.702954 0.567979 0.414369 0.246577 0.069682 0.110747 0.288818 0.458507 0.613860 0.749213 0.859408 0.940007 0.987497 0.999460 0.974725 0.913468 0.817272 0.689132 0.533401 0.355674 0.162626 0.038229 0.238802 0.430758 0.605851 0.756303 0.875155 0.956622 0.996398 0.991930 0.942600 0.849848 0.717185 0.550120 0.355974 0.143602 0.076986 0.295069 0.499740 0.680449 0.827564 0.932921 0.990304 0.995869 0.948437 0.849673 0.704100 0.518967 0.303938 0.070641 0.167930 0.398115 0.606380 0.780110 0.908420 0.982871 0.998085 0.952192 0.847079 0.688409 0.485398 0.250346 0.002049 0.255572 0.493522 0.699812 0.860087 0.962765 0.999941 0.968069 0.868361 0.706865 0.494208 0.244967 0.023254 0.291032 0.538501 0.746852 0.899786 0.984856 0.994564 0.927100 0.786684 0.583420 0.332677 0.054019 0.230269 0.496933 0.723647 0.890929 0.983881 0.993607 0.918169 0.762972 0.540525 0.269541 0.026527 0.321473 0.588614 0.803233 0.944927 0.999623 0.961103 0.831825 0.622947 0.353503 0.048797 0.261898 0.548102 0.781149 0.937097 0.999295 0.960288 0.822845 0.599972 0.313830 0.006318 0.327036 0.614160 0.836454 0.969097 0.996573 0.914638 0.731100 0.465278 0.146136 0.190755 0.507110 0.766277 0.937555 0.999934 0.944848 0.777518 0.516693 0.192741 0.155743 0.486447 0.758472 0.937444 1.000000 0.937008 0.755098 0.476204 0.135143 0.224586 0.556280 0.816078 0.968859 0.993154 0.884355 0.655771 0.337247 0.028521 0.391578 0.701480 0.914351 0.999233 0.942794 0.751657 0.451924 0.085858 0.293890 0.631788 0.877550 0.993746 0.961720 0.784835 0.488474 0.116683 0.274192 0.623923 0.877708 0.994891 0.955693 0.764833 0.451330 0.064379 0.334159 0.679553 0.914754 0.999977 0.919688 0.685745 0.335996 0.071545 0.468135 0.785842 0.969268 0.985426 0.829977 0.528618 0.133173 0.287047 0.657242 0.910490 0.999997 0.908037 0.649812 0.271359 0.158364 0.559833 0.857624 0.994761 0.943864 0.713007 0.344873 0.090741 0.509969 0.830907 0.989768 0.953841 0.728600 0.357395 0.086525 0.514177 0.838632 0.992807 0.943646 0.699606 0.309729 0.145813 0.571951 0.878510 0.999459 0.907478 0.620575 0.199066 0.266703 0.675505
1.000000 1.000000 1.000000 1.000000 1.000000 1.000000 1.000000 1.000000 1.000000 1.000000 1.000000 1.000000 1.000000 1.000000 1.000000 1.000000 1.000000 1.000000 1.000000 1.000000 1.000000 1.000000 1.000000 1.000000 1.000000 1.000000 1.000000 1.000000 1.000000 1.000000 1.000000 1.000000 1.000000 1.000000 1.000000 1.000000 1.000000 1.000000 1.000000 1.000000 1.000000 1.000000 1.000000 1.000000 1.000000 1.000000 1.000000 1.000000 1.000000 1.000000 1.000000 1.000000 0.923708 0.923708 0.923708 0.923708 0.923708 0.923708 0.923708 0.923708 0.923708 0.923708 0.923708 0.923708 0.923708 0.923708 0.923708 0.923708 0.923708 0.923708 0.923708 0.923708 0.923708 0.923708 0.923708 0.923708 0.923708 0.923708 0.923708 0.923708 0.923708 0.923708 0.923708 0.923708 0.923708 0.913588 0.911637 0.912818 0.911415 0.909888 0.909303 0.908919 0.909965 0.911583 0.913640 0.935227 0.938830 0.939609 0.940911 0.942266 0.944531 0.942403 0.950081 0.956614 0.955609 0.956780 0.950764 0.952092 0.951495 0.950797 0.952119 0.952179 0.950543 0.948582 0.947056 0.946536 0.946239 0.949871 0.950353 0.950547 0.951132 0.951090 0.951809 0.952453 0.950712 0.953024 0.945340 0.943980 0.949228 0.947213 0.948629 0.948603 0.949288 0.950113 0.950429 0.950693 0.946919 0.946529 0.945694 0.937687 0.930727 0.930576 0.932999 0.936128 0.933276 0.929792 0.931078 0.933424 0.932406 0.935988 0.925283 0.920688 0.895505 0.882844 0.873037 0.873572 0.877187 0.879209 0.877088 0.869844 0.860202 0.856137 0.857277 0.852077 0.845639 0.861456 0.856775 0.855295 0.859103 0.862137 0.867644 0.864848 0.860303 0.855394 0.850950 0.843009 0.845031 0.849627 0.853652 0.837278 0.827055 0.843268 0.833097 0.824074 0.831320 0.833117 0.829939 0.828864 0.829260 0.827710 0.820791 0.813448 0.816761 0.825887 0.826287 0.816237 0.813336 0.810188 0.810010 0.801747 0.805419 0.805807 0.802102 0.796425 0.813960 0.781717 0.803562 0.803823 0.788786 0.773155 0.758721 0.769542 0.780795 0.782948 0.775200 0.774993 0.773891 0.764608 0.735975 0.733906 0.741672 0.739513 0.727881 0.713458 0.720921 0.722681 0.718714 0.714467 0.717418 0.717419 0.692969 0.706435 0.711737 0.700105 0.714266 0.716385 0.707619 0.710442 0.713237 0.716730 0.717404 0.683551 0.687040 0.657480 0.648696 0.597395 0.594227 0.592485 0.533365 0.538404 0.506223 0.488272 0.489705 0.478755 0.527882 0.458056 0.445463 0.474524 0.400969 0.342172 0.357337 0.357053 0.372365 0.376003 0.362678 0.364230 0.350744 0.330879 0.326784 0.350103 0.366914 0.332179 0.332064 0.326349 0.293680 0.265531 0.283372 0.287131 0.312748 0.313526 0.292298 0.319663 0.361047 0.303630 0.282337 0.260592 0.285082 0.297551 0.300487 0.290935 0.286040 0.254896 0.237783 0.258468 0.260527 0.279197 0.302345 0.331915 0.327203 0.332642 0.360578 0.332946 0.356090 0.361977 0.349117 0.359160 0.362407 0.361081 0.353602 0.381865 0.370671 0.381750 0.370342 0.366738 0.415641 0.396599 0.372143 0.354602 0.356084 0.358837 0.343944 0.286365 0.228314 0.233922 0.263949 0.241933 0.218880 0.179345 0.163263 0.129517 0.131049 0.144271 0.124976 0.127308 0.127308 0.127308 0.127308 0.089752 0.089752 0.089752 0.089752 0.089752 0.089752 0.089752 0.089752 0.089752 0.089752 0.089752 0.089752 0.089752 0.089752 0.111703 0.111703 0.111703 0.111703 0.111703 0.111703 0.111703 0.111703 0.111703 0.111703 0.111703 0.111703
0.000000 0.000000 0.000000 0.000000 0.000000 0.000000 0.000000 0.000000 0.000000 0.000000 0.000000 0.000000 0.000000 0.000000 0.000000 0.000000 0.000000 0.000000 0.000000 0.000000 0.000000 0.000000 0.000000 0.000000 0.000000 0.000000 0.000000 0.000000 0.000000 0.000000 0.000000 0.000000 0.000000 0.000000 0.000000 0.000000 0.000000 0.000000 0.000000 0.000000 0.000000 0.000000 0.000000 0.000000 0.000000 0.000000 0.000000 0.000000 0.000000 0.000000 0.000000 0.000000 0.209657 0.209657 0.209657 0.209657 0.209657 0.209657 0.209657 0.209657 0.209657 0.209657 0.209657 0.209657 0.209657 0.209657 0.209657 0.209657 0.209657 0.209657 0.209657 0.209657 0.209657 0.209657 0.209657 0.209657 0.209657 0.209657 0.209657 0.209657 0.209657 0.209657 0.209657 0.209657 0.209657 0.244339 0.244339 0.244339 0.244339 0.244339 0.244339 0.244339 0.244339 0.244339 0.244339 0.244339 0.244339 0.244339 0.244339 0.244339 0.244339 0.244339 0.244339 0.244339 0.244339 0.244339 0.244339 0.244339 0.244339 0.244339 0.260378 0.260378 0.260378 0.260378 0.260378 0.260378 0.260378 0.260378 0.260378 0.260378 0.260378 0.260378 0.260378 0.260378 0.260378 0.260378 0.260378 0.260378 0.260378 0.260378 0.269680 0.269680 0.269680 0.269680 0.269680 0.269680 0.269680 0.269680 0.269680 0.269680 0.269680 0.269680 0.269680 0.269680 0.269680 0.269680 0.269680 0.269680 0.269680 0.269680 0.269680 0.269680 0.269680 0.269680 0.269680 0.269680 0.269680 0.269680 0.269680 0.269680 0.269680 0.269680 0.269680 0.280056 0.280056 0.280056 0.280056 0.280056 0.280056 0.280056 0.280056 0.280056 0.280056 0.280056 0.280056 0.280056 0.280056 0.280056 0.280056 0.280056 0.280056 0.280056 0.280056 0.280056 0.280056 0.280056 0.280056 0.280056 0.280056 0.280056 0.274721 0.274721 0.274721 0.274721 0.274721 0.274721 0.274721 0.274721 0.274721 0.274721 0.274721 0.274721 0.274721 0.285714 0.285714 0.285714 0.285714 0.285714 0.285714 0.285714 0.285714 0.285714 0.285714 0.285714 0.280056 0.280056 0.280056 0.280056 0.280056 0.280056 0.280056 0.280056 0.280056 0.280056 0.280056 0.274721 0.274721 0.274721 0.274721 0.274721 0.274721 0.274721 0.274721 0.274721 0.274721 0.274721 0.280056 0.280056 0.280056 0.280056 0.280056 0.280056 0.280056 0.280056 0.280056 0.280056 0.285714 0.285714 0.285714 0.285714 0.285714 0.285714 0.285714 0.285714 0.285714 0.269680 0.269680 0.269680 0.269680 0.269680 0.269680 0.269680 0.269680 0.269680 0.269680 0.274721 0.274721 0.274721 0.274721 0.274721 0.274721 0.274721 0.274721 0.274721 0.285714 0.285714 0.285714 0.285714 0.285714 0.285714 0.285714 0.285714 0.264906 0.264906 0.264906 0.264906 0.264906 0.264906 0.264906 0.264906 0.264906 0.274721 0.274721 0.274721 0.274721 0.274721 0.274721 0.274721 0.274721 0.269680 0.269680 0.269680 0.269680 0.269680 0.269680 0.269680 0.269680 0.269680 0.269680 0.269680 0.269680 0.269680 0.269680 0.269680 0.269680 0.280056 0.280056 0.280056 0.280056 0.280056 0.280056 0.280056 0.274721 0.274721 0.274721 0.274721 0.274721 0.274721 0.274721 0.256074 0.256074 0.256074 0.256074 0.256074 0.256074 0.256074 0.256074 0.264906 0.264906 0.264906 0.264906 0.264906 0.264906 0.264906 0.264906 0.264906 0.264906 0.264906 0.264906 0.264906 0.264906 0.260378 0.260378 0.260378 0.260378 0.260378 0.260378 0.260378 0.260378 0.260378 0.260378 0.260378 0.260378
