# Output from CTFFind version 4.1.9, run on 2019-11-03 20:06:19
# Input file: stack11_bm3d_averaged_1_10_0_1000_half.mrc ; Number of micrographs: 1
# Pixel size: 3.000 Angstroms ; acceleration voltage: 300.0 keV ; spherical aberration: 0.00 mm ; amplitude contrast: 0.07
# Box size: 512 pixels ; min. res.: 30.0 Angstroms ; max. res.: 5.0 Angstroms ; min. def.: 5000.0 um; max. def. 50000.0 um; num. frames averaged: 1
# 6 lines per micrograph: #1 - spatial frequency (1/Angstroms); #2 - 1D rotational average of spectrum (assuming no astigmatism); #3 - 1D rotational average of spectrum; #4 - CTF fit; #5 - cross-correlation between spectrum and CTF fit; #6 - 2sigma of expected cross correlation of noise
0.000000 0.000651 0.001302 0.001953 0.002604 0.003255 0.003906 0.004557 0.005208 0.005859 0.006510 0.007161 0.007812 0.008464 0.009115 0.009766 0.010417 0.011068 0.011719 0.012370 0.013021 0.013672 0.014323 0.014974 0.015625 0.016276 0.016927 0.017578 0.018229 0.018880 0.019531 0.020182 0.020833 0.021484 0.022135 0.022786 0.023438 0.024089 0.024740 0.025391 0.026042 0.026693 0.027344 0.027995 0.028646 0.029297 0.029948 0.030599 0.031250 0.031901 0.032552 0.033203 0.033854 0.034505 0.035156 0.035807 0.036458 0.037109 0.037760 0.038411 0.039062 0.039714 0.040365 0.041016 0.041667 0.042318 0.042969 0.043620 0.044271 0.044922 0.045573 0.046224 0.046875 0.047526 0.048177 0.048828 0.049479 0.050130 0.050781 0.051432 0.052083 0.052734 0.053385 0.054036 0.054688 0.055339 0.055990 0.056641 0.057292 0.057943 0.058594 0.059245 0.059896 0.060547 0.061198 0.061849 0.062500 0.063151 0.063802 0.064453 0.065104 0.065755 0.066406 0.067057 0.067708 0.068359 0.069010 0.069661 0.070312 0.070964 0.071615 0.072266 0.072917 0.073568 0.074219 0.074870 0.075521 0.076172 0.076823 0.077474 0.078125 0.078776 0.079427 0.080078 0.080729 0.081380 0.082031 0.082682 0.083333 0.083984 0.084635 0.085286 0.085938 0.086589 0.087240 0.087891 0.088542 0.089193 0.089844 0.090495 0.091146 0.091797 0.092448 0.093099 0.093750 0.094401 0.095052 0.095703 0.096354 0.097005 0.097656 0.098307 0.098958 0.099609 0.100260 0.100911 0.101562 0.102214 0.102865 0.103516 0.104167 0.104818 0.105469 0.106120 0.106771 0.107422 0.108073 0.108724 0.109375 0.110026 0.110677 0.111328 0.111979 0.112630 0.113281 0.113932 0.114583 0.115234 0.115885 0.116536 0.117188 0.117839 0.118490 0.119141 0.119792 0.120443 0.121094 0.121745 0.122396 0.123047 0.123698 0.124349 0.125000 0.125651 0.126302 0.126953 0.127604 0.128255 0.128906 0.129557 0.130208 0.130859 0.131510 0.132161 0.132812 0.133464 0.134115 0.134766 0.135417 0.136068 0.136719 0.137370 0.138021 0.138672 0.139323 0.139974 0.140625 0.141276 0.141927 0.142578 0.143229 0.143880 0.144531 0.145182 0.145833 0.146484 0.147135 0.147786 0.148438 0.149089 0.149740 0.150391 0.151042 0.151693 0.152344 0.152995 0.153646 0.154297 0.154948 0.155599 0.156250 0.156901 0.157552 0.158203 0.158854 0.159505 0.160156 0.160807 0.161458 0.162109 0.162760 0.163411 0.164062 0.164714 0.165365 0.166016 0.166667 0.167318 0.167969 0.168620 0.169271 0.169922 0.170573 0.171224 0.171875 0.172526 0.173177 0.173828 0.174479 0.175130 0.175781 0.176432 0.177083 0.177734 0.178385 0.179036 0.179688 0.180339 0.180990 0.181641 0.182292 0.182943 0.183594 0.184245 0.184896 0.185547 0.186198 0.186849 0.187500 0.188151 0.188802 0.189453 0.190104 0.190755 0.191406 0.192057 0.192708 0.193359 0.194010 0.194661 0.195312 0.195964 0.196615 0.197266 0.197917 0.198568 0.199219 0.199870 0.200521 0.201172 0.201823 0.202474 0.203125 0.203776 0.204427 0.205078 0.205729 0.206380 0.207031 0.207682 0.208333 0.208984 0.209635 0.210286 0.210938 0.211589 0.212240 0.212891 0.213542 0.214193 0.214844 0.215495 0.216146 0.216797 0.217448 0.218099 0.218750 0.219401 0.220052 0.220703 0.221354 0.222005 0.222656 0.223307 0.223958 0.224609 0.225260 0.225911 0.226562 0.227214 0.227865 0.228516 0.229167 0.229818 0.230469 0.231120 0.231771 0.232422 0.233073 0.233724 0.234375 0.235026 0.235677
       0.34932        0.34932        0.34932        0.34933        0.34932        0.34932        0.34932        0.34932        0.34932        0.34932        0.34933        0.34932        0.34932        0.34933        0.34933        0.34932        0.34933        0.34932        0.34932        0.34932        0.34932        0.34932        0.34932        0.34933        0.34932        0.34932        0.34932        0.34933        0.34932        0.34933        0.34932        0.34933        0.34932        0.34933        0.34932        0.34932        0.34932        0.34932        0.34933        0.34932        0.34933        0.34932        0.34932        0.34932        0.34932        0.34933        0.34933        0.34932        0.34932        0.34932        0.34933        0.70149        0.85798        0.54068        0.10659       -0.02790       -0.37921       -0.17743       -0.28756       -0.11652       -0.05303       -0.11259       -0.05225       -0.16033       -0.20192       -0.20950       -0.30312       -0.31393       -0.43860       -0.35992       -0.42005       -0.41613       -0.38877       -0.39811       -0.43754       -0.50040       -0.55475       -0.54153       -0.51465       -0.35011       -0.31787       -0.28417       -0.26400       -0.18153       -0.16468        0.06561        0.14869        0.18308        0.27171        0.38222        0.45959        0.52546        0.60669        0.60391        0.58894        0.70352        0.80123        0.70177        0.74723        0.61750        0.56998        0.48681        0.43820        0.51432        0.40220        0.28176        0.12255        0.12182        0.10392       -0.00425        0.05715        0.06108        0.02121        0.03164        0.04039        0.23702        0.27374        0.29830        0.43884        0.45665        0.41791        0.60756        0.61540        0.62875        0.72101        0.67553        0.64849        0.65348        0.56059        0.45909        0.42030        0.30901        0.28103        0.19226        0.14099        0.05393        0.07420        0.08725        0.10491        0.16753        0.25201        0.30680        0.43371        0.46850        0.48305        0.56136        0.60198        0.63797        0.61137        0.55553        0.46615        0.47409        0.37956        0.28520        0.21858        0.15807        0.17951        0.15795        0.17306        0.20360        0.33107        0.34656        0.41555        0.45332        0.42495        0.47800        0.56603        0.55877        0.50898        0.45932        0.41842        0.38014        0.34940        0.31759        0.27550        0.25268        0.26732        0.26303        0.23130        0.31559        0.37087        0.38570        0.44144        0.45678        0.46628        0.43195        0.41744        0.40490        0.36867        0.34952        0.27854        0.29056        0.27504        0.25712        0.30396        0.30088        0.35796        0.39146        0.44364        0.47808        0.40735        0.42372        0.43341        0.41633        0.35445        0.33521        0.29446        0.33414        0.28322        0.33167        0.32270        0.34066        0.34875        0.37084        0.31125        0.38710        0.41297        0.38472        0.35572        0.37051        0.32336        0.30157        0.31489        0.32091        0.31126        0.32328        0.35271        0.36587        0.34557        0.36421        0.36198        0.43247        0.39798        0.34547        0.35386        0.30317        0.30206        0.33230        0.32398        0.33432        0.34866        0.35115        0.39354        0.33393        0.33352        0.34093        0.35667        0.30571        0.31497        0.28770        0.30534        0.33858        0.30563        0.33839        0.36582        0.38043        0.30549        0.35331        0.30515        0.29200        0.28200        0.25307        0.31585        0.31508        0.34493        0.34244        0.35167        0.33241        0.35180        0.32138        0.34799        0.30474        0.33243        0.30210        0.34322        0.34326        0.38418        0.34026        0.33918        0.33612        0.29679        0.28223        0.31852        0.25707        0.23664        0.34046        0.32896        0.37466        0.35220        0.36950        0.34354        0.33549        0.35910        0.27247        0.27913        0.32429        0.30178        0.31471        0.31174        0.34191        0.33001        0.28971        0.29708        0.34682        0.32615        0.33120        0.31204        0.32110        0.33802        0.38932        0.37263        0.32919        0.29064        0.30680        0.29392        0.31748        0.28736        0.28111        0.31281        0.32539        0.34881        0.35851        0.33761        0.30211        0.30675        0.27878        0.28748        0.26049        0.30600        0.25640        0.25858        0.28244        0.27538        0.25828        0.29327        0.22837        0.22929        0.23463        0.20053        0.28257        0.35944        0.25976        0.25793        0.32073        0.29631        0.30590        0.31743        0.28399        0.26416        0.20037        0.21380        0.22751        0.30920        0.23909        0.28193        0.37397        0.39422        0.27079        0.21325        0.16566       -0.01315       -0.16866       -0.63877
2.722229 2.693311 2.664550 2.635946 2.607500 2.579211 2.551080 2.523107 2.495290 2.467632 2.440131 2.412787 2.385601 2.358572 2.331701 2.304987 2.278431 2.252032 2.225790 2.199706 2.173780 2.148011 2.122400 2.096946 2.071649 2.046510 2.021529 1.996705 1.972038 1.947529 1.923177 1.898983 1.874947 1.851068 1.827346 1.803782 1.780375 1.757126 1.734034 1.711100 1.688323 1.665704 1.643242 1.620937 1.598790 1.576801 1.554969 1.533295 1.511778 1.490418 1.469216 1.679120 2.092870 1.663122 1.152695 1.018423 0.442398 0.820817 0.538823 0.813610 0.790220 0.789546 0.728462 0.734577 0.577956 0.542451 0.484305 0.410714 0.242285 0.346396 0.191098 0.318864 0.207025 0.205894 0.180806 0.040204 -0.004392 0.017638 -0.068833 0.128956 0.225933 0.182856 0.175698 0.310349 0.175941 0.506126 0.605306 0.620720 0.635749 0.846989 0.808701 0.913158 0.917105 1.008238 0.981727 1.044425 1.155191 1.008945 1.135035 0.879828 0.899101 0.773231 0.636180 0.786667 0.670127 0.488238 0.324735 0.243784 0.265389 0.146193 0.140384 0.164038 0.107932 0.109957 0.084695 0.237562 0.332652 0.327649 0.462925 0.526180 0.401932 0.577825 0.710633 0.610391 0.698293 0.681445 0.695981 0.620073 0.575219 0.465844 0.349983 0.269066 0.213880 0.095247 0.111362 -0.121836 -0.048897 -0.060856 -0.084312 -0.016233 0.122761 0.070422 0.239321 0.298391 0.325044 0.354378 0.474453 0.432759 0.466657 0.467847 0.292430 0.280770 0.274200 0.081580 0.045035 -0.082546 -0.019095 -0.062066 -0.095710 -0.058472 0.040008 0.093242 0.123700 0.222413 0.211504 0.211816 0.299905 0.325042 0.434428 0.244100 0.223504 0.221410 0.138015 0.141678 0.119075 -0.003850 0.014818 0.080939 -0.013771 0.040856 0.129866 0.129075 0.201673 0.225385 0.237629 0.156388 0.203568 0.124915 0.111459 0.118133 0.021639 -0.026493 -0.001958 -0.021322 -0.048084 0.054613 0.000255 0.104422 0.134306 0.190583 0.145382 0.117692 0.132484 0.149365 0.104436 0.030126 -0.027189 0.020762 0.032395 -0.046447 0.042521 0.016200 0.045711 0.038893 0.051150 0.011638 0.121414 0.107968 0.042572 0.031187 0.037603 0.002091 -0.028467 0.006224 -0.001760 -0.007856 -0.001792 0.062152 0.052345 0.035655 0.063394 0.059285 0.165861 0.064300 0.041821 0.043110 -0.035036 0.015317 0.048568 0.007297 0.030479 0.056016 0.074130 0.066121 0.040342 0.007563 0.077336 0.033080 0.014831 0.026806 -0.003318 0.029003 0.029010 0.018107 0.071296 0.077021 0.081072 0.041957 0.057123 0.017140 0.015290 -0.028854 -0.022250 0.040016 0.051448 0.074831 0.074676 0.064022 0.067548 0.088905 0.037822 0.078090 0.046054 0.046747 0.014812 0.103131 0.064308 0.128232 0.062824 0.059343 0.076599 0.021315 0.001506 0.080054 -0.037876 -0.034543 0.077728 0.040396 0.150982 0.089326 0.074347 0.063919 0.016036 0.078458 -0.020809 -0.023566 0.037358 0.020893 0.023577 0.001965 0.103143 0.013440 -0.019848 0.046342 0.028965 0.049192 0.051306 -0.002809 0.041564 0.038357 0.100062 0.064919 0.030158 -0.028734 -0.038592 -0.003515 0.014269 -0.056325 -0.016058 -0.006579 0.020607 0.024680 0.062814 0.003974 -0.030018 -0.022371 -0.015869 -0.055793 -0.042951 -0.044555 -0.126135 -0.087497 -0.073662 -0.108665 -0.116474 -0.036525 -0.148534 -0.089128 -0.123536 -0.199534 -0.069251 0.062144 -0.079673 -0.121224 0.045015 0.004218 -0.036722 0.060776 -0.024433 -0.002971 -0.078062 -0.048400 0.057260 0.146316 0.043057 0.121465 0.148199 0.502592 0.305426 0.361355 0.200230 -0.017120 -0.694993
0.072396 0.072899 0.074409 0.076924 0.080445 0.084970 0.090498 0.097028 0.104557 0.113083 0.122602 0.133110 0.144601 0.157070 0.170508 0.184906 0.200253 0.216536 0.233741 0.251849 0.270841 0.290694 0.311382 0.332874 0.355138 0.378137 0.401830 0.426169 0.451104 0.476579 0.502533 0.528898 0.555602 0.582564 0.609701 0.636919 0.664120 0.691198 0.718041 0.744531 0.770541 0.795938 0.820583 0.844330 0.867029 0.888520 0.908642 0.927228 0.944105 0.959101 0.972037 0.982736 0.991020 0.996710 0.999631 0.999613 0.996488 0.990098 0.980292 0.966930 0.949885 0.929044 0.904311 0.875611 0.842887 0.806106 0.765263 0.720380 0.671506 0.618726 0.562158 0.501953 0.438303 0.371435 0.301619 0.229162 0.154414 0.077765 0.000357 0.079483 0.159106 0.238686 0.317649 0.395392 0.471287 0.544685 0.614921 0.681322 0.743212 0.799918 0.850779 0.895158 0.932441 0.962058 0.983483 0.996248 0.999953 0.994272 0.978966 0.953890 0.919002 0.874368 0.820174 0.756725 0.684454 0.603920 0.515813 0.420951 0.320277 0.214853 0.105854 0.005447 0.117681 0.229409 0.339134 0.445320 0.546413 0.640868 0.727170 0.803862 0.869575 0.923048 0.963163 0.988970 0.999711 0.994845 0.974072 0.937348 0.884904 0.817252 0.735196 0.639830 0.532531 0.414953 0.289002 0.156819 0.020743 0.116722 0.252953 0.385254 0.510910 0.627247 0.731686 0.821809 0.895421 0.950606 0.985787 0.999780 0.991837 0.961688 0.909569 0.836238 0.742983 0.631618 0.504455 0.364276 0.214275 0.058003 0.100718 0.257874 0.409369 0.551126 0.679200 0.789896 0.879884 0.946304 0.986875 0.999983 0.984758 0.941128 0.869861 0.772570 0.651704 0.510503 0.352931 0.183578 0.007539 0.169730 0.342578 0.505337 0.652512 0.778973 0.880145 0.952187 0.992157 0.998149 0.969400 0.906361 0.810728 0.685428 0.534554 0.363253 0.177581 0.015712 0.209399 0.396057 0.568340 0.719277 0.842575 0.932884 0.986062 0.999382 0.971698 0.903552 0.797203 0.656598 0.487254 0.296070 0.091076 0.118900 0.324587 0.516688 0.686300 0.825343 0.926964 0.985901 0.998784 0.964359 0.883623 0.759842 0.598468 0.406934 0.194347 0.028914 0.251701 0.462637 0.650699 0.805815 0.919422 0.984965 0.998321 0.958091 0.865762 0.725713 0.545059 0.333338 0.102035 0.136002 0.367268 0.578367 0.756792 0.891689 0.974559 0.999826 0.965265 0.872231 0.725684 0.533979 0.308450 0.062776 0.187815 0.427478 0.640749 0.813565 0.934214 0.994179 0.988792 0.917647 0.784749 0.598361 0.370558 0.116493 0.146579 0.400423 0.627127 0.810351 0.936548 0.996021 0.983722 0.899747 0.749466 0.543256 0.295862 0.025392 0.247962 0.503424 0.721209 0.884091 0.978808 0.997206 0.937019 0.802194 0.602730 0.354019 0.075732 0.209699 0.478854 0.709253 0.881266 0.979837 0.995866 0.927140 0.778690 0.562521 0.296741 0.004117 0.289835 0.559045 0.779220 0.930076 0.997265 0.973839 0.861048 0.668428 0.413095 0.118321 0.188528 0.478488 0.723743 0.900318 0.990493 0.984673 0.882511 0.693152 0.434532 0.131793 0.185100 0.484277 0.735160 0.911651 0.994891 0.975400 0.854258 0.643230 0.363745 0.044835 0.279805 0.575356 0.809617 0.956562 0.999328 0.932278 0.761850 0.506101 0.192928 0.142889 0.463473 0.732134 0.917601 0.997740 0.962335 0.814512 0.570654 0.258729 0.084796 0.419153 0.704085 0.904738 0.996007 0.965807 0.816822 0.566467 0.245017 0.107939 0.448282 0.732881 0.925086 0.999556 0.945745 0.769552 0.492876 0.151050 0.211521
1.000000 1.000000 1.000000 1.000000 1.000000 1.000000 1.000000 1.000000 1.000000 1.000000 1.000000 1.000000 1.000000 1.000000 1.000000 1.000000 1.000000 1.000000 1.000000 1.000000 1.000000 1.000000 1.000000 1.000000 1.000000 1.000000 1.000000 1.000000 1.000000 1.000000 1.000000 1.000000 1.000000 1.000000 1.000000 1.000000 1.000000 1.000000 1.000000 1.000000 1.000000 1.000000 1.000000 1.000000 1.000000 1.000000 1.000000 1.000000 1.000000 1.000000 1.000000 1.000000 0.914357 0.914357 0.914357 0.911667 0.911667 0.911667 0.911667 0.911667 0.911667 0.911667 0.911667 0.911667 0.911667 0.911667 0.911667 0.911667 0.911667 0.911667 0.911667 0.911667 0.911667 0.911667 0.911667 0.911667 0.911667 0.911667 0.911667 0.911667 0.911667 0.911667 0.911667 0.911667 0.911667 0.911667 0.911667 0.911667 0.911667 0.911667 0.911667 0.911667 0.911667 0.911667 0.911667 0.911667 0.940008 0.941410 0.949802 0.949287 0.948752 0.946813 0.945530 0.945332 0.945253 0.945609 0.946345 0.947337 0.953531 0.954465 0.958846 0.961581 0.961557 0.963322 0.965324 0.964982 0.956812 0.956551 0.955092 0.954396 0.956519 0.955211 0.954029 0.954522 0.952223 0.956386 0.955984 0.954817 0.953224 0.951676 0.948153 0.947734 0.947485 0.948296 0.948385 0.949964 0.952989 0.951318 0.951430 0.948764 0.948325 0.949539 0.949198 0.950908 0.938922 0.938048 0.936395 0.936337 0.938925 0.938712 0.938608 0.939560 0.939272 0.939197 0.939215 0.933464 0.933362 0.926681 0.922102 0.921136 0.915151 0.911011 0.913787 0.916826 0.917865 0.918287 0.907925 0.905131 0.906211 0.904887 0.906177 0.907570 0.908818 0.909169 0.909105 0.904102 0.895269 0.893849 0.882781 0.885466 0.880618 0.877848 0.875126 0.867328 0.859079 0.870549 0.857642 0.811913 0.815474 0.820098 0.813114 0.809015 0.813134 0.813990 0.818935 0.813470 0.812695 0.805844 0.791024 0.789311 0.784197 0.769275 0.763171 0.753281 0.742822 0.736821 0.759750 0.753428 0.765522 0.769109 0.768446 0.764051 0.753387 0.741021 0.741725 0.742552 0.737941 0.713708 0.705919 0.705427 0.704811 0.690197 0.692315 0.681497 0.681913 0.667100 0.672772 0.678915 0.682437 0.676881 0.669377 0.660936 0.655757 0.669997 0.682354 0.672851 0.669604 0.683725 0.675162 0.670952 0.661504 0.663905 0.654557 0.655035 0.652987 0.688927 0.663620 0.653541 0.659841 0.661433 0.656576 0.654321 0.631995 0.626575 0.602040 0.619979 0.624539 0.639589 0.643776 0.649079 0.660392 0.667554 0.677917 0.683410 0.678718 0.637580 0.643711 0.663717 0.671838 0.663744 0.654497 0.644211 0.627107 0.663949 0.642543 0.604799 0.598785 0.603631 0.560345 0.543166 0.540657 0.539118 0.567968 0.568523 0.554664 0.531000 0.532884 0.529529 0.520753 0.519724 0.506442 0.510714 0.493836 0.473127 0.489291 0.496980 0.495965 0.479934 0.471172 0.483842 0.468590 0.486338 0.471165 0.458196 0.473640 0.473910 0.466126 0.392815 0.400372 0.396551 0.377674 0.337370 0.345455 0.356121 0.333707 0.259940 0.255893 0.256622 0.252322 0.224362 0.198713 0.184501 0.177676 0.156887 0.092159 0.040906 0.044754 0.048026 0.074462 0.037604 0.096172 0.168732 0.160843 0.160843 0.160843 0.160843 0.160843 0.160843 0.160843 0.160843 0.140688 0.140688 0.140688 0.140688 0.140688 0.140688 0.140688 0.140688 0.140688 0.160843 0.160843 0.160843 0.160843 0.160843 0.160843 0.160843 0.160843 0.160843 0.160843 0.160843 0.160843 0.160843 0.160843
0.000000 0.000000 0.000000 0.000000 0.000000 0.000000 0.000000 0.000000 0.000000 0.000000 0.000000 0.000000 0.000000 0.000000 0.000000 0.000000 0.000000 0.000000 0.000000 0.000000 0.000000 0.000000 0.000000 0.000000 0.000000 0.000000 0.000000 0.000000 0.000000 0.000000 0.000000 0.000000 0.000000 0.000000 0.000000 0.000000 0.000000 0.000000 0.000000 0.000000 0.000000 0.000000 0.000000 0.000000 0.000000 0.000000 0.000000 0.000000 0.000000 0.000000 0.000000 0.000000 0.180334 0.180334 0.180334 0.199007 0.199007 0.199007 0.199007 0.199007 0.199007 0.199007 0.199007 0.199007 0.199007 0.199007 0.199007 0.199007 0.199007 0.199007 0.199007 0.199007 0.199007 0.199007 0.199007 0.199007 0.199007 0.199007 0.199007 0.199007 0.199007 0.199007 0.199007 0.199007 0.199007 0.199007 0.199007 0.199007 0.199007 0.199007 0.199007 0.199007 0.199007 0.199007 0.199007 0.199007 0.225018 0.225018 0.225018 0.225018 0.225018 0.225018 0.225018 0.225018 0.225018 0.225018 0.225018 0.225018 0.225018 0.225018 0.225018 0.225018 0.225018 0.225018 0.225018 0.225018 0.225018 0.225018 0.225018 0.225018 0.225018 0.225018 0.225018 0.225018 0.225018 0.244339 0.244339 0.244339 0.244339 0.244339 0.244339 0.244339 0.244339 0.244339 0.244339 0.244339 0.244339 0.244339 0.244339 0.244339 0.244339 0.244339 0.244339 0.244339 0.244339 0.244339 0.244339 0.244339 0.256074 0.256074 0.256074 0.256074 0.256074 0.256074 0.256074 0.256074 0.256074 0.256074 0.256074 0.256074 0.256074 0.256074 0.256074 0.256074 0.256074 0.256074 0.256074 0.256074 0.256074 0.256074 0.256074 0.256074 0.256074 0.256074 0.256074 0.256074 0.256074 0.256074 0.256074 0.256074 0.256074 0.256074 0.256074 0.256074 0.256074 0.264906 0.264906 0.264906 0.264906 0.264906 0.264906 0.264906 0.264906 0.264906 0.264906 0.264906 0.264906 0.264906 0.264906 0.264906 0.264906 0.264906 0.264906 0.264906 0.264906 0.264906 0.264906 0.264906 0.264906 0.264906 0.264906 0.264906 0.264906 0.264906 0.264906 0.264906 0.264906 0.264906 0.264906 0.264906 0.264906 0.264906 0.264906 0.264906 0.264906 0.264906 0.264906 0.264906 0.264906 0.264906 0.264906 0.264906 0.264906 0.264906 0.264906 0.264906 0.264906 0.264906 0.264906 0.264906 0.264906 0.264906 0.264906 0.260378 0.260378 0.260378 0.260378 0.260378 0.260378 0.260378 0.260378 0.260378 0.260378 0.260378 0.260378 0.260378 0.264906 0.264906 0.264906 0.264906 0.264906 0.264906 0.264906 0.264906 0.264906 0.264906 0.264906 0.264906 0.269680 0.269680 0.269680 0.269680 0.269680 0.269680 0.269680 0.269680 0.269680 0.269680 0.269680 0.264906 0.264906 0.264906 0.264906 0.264906 0.264906 0.264906 0.264906 0.264906 0.264906 0.264906 0.256074 0.256074 0.256074 0.256074 0.256074 0.256074 0.256074 0.256074 0.256074 0.256074 0.256074 0.264906 0.264906 0.264906 0.264906 0.264906 0.264906 0.264906 0.264906 0.264906 0.264906 0.260378 0.260378 0.260378 0.260378 0.260378 0.260378 0.260378 0.260378 0.260378 0.260378 0.264906 0.264906 0.264906 0.264906 0.264906 0.264906 0.264906 0.264906 0.264906 0.251976 0.251976 0.251976 0.251976 0.251976 0.251976 0.251976 0.251976 0.251976 0.251976 0.256074 0.256074 0.256074 0.256074 0.256074 0.256074 0.256074 0.256074 0.256074 0.251976 0.251976 0.251976 0.251976 0.251976 0.251976 0.251976 0.251976 0.251976 0.251976 0.251976 0.251976 0.251976 0.251976
