# Output from CTFFind version 4.1.9, run on 2019-11-03 20:09:54
# Input file: stack11_bm3d_averaged_1_5.5_0_2500_half.mrc ; Number of micrographs: 1
# Pixel size: 3.000 Angstroms ; acceleration voltage: 300.0 keV ; spherical aberration: 0.00 mm ; amplitude contrast: 0.07
# Box size: 512 pixels ; min. res.: 30.0 Angstroms ; max. res.: 5.0 Angstroms ; min. def.: 5000.0 um; max. def. 50000.0 um; num. frames averaged: 1
# 6 lines per micrograph: #1 - spatial frequency (1/Angstroms); #2 - 1D rotational average of spectrum (assuming no astigmatism); #3 - 1D rotational average of spectrum; #4 - CTF fit; #5 - cross-correlation between spectrum and CTF fit; #6 - 2sigma of expected cross correlation of noise
0.000000 0.000651 0.001302 0.001953 0.002604 0.003255 0.003906 0.004557 0.005208 0.005859 0.006510 0.007161 0.007812 0.008464 0.009115 0.009766 0.010417 0.011068 0.011719 0.012370 0.013021 0.013672 0.014323 0.014974 0.015625 0.016276 0.016927 0.017578 0.018229 0.018880 0.019531 0.020182 0.020833 0.021484 0.022135 0.022786 0.023438 0.024089 0.024740 0.025391 0.026042 0.026693 0.027344 0.027995 0.028646 0.029297 0.029948 0.030599 0.031250 0.031901 0.032552 0.033203 0.033854 0.034505 0.035156 0.035807 0.036458 0.037109 0.037760 0.038411 0.039062 0.039714 0.040365 0.041016 0.041667 0.042318 0.042969 0.043620 0.044271 0.044922 0.045573 0.046224 0.046875 0.047526 0.048177 0.048828 0.049479 0.050130 0.050781 0.051432 0.052083 0.052734 0.053385 0.054036 0.054688 0.055339 0.055990 0.056641 0.057292 0.057943 0.058594 0.059245 0.059896 0.060547 0.061198 0.061849 0.062500 0.063151 0.063802 0.064453 0.065104 0.065755 0.066406 0.067057 0.067708 0.068359 0.069010 0.069661 0.070312 0.070964 0.071615 0.072266 0.072917 0.073568 0.074219 0.074870 0.075521 0.076172 0.076823 0.077474 0.078125 0.078776 0.079427 0.080078 0.080729 0.081380 0.082031 0.082682 0.083333 0.083984 0.084635 0.085286 0.085938 0.086589 0.087240 0.087891 0.088542 0.089193 0.089844 0.090495 0.091146 0.091797 0.092448 0.093099 0.093750 0.094401 0.095052 0.095703 0.096354 0.097005 0.097656 0.098307 0.098958 0.099609 0.100260 0.100911 0.101562 0.102214 0.102865 0.103516 0.104167 0.104818 0.105469 0.106120 0.106771 0.107422 0.108073 0.108724 0.109375 0.110026 0.110677 0.111328 0.111979 0.112630 0.113281 0.113932 0.114583 0.115234 0.115885 0.116536 0.117188 0.117839 0.118490 0.119141 0.119792 0.120443 0.121094 0.121745 0.122396 0.123047 0.123698 0.124349 0.125000 0.125651 0.126302 0.126953 0.127604 0.128255 0.128906 0.129557 0.130208 0.130859 0.131510 0.132161 0.132812 0.133464 0.134115 0.134766 0.135417 0.136068 0.136719 0.137370 0.138021 0.138672 0.139323 0.139974 0.140625 0.141276 0.141927 0.142578 0.143229 0.143880 0.144531 0.145182 0.145833 0.146484 0.147135 0.147786 0.148438 0.149089 0.149740 0.150391 0.151042 0.151693 0.152344 0.152995 0.153646 0.154297 0.154948 0.155599 0.156250 0.156901 0.157552 0.158203 0.158854 0.159505 0.160156 0.160807 0.161458 0.162109 0.162760 0.163411 0.164062 0.164714 0.165365 0.166016 0.166667 0.167318 0.167969 0.168620 0.169271 0.169922 0.170573 0.171224 0.171875 0.172526 0.173177 0.173828 0.174479 0.175130 0.175781 0.176432 0.177083 0.177734 0.178385 0.179036 0.179688 0.180339 0.180990 0.181641 0.182292 0.182943 0.183594 0.184245 0.184896 0.185547 0.186198 0.186849 0.187500 0.188151 0.188802 0.189453 0.190104 0.190755 0.191406 0.192057 0.192708 0.193359 0.194010 0.194661 0.195312 0.195964 0.196615 0.197266 0.197917 0.198568 0.199219 0.199870 0.200521 0.201172 0.201823 0.202474 0.203125 0.203776 0.204427 0.205078 0.205729 0.206380 0.207031 0.207682 0.208333 0.208984 0.209635 0.210286 0.210938 0.211589 0.212240 0.212891 0.213542 0.214193 0.214844 0.215495 0.216146 0.216797 0.217448 0.218099 0.218750 0.219401 0.220052 0.220703 0.221354 0.222005 0.222656 0.223307 0.223958 0.224609 0.225260 0.225911 0.226562 0.227214 0.227865 0.228516 0.229167 0.229818 0.230469 0.231120 0.231771 0.232422 0.233073 0.233724 0.234375 0.235026 0.235677
       0.34147        0.34147        0.34147        0.34147        0.34147        0.34147        0.34147        0.34147        0.34147        0.34147        0.34147        0.34147        0.34147        0.34147        0.34147        0.34147        0.34147        0.34147        0.34147        0.34147        0.34147        0.34147        0.34147        0.34147        0.34147        0.34147        0.34147        0.34147        0.34147        0.34147        0.34147        0.34147        0.34147        0.34147        0.34147        0.34147        0.34147        0.34147        0.34147        0.34147        0.34147        0.34147        0.34147        0.34147        0.34147        0.34147        0.34147        0.34147        0.34147        0.34147        0.34147        0.69731        0.85875        0.53637        0.10505       -0.02996       -0.39090       -0.18134       -0.28726       -0.11369       -0.05570       -0.11128       -0.05354       -0.17055       -0.20696       -0.21761       -0.30882       -0.32055       -0.44775       -0.36307       -0.42990       -0.42384       -0.39750       -0.41571       -0.45674       -0.51297       -0.56078       -0.55800       -0.53220       -0.36182       -0.33297       -0.29599       -0.27635       -0.18745       -0.17392        0.05728        0.13631        0.16820        0.26122        0.38130        0.45729        0.52241        0.59562        0.59305        0.58043        0.69801        0.80594        0.70651        0.74219        0.62395        0.56835        0.48290        0.42943        0.51149        0.39560        0.26251        0.11275        0.10520        0.08383       -0.02070        0.03407        0.04517        0.00240        0.02390        0.02298        0.23763        0.26984        0.29495        0.43294        0.45294        0.41316        0.59186        0.62330        0.64443        0.72829        0.67800        0.64782        0.66200        0.56239        0.46504        0.41946        0.30220        0.26047        0.17917        0.13371        0.05251        0.05835        0.06508        0.09643        0.15411        0.24029        0.29198        0.41411        0.46282        0.48255        0.57189        0.60589        0.63791        0.61928        0.56145        0.45927        0.47306        0.37865        0.27062        0.20853        0.15751        0.16750        0.15030        0.15047        0.17856        0.31404        0.32731        0.39915        0.43979        0.42804        0.48618        0.56119        0.55380        0.49921        0.45658        0.41046        0.36563        0.33588        0.30262        0.25425        0.24290        0.24356        0.25090        0.22214        0.30658        0.36257        0.38651        0.43960        0.45611        0.47067        0.42548        0.40734        0.40151        0.36057        0.32641        0.27315        0.27259        0.26475        0.23726        0.28740        0.28596        0.34771        0.37910        0.42662        0.47669        0.40999        0.42419        0.43313        0.40938        0.34803        0.32505        0.29363        0.31949        0.27107        0.31669        0.30942        0.32718        0.33568        0.35978        0.31768        0.39337        0.41569        0.37982        0.34838        0.37123        0.31502        0.29220        0.30247        0.32029        0.30623        0.31861        0.33847        0.35000        0.33976        0.36729        0.36719        0.41379        0.38567        0.33554        0.34347        0.29770        0.28842        0.32320        0.31804        0.32823        0.33862        0.33627        0.38169        0.32973        0.32966        0.33567        0.34155        0.30288        0.31165        0.27829        0.30187        0.32632        0.30492        0.32672        0.35181        0.35992        0.29389        0.33286        0.29527        0.29965        0.28000        0.24462        0.30166        0.30236        0.34246        0.33703        0.33947        0.32449        0.34869        0.31166        0.34501        0.31326        0.31707        0.28448        0.33086        0.32012        0.36208        0.32489        0.33562        0.34188        0.29417        0.27429        0.30960        0.24863        0.22747        0.33979        0.32040        0.35944        0.34220        0.35781        0.32831        0.33672        0.34597        0.26305        0.25680        0.31384        0.30240        0.31007        0.32047        0.34030        0.33207        0.29532        0.29191        0.34370        0.32035        0.31133        0.28667        0.32151        0.34198        0.39582        0.35178        0.31180        0.27774        0.30210        0.28520        0.29722        0.27136        0.26177        0.31315        0.33248        0.34476        0.35300        0.32572        0.28791        0.29992        0.26679        0.27270        0.25203        0.31304        0.27009        0.23678        0.30284        0.29860        0.26551        0.29389        0.21336        0.21499        0.24829        0.18973        0.26337        0.33757        0.24831        0.23114        0.31558        0.31372        0.31961        0.31644        0.26149        0.24073        0.19054        0.21288        0.19312        0.24614        0.23077        0.27657        0.34401        0.33443        0.24218        0.14052        0.07566       -0.01014       -0.09962       -0.61589
2.765723 2.736330 2.707097 2.678026 2.649116 2.620366 2.591778 2.563351 2.535085 2.506979 2.479035 2.451251 2.423629 2.396168 2.368867 2.341728 2.314749 2.287932 2.261275 2.234780 2.208445 2.182272 2.156259 2.130408 2.104717 2.079188 2.053819 2.028611 2.003565 1.978679 1.953954 1.929391 1.904988 1.880746 1.856666 1.832746 1.808987 1.785390 1.761953 1.738677 1.715562 1.692608 1.669815 1.647184 1.624713 1.602403 1.580254 1.558266 1.536439 1.514773 1.493268 1.710133 2.129863 1.690364 1.180416 1.045933 0.448611 0.845920 0.562806 0.844801 0.808995 0.816097 0.756589 0.747782 0.594357 0.556378 0.499495 0.429159 0.245594 0.368303 0.200596 0.328578 0.221718 0.205179 0.179293 0.040511 0.010005 0.017535 -0.068926 0.131418 0.230306 0.188174 0.175219 0.327488 0.184672 0.516139 0.619991 0.623432 0.640548 0.874075 0.831310 0.940203 0.927306 1.025489 0.991280 1.079061 1.166784 1.038904 1.155316 0.908729 0.926130 0.791500 0.649460 0.800968 0.696771 0.486261 0.330597 0.249690 0.263168 0.146888 0.129353 0.161556 0.106133 0.123897 0.076999 0.251866 0.355735 0.341559 0.473644 0.545480 0.418292 0.589078 0.725689 0.661514 0.726480 0.707821 0.717051 0.651489 0.597016 0.500439 0.374254 0.276904 0.220902 0.086530 0.118828 -0.101978 -0.046611 -0.062058 -0.076453 -0.019038 0.133729 0.070598 0.241454 0.306778 0.338146 0.385204 0.502254 0.463537 0.479386 0.489813 0.303242 0.291013 0.283870 0.085395 0.043054 -0.075149 -0.013452 -0.061788 -0.094112 -0.080987 0.037553 0.089171 0.122897 0.217878 0.227826 0.232018 0.286678 0.439452 0.396588 0.264037 0.239418 0.227136 0.149620 0.149572 0.119896 0.002691 0.022195 0.075935 -0.000411 0.057582 0.143526 0.146116 0.228946 0.246675 0.271719 0.191518 0.221450 0.145713 0.158203 0.124827 0.050276 -0.006453 0.017466 -0.000980 -0.038244 0.068264 0.023951 0.123000 0.154567 0.202170 0.183580 0.151354 0.157680 0.178406 0.128615 0.055527 -0.003505 0.050524 0.034315 -0.022570 0.043500 0.037779 0.060136 0.051520 0.064124 0.056963 0.143133 0.141657 0.055064 0.050668 0.054737 0.013627 -0.023490 0.017187 0.017507 0.006104 0.015040 0.051958 0.058836 0.056864 0.071936 0.056765 0.150923 0.059511 0.032785 0.037605 -0.036612 0.005030 0.040640 0.002519 0.031436 0.050245 0.024693 0.130804 0.023255 -0.003468 0.058829 0.003245 0.006180 0.004021 -0.026242 0.019146 0.005565 0.000871 0.051298 0.053147 0.058707 0.033018 0.038533 0.025408 0.016924 -0.022711 -0.028077 0.029703 0.049057 0.079026 0.081942 0.057464 0.074738 0.110730 0.053305 0.106804 0.078363 0.044440 0.031778 0.106320 0.069939 0.118684 0.090069 0.062653 0.119534 0.046218 0.010387 0.089862 -0.032654 -0.014815 0.106452 0.050084 0.156966 0.096265 0.094671 0.048524 0.069391 0.091643 -0.021167 -0.029154 0.054821 0.048550 0.039971 0.034956 0.103796 0.047780 -0.002263 0.054698 0.049483 0.051302 0.053529 -0.017956 0.064969 0.063941 0.129259 0.040540 0.019865 -0.029457 -0.012507 -0.013107 -0.001992 -0.052909 -0.031795 0.007291 0.025858 0.025650 0.040702 -0.000176 -0.042274 -0.036715 -0.026953 -0.073485 -0.059923 -0.015541 -0.023360 -0.085003 -0.007458 -0.046634 -0.074271 -0.000134 -0.139286 -0.087095 -0.097285 -0.202834 -0.040621 0.057129 -0.059069 -0.156236 0.035826 0.037121 -0.048293 0.044409 -0.075953 0.263316 0.163747 0.219004 0.257921 0.296953 0.250716 0.313417 0.335037 0.383208 0.221670 0.254877 0.094899 -0.015608 -0.675817
0.072396 0.072899 0.074407 0.076921 0.080439 0.084960 0.090484 0.097009 0.104533 0.113052 0.122564 0.133064 0.144547 0.157006 0.170434 0.184821 0.200157 0.216429 0.233621 0.251716 0.270694 0.290533 0.311206 0.332683 0.354933 0.377916 0.401593 0.425917 0.450836 0.476296 0.502235 0.528586 0.555276 0.582226 0.609350 0.636557 0.663749 0.690819 0.717657 0.744143 0.770150 0.795548 0.820197 0.843951 0.866659 0.888164 0.908304 0.926911 0.943815 0.958840 0.971812 0.982552 0.990881 0.996622 0.999600 0.999644 0.996588 0.990272 0.980545 0.967268 0.950314 0.929569 0.904938 0.876343 0.843729 0.807062 0.766335 0.721570 0.672816 0.620156 0.563707 0.503620 0.440084 0.373327 0.303615 0.231256 0.156596 0.080025 0.001970 0.077103 0.156689 0.236248 0.315209 0.392970 0.468905 0.542365 0.612687 0.679200 0.741227 0.798096 0.849147 0.893741 0.931267 0.961150 0.982866 0.995944 0.999981 0.994650 0.979709 0.955009 0.920503 0.876255 0.822445 0.759372 0.687464 0.607275 0.519490 0.424920 0.324501 0.219290 0.110455 0.000734 0.112915 0.224653 0.334454 0.440785 0.542095 0.636839 0.723503 0.800629 0.866842 0.920879 0.961617 0.988096 0.999552 0.995434 0.975428 0.939480 0.887806 0.820904 0.739563 0.644861 0.538161 0.421099 0.295570 0.163700 0.027816 0.109589 0.245899 0.378424 0.504452 0.621307 0.726407 0.817328 0.891862 0.948079 0.984385 0.999573 0.992871 0.963982 0.913112 0.840988 0.748869 0.638534 0.512267 0.372818 0.223357 0.067412 0.091213 0.248519 0.400415 0.542825 0.671798 0.783624 0.874949 0.942886 0.985118 0.999988 0.986578 0.944765 0.875260 0.779623 0.660245 0.520313 0.363743 0.195081 0.019386 0.157908 0.331167 0.494724 0.643071 0.771055 0.874059 0.948195 0.990456 0.998860 0.972564 0.911931 0.818568 0.695314 0.546172 0.376219 0.191438 0.001465 0.195302 0.382660 0.556187 0.708885 0.834404 0.927322 0.983401 0.999806 0.975267 0.910193 0.806712 0.668637 0.501365 0.311685 0.107542 0.102294 0.308587 0.502034 0.673696 0.815421 0.920251 0.982789 0.999504 0.968969 0.891988 0.771640 0.613196 0.423926 0.212805 0.009896 0.233082 0.445383 0.635741 0.793989 0.911421 0.981302 0.999289 0.963738 0.875881 0.739842 0.562498 0.353178 0.123204 0.114686 0.347032 0.560407 0.742207 0.881414 0.969295 0.999992 0.970964 0.883230 0.741414 0.553561 0.330741 0.086425 0.164283 0.405571 0.621915 0.799085 0.925127 0.991192 0.992224 0.927393 0.800273 0.618722 0.394450 0.142327 0.120558 0.376044 0.606143 0.794320 0.926719 0.993221 0.988287 0.911481 0.767634 0.566623 0.322770 0.053875 0.220044 0.478223 0.700722 0.869998 0.972327 0.998988 0.947070 0.819859 0.626720 0.382500 0.106452 0.179226 0.451157 0.686695 0.865830 0.972955 0.998272 0.938789 0.798733 0.589362 0.328146 0.037396 0.257601 0.530756 0.757486 0.916972 0.994131 0.981127 0.878260 0.694131 0.445024 0.153572 0.153241 0.446530 0.698233 0.883825 0.984769 0.990450 0.899407 0.719668 0.468181 0.169311 0.147438 0.450295 0.708398 0.894967 0.990175 0.983328 0.874197 0.673264 0.400845 0.085149 0.240555 0.541431 0.784786 0.943674 0.999987 0.946614 0.788475 0.542218 0.234609 0.100284 0.424789 0.701864 0.899359 0.993824 0.973412 0.839503 0.606810 0.301922 0.039622 0.377397 0.670841 0.884166 0.990805 0.976833 0.842946 0.604660 0.290673 0.060448 0.404938 0.699247 0.905597 0.996916 0.960531 0.800087 0.535382 0.200120 0.162285
1.000000 1.000000 1.000000 1.000000 1.000000 1.000000 1.000000 1.000000 1.000000 1.000000 1.000000 1.000000 1.000000 1.000000 1.000000 1.000000 1.000000 1.000000 1.000000 1.000000 1.000000 1.000000 1.000000 1.000000 1.000000 1.000000 1.000000 1.000000 1.000000 1.000000 1.000000 1.000000 1.000000 1.000000 1.000000 1.000000 1.000000 1.000000 1.000000 1.000000 1.000000 1.000000 1.000000 1.000000 1.000000 1.000000 1.000000 1.000000 1.000000 1.000000 1.000000 1.000000 0.918739 0.918739 0.918739 0.912298 0.912298 0.912298 0.912298 0.912298 0.912298 0.912298 0.912298 0.912298 0.912298 0.912298 0.912298 0.912298 0.912298 0.912298 0.912298 0.912298 0.912298 0.912298 0.912298 0.912298 0.912298 0.912298 0.912298 0.912298 0.912298 0.912298 0.912298 0.912298 0.912298 0.912298 0.912298 0.912298 0.912298 0.912298 0.912298 0.912298 0.912298 0.912298 0.912298 0.912298 0.941304 0.942733 0.950959 0.950561 0.949967 0.947923 0.946726 0.946376 0.946278 0.946611 0.947322 0.948288 0.954528 0.955762 0.960184 0.961857 0.962031 0.963747 0.964432 0.964041 0.955479 0.955264 0.953878 0.953323 0.955849 0.954921 0.954151 0.955121 0.955014 0.955448 0.955422 0.954744 0.953678 0.952598 0.951669 0.951261 0.951058 0.951784 0.952198 0.953659 0.956938 0.957526 0.957659 0.956009 0.954861 0.956144 0.955267 0.954693 0.942697 0.942330 0.941085 0.941116 0.944194 0.944215 0.944798 0.945414 0.947172 0.947542 0.942612 0.941698 0.933653 0.930862 0.928117 0.922574 0.917958 0.919880 0.921705 0.922477 0.922803 0.917690 0.917537 0.915362 0.911352 0.913823 0.913910 0.915308 0.916743 0.915361 0.914841 0.913500 0.911935 0.904301 0.892263 0.890947 0.888288 0.893264 0.893685 0.892740 0.895945 0.885099 0.870052 0.844793 0.847206 0.850565 0.841533 0.837750 0.837961 0.838625 0.842564 0.835006 0.832730 0.827904 0.817284 0.811042 0.804576 0.795354 0.795824 0.787536 0.778065 0.773906 0.798121 0.792270 0.802488 0.806985 0.806676 0.804032 0.797417 0.788541 0.764491 0.764463 0.745306 0.718090 0.718603 0.717035 0.716827 0.715148 0.720907 0.711844 0.709596 0.691784 0.687993 0.693244 0.696916 0.694202 0.694827 0.699295 0.703738 0.685049 0.674685 0.665818 0.671703 0.672530 0.672680 0.679156 0.656225 0.637003 0.623001 0.632407 0.639358 0.615812 0.628201 0.641752 0.617347 0.613980 0.604470 0.607553 0.597237 0.600006 0.598038 0.596914 0.602848 0.617211 0.606989 0.607489 0.617720 0.622803 0.635148 0.635791 0.638273 0.601841 0.604861 0.626176 0.630562 0.611866 0.627383 0.615918 0.634216 0.673951 0.665202 0.633110 0.626741 0.613515 0.575722 0.559713 0.554819 0.563320 0.596715 0.598001 0.574360 0.546926 0.550008 0.558462 0.563548 0.563937 0.548160 0.557069 0.545636 0.522382 0.531652 0.538280 0.537036 0.523160 0.509803 0.510980 0.512161 0.527330 0.522762 0.491810 0.511068 0.506942 0.495365 0.422479 0.436785 0.424463 0.414137 0.371299 0.381837 0.389836 0.373456 0.295589 0.282189 0.283273 0.282561 0.264660 0.243276 0.219666 0.210343 0.170327 0.175393 0.160273 0.133998 0.136404 0.120787 0.111404 0.115854 0.087609 0.141699 0.205392 0.207135 0.207135 0.207135 0.207135 0.207135 0.207135 0.189644 0.189644 0.189644 0.189644 0.189644 0.189644 0.189644 0.189644 0.189644 0.215260 0.215260 0.215260 0.215260 0.215260 0.215260 0.215260 0.215260 0.215260 0.215260 0.215260 0.215260 0.215260 0.215260
0.000000 0.000000 0.000000 0.000000 0.000000 0.000000 0.000000 0.000000 0.000000 0.000000 0.000000 0.000000 0.000000 0.000000 0.000000 0.000000 0.000000 0.000000 0.000000 0.000000 0.000000 0.000000 0.000000 0.000000 0.000000 0.000000 0.000000 0.000000 0.000000 0.000000 0.000000 0.000000 0.000000 0.000000 0.000000 0.000000 0.000000 0.000000 0.000000 0.000000 0.000000 0.000000 0.000000 0.000000 0.000000 0.000000 0.000000 0.000000 0.000000 0.000000 0.000000 0.000000 0.180334 0.180334 0.180334 0.199007 0.199007 0.199007 0.199007 0.199007 0.199007 0.199007 0.199007 0.199007 0.199007 0.199007 0.199007 0.199007 0.199007 0.199007 0.199007 0.199007 0.199007 0.199007 0.199007 0.199007 0.199007 0.199007 0.199007 0.199007 0.199007 0.199007 0.199007 0.199007 0.199007 0.199007 0.199007 0.199007 0.199007 0.199007 0.199007 0.199007 0.199007 0.199007 0.199007 0.199007 0.225018 0.225018 0.225018 0.225018 0.225018 0.225018 0.225018 0.225018 0.225018 0.225018 0.225018 0.225018 0.225018 0.225018 0.225018 0.225018 0.225018 0.225018 0.225018 0.225018 0.225018 0.225018 0.225018 0.225018 0.225018 0.225018 0.225018 0.225018 0.225018 0.244339 0.244339 0.244339 0.244339 0.244339 0.244339 0.244339 0.244339 0.244339 0.244339 0.244339 0.244339 0.244339 0.244339 0.244339 0.244339 0.244339 0.244339 0.244339 0.244339 0.244339 0.244339 0.244339 0.251976 0.251976 0.251976 0.251976 0.251976 0.251976 0.251976 0.251976 0.251976 0.251976 0.251976 0.251976 0.251976 0.251976 0.251976 0.251976 0.251976 0.251976 0.251976 0.251976 0.264906 0.264906 0.264906 0.264906 0.264906 0.264906 0.264906 0.264906 0.264906 0.264906 0.264906 0.264906 0.264906 0.264906 0.264906 0.264906 0.264906 0.264906 0.264906 0.264906 0.264906 0.264906 0.264906 0.264906 0.264906 0.264906 0.264906 0.264906 0.264906 0.264906 0.264906 0.264906 0.264906 0.264906 0.264906 0.264906 0.264906 0.264906 0.264906 0.264906 0.264906 0.264906 0.264906 0.264906 0.264906 0.264906 0.264906 0.264906 0.264906 0.264906 0.264906 0.264906 0.264906 0.264906 0.264906 0.264906 0.264906 0.264906 0.264906 0.264906 0.264906 0.264906 0.256074 0.256074 0.256074 0.256074 0.256074 0.256074 0.256074 0.256074 0.256074 0.256074 0.256074 0.256074 0.256074 0.256074 0.269680 0.269680 0.269680 0.269680 0.269680 0.269680 0.269680 0.269680 0.269680 0.269680 0.269680 0.269680 0.264906 0.264906 0.264906 0.264906 0.264906 0.264906 0.264906 0.264906 0.264906 0.264906 0.264906 0.264906 0.269680 0.269680 0.269680 0.269680 0.269680 0.269680 0.269680 0.269680 0.269680 0.269680 0.269680 0.264906 0.264906 0.264906 0.264906 0.264906 0.264906 0.264906 0.264906 0.264906 0.264906 0.264906 0.256074 0.256074 0.256074 0.256074 0.256074 0.256074 0.256074 0.256074 0.256074 0.256074 0.256074 0.264906 0.264906 0.264906 0.264906 0.264906 0.264906 0.264906 0.264906 0.264906 0.264906 0.260378 0.260378 0.260378 0.260378 0.260378 0.260378 0.260378 0.260378 0.260378 0.260378 0.256074 0.256074 0.256074 0.256074 0.256074 0.256074 0.256074 0.256074 0.256074 0.256074 0.260378 0.260378 0.260378 0.260378 0.260378 0.260378 0.260378 0.260378 0.260378 0.256074 0.256074 0.256074 0.256074 0.256074 0.256074 0.256074 0.256074 0.256074 0.251976 0.251976 0.251976 0.251976 0.251976 0.251976 0.251976 0.251976 0.251976 0.251976 0.251976 0.251976 0.251976 0.251976
