# Output from CTFFind version 4.1.9, run on 2019-11-03 19:00:53
# Input file: stack6_bm3d_averaged_1_3.25_0_1250_half.mrc ; Number of micrographs: 1
# Pixel size: 3.000 Angstroms ; acceleration voltage: 300.0 keV ; spherical aberration: 0.00 mm ; amplitude contrast: 0.07
# Box size: 512 pixels ; min. res.: 30.0 Angstroms ; max. res.: 5.0 Angstroms ; min. def.: 5000.0 um; max. def. 50000.0 um; num. frames averaged: 1
# 6 lines per micrograph: #1 - spatial frequency (1/Angstroms); #2 - 1D rotational average of spectrum (assuming no astigmatism); #3 - 1D rotational average of spectrum; #4 - CTF fit; #5 - cross-correlation between spectrum and CTF fit; #6 - 2sigma of expected cross correlation of noise
0.000000 0.000651 0.001302 0.001953 0.002604 0.003255 0.003906 0.004557 0.005208 0.005859 0.006510 0.007161 0.007812 0.008464 0.009115 0.009766 0.010417 0.011068 0.011719 0.012370 0.013021 0.013672 0.014323 0.014974 0.015625 0.016276 0.016927 0.017578 0.018229 0.018880 0.019531 0.020182 0.020833 0.021484 0.022135 0.022786 0.023438 0.024089 0.024740 0.025391 0.026042 0.026693 0.027344 0.027995 0.028646 0.029297 0.029948 0.030599 0.031250 0.031901 0.032552 0.033203 0.033854 0.034505 0.035156 0.035807 0.036458 0.037109 0.037760 0.038411 0.039062 0.039714 0.040365 0.041016 0.041667 0.042318 0.042969 0.043620 0.044271 0.044922 0.045573 0.046224 0.046875 0.047526 0.048177 0.048828 0.049479 0.050130 0.050781 0.051432 0.052083 0.052734 0.053385 0.054036 0.054688 0.055339 0.055990 0.056641 0.057292 0.057943 0.058594 0.059245 0.059896 0.060547 0.061198 0.061849 0.062500 0.063151 0.063802 0.064453 0.065104 0.065755 0.066406 0.067057 0.067708 0.068359 0.069010 0.069661 0.070312 0.070964 0.071615 0.072266 0.072917 0.073568 0.074219 0.074870 0.075521 0.076172 0.076823 0.077474 0.078125 0.078776 0.079427 0.080078 0.080729 0.081380 0.082031 0.082682 0.083333 0.083984 0.084635 0.085286 0.085938 0.086589 0.087240 0.087891 0.088542 0.089193 0.089844 0.090495 0.091146 0.091797 0.092448 0.093099 0.093750 0.094401 0.095052 0.095703 0.096354 0.097005 0.097656 0.098307 0.098958 0.099609 0.100260 0.100911 0.101562 0.102214 0.102865 0.103516 0.104167 0.104818 0.105469 0.106120 0.106771 0.107422 0.108073 0.108724 0.109375 0.110026 0.110677 0.111328 0.111979 0.112630 0.113281 0.113932 0.114583 0.115234 0.115885 0.116536 0.117188 0.117839 0.118490 0.119141 0.119792 0.120443 0.121094 0.121745 0.122396 0.123047 0.123698 0.124349 0.125000 0.125651 0.126302 0.126953 0.127604 0.128255 0.128906 0.129557 0.130208 0.130859 0.131510 0.132161 0.132812 0.133464 0.134115 0.134766 0.135417 0.136068 0.136719 0.137370 0.138021 0.138672 0.139323 0.139974 0.140625 0.141276 0.141927 0.142578 0.143229 0.143880 0.144531 0.145182 0.145833 0.146484 0.147135 0.147786 0.148438 0.149089 0.149740 0.150391 0.151042 0.151693 0.152344 0.152995 0.153646 0.154297 0.154948 0.155599 0.156250 0.156901 0.157552 0.158203 0.158854 0.159505 0.160156 0.160807 0.161458 0.162109 0.162760 0.163411 0.164062 0.164714 0.165365 0.166016 0.166667 0.167318 0.167969 0.168620 0.169271 0.169922 0.170573 0.171224 0.171875 0.172526 0.173177 0.173828 0.174479 0.175130 0.175781 0.176432 0.177083 0.177734 0.178385 0.179036 0.179688 0.180339 0.180990 0.181641 0.182292 0.182943 0.183594 0.184245 0.184896 0.185547 0.186198 0.186849 0.187500 0.188151 0.188802 0.189453 0.190104 0.190755 0.191406 0.192057 0.192708 0.193359 0.194010 0.194661 0.195312 0.195964 0.196615 0.197266 0.197917 0.198568 0.199219 0.199870 0.200521 0.201172 0.201823 0.202474 0.203125 0.203776 0.204427 0.205078 0.205729 0.206380 0.207031 0.207682 0.208333 0.208984 0.209635 0.210286 0.210938 0.211589 0.212240 0.212891 0.213542 0.214193 0.214844 0.215495 0.216146 0.216797 0.217448 0.218099 0.218750 0.219401 0.220052 0.220703 0.221354 0.222005 0.222656 0.223307 0.223958 0.224609 0.225260 0.225911 0.226562 0.227214 0.227865 0.228516 0.229167 0.229818 0.230469 0.231120 0.231771 0.232422 0.233073 0.233724 0.234375 0.235026 0.235677
       0.29925        0.29925        0.29925        0.29925        0.29925        0.29925        0.29925        0.29925        0.29925        0.29925        0.29925        0.29925        0.29925        0.29925        0.29925        0.29925        0.29925        0.29925        0.29925        0.29925        0.29925        0.29925        0.29925        0.29925        0.29925        0.29925        0.29925        0.29925        0.29925        0.29925        0.29925        0.29925        0.29925        0.29925        0.29925        0.29925        0.29925        0.29925        0.29925        0.29925        0.29925        0.29925        0.29925        0.29925        0.29925        0.29925        0.29925        0.29925        0.29925        0.29925        0.29925        0.61507        0.76940        0.37331        0.24484        0.14681       -0.13802        0.11863        0.02322        0.03621        0.10252        0.33866        0.38685        0.33294        0.19574       -0.02416        0.01920        0.05676       -0.17100       -0.17946       -0.09318       -0.12178       -0.28646       -0.17574       -0.31213       -0.28538       -0.30422       -0.38859       -0.45866       -0.44768       -0.37332       -0.32520       -0.41278       -0.31330       -0.38459       -0.32098       -0.25780       -0.19820       -0.16676       -0.07950       -0.04966        0.06620        0.10284        0.22028        0.31833        0.38160        0.38038        0.48929        0.56499        0.59313        0.67516        0.64899        0.70935        0.61306        0.64687        0.65168        0.59064        0.58887        0.60046        0.40008        0.35455        0.35618        0.33446        0.18407        0.12180        0.06359        0.07451        0.03788       -0.05853        0.00626       -0.03469       -0.07588        0.05559        0.15804        0.25947        0.32468        0.32272        0.38786        0.50289        0.53287        0.49068        0.65161        0.53057        0.50926        0.55656        0.55467        0.51658        0.46533        0.39752        0.35325        0.23613        0.18997        0.13290        0.14190        0.11052        0.05828        0.09219        0.14878        0.16217        0.16336        0.21358        0.25146        0.33391        0.44805        0.43928        0.44161        0.49800        0.55587        0.53844        0.49485        0.38294        0.40354        0.36098        0.28038        0.22846        0.21383        0.17093        0.17751        0.17259        0.17198        0.14286        0.20182        0.24430        0.33467        0.37249        0.39835        0.45632        0.48528        0.43591        0.44129        0.40392        0.40078        0.39844        0.33913        0.27327        0.26663        0.20719        0.23152        0.21890        0.18811        0.21521        0.22674        0.24920        0.31893        0.36214        0.36994        0.37780        0.39008        0.43228        0.42308        0.41177        0.31330        0.30080        0.27135        0.28744        0.24492        0.20246        0.25222        0.30113        0.29140        0.28507        0.32533        0.30263        0.37961        0.33803        0.34723        0.35775        0.34278        0.32049        0.30128        0.27242        0.28133        0.25229        0.23604        0.25214        0.26889        0.29075        0.30956        0.33904        0.35776        0.32146        0.30779        0.34528        0.31740        0.25758        0.27920        0.27018        0.25309        0.25848        0.28894        0.26994        0.26673        0.29968        0.29708        0.31430        0.32356        0.33278        0.27178        0.28354        0.29429        0.27857        0.25779        0.24797        0.23081        0.24473        0.25783        0.26605        0.28271        0.27076        0.30795        0.33496        0.30321        0.30380        0.23559        0.23672        0.25281        0.22828        0.21957        0.25171        0.29743        0.24970        0.29356        0.29384        0.28826        0.31448        0.25828        0.28568        0.28949        0.28363        0.25690        0.23381        0.23207        0.24378        0.28943        0.29279        0.30265        0.29140        0.31335        0.27844        0.31799        0.27811        0.20796        0.28780        0.27160        0.26943        0.28335        0.30856        0.30143        0.34144        0.28430        0.23859        0.23999        0.23099        0.25718        0.29515        0.29529        0.25513        0.27626        0.25802        0.27420        0.25873        0.26385        0.23287        0.25895        0.27034        0.24013        0.26148        0.30359        0.29572        0.25925        0.26513        0.23558        0.27335        0.20865        0.20550        0.22987        0.26961        0.27345        0.31392        0.26176        0.22652        0.25351        0.22070        0.21545        0.18933        0.21277        0.20238        0.25259        0.25938        0.19438        0.26250        0.24172        0.29300        0.24056        0.17986        0.20444        0.19898        0.13343        0.20261        0.13796        0.15346        0.19191        0.10097        0.27370        0.09421        0.05569        0.15233        0.12516        0.17834        0.18064       -0.06990       -0.60278       -0.97431
2.869056 2.840919 2.812926 2.785076 2.757370 2.729807 2.702388 2.675112 2.647979 2.620990 2.594144 2.567442 2.540883 2.514467 2.488195 2.462066 2.436081 2.410239 2.384541 2.358986 2.333574 2.308306 2.283181 2.258200 2.233362 2.208668 2.184117 2.159709 2.135445 2.111324 2.087346 2.063513 2.039822 2.016275 1.992871 1.969611 1.946494 1.923521 1.900691 1.878004 1.855461 1.833061 1.810805 1.788692 1.766722 1.744896 1.723214 1.701674 1.680279 1.659026 1.637917 1.964259 2.290001 1.683614 1.664007 1.346955 0.854684 1.201616 1.065491 1.103139 0.979669 1.550201 1.493892 1.493774 1.243021 0.922364 0.769845 1.001485 0.722338 0.430135 0.567478 0.651916 0.390122 0.459826 0.285359 0.272078 0.176656 0.162316 -0.078732 -0.030614 0.041418 0.042633 0.018444 0.125127 -0.054188 0.005478 0.119357 0.200958 0.241152 0.307032 0.335808 0.609496 0.496849 0.666735 0.884904 0.919199 0.905674 1.149934 1.149068 1.227144 1.314147 1.192024 1.406954 1.174286 1.161041 1.320165 1.125669 1.061200 1.179584 0.898106 0.687312 0.685846 0.724381 0.436914 0.385041 0.243836 0.212850 0.147514 0.006663 0.129426 0.017226 -0.076793 0.088974 0.214892 0.342221 0.478678 0.504749 0.521703 0.713831 0.782199 0.605600 0.972398 0.818107 0.669828 0.757774 0.719991 0.719232 0.694411 0.452278 0.496349 0.259319 0.197198 0.118565 -0.009107 0.056772 -0.079582 -0.045110 -0.019619 0.098666 -0.042990 0.209526 0.134372 0.202658 0.398237 0.464851 0.433427 0.391326 0.607725 0.620599 0.495112 0.350477 0.346666 0.327585 0.175239 0.085551 0.038010 0.024200 -0.024326 -0.036894 -0.031105 -0.110801 -0.005501 0.013397 0.115073 0.246940 0.230954 0.362966 0.348197 0.396663 0.347074 0.434393 0.356917 0.260683 0.334668 0.125402 0.185212 0.035186 0.074007 0.036398 0.027217 -0.043813 0.040180 0.060424 0.114465 0.232384 0.260719 0.226659 0.261945 0.338361 0.324539 0.328616 0.200917 0.114353 0.142691 0.068655 0.085257 -0.015665 -0.022724 0.086417 0.093429 0.102626 0.091433 0.117482 0.196586 0.205281 0.186952 0.167532 0.201067 0.137618 0.132817 0.072015 0.060114 0.089196 -0.034903 0.033699 0.057644 0.020662 0.122337 0.114947 0.185121 0.191040 0.134634 0.108158 0.184881 0.092032 0.034016 0.082202 0.030323 0.015087 0.059252 0.078917 0.044483 0.031871 0.125891 0.082626 0.113006 0.142217 0.112852 0.084514 0.045679 0.085802 0.059772 0.019709 -0.007250 -0.023538 0.010216 0.008740 0.043907 0.084642 0.001265 0.094824 0.145449 0.038237 0.075413 -0.038154 -0.004176 -0.016917 -0.048997 -0.060973 0.039600 0.054710 -0.043001 0.071580 0.043985 0.061754 0.054162 -0.006858 0.006098 0.088400 -0.027518 0.010056 -0.055866 -0.036174 -0.046938 0.053250 0.045681 0.039175 -0.002179 0.103327 -0.006495 0.082228 -0.045708 -0.097756 0.033443 -0.029054 0.012307 -0.029929 0.102199 0.035045 0.061021 -0.001740 -0.125434 -0.037411 -0.101228 0.007242 0.016481 0.008466 -0.044976 -0.027408 -0.047588 -0.013062 -0.053050 -0.034805 -0.108226 -0.059319 -0.022584 -0.078566 0.000853 0.026371 -0.009697 -0.036519 0.018857 -0.035863 0.021746 -0.082642 -0.079754 -0.049717 0.048526 0.073336 0.094764 0.019157 -0.008729 0.055042 -0.032748 -0.072038 0.000894 -0.058984 0.001455 0.068679 0.080206 -0.020857 0.110701 0.069077 0.195348 0.049676 0.025838 0.053298 0.060054 -0.115410 0.092952 -0.086122 0.087168 0.056362 -0.004890 0.416816 0.080373 0.087192 0.304042 0.197014 0.244029 0.285656 -0.099210 -1.472445
0.072396 0.072835 0.074150 0.076342 0.079411 0.083355 0.088173 0.093865 0.100429 0.107863 0.116165 0.125330 0.135357 0.146239 0.157972 0.170550 0.183964 0.198206 0.213265 0.229130 0.245787 0.263220 0.281411 0.300341 0.319986 0.340322 0.361320 0.382948 0.405173 0.427956 0.451255 0.475024 0.499214 0.523770 0.548633 0.573741 0.599026 0.624414 0.649827 0.675182 0.700392 0.725362 0.749995 0.774185 0.797825 0.820800 0.842992 0.864277 0.884528 0.903613 0.921396 0.937740 0.952503 0.965542 0.976713 0.985870 0.992868 0.997564 0.999815 0.999482 0.996431 0.990533 0.981664 0.969711 0.954568 0.936140 0.914346 0.889117 0.860401 0.828162 0.792382 0.753066 0.710237 0.663945 0.614261 0.561284 0.505141 0.445985 0.383999 0.319398 0.252425 0.183354 0.112490 0.040171 0.033238 0.107343 0.181720 0.255921 0.329472 0.401878 0.472627 0.541190 0.607026 0.669588 0.728325 0.782688 0.832138 0.876147 0.914207 0.945837 0.970588 0.988048 0.997855 0.999697 0.993321 0.978542 0.955245 0.923396 0.883042 0.834318 0.777453 0.712768 0.640683 0.561717 0.476485 0.385700 0.290166 0.190778 0.088515 0.015573 0.120365 0.224685 0.327316 0.427010 0.522503 0.612535 0.695865 0.771288 0.837658 0.893903 0.939050 0.972238 0.992743 0.999992 0.993582 0.973292 0.939102 0.891197 0.829976 0.756061 0.670293 0.573731 0.467644 0.353504 0.232967 0.107850 0.019886 0.148166 0.274835 0.397695 0.514537 0.623187 0.721546 0.807638 0.879646 0.935961 0.975221 0.996351 0.998594 0.981544 0.945172 0.889835 0.816294 0.725713 0.619648 0.500036 0.369162 0.229626 0.084301 0.063728 0.211219 0.354850 0.491284 0.617258 0.729658 0.825602 0.902525 0.958246 0.991048 0.999734 0.983681 0.942879 0.877950 0.790167 0.681433 0.554263 0.411735 0.257425 0.095331 0.070225 0.234711 0.393503 0.542018 0.675847 0.790894 0.883510 0.950617 0.989824 0.999523 0.978971 0.928340 0.848747 0.742249 0.611812 0.461247 0.295111 0.118582 0.062684 0.242742 0.415541 0.575131 0.715870 0.832637 0.921030 0.977541 0.999719 0.986289 0.937239 0.853866 0.738759 0.595756 0.429835 0.246950 0.053848 0.142180 0.333562 0.512740 0.672475 0.806142 0.908021 0.973564 0.999615 0.984584 0.928565 0.833382 0.702560 0.541231 0.355950 0.154463 0.054615 0.262150 0.458881 0.635844 0.784782 0.898556 0.971499 0.999725 0.981372 0.916737 0.808333 0.660823 0.480859 0.276813 0.058404 0.163740 0.378594 0.575286 0.743647 0.874762 0.961458 0.998733 0.984071 0.917647 0.802387 0.643892 0.450196 0.231397 0.000835 0.233878 0.454821 0.651195 0.811682 0.926788 0.989448 0.995481 0.943920 0.837146 0.680835 0.483703 0.257058 0.014195 0.230375 0.461781 0.665694 0.829226 0.941784 0.995785 0.987212 0.915957 0.785927 0.604881 0.384037 0.137397 0.119098 0.368572 0.594340 0.781018 0.915611 0.988445 0.993920 0.930984 0.803324 0.619203 0.391003 0.134429 0.132537 0.390865 0.621843 0.808441 0.936594 0.996317 0.982532 0.895560 0.741222 0.530516 0.278903 0.005216 0.269718 0.524645 0.739531 0.897174 0.984616 0.994272 0.924653 0.780615 0.573112 0.318424 0.036948 0.248406 0.514055 0.737696 0.900223 0.987385 0.991118 0.910360 0.751284 0.526926 0.256189 0.037697 0.329119 0.592302 0.803607 0.943697 0.999353 0.964810 0.842431 0.642657 0.383204 0.087573 0.217031 0.502170 0.740842 0.910055 0.993116 0.981348 0.875087 0.683835 0.425500 0.124815 0.188966 0.484890 0.733357 0.909107
1.000000 1.000000 1.000000 1.000000 1.000000 1.000000 1.000000 1.000000 1.000000 1.000000 1.000000 1.000000 1.000000 1.000000 1.000000 1.000000 1.000000 1.000000 1.000000 1.000000 1.000000 1.000000 1.000000 1.000000 1.000000 1.000000 1.000000 1.000000 1.000000 1.000000 1.000000 1.000000 1.000000 1.000000 1.000000 1.000000 1.000000 1.000000 1.000000 1.000000 1.000000 1.000000 1.000000 1.000000 1.000000 1.000000 1.000000 1.000000 1.000000 1.000000 1.000000 1.000000 0.827980 0.827980 0.827980 0.827980 0.827980 0.827980 0.827980 0.804047 0.804047 0.804047 0.804047 0.804047 0.804047 0.804047 0.804047 0.804047 0.804047 0.804047 0.804047 0.804047 0.804047 0.804047 0.804047 0.804047 0.804047 0.804047 0.804047 0.804047 0.804047 0.804047 0.804047 0.804047 0.804047 0.804047 0.804047 0.804047 0.804047 0.804047 0.804047 0.804047 0.804047 0.804047 0.804047 0.804047 0.804047 0.804047 0.804047 0.804047 0.804047 0.804047 0.804047 0.948876 0.949689 0.950025 0.949049 0.947553 0.944007 0.942308 0.941509 0.944199 0.944421 0.944411 0.945374 0.945950 0.947531 0.948519 0.950415 0.950401 0.958560 0.962244 0.961966 0.961706 0.961442 0.972164 0.971654 0.971530 0.969001 0.969137 0.969108 0.969002 0.968905 0.968477 0.967969 0.968470 0.968349 0.967882 0.967149 0.965652 0.964957 0.964337 0.964684 0.965505 0.965605 0.966193 0.968905 0.968057 0.968704 0.967372 0.966582 0.962024 0.959952 0.957944 0.958232 0.959409 0.959323 0.958866 0.957816 0.957869 0.957800 0.956707 0.956547 0.955429 0.951525 0.951650 0.951604 0.952467 0.947483 0.936255 0.933935 0.931100 0.932241 0.935013 0.938002 0.938134 0.938247 0.935963 0.928428 0.923534 0.913065 0.911190 0.908113 0.912282 0.912665 0.913688 0.913446 0.914152 0.912743 0.912026 0.901825 0.905175 0.902262 0.900557 0.896156 0.895155 0.894620 0.895916 0.898173 0.893553 0.879213 0.873819 0.865305 0.838882 0.837309 0.839486 0.847924 0.848377 0.846077 0.844362 0.829204 0.825843 0.811842 0.804431 0.805988 0.807310 0.807274 0.810089 0.812867 0.808124 0.795809 0.788998 0.791716 0.801366 0.811531 0.816926 0.814267 0.809121 0.808611 0.772536 0.770576 0.773188 0.765900 0.770973 0.758836 0.758997 0.761790 0.760934 0.756952 0.754103 0.752434 0.729579 0.735591 0.740313 0.743553 0.744773 0.729222 0.722331 0.681565 0.683816 0.662426 0.671984 0.673174 0.674421 0.663284 0.670050 0.672994 0.664317 0.670512 0.667549 0.649403 0.636700 0.641844 0.649689 0.614544 0.628125 0.626882 0.616247 0.608095 0.616874 0.630725 0.630143 0.608676 0.607257 0.573774 0.536965 0.519506 0.503931 0.492978 0.481463 0.492877 0.490495 0.496314 0.471009 0.452049 0.406699 0.417476 0.417971 0.380995 0.386135 0.378928 0.350061 0.368955 0.351371 0.365656 0.338256 0.322260 0.300730 0.231762 0.211519 0.168537 0.189917 0.176272 0.162392 0.154797 0.156123 0.145785 0.095994 0.083955 0.085112 0.110163 0.090923 0.063332 0.078181 0.081069 0.072420 0.064307 0.062119 0.114032 0.089813 0.099662 0.100832 0.060187 0.037336 -0.020848 -0.009865 -0.005715 0.025280 0.050587 0.034769 0.005182 -0.082193 -0.049920 -0.008973 -0.008973 -0.008973 -0.008973 -0.008973 -0.008973 -0.008973 -0.008973 -0.008973 -0.008973 -0.008973 -0.093386 -0.093386 -0.093386 -0.093386 -0.093386 -0.093386 -0.093386 -0.093386 -0.093386 -0.093386 -0.093386 -0.093386 -0.093386 -0.093386 -0.093386 -0.093386 -0.093386 -0.093386 -0.093386
0.000000 0.000000 0.000000 0.000000 0.000000 0.000000 0.000000 0.000000 0.000000 0.000000 0.000000 0.000000 0.000000 0.000000 0.000000 0.000000 0.000000 0.000000 0.000000 0.000000 0.000000 0.000000 0.000000 0.000000 0.000000 0.000000 0.000000 0.000000 0.000000 0.000000 0.000000 0.000000 0.000000 0.000000 0.000000 0.000000 0.000000 0.000000 0.000000 0.000000 0.000000 0.000000 0.000000 0.000000 0.000000 0.000000 0.000000 0.000000 0.000000 0.000000 0.000000 0.000000 0.173422 0.173422 0.173422 0.173422 0.173422 0.173422 0.173422 0.191565 0.191565 0.191565 0.191565 0.191565 0.191565 0.191565 0.191565 0.191565 0.191565 0.191565 0.191565 0.191565 0.191565 0.191565 0.191565 0.191565 0.191565 0.191565 0.191565 0.191565 0.191565 0.191565 0.191565 0.191565 0.191565 0.191565 0.191565 0.191565 0.191565 0.191565 0.191565 0.191565 0.191565 0.191565 0.191565 0.191565 0.191565 0.191565 0.191565 0.191565 0.191565 0.191565 0.191565 0.219529 0.219529 0.219529 0.219529 0.219529 0.219529 0.219529 0.219529 0.219529 0.219529 0.219529 0.219529 0.219529 0.219529 0.219529 0.219529 0.219529 0.219529 0.219529 0.219529 0.219529 0.219529 0.219529 0.219529 0.219529 0.219529 0.219529 0.219529 0.219529 0.219529 0.219529 0.237356 0.237356 0.237356 0.237356 0.237356 0.237356 0.237356 0.237356 0.237356 0.237356 0.237356 0.237356 0.237356 0.237356 0.237356 0.237356 0.237356 0.237356 0.237356 0.237356 0.237356 0.237356 0.237356 0.237356 0.244339 0.244339 0.244339 0.244339 0.244339 0.244339 0.244339 0.244339 0.244339 0.244339 0.244339 0.244339 0.244339 0.244339 0.244339 0.244339 0.244339 0.244339 0.244339 0.244339 0.244339 0.248069 0.248069 0.248069 0.248069 0.248069 0.248069 0.248069 0.248069 0.248069 0.248069 0.248069 0.248069 0.248069 0.248069 0.248069 0.248069 0.248069 0.248069 0.248069 0.248069 0.248069 0.248069 0.248069 0.248069 0.248069 0.248069 0.248069 0.248069 0.248069 0.248069 0.248069 0.248069 0.248069 0.248069 0.248069 0.248069 0.248069 0.256074 0.256074 0.256074 0.256074 0.256074 0.256074 0.256074 0.256074 0.256074 0.256074 0.256074 0.256074 0.256074 0.256074 0.256074 0.256074 0.256074 0.256074 0.256074 0.256074 0.256074 0.256074 0.256074 0.256074 0.256074 0.256074 0.256074 0.256074 0.256074 0.256074 0.256074 0.256074 0.256074 0.256074 0.256074 0.256074 0.256074 0.256074 0.256074 0.256074 0.256074 0.256074 0.256074 0.256074 0.256074 0.260378 0.260378 0.260378 0.260378 0.260378 0.260378 0.260378 0.260378 0.260378 0.260378 0.260378 0.260378 0.260378 0.256074 0.256074 0.256074 0.256074 0.256074 0.256074 0.256074 0.256074 0.256074 0.256074 0.256074 0.256074 0.256074 0.260378 0.260378 0.260378 0.260378 0.260378 0.260378 0.260378 0.260378 0.260378 0.260378 0.260378 0.260378 0.251976 0.251976 0.251976 0.251976 0.251976 0.251976 0.251976 0.251976 0.251976 0.251976 0.251976 0.251976 0.256074 0.256074 0.256074 0.256074 0.256074 0.256074 0.256074 0.256074 0.256074 0.256074 0.256074 0.251976 0.251976 0.251976 0.251976 0.251976 0.251976 0.251976 0.251976 0.251976 0.251976 0.251976 0.248069 0.248069 0.248069 0.248069 0.248069 0.248069 0.248069 0.248069 0.248069 0.248069 0.248069 0.256074 0.256074 0.256074 0.256074 0.256074 0.256074 0.256074 0.256074 0.256074 0.256074 0.256074 0.256074 0.256074 0.256074 0.256074 0.256074 0.256074 0.256074 0.256074
