# Output from CTFFind version 4.1.9, run on 2019-11-02 17:50:07
# Input file: stack6_bm3d_averaged_1_0.75_0_3000_half.mrc ; Number of micrographs: 1
# Pixel size: 3.000 Angstroms ; acceleration voltage: 300.0 keV ; spherical aberration: 0.00 mm ; amplitude contrast: 0.07
# Box size: 512 pixels ; min. res.: 30.0 Angstroms ; max. res.: 5.0 Angstroms ; min. def.: 5000.0 um; max. def. 50000.0 um; num. frames averaged: 1
# 6 lines per micrograph: #1 - spatial frequency (1/Angstroms); #2 - 1D rotational average of spectrum (assuming no astigmatism); #3 - 1D rotational average of spectrum; #4 - CTF fit; #5 - cross-correlation between spectrum and CTF fit; #6 - 2sigma of expected cross correlation of noise
0.000000 0.000651 0.001302 0.001953 0.002604 0.003255 0.003906 0.004557 0.005208 0.005859 0.006510 0.007161 0.007812 0.008464 0.009115 0.009766 0.010417 0.011068 0.011719 0.012370 0.013021 0.013672 0.014323 0.014974 0.015625 0.016276 0.016927 0.017578 0.018229 0.018880 0.019531 0.020182 0.020833 0.021484 0.022135 0.022786 0.023438 0.024089 0.024740 0.025391 0.026042 0.026693 0.027344 0.027995 0.028646 0.029297 0.029948 0.030599 0.031250 0.031901 0.032552 0.033203 0.033854 0.034505 0.035156 0.035807 0.036458 0.037109 0.037760 0.038411 0.039062 0.039714 0.040365 0.041016 0.041667 0.042318 0.042969 0.043620 0.044271 0.044922 0.045573 0.046224 0.046875 0.047526 0.048177 0.048828 0.049479 0.050130 0.050781 0.051432 0.052083 0.052734 0.053385 0.054036 0.054688 0.055339 0.055990 0.056641 0.057292 0.057943 0.058594 0.059245 0.059896 0.060547 0.061198 0.061849 0.062500 0.063151 0.063802 0.064453 0.065104 0.065755 0.066406 0.067057 0.067708 0.068359 0.069010 0.069661 0.070312 0.070964 0.071615 0.072266 0.072917 0.073568 0.074219 0.074870 0.075521 0.076172 0.076823 0.077474 0.078125 0.078776 0.079427 0.080078 0.080729 0.081380 0.082031 0.082682 0.083333 0.083984 0.084635 0.085286 0.085938 0.086589 0.087240 0.087891 0.088542 0.089193 0.089844 0.090495 0.091146 0.091797 0.092448 0.093099 0.093750 0.094401 0.095052 0.095703 0.096354 0.097005 0.097656 0.098307 0.098958 0.099609 0.100260 0.100911 0.101562 0.102214 0.102865 0.103516 0.104167 0.104818 0.105469 0.106120 0.106771 0.107422 0.108073 0.108724 0.109375 0.110026 0.110677 0.111328 0.111979 0.112630 0.113281 0.113932 0.114583 0.115234 0.115885 0.116536 0.117188 0.117839 0.118490 0.119141 0.119792 0.120443 0.121094 0.121745 0.122396 0.123047 0.123698 0.124349 0.125000 0.125651 0.126302 0.126953 0.127604 0.128255 0.128906 0.129557 0.130208 0.130859 0.131510 0.132161 0.132812 0.133464 0.134115 0.134766 0.135417 0.136068 0.136719 0.137370 0.138021 0.138672 0.139323 0.139974 0.140625 0.141276 0.141927 0.142578 0.143229 0.143880 0.144531 0.145182 0.145833 0.146484 0.147135 0.147786 0.148438 0.149089 0.149740 0.150391 0.151042 0.151693 0.152344 0.152995 0.153646 0.154297 0.154948 0.155599 0.156250 0.156901 0.157552 0.158203 0.158854 0.159505 0.160156 0.160807 0.161458 0.162109 0.162760 0.163411 0.164062 0.164714 0.165365 0.166016 0.166667 0.167318 0.167969 0.168620 0.169271 0.169922 0.170573 0.171224 0.171875 0.172526 0.173177 0.173828 0.174479 0.175130 0.175781 0.176432 0.177083 0.177734 0.178385 0.179036 0.179688 0.180339 0.180990 0.181641 0.182292 0.182943 0.183594 0.184245 0.184896 0.185547 0.186198 0.186849 0.187500 0.188151 0.188802 0.189453 0.190104 0.190755 0.191406 0.192057 0.192708 0.193359 0.194010 0.194661 0.195312 0.195964 0.196615 0.197266 0.197917 0.198568 0.199219 0.199870 0.200521 0.201172 0.201823 0.202474 0.203125 0.203776 0.204427 0.205078 0.205729 0.206380 0.207031 0.207682 0.208333 0.208984 0.209635 0.210286 0.210938 0.211589 0.212240 0.212891 0.213542 0.214193 0.214844 0.215495 0.216146 0.216797 0.217448 0.218099 0.218750 0.219401 0.220052 0.220703 0.221354 0.222005 0.222656 0.223307 0.223958 0.224609 0.225260 0.225911 0.226562 0.227214 0.227865 0.228516 0.229167 0.229818 0.230469 0.231120 0.231771 0.232422 0.233073 0.233724 0.234375 0.235026 0.235677
       0.31441        0.31441        0.31441        0.31441        0.31441        0.31441        0.31441        0.31441        0.31441        0.31441        0.31441        0.31441        0.31441        0.31441        0.31441        0.31441        0.31441        0.31441        0.31441        0.31441        0.31441        0.31441        0.31441        0.31441        0.31441        0.31441        0.31441        0.31441        0.31441        0.31441        0.31441        0.31441        0.31441        0.31441        0.31441        0.31441        0.31441        0.31441        0.31441        0.31441        0.31441        0.31441        0.31441        0.31441        0.31441        0.31441        0.31441        0.31441        0.31441        0.31441        0.31441        0.63881        0.82364        0.41837        0.31510        0.19392       -0.10195        0.11479       -0.00019        0.03668        0.12023        0.33945        0.43005        0.41286        0.22873       -0.00670        0.05034        0.07501       -0.16213       -0.17449       -0.08819       -0.10474       -0.29066       -0.18426       -0.30062       -0.25251       -0.28069       -0.39772       -0.47437       -0.47593       -0.42018       -0.33682       -0.43680       -0.36633       -0.40664       -0.34792       -0.27086       -0.19718       -0.19081       -0.13237       -0.09316        0.03777        0.08674        0.25051        0.28372        0.37451        0.40360        0.51877        0.58955        0.60822        0.74505        0.70260        0.74228        0.65094        0.66799        0.70101        0.63692        0.61739        0.61066        0.43866        0.40233        0.36264        0.32569        0.22569        0.13877        0.06262        0.06190       -0.00206       -0.07670       -0.03253       -0.02907       -0.06644        0.06466        0.16854        0.25864        0.32396        0.34128        0.43587        0.54764        0.59249        0.54694        0.66933        0.56755        0.54552        0.60198        0.64527        0.53438        0.46080        0.41194        0.37812        0.25536        0.22029        0.13306        0.11720        0.05865        0.06552        0.11446        0.17078        0.14966        0.18104        0.21936        0.24229        0.33726        0.46036        0.50046        0.50046        0.52454        0.57854        0.57292        0.52792        0.42835        0.38879        0.36962        0.27173        0.25159        0.22084        0.20854        0.20954        0.18633        0.15948        0.12621        0.19142        0.25125        0.35130        0.38453        0.40733        0.46340        0.53960        0.48181        0.48654        0.42271        0.40137        0.38590        0.36672        0.29274        0.26283        0.20676        0.23785        0.22131        0.19481        0.21982        0.22722        0.24487        0.30004        0.40301        0.40285        0.37277        0.39226        0.45764        0.48707        0.43009        0.35813        0.32921        0.28751        0.26473        0.24647        0.21379        0.28693        0.29565        0.29483        0.31899        0.31377        0.35315        0.37392        0.37654        0.37889        0.35665        0.32015        0.33906        0.32195        0.30353        0.28371        0.27416        0.22047        0.27475        0.27655        0.30515        0.32412        0.34616        0.37625        0.34203        0.32134        0.35933        0.37298        0.27263        0.29966        0.30786        0.24613        0.21576        0.26145        0.27134        0.27873        0.30153        0.30732        0.33699        0.33867        0.36614        0.33271        0.32824        0.31173        0.29428        0.27449        0.25010        0.25647        0.26152        0.27515        0.30191        0.29454        0.30068        0.31512        0.33152        0.26799        0.30804        0.27032        0.26648        0.28191        0.26682        0.26222        0.26949        0.31581        0.29176        0.32292        0.28914        0.27827        0.31045        0.31338        0.33282        0.31799        0.29826        0.25758        0.27375        0.28023        0.27031        0.31222        0.31667        0.34131        0.32649        0.30554        0.26466        0.28543        0.21448        0.20771        0.24164        0.26629        0.25447        0.29258        0.31181        0.29448        0.34953        0.31393        0.27154        0.23772        0.23656        0.28551        0.30757        0.30739        0.26570        0.27564        0.25266        0.32641        0.28986        0.25152        0.26832        0.25681        0.29207        0.25157        0.29570        0.32863        0.28912        0.21821        0.22584        0.28088        0.32845        0.28412        0.27024        0.24640        0.27729        0.28802        0.37215        0.30457        0.29201        0.26170        0.26834        0.22872        0.18428        0.25865        0.23715        0.21217        0.19775        0.19654        0.23595        0.23331        0.24519        0.19456        0.24836        0.23034        0.20488        0.17964        0.17055        0.20219        0.23476        0.15628        0.08183        0.19116        0.19678        0.15520        0.25418        0.14775        0.23697        0.22489       -0.09198       -0.49264       -0.94560
2.861908 2.833761 2.805759 2.777901 2.750188 2.722620 2.695196 2.667918 2.640783 2.613794 2.586949 2.560249 2.533694 2.507283 2.481017 2.454896 2.428920 2.403088 2.377401 2.351858 2.326460 2.301208 2.276099 2.251136 2.226317 2.201642 2.177113 2.152728 2.128488 2.104393 2.080442 2.056636 2.032975 2.009458 1.986086 1.962859 1.939777 1.916839 1.894046 1.871397 1.848894 1.826535 1.804321 1.782251 1.760326 1.738546 1.716911 1.695420 1.674074 1.652872 1.631816 1.929611 2.288453 1.703632 1.749343 1.390402 0.950171 1.206952 1.025568 1.078994 1.036365 1.498105 1.528812 1.557184 1.286330 0.951349 0.829095 1.015393 0.724361 0.499751 0.584890 0.683357 0.423140 0.494181 0.326612 0.374008 0.251596 0.166891 -0.036642 0.001400 0.027581 0.079434 0.041577 0.073637 -0.038962 0.026573 0.115465 0.227210 0.290027 0.209996 0.321318 0.550045 0.454016 0.729513 0.793186 0.886219 0.912876 1.118831 1.142728 1.176843 1.336082 1.240533 1.378178 1.185708 1.118228 1.303219 1.149406 1.057922 1.128204 0.892613 0.747505 0.684483 0.674366 0.461732 0.401242 0.261462 0.234673 0.086239 -0.009070 0.084728 0.026035 -0.062768 0.115914 0.254308 0.308952 0.470052 0.488924 0.564644 0.723168 0.819481 0.667388 0.956354 0.798352 0.671966 0.769762 0.807907 0.713258 0.640262 0.453761 0.501506 0.283702 0.200242 0.141876 0.004131 -0.021415 -0.097835 -0.012280 0.024035 0.098980 -0.053485 0.248752 0.096793 0.211257 0.378577 0.444992 0.533530 0.439955 0.576874 0.628681 0.521394 0.394715 0.336149 0.325559 0.153326 0.128194 0.023928 0.088537 0.039076 -0.001374 -0.024813 -0.125763 -0.013555 0.019848 0.109865 0.295648 0.200024 0.353093 0.371086 0.428756 0.436680 0.373478 0.322154 0.227531 0.305408 0.166862 0.153706 0.017173 0.047305 0.067422 -0.026996 -0.010358 0.015386 0.058007 0.072398 0.208913 0.307686 0.237179 0.208552 0.374952 0.406971 0.351732 0.243181 0.176854 0.154844 0.083670 0.075993 0.016938 0.019467 0.136830 0.047965 0.187497 0.086947 0.145430 0.230133 0.210921 0.221888 0.210554 0.189717 0.122614 0.163871 0.122248 0.098839 0.106022 0.000701 0.027522 0.087454 0.048334 0.147252 0.119299 0.207556 0.201438 0.136866 0.123813 0.225784 0.121606 0.076309 0.086125 0.054776 -0.000518 -0.026840 0.040046 0.067625 0.027169 0.111453 0.106300 0.123656 0.126679 0.180935 0.118477 0.080078 0.096420 0.078708 0.010892 0.011471 0.028246 -0.002601 0.062183 0.101513 0.054097 0.060900 0.139952 0.087731 0.013464 0.112298 0.017795 0.033810 0.063439 0.018491 0.011522 0.061434 0.086567 0.039477 0.112461 0.050963 0.031687 0.123935 0.077515 0.089615 0.096830 0.029790 -0.002577 0.011880 0.055344 0.025274 0.058959 0.099118 0.103522 0.062790 0.129292 0.003221 0.034394 -0.085708 -0.012942 -0.042444 0.020285 0.016415 0.046976 0.069147 0.080026 0.120173 0.023795 0.004507 -0.061132 -0.077965 0.071481 0.043242 0.062239 -0.022579 -0.002357 -0.039319 0.072891 0.028871 -0.057798 -0.015321 -0.066510 0.033443 -0.040736 0.041092 0.064892 -0.008805 -0.068180 -0.063318 0.111920 0.057471 0.025502 0.006305 -0.044068 0.077212 0.067046 0.169432 0.066367 0.032368 0.039087 0.072386 -0.050973 -0.040000 0.061291 0.030049 -0.019466 -0.030167 -0.045818 0.088851 -0.052337 0.084692 -0.005341 0.104285 -0.015397 0.044954 -0.092118 -0.025074 -0.042047 0.085843 -0.037064 -0.124346 0.251660 0.284379 0.219682 0.435806 0.163495 0.311230 0.389691 -0.127447 -1.326072
0.072396 0.072834 0.074148 0.076338 0.079402 0.083341 0.088154 0.093839 0.100395 0.107820 0.116111 0.125266 0.135280 0.146150 0.157869 0.170431 0.183829 0.198054 0.213096 0.228942 0.245579 0.262992 0.281162 0.300071 0.319694 0.340007 0.360982 0.382588 0.404789 0.427549 0.450825 0.474571 0.498739 0.523273 0.548116 0.573204 0.598470 0.623841 0.649239 0.674581 0.699780 0.724742 0.749369 0.773558 0.797199 0.820180 0.842382 0.863681 0.883952 0.903061 0.920875 0.937255 0.952061 0.965150 0.976377 0.985597 0.992666 0.997441 0.999778 0.999540 0.996592 0.990804 0.982055 0.970228 0.955219 0.936933 0.915288 0.890215 0.861660 0.829588 0.793980 0.754839 0.712189 0.666076 0.616572 0.563775 0.507808 0.448824 0.387006 0.322563 0.255739 0.186807 0.116068 0.043857 0.029461 0.103496 0.177824 0.252000 0.325553 0.397990 0.468800 0.537456 0.603418 0.666141 0.725074 0.779671 0.829391 0.873707 0.912111 0.944120 0.969285 0.987192 0.997475 0.999820 0.993972 0.979741 0.957008 0.925732 0.885956 0.837809 0.781512 0.717380 0.645827 0.567361 0.482593 0.392224 0.297054 0.197969 0.095939 0.007990 0.112706 0.217038 0.319774 0.419670 0.515465 0.605900 0.689734 0.765762 0.832833 0.889873 0.935900 0.970046 0.991578 0.999909 0.994623 0.975487 0.942460 0.895711 0.835622 0.762792 0.678045 0.582417 0.477162 0.363727 0.243751 0.119036 0.008471 0.136712 0.263538 0.386758 0.504167 0.613591 0.712925 0.800183 0.873535 0.931354 0.972255 0.995137 0.999213 0.984044 0.949560 0.896082 0.824332 0.735428 0.630889 0.512609 0.382835 0.244136 0.099351 0.048458 0.196068 0.340166 0.477424 0.604569 0.718475 0.816238 0.895257 0.953314 0.988640 0.999983 0.986655 0.948578 0.886304 0.801031 0.694590 0.569425 0.428547 0.275474 0.114155 0.051132 0.215876 0.375470 0.525324 0.661011 0.778400 0.873790 0.944032 0.986653 0.999951 0.983077 0.936089 0.859988 0.756713 0.629118 0.480904 0.316537 0.141116 0.039767 0.220203 0.394153 0.555653 0.699021 0.819067 0.911296 0.972079 0.998826 0.990104 0.945733 0.866834 0.755824 0.616373 0.453301 0.272435 0.080417 0.115534 0.307884 0.489069 0.651799 0.789359 0.895900 0.966704 0.998414 0.989216 0.938962 0.849228 0.723295 0.566066 0.383896 0.184358 0.024052 0.232264 0.431028 0.611329 0.764795 0.884110 0.963378 0.998441 0.987124 0.929396 0.827431 0.685569 0.510162 0.309325 0.092583 0.129565 0.346141 0.546229 0.719538 0.856937 0.950963 0.996257 0.989900 0.931632 0.823939 0.671993 0.483448 0.268085 0.037332 0.196317 0.419978 0.621078 0.788088 0.911184 0.982879 0.998493 0.956514 0.858757 0.710347 0.519500 0.297109 0.056154 0.189032 0.423599 0.633084 0.804318 0.926272 0.990814 0.993282 0.932872 0.812787 0.640121 0.425500 0.182463 0.073340 0.325163 0.556228 0.750866 0.895604 0.980123 0.998051 0.947492 0.831263 0.656802 0.435765 0.183287 0.083017 0.344238 0.581541 0.777509 0.917460 0.990587 0.990849 0.917529 0.775403 0.574516 0.329515 0.058657 0.217533 0.477797 0.701771 0.871618 0.973481 0.998671 0.944475 0.814499 0.618524 0.371828 0.094080 0.192217 0.463497 0.697094 0.873140 0.976324 0.997264 0.933442 0.789568 0.577317 0.314467 0.023472 0.270419 0.541318 0.765013 0.921140 0.995105 0.979525 0.875040 0.690421 0.441927 0.151949 0.152942 0.444401 0.694945 0.880570 0.983095 0.992030 0.905733 0.731741 0.486223 0.192565 0.120794 0.423072 0.684164 0.877660
1.000000 1.000000 1.000000 1.000000 1.000000 1.000000 1.000000 1.000000 1.000000 1.000000 1.000000 1.000000 1.000000 1.000000 1.000000 1.000000 1.000000 1.000000 1.000000 1.000000 1.000000 1.000000 1.000000 1.000000 1.000000 1.000000 1.000000 1.000000 1.000000 1.000000 1.000000 1.000000 1.000000 1.000000 1.000000 1.000000 1.000000 1.000000 1.000000 1.000000 1.000000 1.000000 1.000000 1.000000 1.000000 1.000000 1.000000 1.000000 1.000000 1.000000 1.000000 1.000000 0.835748 0.835748 0.835748 0.835748 0.835748 0.835748 0.835748 0.813330 0.813330 0.813330 0.813330 0.813330 0.813330 0.813330 0.813330 0.813330 0.813330 0.813330 0.813330 0.813330 0.813330 0.813330 0.813330 0.813330 0.813330 0.813330 0.813330 0.813330 0.813330 0.813330 0.813330 0.813330 0.813330 0.813330 0.813330 0.813330 0.813330 0.813330 0.813330 0.813330 0.813330 0.813330 0.813330 0.813330 0.813330 0.813330 0.813330 0.813330 0.813330 0.813330 0.813330 0.952778 0.953413 0.945693 0.944556 0.942778 0.939607 0.935111 0.934660 0.936024 0.936229 0.936862 0.939044 0.940104 0.941834 0.943089 0.943981 0.944835 0.952925 0.956569 0.956192 0.955751 0.951200 0.957864 0.955928 0.955763 0.956576 0.956890 0.957612 0.957482 0.957306 0.956743 0.955567 0.956309 0.956161 0.955423 0.954370 0.952454 0.952453 0.951997 0.951992 0.952961 0.953846 0.954490 0.955005 0.954959 0.955151 0.955130 0.955028 0.949927 0.949961 0.943577 0.944298 0.945497 0.945195 0.944116 0.942712 0.942759 0.942613 0.942513 0.942297 0.942529 0.924179 0.923516 0.923548 0.923754 0.916485 0.906080 0.899655 0.893559 0.894480 0.898325 0.903080 0.903143 0.899948 0.899146 0.882982 0.886778 0.874675 0.871542 0.860279 0.870620 0.872836 0.874004 0.869206 0.868597 0.867387 0.865287 0.857039 0.861054 0.862144 0.858094 0.854575 0.852396 0.850911 0.852229 0.857057 0.854008 0.848840 0.846167 0.835217 0.826253 0.825049 0.827687 0.835377 0.847343 0.847911 0.847309 0.839827 0.836023 0.829065 0.823153 0.820032 0.821853 0.819188 0.823165 0.821645 0.828085 0.818273 0.814047 0.819093 0.828715 0.834620 0.837486 0.839982 0.838047 0.833751 0.813823 0.814474 0.809398 0.760913 0.763970 0.749887 0.749993 0.738619 0.736479 0.733601 0.733642 0.727497 0.718734 0.730471 0.720729 0.695128 0.702683 0.696724 0.687051 0.664725 0.668395 0.682768 0.690775 0.689090 0.695245 0.682196 0.680329 0.692961 0.694262 0.701574 0.697520 0.695599 0.687887 0.690126 0.679289 0.679036 0.670968 0.670124 0.670596 0.666852 0.654720 0.662071 0.659012 0.656772 0.647051 0.607876 0.575775 0.553885 0.547423 0.528817 0.501560 0.519457 0.530389 0.510943 0.500196 0.480759 0.437548 0.430400 0.428464 0.398025 0.385945 0.364860 0.331587 0.328157 0.334235 0.342013 0.331388 0.330819 0.316316 0.271410 0.268725 0.232486 0.250606 0.272642 0.257654 0.237312 0.241146 0.250767 0.244439 0.253708 0.252460 0.265975 0.221085 0.167670 0.188399 0.185080 0.198606 0.185817 0.158106 0.183495 0.172476 0.181625 0.184203 0.145078 0.112855 0.092257 0.065269 0.072272 0.097021 0.111553 0.105940 0.086927 -0.000381 0.030167 0.053801 0.053801 0.053801 0.053801 0.053801 0.053801 0.053801 0.053801 0.053801 0.053801 0.053801 -0.004767 -0.004767 -0.004767 -0.004767 -0.004767 -0.004767 -0.004767 -0.004767 -0.004767 -0.004767 -0.004767 -0.004767 -0.004767 -0.004767 -0.004767 -0.004767 -0.004767 -0.004767 -0.004767
0.000000 0.000000 0.000000 0.000000 0.000000 0.000000 0.000000 0.000000 0.000000 0.000000 0.000000 0.000000 0.000000 0.000000 0.000000 0.000000 0.000000 0.000000 0.000000 0.000000 0.000000 0.000000 0.000000 0.000000 0.000000 0.000000 0.000000 0.000000 0.000000 0.000000 0.000000 0.000000 0.000000 0.000000 0.000000 0.000000 0.000000 0.000000 0.000000 0.000000 0.000000 0.000000 0.000000 0.000000 0.000000 0.000000 0.000000 0.000000 0.000000 0.000000 0.000000 0.000000 0.173422 0.173422 0.173422 0.173422 0.173422 0.173422 0.173422 0.191565 0.191565 0.191565 0.191565 0.191565 0.191565 0.191565 0.191565 0.191565 0.191565 0.191565 0.191565 0.191565 0.191565 0.191565 0.191565 0.191565 0.191565 0.191565 0.191565 0.191565 0.191565 0.191565 0.191565 0.191565 0.191565 0.191565 0.191565 0.191565 0.191565 0.191565 0.191565 0.191565 0.191565 0.191565 0.191565 0.191565 0.191565 0.191565 0.191565 0.191565 0.191565 0.191565 0.191565 0.219529 0.219529 0.219529 0.219529 0.219529 0.219529 0.219529 0.219529 0.219529 0.219529 0.219529 0.219529 0.219529 0.219529 0.219529 0.219529 0.219529 0.219529 0.219529 0.219529 0.219529 0.219529 0.219529 0.219529 0.219529 0.219529 0.219529 0.219529 0.219529 0.219529 0.219529 0.237356 0.237356 0.237356 0.237356 0.237356 0.237356 0.237356 0.237356 0.237356 0.237356 0.237356 0.237356 0.237356 0.237356 0.237356 0.237356 0.237356 0.237356 0.237356 0.237356 0.237356 0.237356 0.237356 0.237356 0.244339 0.244339 0.244339 0.244339 0.244339 0.244339 0.244339 0.244339 0.244339 0.244339 0.244339 0.244339 0.244339 0.244339 0.244339 0.244339 0.244339 0.244339 0.244339 0.244339 0.244339 0.248069 0.248069 0.248069 0.248069 0.248069 0.248069 0.248069 0.248069 0.248069 0.248069 0.248069 0.248069 0.248069 0.248069 0.248069 0.248069 0.248069 0.248069 0.248069 0.248069 0.248069 0.248069 0.248069 0.248069 0.248069 0.248069 0.248069 0.248069 0.248069 0.248069 0.248069 0.248069 0.248069 0.248069 0.248069 0.248069 0.248069 0.256074 0.256074 0.256074 0.256074 0.256074 0.256074 0.256074 0.256074 0.256074 0.256074 0.256074 0.256074 0.256074 0.256074 0.256074 0.256074 0.256074 0.256074 0.256074 0.256074 0.256074 0.256074 0.256074 0.256074 0.256074 0.256074 0.256074 0.256074 0.256074 0.256074 0.256074 0.256074 0.256074 0.256074 0.256074 0.256074 0.256074 0.256074 0.256074 0.256074 0.256074 0.256074 0.256074 0.256074 0.256074 0.260378 0.260378 0.260378 0.260378 0.260378 0.260378 0.260378 0.260378 0.260378 0.260378 0.260378 0.260378 0.260378 0.256074 0.256074 0.256074 0.256074 0.256074 0.256074 0.256074 0.256074 0.256074 0.256074 0.256074 0.256074 0.256074 0.260378 0.260378 0.260378 0.260378 0.260378 0.260378 0.260378 0.260378 0.260378 0.260378 0.260378 0.260378 0.251976 0.251976 0.251976 0.251976 0.251976 0.251976 0.251976 0.251976 0.251976 0.251976 0.251976 0.251976 0.256074 0.256074 0.256074 0.256074 0.256074 0.256074 0.256074 0.256074 0.256074 0.256074 0.256074 0.251976 0.251976 0.251976 0.251976 0.251976 0.251976 0.251976 0.251976 0.251976 0.251976 0.251976 0.248069 0.248069 0.248069 0.248069 0.248069 0.248069 0.248069 0.248069 0.248069 0.248069 0.248069 0.256074 0.256074 0.256074 0.256074 0.256074 0.256074 0.256074 0.256074 0.256074 0.256074 0.256074 0.256074 0.256074 0.256074 0.256074 0.256074 0.256074 0.256074 0.256074
