# Output from CTFFind version 4.1.9, run on 2019-11-03 20:03:27
# Input file: stack1_bm3d_averaged_1_7.5_0_250_half.mrc ; Number of micrographs: 1
# Pixel size: 3.000 Angstroms ; acceleration voltage: 300.0 keV ; spherical aberration: 0.00 mm ; amplitude contrast: 0.07
# Box size: 512 pixels ; min. res.: 30.0 Angstroms ; max. res.: 5.0 Angstroms ; min. def.: 5000.0 um; max. def. 50000.0 um; num. frames averaged: 1
# 6 lines per micrograph: #1 - spatial frequency (1/Angstroms); #2 - 1D rotational average of spectrum (assuming no astigmatism); #3 - 1D rotational average of spectrum; #4 - CTF fit; #5 - cross-correlation between spectrum and CTF fit; #6 - 2sigma of expected cross correlation of noise
0.000000 0.000651 0.001302 0.001953 0.002604 0.003255 0.003906 0.004557 0.005208 0.005859 0.006510 0.007161 0.007812 0.008464 0.009115 0.009766 0.010417 0.011068 0.011719 0.012370 0.013021 0.013672 0.014323 0.014974 0.015625 0.016276 0.016927 0.017578 0.018229 0.018880 0.019531 0.020182 0.020833 0.021484 0.022135 0.022786 0.023438 0.024089 0.024740 0.025391 0.026042 0.026693 0.027344 0.027995 0.028646 0.029297 0.029948 0.030599 0.031250 0.031901 0.032552 0.033203 0.033854 0.034505 0.035156 0.035807 0.036458 0.037109 0.037760 0.038411 0.039062 0.039714 0.040365 0.041016 0.041667 0.042318 0.042969 0.043620 0.044271 0.044922 0.045573 0.046224 0.046875 0.047526 0.048177 0.048828 0.049479 0.050130 0.050781 0.051432 0.052083 0.052734 0.053385 0.054036 0.054688 0.055339 0.055990 0.056641 0.057292 0.057943 0.058594 0.059245 0.059896 0.060547 0.061198 0.061849 0.062500 0.063151 0.063802 0.064453 0.065104 0.065755 0.066406 0.067057 0.067708 0.068359 0.069010 0.069661 0.070312 0.070964 0.071615 0.072266 0.072917 0.073568 0.074219 0.074870 0.075521 0.076172 0.076823 0.077474 0.078125 0.078776 0.079427 0.080078 0.080729 0.081380 0.082031 0.082682 0.083333 0.083984 0.084635 0.085286 0.085938 0.086589 0.087240 0.087891 0.088542 0.089193 0.089844 0.090495 0.091146 0.091797 0.092448 0.093099 0.093750 0.094401 0.095052 0.095703 0.096354 0.097005 0.097656 0.098307 0.098958 0.099609 0.100260 0.100911 0.101562 0.102214 0.102865 0.103516 0.104167 0.104818 0.105469 0.106120 0.106771 0.107422 0.108073 0.108724 0.109375 0.110026 0.110677 0.111328 0.111979 0.112630 0.113281 0.113932 0.114583 0.115234 0.115885 0.116536 0.117188 0.117839 0.118490 0.119141 0.119792 0.120443 0.121094 0.121745 0.122396 0.123047 0.123698 0.124349 0.125000 0.125651 0.126302 0.126953 0.127604 0.128255 0.128906 0.129557 0.130208 0.130859 0.131510 0.132161 0.132812 0.133464 0.134115 0.134766 0.135417 0.136068 0.136719 0.137370 0.138021 0.138672 0.139323 0.139974 0.140625 0.141276 0.141927 0.142578 0.143229 0.143880 0.144531 0.145182 0.145833 0.146484 0.147135 0.147786 0.148438 0.149089 0.149740 0.150391 0.151042 0.151693 0.152344 0.152995 0.153646 0.154297 0.154948 0.155599 0.156250 0.156901 0.157552 0.158203 0.158854 0.159505 0.160156 0.160807 0.161458 0.162109 0.162760 0.163411 0.164062 0.164714 0.165365 0.166016 0.166667 0.167318 0.167969 0.168620 0.169271 0.169922 0.170573 0.171224 0.171875 0.172526 0.173177 0.173828 0.174479 0.175130 0.175781 0.176432 0.177083 0.177734 0.178385 0.179036 0.179688 0.180339 0.180990 0.181641 0.182292 0.182943 0.183594 0.184245 0.184896 0.185547 0.186198 0.186849 0.187500 0.188151 0.188802 0.189453 0.190104 0.190755 0.191406 0.192057 0.192708 0.193359 0.194010 0.194661 0.195312 0.195964 0.196615 0.197266 0.197917 0.198568 0.199219 0.199870 0.200521 0.201172 0.201823 0.202474 0.203125 0.203776 0.204427 0.205078 0.205729 0.206380 0.207031 0.207682 0.208333 0.208984 0.209635 0.210286 0.210938 0.211589 0.212240 0.212891 0.213542 0.214193 0.214844 0.215495 0.216146 0.216797 0.217448 0.218099 0.218750 0.219401 0.220052 0.220703 0.221354 0.222005 0.222656 0.223307 0.223958 0.224609 0.225260 0.225911 0.226562 0.227214 0.227865 0.228516 0.229167 0.229818 0.230469 0.231120 0.231771 0.232422 0.233073 0.233724 0.234375 0.235026 0.235677
       0.33854        0.33854        0.33854        0.33854        0.33854        0.33854        0.33854        0.33854        0.33854        0.33854        0.33854        0.33854        0.33854        0.33854        0.33854        0.33854        0.33854        0.33854        0.33854        0.33854        0.33854        0.33854        0.33854        0.33854        0.33854        0.33854        0.33854        0.33854        0.33854        0.33854        0.33854        0.33854        0.33854        0.33854        0.33854        0.33854        0.33854        0.33854        0.33854        0.33854        0.33854        0.33854        0.33854        0.33854        0.33854        0.33854        0.33854        0.33854        0.33854        0.33854        0.33854        0.32444        0.45556        0.21358        0.06626        0.00017       -0.27059       -0.11984       -0.15181       -0.22339        0.00125       -0.14877       -0.05860       -0.06506       -0.04944       -0.12194       -0.16761       -0.24482       -0.28688       -0.39772       -0.33025       -0.23345       -0.21508       -0.31085       -0.23031       -0.28137       -0.25278       -0.27484       -0.12245       -0.13909       -0.19437       -0.03111        0.03754       -0.02010        0.06272        0.03927        0.23879        0.24465        0.33050        0.34616        0.36605        0.40219        0.47900        0.53464        0.53815        0.49349        0.48252        0.50744        0.46562        0.50256        0.42636        0.40494        0.40931        0.35425        0.29330        0.30548        0.32483        0.21389        0.19595        0.13081        0.15619        0.16119        0.17114        0.16134        0.24018        0.30125        0.31147        0.28184        0.39324        0.46871        0.39283        0.48228        0.58051        0.52818        0.50776        0.56511        0.59107        0.41465        0.47289        0.40122        0.33098        0.30628        0.27982        0.24955        0.19473        0.18486        0.15627        0.19859        0.24954        0.27827        0.33276        0.30126        0.40103        0.40577        0.44823        0.49286        0.46871        0.49214        0.43648        0.42618        0.40077        0.33438        0.30526        0.31194        0.31335        0.24682        0.24546        0.24873        0.24591        0.26912        0.31631        0.42124        0.46859        0.41242        0.42695        0.45836        0.43416        0.46105        0.45064        0.38560        0.35674        0.38668        0.35496        0.30972        0.29880        0.30455        0.27083        0.29396        0.30211        0.31803        0.37130        0.37131        0.40208        0.40898        0.35424        0.43968        0.40620        0.34310        0.30708        0.33651        0.32449        0.29165        0.30873        0.29257        0.29999        0.32257        0.32781        0.42544        0.39683        0.37572        0.39706        0.43359        0.36824        0.34626        0.33869        0.34788        0.27306        0.26905        0.30455        0.37982        0.37946        0.33702        0.34664        0.39281        0.38380        0.45028        0.37564        0.36586        0.33067        0.31016        0.31062        0.31263        0.33958        0.37199        0.36468        0.37090        0.32340        0.42897        0.34390        0.34967        0.33913        0.37701        0.36245        0.28691        0.30523        0.26266        0.31359        0.32221        0.31503        0.33616        0.31737        0.34614        0.33326        0.33823        0.31770        0.29700        0.27327        0.31431        0.34059        0.31410        0.29115        0.33219        0.32169        0.32908        0.33260        0.29863        0.28547        0.29396        0.32075        0.31232        0.31003        0.28256        0.29911        0.34797        0.32384        0.31223        0.38468        0.32317        0.27017        0.31095        0.32624        0.31048        0.33953        0.30016        0.32337        0.26694        0.31666        0.34041        0.35683        0.29920        0.31558        0.30898        0.29093        0.35569        0.35221        0.30678        0.30116        0.29158        0.28376        0.34208        0.34232        0.28064        0.32642        0.28768        0.26831        0.25390        0.29889        0.33598        0.31948        0.24012        0.27408        0.34011        0.30073        0.31927        0.33574        0.30373        0.31633        0.32297        0.30126        0.28293        0.27579        0.28423        0.32907        0.32770        0.29890        0.31989        0.35359        0.33438        0.28288        0.30352        0.29351        0.30339        0.28717        0.23196        0.25305        0.31345        0.35384        0.25141        0.21892        0.18180        0.28784        0.29343        0.28298        0.31060        0.28401        0.27376        0.24471        0.28467        0.26533        0.31448        0.23335        0.25794        0.25913        0.21989        0.25417        0.32494        0.31154        0.26550        0.21632        0.22717        0.15218        0.23290        0.24101        0.37331        0.28560        0.21714        0.30593        0.35860        0.15008       -0.08207       -0.14621       -0.63043       -0.78405
3.377078 3.339231 3.301599 3.264182 3.226981 3.189995 3.153225 3.116670 3.080331 3.044207 3.008298 2.972605 2.937128 2.901866 2.866819 2.831988 2.797372 2.762972 2.728787 2.694817 2.661063 2.627525 2.594202 2.561094 2.528202 2.495525 2.463064 2.430818 2.398788 2.366973 2.335373 2.303989 2.272821 2.241868 2.211130 2.180608 2.150301 2.120210 2.090334 2.060674 2.031229 2.001999 1.972985 1.944186 1.915603 1.887236 1.859083 1.831147 1.803425 1.775919 1.748629 1.632176 1.921367 1.675818 1.155057 1.086136 0.340107 0.872826 0.521002 0.623222 0.897818 0.639621 0.672478 0.732399 0.671434 0.635271 0.425566 0.332931 0.194444 0.003114 0.007169 0.138024 0.391718 -0.033201 0.156736 0.040806 0.170845 -0.058150 0.257593 0.168251 0.100010 0.296246 0.503658 0.296212 0.426276 0.362508 0.787911 0.641280 0.839895 0.884091 0.778241 1.002458 0.909006 1.222232 1.031566 1.107654 0.968162 1.006391 0.961695 0.876740 0.911143 0.750337 0.725149 0.653606 0.625180 0.448145 0.553443 0.426187 0.258765 0.205911 0.136171 0.172028 0.198896 0.137033 0.194091 0.391754 0.344732 0.355410 0.456115 0.552442 0.535242 0.398953 0.831271 0.745699 0.633528 0.672396 0.760882 0.550834 0.397145 0.513624 0.205620 0.265338 0.103038 0.143266 -0.009639 -0.041440 -0.104246 -0.097427 0.083884 -0.014155 0.106867 0.197178 0.149850 0.292027 0.297347 0.359533 0.430615 0.383944 0.314552 0.248744 0.235480 0.152108 0.062147 0.046909 0.025512 -0.003182 -0.045794 -0.119365 -0.107014 -0.050985 -0.074445 0.135114 0.318690 0.225275 0.186367 0.257245 0.359105 0.220746 0.345508 0.280990 0.153418 0.138583 0.248503 0.015322 0.048009 0.011972 0.050540 -0.025999 0.087986 0.007473 0.154587 0.018689 0.205533 0.242037 0.151727 0.267971 0.179275 0.149306 0.044121 0.075541 0.067652 0.033378 -0.016382 0.031872 -0.026458 0.015405 0.031448 0.110846 0.278046 0.117435 0.167534 0.278444 0.143622 0.182677 0.039338 0.106924 0.076820 -0.093204 0.006965 0.050742 0.188335 0.128015 0.051334 0.126749 0.208455 0.162840 0.266301 0.122553 0.126118 0.041162 0.004259 0.059714 0.051603 0.099382 0.164554 0.136723 0.092355 0.067291 0.330108 0.066989 0.117907 0.081485 0.165660 0.063858 0.002111 0.002586 -0.050852 0.054314 0.063208 0.054231 0.040167 -0.026763 0.068998 0.018031 0.041999 0.001402 -0.062365 -0.026709 -0.037953 0.088253 -0.049252 -0.006451 0.028712 0.009626 0.030932 0.059391 -0.026894 -0.019303 -0.018940 0.047230 0.012108 0.029348 -0.045433 -0.017223 0.102632 0.028990 -0.011716 0.176540 -0.060828 -0.068769 0.020392 0.017149 -0.004968 0.011864 -0.027548 0.022454 -0.095161 0.033126 0.070025 0.066722 -0.059029 0.012009 -0.040653 -0.021924 0.068610 0.070560 -0.074455 -0.014497 -0.065128 -0.070349 0.044813 0.000656 -0.077137 0.045531 -0.095899 -0.086319 -0.114381 -0.076102 0.018959 -0.015747 -0.205241 -0.023993 0.069034 -0.047536 -0.032023 0.056514 -0.042609 -0.030291 0.029706 -0.049735 -0.076434 -0.081151 -0.071374 0.045600 0.014572 -0.060171 0.022802 0.103205 -0.144774 0.032755 0.047648 -0.069346 0.053745 -0.018000 -0.099077 -0.057955 0.061537 0.126059 -0.028599 -0.183521 -0.103982 0.135114 0.011234 0.009772 0.163710 0.091058 -0.021764 0.076674 0.017369 0.078890 0.123386 -0.021880 0.054182 0.114864 -0.066191 0.078318 0.256932 0.095227 0.118431 0.052076 -0.035011 0.020366 -0.055475 0.005620 0.308928 0.463509 0.382836 0.586856 0.638108 0.341799 -0.347715 -0.245782 -1.377423
0.072396 0.072907 0.074439 0.076992 0.080565 0.085158 0.090769 0.097396 0.105037 0.113690 0.123350 0.134014 0.145676 0.158328 0.171964 0.186573 0.202144 0.218663 0.236115 0.254482 0.273743 0.293874 0.314847 0.336632 0.359195 0.382496 0.406492 0.431135 0.456371 0.482144 0.508388 0.535033 0.562004 0.589218 0.616586 0.644012 0.671393 0.698620 0.725576 0.752138 0.778173 0.803546 0.828111 0.851718 0.874209 0.895421 0.915188 0.933336 0.949689 0.964068 0.976290 0.986175 0.993539 0.998203 0.999987 0.998718 0.994230 0.986363 0.974966 0.959904 0.941051 0.918300 0.891562 0.860767 0.825870 0.786850 0.743714 0.696498 0.645270 0.590134 0.531228 0.468727 0.402846 0.333842 0.262009 0.187687 0.111256 0.033135 0.046211 0.126283 0.206541 0.286411 0.365290 0.442545 0.517518 0.589537 0.657915 0.721962 0.780987 0.834309 0.881267 0.921225 0.953585 0.977793 0.993350 0.999827 0.996866 0.984196 0.961640 0.929127 0.886695 0.834499 0.772821 0.702072 0.622792 0.535658 0.441475 0.341182 0.235839 0.126625 0.014824 0.098182 0.210933 0.321906 0.429536 0.532237 0.628424 0.716544 0.795098 0.862671 0.917961 0.959807 0.987219 0.999402 0.995782 0.976032 0.940087 0.888164 0.820772 0.738715 0.643099 0.535324 0.417071 0.290285 0.157151 0.020061 0.118427 0.255628 0.388785 0.515125 0.631912 0.736516 0.826476 0.899557 0.953823 0.987686 0.999967 0.989943 0.957381 0.902574 0.826357 0.730106 0.615739 0.485685 0.342846 0.190546 0.032463 0.127457 0.285093 0.436249 0.576773 0.702670 0.810227 0.896124 0.957556 0.992331 0.998962 0.976746 0.925813 0.847160 0.742657 0.615024 0.467784 0.305174 0.132050 0.046255 0.224084 0.395636 0.555147 0.697101 0.816414 0.908645 0.970163 0.998319 0.991570 0.949586 0.873302 0.764935 0.627953 0.466982 0.287680 0.096559 0.099246 0.292223 0.474782 0.639545 0.779660 0.889094 0.962920 0.997559 0.990979 0.942834 0.854546 0.729296 0.571954 0.388914 0.187875 0.022481 0.232830 0.433627 0.615536 0.769873 0.889040 0.966921 0.999229 0.983773 0.920636 0.812241 0.663315 0.480715 0.273161 0.050837 0.175075 0.392961 0.591356 0.759570 0.888282 0.970078 0.999925 0.975513 0.897474 0.769430 0.597891 0.391959 0.162900 0.076452 0.312387 0.531110 0.719538 0.866121 0.961570 0.999493 0.976871 0.894341 0.756264 0.570560 0.348309 0.103140 0.149582 0.393686 0.613238 0.793596 0.922404 0.990501 0.992608 0.927806 0.799719 0.616385 0.389818 0.135285 0.129691 0.386507 0.616783 0.803694 0.933242 0.995339 0.984672 0.901209 0.750357 0.542682 0.293252 0.020602 0.254608 0.511143 0.728831 0.890177 0.981830 0.995748 0.929980 0.788976 0.583393 0.329369 0.047329 0.239610 0.507517 0.733640 0.898372 0.987013 0.991156 0.909568 0.748476 0.521201 0.247139 0.049806 0.343279 0.606783 0.816100 0.951564 0.999969 0.955967 0.822739 0.611904 0.342613 0.039891 0.267618 0.550330 0.780603 0.935446 0.998926 0.963883 0.832858 0.618055 0.340317 0.027213 0.289633 0.577715 0.806989 0.953055 0.999846 0.941511 0.783253 0.541023 0.240032 0.087765 0.407012 0.682740 0.884237 0.988536 0.983151 0.867692 0.654179 0.365925 0.035126 0.300661 0.602740 0.835748 0.971880 0.994291 0.899337 0.697276 0.411318 0.075119 0.271109 0.585346 0.828873 0.971124 0.993630 0.892567 0.679532 0.380394 0.032287 0.320881 0.633940 0.866245 0.987046 0.979685 0.844060 0.596965 0.270186 0.093419 0.445495 0.738553 0.932451
1.000000 1.000000 1.000000 1.000000 1.000000 1.000000 1.000000 1.000000 1.000000 1.000000 1.000000 1.000000 1.000000 1.000000 1.000000 1.000000 1.000000 1.000000 1.000000 1.000000 1.000000 1.000000 1.000000 1.000000 1.000000 1.000000 1.000000 1.000000 1.000000 1.000000 1.000000 1.000000 1.000000 1.000000 1.000000 1.000000 1.000000 1.000000 1.000000 1.000000 1.000000 1.000000 1.000000 1.000000 1.000000 1.000000 1.000000 1.000000 1.000000 1.000000 1.000000 1.000000 0.822428 0.822428 0.822428 0.799858 0.799858 0.799858 0.799858 0.799858 0.799858 0.799858 0.799858 0.799858 0.799858 0.799858 0.799858 0.799858 0.799858 0.799858 0.799858 0.799858 0.799858 0.799858 0.799858 0.799858 0.799858 0.799858 0.799858 0.799858 0.799858 0.799858 0.799858 0.799858 0.799858 0.799858 0.799858 0.799858 0.799858 0.799858 0.799858 0.799858 0.799858 0.799858 0.799858 0.799858 0.852318 0.858892 0.864099 0.868085 0.868634 0.866446 0.864994 0.864643 0.864441 0.865073 0.873587 0.899193 0.912625 0.914278 0.927731 0.929494 0.934896 0.936108 0.956162 0.957951 0.959651 0.958829 0.959626 0.961568 0.968202 0.968251 0.965461 0.965618 0.970209 0.970171 0.966559 0.965557 0.964592 0.961912 0.962286 0.961232 0.961087 0.961841 0.956274 0.956494 0.956693 0.954972 0.953234 0.947979 0.943146 0.941888 0.941955 0.923602 0.917123 0.910261 0.902323 0.919888 0.914228 0.906132 0.905766 0.894418 0.896775 0.893510 0.875069 0.874977 0.868665 0.863001 0.849034 0.849130 0.851678 0.857160 0.864241 0.866374 0.854411 0.835251 0.804355 0.786306 0.787295 0.779880 0.776469 0.780472 0.780535 0.779477 0.776848 0.769660 0.758110 0.765772 0.763131 0.758638 0.751212 0.748665 0.735038 0.731678 0.724698 0.703830 0.697219 0.689287 0.701185 0.695456 0.696704 0.700240 0.707300 0.706403 0.705628 0.697485 0.692390 0.684825 0.667359 0.639316 0.651445 0.649401 0.634798 0.628898 0.615652 0.655920 0.661689 0.689365 0.698385 0.701597 0.696992 0.677448 0.646212 0.616779 0.618423 0.614752 0.614185 0.617179 0.623231 0.623453 0.624863 0.552257 0.539642 0.534778 0.544759 0.556571 0.555374 0.550723 0.528339 0.515356 0.509837 0.468378 0.461091 0.453863 0.453281 0.455503 0.441953 0.424621 0.406672 0.427602 0.411593 0.415462 0.390108 0.376488 0.345632 0.346627 0.346124 0.335646 0.315719 0.267806 0.276457 0.299091 0.308378 0.308504 0.285816 0.281634 0.269371 0.241265 0.233021 0.240619 0.233961 0.227846 0.229016 0.200942 0.187997 0.091209 0.090256 0.113281 0.126729 0.127556 0.090240 0.112363 0.121816 0.104807 0.083108 0.032454 -0.005459 -0.022679 0.002847 0.008331 0.040332 0.023503 0.006553 0.007465 0.016159 -0.027704 -0.040800 -0.049898 -0.028285 -0.031231 -0.017432 -0.022221 -0.034391 -0.028370 -0.006093 -0.032617 -0.017324 0.025443 0.004317 -0.000179 -0.015914 -0.049540 -0.053222 -0.070202 -0.067804 -0.040668 -0.055202 -0.070401 -0.086878 -0.085026 -0.087345 -0.094656 -0.081666 -0.108197 -0.064790 -0.072493 -0.061363 -0.067472 -0.062006 -0.042853 0.010504 0.014268 0.015618 -0.012624 0.026032 -0.004639 -0.015626 -0.001057 -0.006700 -0.009067 0.034750 0.052558 0.063592 0.012449 0.002449 0.002449 0.002449 -0.019516 -0.019516 -0.019516 -0.019516 -0.019516 -0.019516 -0.019516 -0.019516 -0.019516 -0.020297 -0.020297 -0.020297 -0.020297 -0.020297 -0.020297 -0.020297 -0.020297 -0.020297 -0.020297 -0.020297 -0.020297 -0.020297 -0.020297 -0.020297 -0.020297 -0.020297
0.000000 0.000000 0.000000 0.000000 0.000000 0.000000 0.000000 0.000000 0.000000 0.000000 0.000000 0.000000 0.000000 0.000000 0.000000 0.000000 0.000000 0.000000 0.000000 0.000000 0.000000 0.000000 0.000000 0.000000 0.000000 0.000000 0.000000 0.000000 0.000000 0.000000 0.000000 0.000000 0.000000 0.000000 0.000000 0.000000 0.000000 0.000000 0.000000 0.000000 0.000000 0.000000 0.000000 0.000000 0.000000 0.000000 0.000000 0.000000 0.000000 0.000000 0.000000 0.000000 0.180334 0.180334 0.180334 0.199007 0.199007 0.199007 0.199007 0.199007 0.199007 0.199007 0.199007 0.199007 0.199007 0.199007 0.199007 0.199007 0.199007 0.199007 0.199007 0.199007 0.199007 0.199007 0.199007 0.199007 0.199007 0.199007 0.199007 0.199007 0.199007 0.199007 0.199007 0.199007 0.199007 0.199007 0.199007 0.199007 0.199007 0.199007 0.199007 0.199007 0.199007 0.199007 0.199007 0.199007 0.230940 0.230940 0.230940 0.230940 0.230940 0.230940 0.230940 0.230940 0.230940 0.230940 0.230940 0.230940 0.230940 0.230940 0.230940 0.230940 0.230940 0.230940 0.230940 0.230940 0.230940 0.230940 0.230940 0.230940 0.230940 0.230940 0.230940 0.230940 0.244339 0.244339 0.244339 0.244339 0.244339 0.244339 0.244339 0.244339 0.244339 0.244339 0.244339 0.244339 0.244339 0.244339 0.244339 0.244339 0.244339 0.244339 0.244339 0.244339 0.244339 0.244339 0.244339 0.256074 0.256074 0.256074 0.256074 0.256074 0.256074 0.256074 0.256074 0.256074 0.256074 0.256074 0.256074 0.256074 0.256074 0.256074 0.256074 0.256074 0.256074 0.256074 0.256074 0.256074 0.256074 0.256074 0.256074 0.256074 0.256074 0.256074 0.256074 0.256074 0.256074 0.256074 0.256074 0.256074 0.256074 0.256074 0.256074 0.256074 0.264906 0.264906 0.264906 0.264906 0.264906 0.264906 0.264906 0.264906 0.264906 0.264906 0.264906 0.264906 0.264906 0.264906 0.264906 0.264906 0.264906 0.264906 0.264906 0.264906 0.264906 0.264906 0.264906 0.264906 0.264906 0.264906 0.264906 0.264906 0.264906 0.264906 0.264906 0.264906 0.264906 0.264906 0.264906 0.264906 0.264906 0.264906 0.264906 0.264906 0.264906 0.264906 0.264906 0.264906 0.264906 0.264906 0.264906 0.264906 0.264906 0.264906 0.264906 0.264906 0.264906 0.264906 0.264906 0.264906 0.264906 0.264906 0.269680 0.269680 0.269680 0.269680 0.269680 0.269680 0.269680 0.269680 0.269680 0.269680 0.269680 0.269680 0.264906 0.264906 0.264906 0.264906 0.264906 0.264906 0.264906 0.264906 0.264906 0.264906 0.264906 0.264906 0.269680 0.269680 0.269680 0.269680 0.269680 0.269680 0.269680 0.269680 0.269680 0.269680 0.269680 0.264906 0.264906 0.264906 0.264906 0.264906 0.264906 0.264906 0.264906 0.264906 0.264906 0.264906 0.256074 0.256074 0.256074 0.256074 0.256074 0.256074 0.256074 0.256074 0.256074 0.256074 0.256074 0.264906 0.264906 0.264906 0.264906 0.264906 0.264906 0.264906 0.264906 0.264906 0.264906 0.269680 0.269680 0.269680 0.269680 0.269680 0.269680 0.269680 0.269680 0.269680 0.256074 0.256074 0.256074 0.256074 0.256074 0.256074 0.256074 0.256074 0.256074 0.256074 0.260378 0.260378 0.260378 0.260378 0.260378 0.260378 0.260378 0.260378 0.260378 0.256074 0.256074 0.256074 0.256074 0.256074 0.256074 0.256074 0.256074 0.256074 0.251976 0.251976 0.251976 0.251976 0.251976 0.251976 0.251976 0.251976 0.251976 0.251976 0.251976 0.251976 0.251976 0.251976 0.251976 0.251976 0.251976
