# Output from CTFFind version 4.1.9, run on 2019-11-03 19:49:59
# Input file: stack6_bm3d_averaged_1_5.25_0_3000_half.mrc ; Number of micrographs: 1
# Pixel size: 3.000 Angstroms ; acceleration voltage: 300.0 keV ; spherical aberration: 0.00 mm ; amplitude contrast: 0.07
# Box size: 512 pixels ; min. res.: 30.0 Angstroms ; max. res.: 5.0 Angstroms ; min. def.: 5000.0 um; max. def. 50000.0 um; num. frames averaged: 1
# 6 lines per micrograph: #1 - spatial frequency (1/Angstroms); #2 - 1D rotational average of spectrum (assuming no astigmatism); #3 - 1D rotational average of spectrum; #4 - CTF fit; #5 - cross-correlation between spectrum and CTF fit; #6 - 2sigma of expected cross correlation of noise
0.000000 0.000651 0.001302 0.001953 0.002604 0.003255 0.003906 0.004557 0.005208 0.005859 0.006510 0.007161 0.007812 0.008464 0.009115 0.009766 0.010417 0.011068 0.011719 0.012370 0.013021 0.013672 0.014323 0.014974 0.015625 0.016276 0.016927 0.017578 0.018229 0.018880 0.019531 0.020182 0.020833 0.021484 0.022135 0.022786 0.023438 0.024089 0.024740 0.025391 0.026042 0.026693 0.027344 0.027995 0.028646 0.029297 0.029948 0.030599 0.031250 0.031901 0.032552 0.033203 0.033854 0.034505 0.035156 0.035807 0.036458 0.037109 0.037760 0.038411 0.039062 0.039714 0.040365 0.041016 0.041667 0.042318 0.042969 0.043620 0.044271 0.044922 0.045573 0.046224 0.046875 0.047526 0.048177 0.048828 0.049479 0.050130 0.050781 0.051432 0.052083 0.052734 0.053385 0.054036 0.054688 0.055339 0.055990 0.056641 0.057292 0.057943 0.058594 0.059245 0.059896 0.060547 0.061198 0.061849 0.062500 0.063151 0.063802 0.064453 0.065104 0.065755 0.066406 0.067057 0.067708 0.068359 0.069010 0.069661 0.070312 0.070964 0.071615 0.072266 0.072917 0.073568 0.074219 0.074870 0.075521 0.076172 0.076823 0.077474 0.078125 0.078776 0.079427 0.080078 0.080729 0.081380 0.082031 0.082682 0.083333 0.083984 0.084635 0.085286 0.085938 0.086589 0.087240 0.087891 0.088542 0.089193 0.089844 0.090495 0.091146 0.091797 0.092448 0.093099 0.093750 0.094401 0.095052 0.095703 0.096354 0.097005 0.097656 0.098307 0.098958 0.099609 0.100260 0.100911 0.101562 0.102214 0.102865 0.103516 0.104167 0.104818 0.105469 0.106120 0.106771 0.107422 0.108073 0.108724 0.109375 0.110026 0.110677 0.111328 0.111979 0.112630 0.113281 0.113932 0.114583 0.115234 0.115885 0.116536 0.117188 0.117839 0.118490 0.119141 0.119792 0.120443 0.121094 0.121745 0.122396 0.123047 0.123698 0.124349 0.125000 0.125651 0.126302 0.126953 0.127604 0.128255 0.128906 0.129557 0.130208 0.130859 0.131510 0.132161 0.132812 0.133464 0.134115 0.134766 0.135417 0.136068 0.136719 0.137370 0.138021 0.138672 0.139323 0.139974 0.140625 0.141276 0.141927 0.142578 0.143229 0.143880 0.144531 0.145182 0.145833 0.146484 0.147135 0.147786 0.148438 0.149089 0.149740 0.150391 0.151042 0.151693 0.152344 0.152995 0.153646 0.154297 0.154948 0.155599 0.156250 0.156901 0.157552 0.158203 0.158854 0.159505 0.160156 0.160807 0.161458 0.162109 0.162760 0.163411 0.164062 0.164714 0.165365 0.166016 0.166667 0.167318 0.167969 0.168620 0.169271 0.169922 0.170573 0.171224 0.171875 0.172526 0.173177 0.173828 0.174479 0.175130 0.175781 0.176432 0.177083 0.177734 0.178385 0.179036 0.179688 0.180339 0.180990 0.181641 0.182292 0.182943 0.183594 0.184245 0.184896 0.185547 0.186198 0.186849 0.187500 0.188151 0.188802 0.189453 0.190104 0.190755 0.191406 0.192057 0.192708 0.193359 0.194010 0.194661 0.195312 0.195964 0.196615 0.197266 0.197917 0.198568 0.199219 0.199870 0.200521 0.201172 0.201823 0.202474 0.203125 0.203776 0.204427 0.205078 0.205729 0.206380 0.207031 0.207682 0.208333 0.208984 0.209635 0.210286 0.210938 0.211589 0.212240 0.212891 0.213542 0.214193 0.214844 0.215495 0.216146 0.216797 0.217448 0.218099 0.218750 0.219401 0.220052 0.220703 0.221354 0.222005 0.222656 0.223307 0.223958 0.224609 0.225260 0.225911 0.226562 0.227214 0.227865 0.228516 0.229167 0.229818 0.230469 0.231120 0.231771 0.232422 0.233073 0.233724 0.234375 0.235026 0.235677
       0.30480        0.30480        0.30480        0.30480        0.30480        0.30480        0.30480        0.30480        0.30480        0.30480        0.30480        0.30480        0.30480        0.30480        0.30480        0.30480        0.30480        0.30480        0.30480        0.30480        0.30480        0.30480        0.30480        0.30480        0.30480        0.30480        0.30480        0.30480        0.30480        0.30480        0.30480        0.30480        0.30480        0.30480        0.30480        0.30480        0.30480        0.30480        0.30480        0.30480        0.30480        0.30480        0.30480        0.30480        0.30480        0.30480        0.30480        0.30480        0.30480        0.30480        0.30480        0.59770        0.72530        0.35292        0.18453        0.12373       -0.15293        0.10484        0.02304        0.02811        0.08606        0.30567        0.32936        0.25624        0.14939       -0.04136       -0.01368        0.03853       -0.13936       -0.14925       -0.09029       -0.11060       -0.23493       -0.15288       -0.27426       -0.28600       -0.28697       -0.35248       -0.43053       -0.37500       -0.28333       -0.25386       -0.35265       -0.26276       -0.32147       -0.25890       -0.18270       -0.13289       -0.09531       -0.02256        0.00866        0.11318        0.15733        0.20908        0.33096        0.39507        0.35242        0.45951        0.54870        0.55691        0.63916        0.58151        0.61682        0.59644        0.61243        0.61411        0.55229        0.56830        0.55167        0.38951        0.32469        0.35709        0.34118        0.18673        0.15044        0.11866        0.07631        0.08140       -0.00904        0.04916        0.02490       -0.02009        0.08843        0.15642        0.25336        0.34708        0.33503        0.36376        0.45905        0.49287        0.42204        0.64602        0.52978        0.47858        0.56507        0.49765        0.52461        0.48443        0.36163        0.30389        0.26089        0.21388        0.19713        0.18169        0.16083        0.11071        0.18336        0.17445        0.21728        0.19211        0.25845        0.29838        0.32439        0.44317        0.42457        0.40794        0.43529        0.47615        0.45238        0.43902        0.38232        0.39882        0.33553        0.28042        0.22952        0.24027        0.22938        0.18004        0.15307        0.20515        0.20570        0.25414        0.32734        0.34693        0.40511        0.38547        0.43967        0.45370        0.44618        0.42085        0.38840        0.40443        0.36862        0.32882        0.32226        0.30271        0.25084        0.26694        0.26531        0.21889        0.27849        0.26052        0.27058        0.31148        0.36216        0.40073        0.39492        0.41215        0.37419        0.40210        0.38580        0.29554        0.27930        0.23794        0.25197        0.21290        0.19343        0.27678        0.32669        0.30296        0.27333        0.33074        0.25970        0.32614        0.36421        0.36113        0.35974        0.37955        0.31797        0.32869        0.31091        0.27555        0.27266        0.23922        0.27923        0.29466        0.30054        0.32171        0.36485        0.37155        0.36066        0.33055        0.34863        0.32540        0.31113        0.30898        0.27689        0.28034        0.25027        0.30314        0.31671        0.30551        0.28603        0.31699        0.32055        0.32556        0.33375        0.30177        0.26847        0.28329        0.27845        0.26085        0.24027        0.22688        0.24171        0.25490        0.23982        0.27168        0.27768        0.32096        0.31069        0.27229        0.29971        0.25295        0.20319        0.25952        0.23903        0.21861        0.26615        0.29772        0.28353        0.29317        0.29353        0.29108        0.29979        0.31042        0.26561        0.30108        0.29484        0.33699        0.27004        0.26366        0.24810        0.29901        0.30466        0.31429        0.33035        0.30750        0.21511        0.27400        0.25523        0.23469        0.23961        0.24022        0.28180        0.24493        0.29899        0.30565        0.34177        0.30359        0.27841        0.23802        0.24810        0.25320        0.23612        0.26265        0.28184        0.30979        0.32429        0.28362        0.28109        0.25441        0.28617        0.26623        0.23143        0.19795        0.25417        0.32776        0.30518        0.29728        0.28710        0.23218        0.23591        0.23846        0.21512        0.21934        0.26771        0.27556        0.26347        0.22090        0.20852        0.25760        0.23932        0.24908        0.25854        0.25455        0.17855        0.21504        0.25051        0.23600        0.28178        0.23906        0.22997        0.17798        0.25929        0.28923        0.18434        0.18667        0.11765        0.14293        0.29733        0.16379        0.16277        0.32615        0.20206        0.15706        0.10810        0.19476        0.11421        0.15075       -0.05712       -0.64849       -0.99799
2.221589 2.202778 2.184051 2.165408 2.146848 2.128372 2.109979 2.091670 2.073444 2.055302 2.037244 2.019269 2.001377 1.983569 1.965845 1.948205 1.930648 1.913174 1.895784 1.878478 1.861255 1.844116 1.827060 1.810088 1.793199 1.776394 1.759673 1.743035 1.726480 1.710010 1.693622 1.677319 1.661099 1.644962 1.628909 1.612940 1.597054 1.581252 1.565533 1.549898 1.534347 1.518879 1.503494 1.488193 1.472976 1.457843 1.442792 1.427826 1.412943 1.398143 1.383427 1.738321 2.063017 1.425598 1.310431 1.051357 0.522682 0.889511 0.816201 0.810006 0.692700 1.329349 1.196007 1.206964 0.965754 0.638598 0.491479 0.744941 0.548315 0.229464 0.311742 0.465724 0.216452 0.251761 0.106542 0.016755 -0.019611 -0.014923 -0.287252 -0.180055 -0.026740 -0.060716 -0.110237 -0.017947 -0.145816 -0.116954 0.057399 0.142720 0.206885 0.258731 0.323829 0.569963 0.524077 0.600041 0.815993 0.962462 0.795087 1.152524 1.135246 1.194871 1.293190 1.208818 1.194202 1.279815 1.179410 1.309422 1.132558 1.070127 1.163012 0.930997 0.646274 0.701892 0.761045 0.469541 0.388590 0.328466 0.190578 0.187633 0.042797 0.164598 0.128004 -0.008424 0.108461 0.229312 0.336343 0.588220 0.579818 0.542068 0.709345 0.861367 0.586885 1.006989 0.967279 0.739521 0.877911 0.735089 0.809785 0.824903 0.555266 0.416996 0.361261 0.304891 0.207012 0.144386 0.167985 -0.012945 0.145400 0.118943 0.210579 0.097276 0.277907 0.302450 0.267419 0.477900 0.577690 0.488844 0.378244 0.688727 0.567042 0.496892 0.476017 0.434494 0.326386 0.320099 0.122361 0.164688 0.064286 0.154004 -0.055233 0.039374 0.006380 0.203716 0.101027 0.330595 0.308269 0.351261 0.409311 0.405044 0.534035 0.389112 0.376915 0.425503 0.235734 0.319890 0.169468 0.247652 0.094052 0.132783 0.086032 0.084965 0.019016 0.136951 0.042479 0.132735 0.227700 0.252428 0.344187 0.272603 0.313811 0.257972 0.289602 0.186922 0.090092 0.060636 0.000581 0.008505 -0.076084 -0.048163 0.084045 0.173571 0.062206 0.087410 0.098657 0.038825 0.175630 0.203711 0.187068 0.237796 0.143999 0.107771 0.102183 0.083597 0.043424 -0.053787 -0.014344 0.127150 -0.016303 0.115756 0.089960 0.208648 0.218406 0.163644 0.158086 0.166581 0.083145 0.087895 0.103547 0.031323 -0.014943 0.028920 0.086261 0.111359 0.080598 0.043509 0.116496 0.093045 0.077262 0.104944 0.009057 -0.031552 0.028958 -0.026216 -0.014364 -0.086819 -0.093651 -0.025200 -0.067969 -0.064836 -0.009092 0.016377 0.093502 0.053738 -0.017522 0.046972 -0.082296 -0.096113 0.015197 -0.081670 -0.097166 0.044027 0.043635 0.006932 0.046803 0.000470 0.051664 0.100050 -0.041589 0.002340 0.092399 0.011844 0.112708 -0.039860 -0.006136 -0.053087 0.103550 0.011409 0.090142 0.116073 0.045053 -0.101800 0.016321 -0.014148 -0.045920 -0.045276 -0.030162 0.018530 -0.043536 0.121363 0.071503 0.160893 0.068105 -0.008946 -0.015451 -0.006933 0.013259 -0.034935 0.055767 0.051895 0.125210 0.118612 0.076572 0.084333 0.031306 0.122764 0.005715 0.017403 -0.096950 0.074967 0.177346 0.092077 0.127589 0.056189 -0.017613 -0.010749 -0.017565 -0.040301 -0.021477 0.056893 0.100757 0.037747 -0.020009 -0.005297 0.062759 0.058536 0.051295 0.092374 0.044395 -0.005578 0.008812 0.104160 0.085156 0.157764 0.080874 0.008690 0.059981 0.168585 0.197260 0.100998 0.064602 -0.064372 -0.093348 0.449973 0.331478 0.266589 0.605602 0.281712 0.264364 0.113834 0.462922 0.185616 0.276035 0.210434 -0.889665
0.072396 0.072838 0.074163 0.076371 0.079462 0.083435 0.088289 0.094022 0.100634 0.108122 0.116484 0.125716 0.135815 0.146776 0.158594 0.171262 0.184772 0.199116 0.214282 0.230259 0.247032 0.264586 0.282903 0.301961 0.321739 0.342209 0.363344 0.385111 0.407474 0.430396 0.453833 0.477738 0.502061 0.526747 0.551735 0.576960 0.602354 0.627843 0.653346 0.678779 0.704051 0.729069 0.753731 0.777931 0.801559 0.824499 0.846629 0.867825 0.887956 0.906890 0.924488 0.940610 0.955112 0.967851 0.978680 0.987451 0.994019 0.998237 0.999964 0.999060 0.995388 0.988821 0.979236 0.966518 0.950564 0.931282 0.908590 0.882425 0.852736 0.819493 0.782682 0.742313 0.698416 0.651047 0.600285 0.546238 0.489041 0.428857 0.365881 0.300336 0.232478 0.162594 0.091002 0.018050 0.055883 0.130388 0.205031 0.279348 0.352856 0.425047 0.495396 0.563366 0.628407 0.689964 0.747479 0.800402 0.848190 0.890315 0.926273 0.955588 0.977820 0.992569 0.999485 0.998277 0.988713 0.970632 0.943948 0.908657 0.864842 0.812675 0.752424 0.684454 0.609231 0.527317 0.439375 0.346165 0.248540 0.147440 0.043885 0.061028 0.166143 0.270251 0.372106 0.470437 0.563965 0.651424 0.731572 0.803218 0.865233 0.916578 0.956321 0.983654 0.997916 0.998607 0.985407 0.958192 0.917039 0.862242 0.794319 0.714007 0.622269 0.520285 0.409446 0.291336 0.167716 0.040506 0.088250 0.216406 0.341757 0.462066 0.575119 0.678750 0.770902 0.849658 0.913296 0.960323 0.989521 0.999980 0.991137 0.962795 0.915150 0.848800 0.764752 0.664419 0.549605 0.422480 0.285552 0.141622 0.006269 0.154897 0.300927 0.440980 0.571721 0.689935 0.792613 0.877034 0.940842 0.982127 0.999484 0.992074 0.959665 0.902665 0.822136 0.719788 0.597962 0.459586 0.308120 0.147478 0.018066 0.183983 0.345614 0.498297 0.637510 0.759000 0.858929 0.934004 0.981593 0.999836 0.987727 0.945176 0.873050 0.773168 0.648289 0.502048 0.338864 0.163824 0.017463 0.199040 0.374797 0.538674 0.684877 0.808085 0.903659 0.967832 0.997874 0.992225 0.950588 0.873990 0.764777 0.626575 0.464192 0.283467 0.091080 0.105682 0.299199 0.481803 0.646095 0.785242 0.893285 0.965408 0.998170 0.989698 0.939809 0.850073 0.723801 0.565943 0.382939 0.182460 0.026882 0.235900 0.435226 0.615737 0.768976 0.887568 0.965597 0.998919 0.985421 0.925170 0.820481 0.675864 0.497862 0.294798 0.076395 0.146661 0.363236 0.562304 0.733521 0.867767 0.957665 0.998014 0.986118 0.922006 0.808499 0.651135 0.457938 0.239048 0.006209 0.227834 0.450029 0.647754 0.809529 0.925727 0.989163 0.995583 0.943987 0.836772 0.679681 0.481538 0.253798 0.009912 0.235431 0.467203 0.670938 0.833664 0.944749 0.996643 0.985427 0.911160 0.777971 0.593885 0.370404 0.121820 0.135662 0.384967 0.609279 0.793179 0.923751 0.991510 0.991152 0.922021 0.788260 0.598637 0.366026 0.106581 0.161341 0.418481 0.646035 0.827068 0.947796 0.998685 0.975268 0.878586 0.715243 0.497021 0.240102 0.036101 0.310362 0.561273 0.768927 0.916516 0.991754 0.987952 0.904681 0.747947 0.529842 0.267673 0.017345 0.301778 0.561874 0.775578 0.924413 0.995148 0.981031 0.882517 0.707374 0.470168 0.191118 0.105567 0.393759 0.647693 0.844311 0.965377 0.999256 0.942097 0.798357 0.580554 0.308267 0.006448 0.296823 0.572914 0.795383 0.942524 0.999570 0.960250 0.827572 0.613716 0.339009 0.030078 0.282680 0.568056 0.797160 0.946401 0.999962
1.000000 1.000000 1.000000 1.000000 1.000000 1.000000 1.000000 1.000000 1.000000 1.000000 1.000000 1.000000 1.000000 1.000000 1.000000 1.000000 1.000000 1.000000 1.000000 1.000000 1.000000 1.000000 1.000000 1.000000 1.000000 1.000000 1.000000 1.000000 1.000000 1.000000 1.000000 1.000000 1.000000 1.000000 1.000000 1.000000 1.000000 1.000000 1.000000 1.000000 1.000000 1.000000 1.000000 1.000000 1.000000 1.000000 1.000000 1.000000 1.000000 1.000000 1.000000 1.000000 0.785010 0.785010 0.785010 0.785010 0.785010 0.785010 0.785010 0.766757 0.766757 0.766757 0.766757 0.766757 0.766757 0.766757 0.766757 0.766757 0.766757 0.766757 0.766757 0.766757 0.766757 0.766757 0.766757 0.766757 0.766757 0.766757 0.766757 0.766757 0.766757 0.766757 0.766757 0.766757 0.766757 0.766757 0.766757 0.766757 0.766757 0.766757 0.766757 0.766757 0.766757 0.766757 0.766757 0.766757 0.766757 0.766757 0.766757 0.766757 0.766757 0.766757 0.766757 0.915047 0.915241 0.917883 0.912561 0.914361 0.912325 0.905862 0.908834 0.908132 0.907982 0.908916 0.910150 0.911965 0.913838 0.920182 0.922924 0.930887 0.934127 0.935434 0.935100 0.932561 0.940089 0.936526 0.934691 0.929125 0.932202 0.931762 0.931827 0.930637 0.930745 0.932221 0.932074 0.929993 0.928219 0.926089 0.924371 0.924237 0.923842 0.924014 0.924184 0.924743 0.925152 0.925728 0.921876 0.924129 0.923002 0.919421 0.919712 0.919312 0.922484 0.916678 0.913790 0.908358 0.909997 0.910412 0.915483 0.911958 0.912183 0.913315 0.914030 0.914626 0.913915 0.913957 0.912653 0.914355 0.912191 0.907900 0.905749 0.906151 0.908053 0.912948 0.915022 0.914911 0.912583 0.907025 0.897879 0.897473 0.884471 0.860057 0.861692 0.863188 0.865324 0.864895 0.864556 0.863596 0.860806 0.856519 0.851292 0.854854 0.853972 0.848123 0.831277 0.829987 0.823633 0.830424 0.830160 0.823076 0.826339 0.821428 0.824306 0.825032 0.822856 0.822799 0.819131 0.821921 0.829044 0.828933 0.824490 0.820568 0.813029 0.790861 0.788616 0.794533 0.807815 0.806057 0.802176 0.782862 0.790232 0.787549 0.783614 0.796679 0.796342 0.794477 0.772379 0.738588 0.721484 0.712343 0.713903 0.716747 0.711193 0.707357 0.705960 0.710548 0.671226 0.663160 0.650888 0.649702 0.659035 0.657632 0.656754 0.642080 0.659131 0.654774 0.634063 0.628662 0.578566 0.566453 0.511451 0.515299 0.516153 0.487580 0.476956 0.463683 0.483196 0.495861 0.496125 0.492131 0.464582 0.449480 0.438724 0.440526 0.447049 0.445827 0.450604 0.422032 0.406546 0.396422 0.409800 0.411500 0.412681 0.438537 0.457694 0.461328 0.445379 0.427742 0.422869 0.437265 0.446746 0.458146 0.456732 0.448535 0.425679 0.404005 0.413129 0.447588 0.450923 0.450998 0.438615 0.447504 0.458815 0.442420 0.430141 0.412717 0.458482 0.462212 0.453391 0.403198 0.380738 0.396246 0.399664 0.400661 0.376902 0.383477 0.404769 0.404501 0.411028 0.412221 0.451761 0.505990 0.493851 0.481833 0.504396 0.492573 0.482324 0.461039 0.452465 0.445189 0.427205 0.416773 0.398015 0.395658 0.385209 0.389035 0.411744 0.416458 0.431475 0.406380 0.379478 0.278904 0.354071 0.252699 0.268231 0.268231 0.268231 0.268231 0.268231 0.268231 0.268231 0.268231 0.306928 0.306928 0.306928 0.306928 0.306928 0.306928 0.306928 0.306928 0.306928 0.306928 0.306928 0.306928 0.306928 0.306928 0.306928 0.306928 0.306928 0.306928 0.306928 0.306928 0.306928
0.000000 0.000000 0.000000 0.000000 0.000000 0.000000 0.000000 0.000000 0.000000 0.000000 0.000000 0.000000 0.000000 0.000000 0.000000 0.000000 0.000000 0.000000 0.000000 0.000000 0.000000 0.000000 0.000000 0.000000 0.000000 0.000000 0.000000 0.000000 0.000000 0.000000 0.000000 0.000000 0.000000 0.000000 0.000000 0.000000 0.000000 0.000000 0.000000 0.000000 0.000000 0.000000 0.000000 0.000000 0.000000 0.000000 0.000000 0.000000 0.000000 0.000000 0.000000 0.000000 0.173422 0.173422 0.173422 0.173422 0.173422 0.173422 0.173422 0.191565 0.191565 0.191565 0.191565 0.191565 0.191565 0.191565 0.191565 0.191565 0.191565 0.191565 0.191565 0.191565 0.191565 0.191565 0.191565 0.191565 0.191565 0.191565 0.191565 0.191565 0.191565 0.191565 0.191565 0.191565 0.191565 0.191565 0.191565 0.191565 0.191565 0.191565 0.191565 0.191565 0.191565 0.191565 0.191565 0.191565 0.191565 0.191565 0.191565 0.191565 0.191565 0.191565 0.191565 0.222222 0.222222 0.222222 0.222222 0.222222 0.222222 0.222222 0.222222 0.222222 0.222222 0.222222 0.222222 0.222222 0.222222 0.222222 0.222222 0.222222 0.222222 0.222222 0.222222 0.222222 0.222222 0.222222 0.222222 0.222222 0.222222 0.222222 0.222222 0.222222 0.222222 0.234082 0.234082 0.234082 0.234082 0.234082 0.234082 0.234082 0.234082 0.234082 0.234082 0.234082 0.234082 0.234082 0.234082 0.234082 0.234082 0.234082 0.234082 0.234082 0.234082 0.234082 0.234082 0.234082 0.234082 0.234082 0.244339 0.244339 0.244339 0.244339 0.244339 0.244339 0.244339 0.244339 0.244339 0.244339 0.244339 0.244339 0.244339 0.244339 0.244339 0.244339 0.244339 0.244339 0.244339 0.244339 0.244339 0.248069 0.248069 0.248069 0.248069 0.248069 0.248069 0.248069 0.248069 0.248069 0.248069 0.248069 0.248069 0.248069 0.248069 0.248069 0.248069 0.248069 0.248069 0.248069 0.256074 0.256074 0.256074 0.256074 0.256074 0.256074 0.256074 0.256074 0.256074 0.256074 0.256074 0.256074 0.256074 0.256074 0.256074 0.256074 0.256074 0.256074 0.256074 0.256074 0.256074 0.256074 0.256074 0.256074 0.256074 0.256074 0.256074 0.256074 0.256074 0.256074 0.256074 0.256074 0.256074 0.256074 0.256074 0.256074 0.256074 0.256074 0.256074 0.256074 0.256074 0.256074 0.256074 0.256074 0.256074 0.256074 0.256074 0.256074 0.256074 0.256074 0.256074 0.256074 0.256074 0.256074 0.256074 0.256074 0.256074 0.256074 0.256074 0.256074 0.256074 0.256074 0.260378 0.260378 0.260378 0.260378 0.260378 0.260378 0.260378 0.260378 0.260378 0.260378 0.260378 0.260378 0.260378 0.256074 0.256074 0.256074 0.256074 0.256074 0.256074 0.256074 0.256074 0.256074 0.256074 0.256074 0.256074 0.256074 0.260378 0.260378 0.260378 0.260378 0.260378 0.260378 0.260378 0.260378 0.260378 0.260378 0.260378 0.260378 0.251976 0.251976 0.251976 0.251976 0.251976 0.251976 0.251976 0.251976 0.251976 0.251976 0.251976 0.251976 0.256074 0.256074 0.256074 0.256074 0.256074 0.256074 0.256074 0.256074 0.256074 0.256074 0.256074 0.251976 0.251976 0.251976 0.251976 0.251976 0.251976 0.251976 0.251976 0.251976 0.251976 0.251976 0.260378 0.260378 0.260378 0.260378 0.260378 0.260378 0.260378 0.260378 0.260378 0.260378 0.244339 0.244339 0.244339 0.244339 0.244339 0.244339 0.244339 0.244339 0.244339 0.244339 0.244339 0.244339 0.244339 0.244339 0.244339 0.244339 0.244339 0.244339 0.244339 0.244339 0.244339
