# Output from CTFFind version 4.1.9, run on 2019-11-02 17:47:55
# Input file: stack16_bm3d_averaged_1_1.25_0_1500_half.mrc ; Number of micrographs: 1
# Pixel size: 3.000 Angstroms ; acceleration voltage: 300.0 keV ; spherical aberration: 0.00 mm ; amplitude contrast: 0.07
# Box size: 512 pixels ; min. res.: 30.0 Angstroms ; max. res.: 5.0 Angstroms ; min. def.: 5000.0 um; max. def. 50000.0 um; num. frames averaged: 1
# 6 lines per micrograph: #1 - spatial frequency (1/Angstroms); #2 - 1D rotational average of spectrum (assuming no astigmatism); #3 - 1D rotational average of spectrum; #4 - CTF fit; #5 - cross-correlation between spectrum and CTF fit; #6 - 2sigma of expected cross correlation of noise
0.000000 0.000651 0.001302 0.001953 0.002604 0.003255 0.003906 0.004557 0.005208 0.005859 0.006510 0.007161 0.007812 0.008464 0.009115 0.009766 0.010417 0.011068 0.011719 0.012370 0.013021 0.013672 0.014323 0.014974 0.015625 0.016276 0.016927 0.017578 0.018229 0.018880 0.019531 0.020182 0.020833 0.021484 0.022135 0.022786 0.023438 0.024089 0.024740 0.025391 0.026042 0.026693 0.027344 0.027995 0.028646 0.029297 0.029948 0.030599 0.031250 0.031901 0.032552 0.033203 0.033854 0.034505 0.035156 0.035807 0.036458 0.037109 0.037760 0.038411 0.039062 0.039714 0.040365 0.041016 0.041667 0.042318 0.042969 0.043620 0.044271 0.044922 0.045573 0.046224 0.046875 0.047526 0.048177 0.048828 0.049479 0.050130 0.050781 0.051432 0.052083 0.052734 0.053385 0.054036 0.054688 0.055339 0.055990 0.056641 0.057292 0.057943 0.058594 0.059245 0.059896 0.060547 0.061198 0.061849 0.062500 0.063151 0.063802 0.064453 0.065104 0.065755 0.066406 0.067057 0.067708 0.068359 0.069010 0.069661 0.070312 0.070964 0.071615 0.072266 0.072917 0.073568 0.074219 0.074870 0.075521 0.076172 0.076823 0.077474 0.078125 0.078776 0.079427 0.080078 0.080729 0.081380 0.082031 0.082682 0.083333 0.083984 0.084635 0.085286 0.085938 0.086589 0.087240 0.087891 0.088542 0.089193 0.089844 0.090495 0.091146 0.091797 0.092448 0.093099 0.093750 0.094401 0.095052 0.095703 0.096354 0.097005 0.097656 0.098307 0.098958 0.099609 0.100260 0.100911 0.101562 0.102214 0.102865 0.103516 0.104167 0.104818 0.105469 0.106120 0.106771 0.107422 0.108073 0.108724 0.109375 0.110026 0.110677 0.111328 0.111979 0.112630 0.113281 0.113932 0.114583 0.115234 0.115885 0.116536 0.117188 0.117839 0.118490 0.119141 0.119792 0.120443 0.121094 0.121745 0.122396 0.123047 0.123698 0.124349 0.125000 0.125651 0.126302 0.126953 0.127604 0.128255 0.128906 0.129557 0.130208 0.130859 0.131510 0.132161 0.132812 0.133464 0.134115 0.134766 0.135417 0.136068 0.136719 0.137370 0.138021 0.138672 0.139323 0.139974 0.140625 0.141276 0.141927 0.142578 0.143229 0.143880 0.144531 0.145182 0.145833 0.146484 0.147135 0.147786 0.148438 0.149089 0.149740 0.150391 0.151042 0.151693 0.152344 0.152995 0.153646 0.154297 0.154948 0.155599 0.156250 0.156901 0.157552 0.158203 0.158854 0.159505 0.160156 0.160807 0.161458 0.162109 0.162760 0.163411 0.164062 0.164714 0.165365 0.166016 0.166667 0.167318 0.167969 0.168620 0.169271 0.169922 0.170573 0.171224 0.171875 0.172526 0.173177 0.173828 0.174479 0.175130 0.175781 0.176432 0.177083 0.177734 0.178385 0.179036 0.179688 0.180339 0.180990 0.181641 0.182292 0.182943 0.183594 0.184245 0.184896 0.185547 0.186198 0.186849 0.187500 0.188151 0.188802 0.189453 0.190104 0.190755 0.191406 0.192057 0.192708 0.193359 0.194010 0.194661 0.195312 0.195964 0.196615 0.197266 0.197917 0.198568 0.199219 0.199870 0.200521 0.201172 0.201823 0.202474 0.203125 0.203776 0.204427 0.205078 0.205729 0.206380 0.207031 0.207682 0.208333 0.208984 0.209635 0.210286 0.210938 0.211589 0.212240 0.212891 0.213542 0.214193 0.214844 0.215495 0.216146 0.216797 0.217448 0.218099 0.218750 0.219401 0.220052 0.220703 0.221354 0.222005 0.222656 0.223307 0.223958 0.224609 0.225260 0.225911 0.226562 0.227214 0.227865 0.228516 0.229167 0.229818 0.230469 0.231120 0.231771 0.232422 0.233073 0.233724 0.234375 0.235026 0.235677
       0.34360        0.34360        0.34360        0.34360        0.34360        0.34360        0.34360        0.34360        0.34360        0.34360        0.34360        0.34360        0.34360        0.34360        0.34360        0.34360        0.34360        0.34360        0.34360        0.34360        0.34360        0.34360        0.34360        0.34360        0.34360        0.34360        0.34360        0.34360        0.34360        0.34360        0.34360        0.34360        0.34360        0.34360        0.34360        0.34360        0.34360        0.34360        0.34360        0.34360        0.34360        0.34360        0.34360        0.34360        0.34360        0.34360        0.34360        0.34360        0.34360        0.34360        0.34360        0.48933        0.70199        0.45671       -0.11017       -0.41274       -0.57080       -0.66014       -0.74395       -0.76016       -0.86991       -0.91433       -0.75969       -0.92541       -0.87217       -1.02524       -1.09686       -0.98904       -0.96104       -0.88404       -0.85834       -0.74945       -0.64079       -0.49927       -0.42192       -0.21836       -0.11757       -0.02390        0.20239        0.24366        0.30944        0.38487        0.43755        0.51532        0.58134        0.59919        0.59187        0.50183        0.54747        0.48559        0.39293        0.32755        0.20689        0.17273        0.10006       -0.05937       -0.11364       -0.09024        0.01172       -0.01775        0.01307        0.02828        0.20734        0.21807        0.39091        0.45795        0.56314        0.70301        0.76354        0.73210        0.70752        0.70311        0.58527        0.54214        0.39977        0.27646        0.19643        0.14756        0.06814        0.02651        0.02371        0.06289        0.08092        0.27538        0.41789        0.50515        0.58893        0.63925        0.70474        0.65972        0.65302        0.67312        0.60960        0.48243        0.28573        0.23559        0.20483        0.12986        0.04522        0.09317        0.11680        0.25134        0.34472        0.41600        0.50293        0.54159        0.66066        0.60775        0.55374        0.50943        0.36399        0.20732        0.21074        0.15435        0.11874        0.12114        0.21445        0.25556        0.36139        0.44317        0.43880        0.56284        0.51204        0.45153        0.45561        0.38313        0.32401        0.27570        0.21575        0.23464        0.21381        0.21038        0.32181        0.45085        0.48844        0.48195        0.55241        0.49814        0.45589        0.39800        0.29538        0.22640        0.23352        0.24392        0.26640        0.27257        0.32860        0.44312        0.50175        0.49044        0.46023        0.41750        0.38886        0.36251        0.25039        0.22750        0.24951        0.29509        0.35609        0.36407        0.39353        0.41034        0.44355        0.37394        0.34839        0.31549        0.30878        0.26803        0.25901        0.31040        0.34768        0.41647        0.41845        0.39657        0.39250        0.40579        0.34836        0.28637        0.29456        0.28099        0.31042        0.35952        0.36923        0.41567        0.35996        0.36479        0.38917        0.34451        0.31252        0.28382        0.29260        0.33917        0.33015        0.32480        0.37491        0.39658        0.33648        0.35329        0.29906        0.30821        0.28749        0.28180        0.30238        0.33019        0.38388        0.36765        0.34861        0.32857        0.28619        0.27665        0.29874        0.28452        0.31524        0.36944        0.39525        0.33619        0.31826        0.31179        0.29970        0.28980        0.27830        0.30151        0.34123        0.33411        0.34530        0.32189        0.34996        0.32385        0.28877        0.31282        0.32228        0.33776        0.33885        0.31984        0.31425        0.30344        0.33082        0.31610        0.33885        0.39204        0.33641        0.36213        0.31797        0.30916        0.28903        0.30948        0.29108        0.31120        0.32158        0.35343        0.36375        0.31162        0.32103        0.31666        0.29865        0.29383        0.29069        0.33052        0.34108        0.35698        0.33832        0.32149        0.26227        0.26391        0.31251        0.35157        0.31653        0.29422        0.28272        0.29045        0.32809        0.31209        0.30549        0.33625        0.34041        0.31394        0.24513        0.28485        0.28736        0.28832        0.32432        0.32610        0.34819        0.34222        0.28418        0.27051        0.29760        0.26899        0.29499        0.27381        0.24746        0.26293        0.25647        0.28022        0.28615        0.27994        0.26710        0.31762        0.32707        0.31497        0.28527        0.29778        0.24274        0.27123        0.25177        0.32415        0.35079        0.23095        0.25484        0.28489        0.24821        0.24402        0.30494        0.23671        0.13729        0.17606        0.23049        0.27068        0.23483        0.14354        0.04524       -0.40195       -0.76297
3.051752 3.013796 2.976084 2.938617 2.901392 2.864412 2.827677 2.791184 2.754936 2.718932 2.683173 2.647656 2.612385 2.577356 2.542572 2.508032 2.473736 2.439684 2.405877 2.372313 2.338992 2.305917 2.273085 2.240497 2.208152 2.176053 2.144196 2.112585 2.081217 2.050093 2.019213 1.988577 1.958185 1.928037 1.898133 1.868473 1.839057 1.809885 1.780957 1.752273 1.723833 1.695637 1.667685 1.639977 1.612513 1.585293 1.558317 1.531585 1.505097 1.478853 1.452853 1.510203 1.695629 1.610529 0.965591 0.681825 0.476925 0.431853 0.322634 0.266784 0.200235 0.021625 0.197169 0.081831 -0.007214 -0.058849 -0.197240 -0.151081 -0.088753 -0.091809 -0.094221 0.011031 0.033305 0.232401 0.151486 0.364513 0.444452 0.475393 0.712675 0.697887 0.707803 0.835649 0.818503 0.848452 0.920342 0.893092 0.936573 0.749506 0.834533 0.837077 0.620925 0.607972 0.456447 0.436286 0.380651 0.210476 0.117975 0.099864 0.207178 0.143288 0.195832 0.111247 0.308121 0.284991 0.456244 0.413220 0.579442 0.643365 0.763218 0.704875 0.653599 0.666266 0.529643 0.503477 0.364764 0.294394 0.119145 0.148200 0.001866 -0.010131 -0.038064 -0.029048 -0.000774 0.035057 0.274753 0.328905 0.386393 0.393830 0.466183 0.517246 0.468962 0.504843 0.397850 0.389735 0.154517 0.067992 0.072240 -0.003122 -0.124695 -0.042545 -0.113407 0.014919 0.138609 0.156651 0.253421 0.257995 0.383466 0.454835 0.351446 0.388494 0.282767 0.124680 0.047681 0.051851 0.017970 0.004031 0.007153 0.108609 0.129024 0.265945 0.236220 0.302610 0.367434 0.242268 0.244936 0.218935 0.130169 0.083269 0.050276 0.024385 0.040532 -0.012993 0.028463 0.184026 0.219198 0.253625 0.280699 0.232708 0.239045 0.148202 0.108504 -0.021921 -0.014552 -0.007216 0.016987 0.008312 0.028695 0.105642 0.188949 0.204188 0.220509 0.137007 0.145665 0.079516 0.058573 -0.058801 -0.013964 -0.002529 0.054525 0.066613 0.077192 0.153895 0.087287 0.163269 0.067896 0.052029 0.047134 0.028964 0.001913 0.008181 0.052253 0.085948 0.129876 0.139672 0.067796 0.126913 0.097491 0.012685 0.008219 0.006639 -0.002973 0.053613 0.059331 0.099022 0.096982 0.064042 0.069751 0.079213 0.031280 0.011537 -0.009804 0.006395 0.060142 0.023319 0.036015 0.073312 0.089030 0.055783 0.032295 0.009566 0.012451 -0.007237 -0.013597 0.013324 0.050765 0.101471 0.062696 0.058385 0.037526 -0.013636 -0.001933 0.016670 0.011696 0.027064 0.103913 0.062288 0.018219 0.044528 0.002849 0.026883 -0.007864 -0.005873 0.025212 0.061757 0.029442 0.045094 0.031590 0.054617 0.023531 -0.006621 0.024227 0.041387 0.039648 0.035607 0.025903 -0.001449 -0.008366 0.028249 0.010734 0.046930 0.076253 0.043466 0.023715 0.012473 -0.002944 -0.006455 0.007786 0.002031 0.013386 0.000449 0.080647 0.053294 0.028283 0.041860 0.002901 0.012931 0.008667 -0.004746 0.046402 0.065821 0.085313 0.052374 0.047667 -0.022703 0.011797 0.033245 0.073122 0.038756 0.033292 0.002917 0.005956 0.056266 0.051409 0.032575 0.062185 0.070086 0.054884 -0.023095 0.014004 0.046744 0.019239 0.042822 0.076535 0.077122 0.065840 0.016103 0.006187 0.014713 -0.004096 0.024278 -0.022830 -0.028330 -0.020351 -0.041118 -0.004681 -0.006690 0.006428 -0.078084 0.000682 0.008145 -0.005074 -0.044745 0.013923 -0.098988 -0.025082 -0.052923 0.017420 0.066540 -0.111245 -0.025693 0.038712 0.004836 -0.046098 0.044172 0.028576 -0.025263 -0.039376 0.051398 0.236801 0.207226 0.100192 0.042471 -0.667720
0.072396 0.073046 0.074995 0.078243 0.082789 0.088630 0.095766 0.104193 0.113907 0.124904 0.137175 0.150714 0.165510 0.181550 0.198819 0.217298 0.236966 0.257797 0.279760 0.302819 0.326934 0.352058 0.378137 0.405111 0.432912 0.461463 0.490680 0.520468 0.550724 0.581333 0.612172 0.643104 0.673985 0.704655 0.734946 0.764677 0.793656 0.821681 0.848538 0.874004 0.897845 0.919820 0.939681 0.957172 0.972036 0.984011 0.992836 0.998249 0.999996 0.997829 0.991510 0.980815 0.965535 0.945487 0.920507 0.890464 0.855258 0.814826 0.769148 0.718249 0.662203 0.601137 0.535238 0.464751 0.389983 0.311309 0.229170 0.144073 0.056594 0.032625 0.122877 0.213395 0.303356 0.391885 0.478064 0.560940 0.639538 0.712865 0.779932 0.839760 0.891402 0.933954 0.966574 0.988503 0.999076 0.997749 0.984107 0.957892 0.919007 0.867543 0.803781 0.728208 0.641521 0.544635 0.438675 0.324981 0.205090 0.080730 0.046207 0.173683 0.299544 0.421561 0.537457 0.644963 0.741856 0.826013 0.895459 0.948425 0.983394 0.999155 0.994848 0.970007 0.924597 0.859039 0.774232 0.671558 0.552877 0.420517 0.277234 0.126173 0.029193 0.185133 0.337745 0.483051 0.617103 0.736091 0.836466 0.915049 0.969151 0.996672 0.996206 0.967112 0.909582 0.824678 0.714341 0.581386 0.429443 0.262892 0.086748 0.093470 0.271907 0.442552 0.599452 0.736913 0.849729 0.933392 0.984295 0.999910 0.978935 0.921406 0.828759 0.703839 0.550851 0.375261 0.183622 0.016642 0.217505 0.410657 0.587848 0.741243 0.863791 0.949574 0.994121 0.994675 0.950397 0.862490 0.734225 0.570879 0.379565 0.168959 0.051060 0.269856 0.476532 0.660489 0.811981 0.922656 0.986053 0.998031 0.957079 0.864506 0.724481 0.543911 0.332166 0.100631 0.137855 0.369709 0.581361 0.760062 0.894682 0.976448 0.999566 0.961696 0.864223 0.712305 0.514692 0.283285 0.032478 0.221696 0.462571 0.673946 0.841191 0.952314 0.998872 0.976689 0.886301 0.733076 0.527003 0.282120 0.015632 0.253252 0.504685 0.719648 0.881428 0.976969 0.998007 0.941869 0.811876 0.617264 0.372648 0.097006 0.187727 0.458368 0.692370 0.869745 0.974818 0.997714 0.935386 0.792087 0.579236 0.314622 0.021019 0.275701 0.548825 0.773219 0.927680 0.997030 0.973721 0.858777 0.661951 0.401046 0.100424 0.211174 0.503329 0.746923 0.917083 0.995816 0.974037 0.852758 0.643263 0.366236 0.049844 0.273025 0.568135 0.803553 0.953169 0.999703 0.936853 0.770295 0.517377 0.205486 0.130788 0.453413 0.725199 0.914130 0.997256 0.963627 0.815918 0.570461 0.255648 0.091208 0.428191 0.713828 0.912236 0.997755 0.958431 0.797886 0.535252 0.203108 0.156404 0.496819 0.773354 0.948860 0.998961 0.915643 0.708736 0.405027 0.044988 0.322437 0.646441 0.881402 0.993423 0.965417 0.799952 0.519349 0.162932 0.218294 0.568843 0.836813 0.981678 0.980615 0.832349 0.557843 0.197622 0.193985 0.556923 0.834618 0.982882 0.977174 0.816923 0.526166 0.150240 0.251053 0.612839 0.875675 0.995446 0.951008 0.748233 0.419591 0.019297 0.385457 0.725670 0.942361 0.996981 0.878564 0.606246 0.226527 0.194363 0.581880 0.866309 0.995491 0.944630 0.721402 0.365237 0.059321 0.474066 0.801473 0.979286 0.972615 0.781127 0.439834 0.013046 0.417433 0.767925 0.969177 0.980335 0.797578 0.455639 0.021603 0.417947 0.774091 0.973637 0.974441 0.774687 0.414072 0.033680 0.475553 0.818505 0.989145 0.949755 0.707057 0.311628 0.152227 0.584166
1.000000 1.000000 1.000000 1.000000 1.000000 1.000000 1.000000 1.000000 1.000000 1.000000 1.000000 1.000000 1.000000 1.000000 1.000000 1.000000 1.000000 1.000000 1.000000 1.000000 1.000000 1.000000 1.000000 1.000000 1.000000 1.000000 1.000000 1.000000 1.000000 1.000000 1.000000 1.000000 1.000000 1.000000 1.000000 1.000000 1.000000 1.000000 1.000000 1.000000 1.000000 1.000000 1.000000 1.000000 1.000000 1.000000 1.000000 1.000000 1.000000 1.000000 1.000000 1.000000 0.933195 0.933195 0.933195 0.933195 0.933195 0.933195 0.933195 0.933195 0.933195 0.933195 0.933195 0.933195 0.933195 0.933195 0.933195 0.933195 0.933195 0.933195 0.933195 0.933195 0.933195 0.933195 0.933195 0.933195 0.933195 0.933195 0.933195 0.933195 0.933195 0.933195 0.933195 0.933195 0.933195 0.922500 0.923986 0.926949 0.928016 0.927976 0.927521 0.927209 0.927430 0.929146 0.931465 0.948064 0.950180 0.950758 0.952035 0.952273 0.954783 0.953035 0.952907 0.963444 0.962281 0.963007 0.956112 0.957668 0.956777 0.955865 0.956350 0.956575 0.954665 0.952540 0.950871 0.950245 0.949877 0.951641 0.952115 0.952091 0.953553 0.953529 0.953261 0.949944 0.948490 0.949953 0.951966 0.951101 0.956803 0.956640 0.964683 0.965491 0.964106 0.964002 0.964201 0.964396 0.955385 0.949423 0.944203 0.932314 0.923402 0.921135 0.923994 0.925725 0.924566 0.919891 0.918841 0.916279 0.911473 0.910645 0.910495 0.912026 0.908199 0.904871 0.888579 0.888107 0.890709 0.890243 0.888043 0.879796 0.875099 0.875802 0.878905 0.876478 0.873153 0.889087 0.884004 0.888911 0.891914 0.894951 0.898796 0.894648 0.893243 0.889587 0.886050 0.880708 0.882114 0.871161 0.873956 0.868917 0.859754 0.852932 0.855725 0.864823 0.872675 0.880611 0.879655 0.879849 0.879079 0.869879 0.871323 0.861021 0.861975 0.867362 0.873178 0.870176 0.867261 0.871771 0.869990 0.870604 0.873190 0.869807 0.868032 0.858736 0.858952 0.861547 0.877867 0.878941 0.867028 0.857830 0.846008 0.852850 0.855797 0.854946 0.856706 0.848828 0.850409 0.839875 0.827938 0.828672 0.833707 0.830056 0.832887 0.831783 0.836086 0.837268 0.835785 0.831127 0.829523 0.835125 0.807402 0.813904 0.816221 0.810956 0.815401 0.806907 0.800545 0.795842 0.795164 0.788439 0.799320 0.797811 0.763468 0.756149 0.763600 0.749660 0.740252 0.736518 0.737579 0.713972 0.698196 0.667041 0.662930 0.648319 0.646132 0.645710 0.636893 0.618585 0.605872 0.595213 0.611022 0.614874 0.592373 0.594313 0.588595 0.584016 0.578298 0.574003 0.572248 0.577209 0.582409 0.548709 0.542437 0.548161 0.520494 0.519826 0.518841 0.508312 0.481296 0.486680 0.481936 0.503770 0.534635 0.488872 0.481395 0.494857 0.510592 0.522429 0.521257 0.507732 0.491341 0.503893 0.481876 0.460959 0.476639 0.484010 0.475437 0.487212 0.478671 0.505742 0.498321 0.479687 0.504839 0.509473 0.504075 0.509877 0.525062 0.519867 0.522681 0.513744 0.470648 0.481179 0.463388 0.403093 0.398902 0.409775 0.396075 0.395205 0.370358 0.373227 0.347300 0.318968 0.321114 0.315061 0.279545 0.245907 0.250794 0.252524 0.222795 0.193966 0.213605 0.166319 0.159807 0.179881 0.186108 0.173336 0.175715 0.197759 0.197759 0.197759 0.197759 0.197759 0.197759 0.197759 0.197759 0.197759 0.197759 0.197759 0.197759 0.197759 0.197759 0.222535 0.222535 0.222535 0.222535 0.222535 0.222535 0.222535 0.222535 0.222535 0.222535 0.222535 0.222535
0.000000 0.000000 0.000000 0.000000 0.000000 0.000000 0.000000 0.000000 0.000000 0.000000 0.000000 0.000000 0.000000 0.000000 0.000000 0.000000 0.000000 0.000000 0.000000 0.000000 0.000000 0.000000 0.000000 0.000000 0.000000 7.000000 4.000000 0.000000 0.000000 0.000000 0.000000 0.000000 0.000000 0.000000 0.000000 0.000000 0.000000 0.000000 0.000000 0.000000 0.000000 0.000000 0.000000 0.000000 0.000000 0.000000 0.000000 0.000000 0.000000 0.000000 0.000000 0.000000 0.209657 0.209657 0.209657 0.209657 0.209657 0.209657 0.209657 0.209657 0.209657 0.209657 0.209657 0.209657 0.209657 0.209657 0.209657 0.209657 0.209657 0.209657 0.209657 0.209657 0.209657 0.209657 0.209657 0.209657 0.209657 0.209657 0.209657 0.209657 0.209657 0.209657 0.209657 0.209657 0.209657 0.244339 0.244339 0.244339 0.244339 0.244339 0.244339 0.244339 0.244339 0.244339 0.244339 0.244339 0.244339 0.244339 0.244339 0.244339 0.244339 0.244339 0.244339 0.244339 0.244339 0.244339 0.244339 0.244339 0.244339 0.244339 0.260378 0.260378 0.260378 0.260378 0.260378 0.260378 0.260378 0.260378 0.260378 0.260378 0.260378 0.260378 0.260378 0.260378 0.260378 0.260378 0.260378 0.260378 0.260378 0.260378 0.269680 0.269680 0.269680 0.269680 0.269680 0.269680 0.269680 0.269680 0.269680 0.269680 0.269680 0.269680 0.269680 0.269680 0.269680 0.269680 0.269680 0.269680 0.269680 0.269680 0.269680 0.269680 0.269680 0.269680 0.269680 0.269680 0.269680 0.269680 0.269680 0.269680 0.269680 0.269680 0.269680 0.280056 0.280056 0.280056 0.280056 0.280056 0.280056 0.280056 0.280056 0.280056 0.280056 0.280056 0.280056 0.280056 0.280056 0.280056 0.280056 0.280056 0.280056 0.280056 0.280056 0.280056 0.280056 0.280056 0.280056 0.280056 0.280056 0.280056 0.274721 0.274721 0.274721 0.274721 0.274721 0.274721 0.274721 0.274721 0.274721 0.274721 0.274721 0.274721 0.274721 0.285714 0.285714 0.285714 0.285714 0.285714 0.285714 0.285714 0.285714 0.285714 0.285714 0.285714 0.280056 0.280056 0.280056 0.280056 0.280056 0.280056 0.280056 0.280056 0.280056 0.280056 0.280056 0.274721 0.274721 0.274721 0.274721 0.274721 0.274721 0.274721 0.274721 0.274721 0.274721 0.274721 0.280056 0.280056 0.280056 0.280056 0.280056 0.280056 0.280056 0.280056 0.280056 0.280056 0.285714 0.285714 0.285714 0.285714 0.285714 0.285714 0.285714 0.285714 0.285714 0.269680 0.269680 0.269680 0.269680 0.269680 0.269680 0.269680 0.269680 0.269680 0.269680 0.274721 0.274721 0.274721 0.274721 0.274721 0.274721 0.274721 0.274721 0.274721 0.285714 0.285714 0.285714 0.285714 0.285714 0.285714 0.285714 0.285714 0.264906 0.264906 0.264906 0.264906 0.264906 0.264906 0.264906 0.264906 0.264906 0.274721 0.274721 0.274721 0.274721 0.274721 0.274721 0.274721 0.274721 0.269680 0.269680 0.269680 0.269680 0.269680 0.269680 0.269680 0.269680 0.269680 0.269680 0.269680 0.269680 0.269680 0.269680 0.269680 0.269680 0.280056 0.280056 0.280056 0.280056 0.280056 0.280056 0.280056 0.260378 0.260378 0.260378 0.260378 0.260378 0.260378 0.260378 0.260378 0.269680 0.269680 0.269680 0.269680 0.269680 0.269680 0.269680 0.264906 0.264906 0.264906 0.264906 0.264906 0.264906 0.264906 0.264906 0.264906 0.264906 0.264906 0.264906 0.264906 0.264906 0.260378 0.260378 0.260378 0.260378 0.260378 0.260378 0.260378 0.260378 0.260378 0.260378 0.260378 0.260378
