# Output from CTFFind version 4.1.9, run on 2019-11-03 19:36:01
# Input file: stack11_bm3d_averaged_1_4.25_0_2000_half.mrc ; Number of micrographs: 1
# Pixel size: 3.000 Angstroms ; acceleration voltage: 300.0 keV ; spherical aberration: 0.00 mm ; amplitude contrast: 0.07
# Box size: 512 pixels ; min. res.: 30.0 Angstroms ; max. res.: 5.0 Angstroms ; min. def.: 5000.0 um; max. def. 50000.0 um; num. frames averaged: 1
# 6 lines per micrograph: #1 - spatial frequency (1/Angstroms); #2 - 1D rotational average of spectrum (assuming no astigmatism); #3 - 1D rotational average of spectrum; #4 - CTF fit; #5 - cross-correlation between spectrum and CTF fit; #6 - 2sigma of expected cross correlation of noise
0.000000 0.000651 0.001302 0.001953 0.002604 0.003255 0.003906 0.004557 0.005208 0.005859 0.006510 0.007161 0.007812 0.008464 0.009115 0.009766 0.010417 0.011068 0.011719 0.012370 0.013021 0.013672 0.014323 0.014974 0.015625 0.016276 0.016927 0.017578 0.018229 0.018880 0.019531 0.020182 0.020833 0.021484 0.022135 0.022786 0.023438 0.024089 0.024740 0.025391 0.026042 0.026693 0.027344 0.027995 0.028646 0.029297 0.029948 0.030599 0.031250 0.031901 0.032552 0.033203 0.033854 0.034505 0.035156 0.035807 0.036458 0.037109 0.037760 0.038411 0.039062 0.039714 0.040365 0.041016 0.041667 0.042318 0.042969 0.043620 0.044271 0.044922 0.045573 0.046224 0.046875 0.047526 0.048177 0.048828 0.049479 0.050130 0.050781 0.051432 0.052083 0.052734 0.053385 0.054036 0.054688 0.055339 0.055990 0.056641 0.057292 0.057943 0.058594 0.059245 0.059896 0.060547 0.061198 0.061849 0.062500 0.063151 0.063802 0.064453 0.065104 0.065755 0.066406 0.067057 0.067708 0.068359 0.069010 0.069661 0.070312 0.070964 0.071615 0.072266 0.072917 0.073568 0.074219 0.074870 0.075521 0.076172 0.076823 0.077474 0.078125 0.078776 0.079427 0.080078 0.080729 0.081380 0.082031 0.082682 0.083333 0.083984 0.084635 0.085286 0.085938 0.086589 0.087240 0.087891 0.088542 0.089193 0.089844 0.090495 0.091146 0.091797 0.092448 0.093099 0.093750 0.094401 0.095052 0.095703 0.096354 0.097005 0.097656 0.098307 0.098958 0.099609 0.100260 0.100911 0.101562 0.102214 0.102865 0.103516 0.104167 0.104818 0.105469 0.106120 0.106771 0.107422 0.108073 0.108724 0.109375 0.110026 0.110677 0.111328 0.111979 0.112630 0.113281 0.113932 0.114583 0.115234 0.115885 0.116536 0.117188 0.117839 0.118490 0.119141 0.119792 0.120443 0.121094 0.121745 0.122396 0.123047 0.123698 0.124349 0.125000 0.125651 0.126302 0.126953 0.127604 0.128255 0.128906 0.129557 0.130208 0.130859 0.131510 0.132161 0.132812 0.133464 0.134115 0.134766 0.135417 0.136068 0.136719 0.137370 0.138021 0.138672 0.139323 0.139974 0.140625 0.141276 0.141927 0.142578 0.143229 0.143880 0.144531 0.145182 0.145833 0.146484 0.147135 0.147786 0.148438 0.149089 0.149740 0.150391 0.151042 0.151693 0.152344 0.152995 0.153646 0.154297 0.154948 0.155599 0.156250 0.156901 0.157552 0.158203 0.158854 0.159505 0.160156 0.160807 0.161458 0.162109 0.162760 0.163411 0.164062 0.164714 0.165365 0.166016 0.166667 0.167318 0.167969 0.168620 0.169271 0.169922 0.170573 0.171224 0.171875 0.172526 0.173177 0.173828 0.174479 0.175130 0.175781 0.176432 0.177083 0.177734 0.178385 0.179036 0.179688 0.180339 0.180990 0.181641 0.182292 0.182943 0.183594 0.184245 0.184896 0.185547 0.186198 0.186849 0.187500 0.188151 0.188802 0.189453 0.190104 0.190755 0.191406 0.192057 0.192708 0.193359 0.194010 0.194661 0.195312 0.195964 0.196615 0.197266 0.197917 0.198568 0.199219 0.199870 0.200521 0.201172 0.201823 0.202474 0.203125 0.203776 0.204427 0.205078 0.205729 0.206380 0.207031 0.207682 0.208333 0.208984 0.209635 0.210286 0.210938 0.211589 0.212240 0.212891 0.213542 0.214193 0.214844 0.215495 0.216146 0.216797 0.217448 0.218099 0.218750 0.219401 0.220052 0.220703 0.221354 0.222005 0.222656 0.223307 0.223958 0.224609 0.225260 0.225911 0.226562 0.227214 0.227865 0.228516 0.229167 0.229818 0.230469 0.231120 0.231771 0.232422 0.233073 0.233724 0.234375 0.235026 0.235677
       0.33378        0.33378        0.33378        0.33378        0.33378        0.33378        0.33378        0.33378        0.33378        0.33378        0.33378        0.33378        0.33378        0.33378        0.33378        0.33378        0.33378        0.33378        0.33378        0.33378        0.33378        0.33378        0.33378        0.33378        0.33378        0.33378        0.33378        0.33378        0.33378        0.33378        0.33378        0.33378        0.33378        0.33378        0.33378        0.33378        0.33378        0.33378        0.33378        0.33378        0.33378        0.33378        0.33378        0.33378        0.33378        0.33378        0.33378        0.33378        0.33378        0.33378        0.33378        0.69178        0.86041        0.53205        0.10260       -0.03653       -0.40173       -0.18558       -0.28905       -0.11320       -0.05904       -0.11068       -0.05514       -0.18010       -0.21386       -0.22827       -0.31496       -0.32687       -0.45695       -0.36778       -0.43764       -0.43139       -0.40450       -0.43063       -0.47675       -0.52469       -0.56544       -0.57452       -0.54670       -0.37546       -0.34861       -0.30868       -0.28730       -0.19356       -0.18440        0.04743        0.12271        0.15403        0.25078        0.37734        0.45301        0.51720        0.58303        0.58111        0.57294        0.69377        0.80593        0.71327        0.73791        0.63305        0.56729        0.48331        0.42375        0.50828        0.39089        0.24624        0.10266        0.08911        0.06613       -0.03271        0.01360        0.02940       -0.01682        0.01448        0.00697        0.23544        0.26423        0.29157        0.42611        0.44904        0.40830        0.57628        0.62635        0.65655        0.73540        0.68110        0.65053        0.67118        0.56554        0.47060        0.41759        0.29722        0.24177        0.16968        0.12760        0.05278        0.04365        0.04544        0.08669        0.14362        0.23006        0.28039        0.40377        0.45468        0.48578        0.58363        0.61342        0.63715        0.62180        0.56101        0.45428        0.46623        0.37215        0.25475        0.19862        0.15582        0.15617        0.14266        0.13185        0.15831        0.29257        0.30368        0.38441        0.41979        0.43003        0.49652        0.55276        0.55241        0.48951        0.45148        0.40220        0.35301        0.32298        0.28780        0.23501        0.23057        0.21794        0.23610        0.21370        0.29982        0.35766        0.38757        0.43841        0.45480        0.47309        0.42163        0.39904        0.40509        0.36049        0.30510        0.26846        0.25230        0.25170        0.22041        0.26778        0.26971        0.34001        0.37340        0.40710        0.47503        0.41682        0.42941        0.43126        0.40389        0.34326        0.31980        0.28895        0.30338        0.26543        0.30272        0.29826        0.31833        0.32627        0.34729        0.31894        0.40025        0.41636        0.37924        0.34444        0.37131        0.30551        0.28750        0.28783        0.31550        0.29444        0.30590        0.32235        0.33576        0.34027        0.36720        0.37043        0.39147        0.37359        0.32450        0.33216        0.29087        0.27353        0.31846        0.31127        0.32182        0.32831        0.32578        0.36504        0.32695        0.32568        0.31957        0.32810        0.29553        0.30476        0.26960        0.29700        0.31409        0.29660        0.31764        0.33885        0.34378        0.28027        0.31573        0.28518        0.30049        0.27769        0.23583        0.29024        0.29341        0.34074        0.33003        0.32925        0.32118        0.33987        0.29922        0.33768        0.32100        0.29678        0.27396        0.32036        0.30621        0.35149        0.32508        0.33234        0.33924        0.29271        0.27375        0.30715        0.24415        0.22194        0.32511        0.31670        0.33437        0.32670        0.34012        0.31395        0.34269        0.33921        0.26297        0.24272        0.30424        0.30134        0.30511        0.32087        0.33769        0.33604        0.30265        0.28892        0.33628        0.31588        0.29021        0.27218        0.31963        0.35066        0.39296        0.32225        0.29032        0.27409        0.30779        0.26806        0.29131        0.26820        0.24490        0.30974        0.33273        0.34270        0.34100        0.30339        0.27681        0.28746        0.25657        0.25533        0.24501        0.31666        0.28536        0.22361        0.32278        0.31842        0.26161        0.27852        0.20470        0.21342        0.25232        0.18067        0.24648        0.29722        0.22872        0.20939        0.30700        0.33328        0.32689        0.32886        0.25288        0.21421        0.18186        0.21973        0.19109        0.18433        0.20582        0.25088        0.27262        0.24714        0.19661        0.10920        0.08663        0.00726       -0.09616       -0.61491
2.703904 2.675324 2.646900 2.618632 2.590521 2.562565 2.534765 2.507120 2.479632 2.452300 2.425124 2.398104 2.371239 2.344531 2.317978 2.291582 2.265341 2.239257 2.213328 2.187555 2.161938 2.136478 2.111173 2.086024 2.061031 2.036194 2.011512 1.986987 1.962618 1.938405 1.914347 1.890446 1.866700 1.843111 1.819677 1.796399 1.773278 1.750312 1.727502 1.704848 1.682350 1.660008 1.637822 1.615792 1.593918 1.572200 1.550637 1.529231 1.507981 1.486886 1.465948 1.681575 2.098254 1.661980 1.165326 1.031009 0.438210 0.838580 0.561874 0.842448 0.799127 0.810552 0.756802 0.735558 0.587018 0.545259 0.495647 0.430003 0.239019 0.372784 0.203748 0.324468 0.226833 0.198853 0.169541 0.035834 0.023131 0.014083 -0.065763 0.125760 0.223853 0.186940 0.168411 0.332487 0.185859 0.507910 0.612128 0.607259 0.625572 0.870961 0.825394 0.935056 0.909291 1.007744 0.971701 1.069404 1.155352 1.044393 1.141157 0.915058 0.924006 0.787692 0.649187 0.791316 0.700926 0.476314 0.325092 0.250142 0.253606 0.147998 0.117460 0.153689 0.100758 0.132425 0.067676 0.257478 0.363629 0.344954 0.469908 0.547394 0.423492 0.578076 0.717176 0.685108 0.742279 0.705869 0.721398 0.664579 0.601285 0.517621 0.384994 0.277550 0.220933 0.080644 0.121184 -0.078103 -0.043197 -0.061526 -0.069956 -0.020321 0.142407 0.067957 0.245372 0.303598 0.341728 0.404862 0.506388 0.487100 0.486210 0.496221 0.310863 0.295068 0.282834 0.086898 0.043629 -0.058280 -0.010104 -0.055740 -0.087122 -0.089862 0.034223 0.074360 0.120778 0.202457 0.228139 0.254423 0.299002 0.430469 0.390815 0.269902 0.240656 0.217035 0.155681 0.137099 0.107978 0.002802 0.016553 0.055394 -0.001521 0.065441 0.146236 0.147752 0.238870 0.246599 0.286307 0.184784 0.219773 0.145879 0.180555 0.112166 0.049273 -0.005068 0.007267 -0.004166 -0.045896 0.053838 0.022122 0.128726 0.149064 0.183445 0.204232 0.168600 0.156033 0.177714 0.130857 0.062580 0.007399 0.054390 0.017633 -0.013207 0.030539 0.042947 0.058979 0.052011 0.061965 0.085209 0.129085 0.157325 0.059141 0.060687 0.057823 0.013054 -0.022682 0.014892 0.019692 0.005788 0.011565 0.037399 0.056643 0.053181 0.107163 0.058366 0.135444 0.060422 0.024378 0.039436 -0.032192 -0.000229 0.043900 0.001403 0.041198 0.050229 0.020799 0.105805 0.038677 0.010679 0.049961 0.007047 0.017341 0.006797 -0.020071 0.035883 0.006173 0.007422 0.058369 0.058431 0.048070 0.031711 0.034609 0.038006 0.027805 -0.011110 -0.022879 0.033383 0.055921 0.087796 0.085482 0.068229 0.080767 0.109574 0.057370 0.115917 0.094271 0.033091 0.041776 0.097423 0.078808 0.112047 0.107881 0.063118 0.140720 0.066570 0.024806 0.100209 -0.022853 0.005250 0.112442 0.068457 0.134805 0.093441 0.094074 0.049250 0.113036 0.090714 -0.005110 -0.028044 0.062292 0.074260 0.052147 0.043450 0.100576 0.088392 0.011917 0.046414 0.073978 0.059558 0.040109 -0.018907 0.078830 0.095499 0.134128 0.013745 0.005841 -0.019149 0.033518 -0.032205 0.011361 -0.034348 -0.040528 0.013486 0.060232 0.009929 0.029168 -0.020458 -0.035132 -0.047377 -0.031755 -0.074053 -0.069486 0.013760 0.025500 -0.093539 0.033617 -0.012586 -0.063278 0.010343 -0.124463 -0.069092 -0.068284 -0.160005 -0.020695 0.030916 -0.030904 -0.136077 0.053276 0.120845 -0.017763 0.109542 -0.018126 0.232382 0.152814 0.233453 0.235108 0.202590 0.216292 0.285257 0.263644 0.279879 0.179916 0.188587 0.125137 0.003763 -0.660717
0.072396 0.072899 0.074406 0.076918 0.080435 0.084954 0.090475 0.096997 0.104516 0.113031 0.122538 0.133033 0.144510 0.156962 0.170384 0.184764 0.200092 0.216355 0.233538 0.251624 0.270593 0.290422 0.311085 0.332553 0.354792 0.377765 0.401431 0.425744 0.450653 0.476103 0.502032 0.528373 0.555053 0.581994 0.609110 0.636310 0.663495 0.690560 0.717394 0.743877 0.769883 0.795282 0.819933 0.843691 0.866406 0.887921 0.908072 0.926694 0.943615 0.958662 0.971658 0.982425 0.990785 0.996561 0.999578 0.999665 0.996655 0.990390 0.980718 0.967499 0.950607 0.929928 0.905366 0.876843 0.844304 0.807714 0.767067 0.722383 0.673711 0.621133 0.564766 0.504760 0.441302 0.374621 0.304981 0.232688 0.158090 0.081573 0.003563 0.075474 0.155034 0.234579 0.313538 0.391311 0.467272 0.540775 0.611156 0.677744 0.739864 0.796844 0.848025 0.892766 0.930457 0.960523 0.982436 0.995728 0.999993 0.994902 0.980210 0.955767 0.921523 0.877539 0.823991 0.761176 0.689517 0.609566 0.522001 0.427631 0.327388 0.222323 0.113603 0.002492 0.109651 0.221394 0.331245 0.437674 0.539131 0.634072 0.720982 0.798402 0.864956 0.919378 0.960540 0.987479 0.999424 0.995816 0.976335 0.940918 0.889771 0.823384 0.742534 0.648288 0.542000 0.425295 0.300059 0.168405 0.032656 0.104703 0.241064 0.373737 0.500014 0.617220 0.722769 0.814232 0.889393 0.946314 0.983387 0.999391 0.993538 0.965511 0.915497 0.844203 0.752864 0.643239 0.517590 0.378647 0.229563 0.073850 0.084702 0.242102 0.394265 0.537113 0.666693 0.779284 0.871518 0.940488 0.983853 0.999926 0.987757 0.947189 0.878895 0.784395 0.666043 0.526989 0.371115 0.202938 0.027494 0.149804 0.323329 0.487417 0.636551 0.765565 0.869813 0.945373 0.989195 0.999248 0.974631 0.915649 0.823849 0.702004 0.554064 0.385051 0.200903 0.008287 0.185629 0.373444 0.547801 0.701682 0.828703 0.923392 0.981447 0.999958 0.977572 0.914608 0.813102 0.676777 0.510945 0.322325 0.118795 0.090913 0.297585 0.491920 0.664954 0.808487 0.915493 0.980481 0.999814 0.971942 0.897543 0.779567 0.623157 0.435472 0.225394 0.003124 0.220286 0.433477 0.625362 0.785714 0.905736 0.978567 0.999715 0.967372 0.882593 0.749330 0.574293 0.366666 0.137661 0.100065 0.333086 0.547958 0.732017 0.874130 0.965410 0.999812 0.974575 0.890489 0.751952 0.566793 0.345893 0.102584 0.148121 0.390440 0.608808 0.788898 0.918583 0.988794 0.994213 0.933723 0.810602 0.632424 0.410649 0.159956 0.102696 0.359201 0.591528 0.783019 0.919599 0.990878 0.990982 0.919109 0.779725 0.582362 0.341043 0.073348 0.200831 0.460743 0.686356 0.859917 0.967401 0.999697 0.953460 0.831519 0.642807 0.401786 0.127425 0.158265 0.431942 0.670857 0.854763 0.967671 0.999324 0.946195 0.811965 0.607370 0.349436 0.060153 0.235372 0.511044 0.742104 0.907383 0.991306 0.985437 0.889428 0.711231 0.466556 0.177588 0.128970 0.424316 0.680239 0.871856 0.980083 0.993624 0.910254 0.737239 0.490832 0.194854 0.121534 0.426654 0.689463 0.882765 0.986071 0.987876 0.887056 0.693206 0.425867 0.112669 0.213462 0.517688 0.767019 0.933921 0.999438 0.955471 0.805894 0.566378 0.262895 0.071012 0.397846 0.680376 0.885881 0.990037 0.979898 0.855651 0.630860 0.331136 0.008653 0.348360 0.647272 0.869002 0.986018 0.983160 0.859764 0.630030 0.321551 0.027858 0.374726 0.675282 0.891028 0.993742 0.969323 0.819866 0.563731 0.233426 0.128342
1.000000 1.000000 1.000000 1.000000 1.000000 1.000000 1.000000 1.000000 1.000000 1.000000 1.000000 1.000000 1.000000 1.000000 1.000000 1.000000 1.000000 1.000000 1.000000 1.000000 1.000000 1.000000 1.000000 1.000000 1.000000 1.000000 1.000000 1.000000 1.000000 1.000000 1.000000 1.000000 1.000000 1.000000 1.000000 1.000000 1.000000 1.000000 1.000000 1.000000 1.000000 1.000000 1.000000 1.000000 1.000000 1.000000 1.000000 1.000000 1.000000 1.000000 1.000000 1.000000 0.918021 0.918021 0.918021 0.909896 0.909896 0.909896 0.909896 0.909896 0.909896 0.909896 0.909896 0.909896 0.909896 0.909896 0.909896 0.909896 0.909896 0.909896 0.909896 0.909896 0.909896 0.909896 0.909896 0.909896 0.909896 0.909896 0.909896 0.909896 0.909896 0.909896 0.909896 0.909896 0.909896 0.909896 0.909896 0.909896 0.909896 0.909896 0.909896 0.909896 0.909896 0.909896 0.909896 0.909896 0.938634 0.940176 0.948339 0.948042 0.947405 0.945227 0.944051 0.943549 0.943430 0.943768 0.944506 0.945516 0.954362 0.955584 0.958449 0.960112 0.960852 0.961471 0.962084 0.962611 0.953402 0.953197 0.951832 0.951218 0.953743 0.952963 0.952851 0.953816 0.953680 0.954550 0.954432 0.953695 0.952564 0.951560 0.950588 0.950007 0.949782 0.950522 0.950943 0.952447 0.955792 0.956362 0.956484 0.956640 0.956737 0.958038 0.956858 0.956451 0.952396 0.952633 0.952185 0.952427 0.955953 0.955867 0.956419 0.956980 0.958553 0.958846 0.951579 0.949753 0.940691 0.938996 0.934654 0.928892 0.924685 0.926547 0.927963 0.928839 0.929388 0.924836 0.924815 0.922275 0.920235 0.923062 0.922296 0.922676 0.924042 0.922731 0.920068 0.919485 0.917017 0.907970 0.895734 0.895276 0.897583 0.902269 0.903857 0.902720 0.904159 0.891217 0.872725 0.859330 0.861043 0.864842 0.856258 0.854191 0.854857 0.855551 0.859128 0.852385 0.850158 0.846271 0.835683 0.825587 0.817971 0.812388 0.818707 0.814586 0.805156 0.804258 0.814786 0.807418 0.821842 0.827153 0.824503 0.823947 0.822217 0.817530 0.794748 0.793374 0.786978 0.769823 0.770293 0.769040 0.766449 0.762185 0.769084 0.755909 0.752465 0.737659 0.739580 0.743136 0.744850 0.743175 0.736304 0.739722 0.744318 0.726824 0.713274 0.699680 0.704971 0.711939 0.713568 0.709657 0.688544 0.653100 0.623129 0.642987 0.659559 0.621049 0.645578 0.657123 0.639782 0.637650 0.629263 0.632932 0.621307 0.624786 0.628052 0.632561 0.632137 0.648533 0.633471 0.625296 0.634856 0.634153 0.642951 0.638444 0.638639 0.611810 0.608235 0.632297 0.635742 0.621972 0.638811 0.627470 0.634311 0.668494 0.675869 0.650440 0.644248 0.622019 0.579074 0.575649 0.570995 0.583282 0.615618 0.588343 0.550541 0.526708 0.533150 0.554007 0.559768 0.562530 0.541854 0.544875 0.535489 0.509558 0.515270 0.529371 0.531719 0.521025 0.498964 0.504849 0.508642 0.532173 0.521598 0.481589 0.495908 0.491554 0.487150 0.432627 0.447533 0.428913 0.415411 0.368905 0.375384 0.388768 0.376744 0.319443 0.302785 0.302353 0.302073 0.302771 0.290259 0.265061 0.256937 0.251072 0.253290 0.242089 0.216832 0.212144 0.197928 0.186168 0.188288 0.147275 0.186225 0.247182 0.248428 0.248428 0.248428 0.248428 0.248428 0.248428 0.253177 0.253177 0.253177 0.253177 0.253177 0.253177 0.253177 0.253177 0.253177 0.273694 0.273694 0.273694 0.273694 0.273694 0.273694 0.273694 0.273694 0.273694 0.273694 0.273694 0.273694 0.273694 0.273694
0.000000 0.000000 0.000000 0.000000 0.000000 0.000000 0.000000 0.000000 0.000000 0.000000 0.000000 0.000000 0.000000 0.000000 0.000000 0.000000 0.000000 0.000000 0.000000 0.000000 0.000000 0.000000 0.000000 0.000000 0.000000 7.000000 4.000000 0.000000 0.000000 0.000000 0.000000 0.000000 0.000000 0.000000 0.000000 0.000000 0.000000 0.000000 0.000000 0.000000 0.000000 0.000000 0.000000 0.000000 0.000000 0.000000 0.000000 0.000000 0.000000 0.000000 0.000000 0.000000 0.180334 0.180334 0.180334 0.199007 0.199007 0.199007 0.199007 0.199007 0.199007 0.199007 0.199007 0.199007 0.199007 0.199007 0.199007 0.199007 0.199007 0.199007 0.199007 0.199007 0.199007 0.199007 0.199007 0.199007 0.199007 0.199007 0.199007 0.199007 0.199007 0.199007 0.199007 0.199007 0.199007 0.199007 0.199007 0.199007 0.199007 0.199007 0.199007 0.199007 0.199007 0.199007 0.199007 0.199007 0.225018 0.225018 0.225018 0.225018 0.225018 0.225018 0.225018 0.225018 0.225018 0.225018 0.225018 0.225018 0.225018 0.225018 0.225018 0.225018 0.225018 0.225018 0.225018 0.225018 0.225018 0.225018 0.225018 0.225018 0.225018 0.225018 0.225018 0.225018 0.225018 0.244339 0.244339 0.244339 0.244339 0.244339 0.244339 0.244339 0.244339 0.244339 0.244339 0.244339 0.244339 0.244339 0.244339 0.244339 0.244339 0.244339 0.244339 0.244339 0.244339 0.244339 0.244339 0.244339 0.251976 0.251976 0.251976 0.251976 0.251976 0.251976 0.251976 0.251976 0.251976 0.251976 0.251976 0.251976 0.251976 0.251976 0.251976 0.251976 0.251976 0.251976 0.251976 0.251976 0.264906 0.264906 0.264906 0.264906 0.264906 0.264906 0.264906 0.264906 0.264906 0.264906 0.264906 0.264906 0.264906 0.264906 0.264906 0.264906 0.264906 0.264906 0.264906 0.264906 0.264906 0.264906 0.264906 0.264906 0.264906 0.264906 0.264906 0.264906 0.264906 0.264906 0.264906 0.264906 0.264906 0.264906 0.264906 0.264906 0.264906 0.264906 0.264906 0.264906 0.264906 0.264906 0.264906 0.264906 0.264906 0.264906 0.264906 0.264906 0.264906 0.264906 0.264906 0.264906 0.264906 0.264906 0.264906 0.264906 0.264906 0.264906 0.264906 0.264906 0.264906 0.264906 0.256074 0.256074 0.256074 0.256074 0.256074 0.256074 0.256074 0.256074 0.256074 0.256074 0.256074 0.256074 0.256074 0.256074 0.269680 0.269680 0.269680 0.269680 0.269680 0.269680 0.269680 0.269680 0.269680 0.269680 0.269680 0.269680 0.264906 0.264906 0.264906 0.264906 0.264906 0.264906 0.264906 0.264906 0.264906 0.264906 0.264906 0.264906 0.269680 0.269680 0.269680 0.269680 0.269680 0.269680 0.269680 0.269680 0.269680 0.269680 0.269680 0.264906 0.264906 0.264906 0.264906 0.264906 0.264906 0.264906 0.264906 0.264906 0.264906 0.264906 0.256074 0.256074 0.256074 0.256074 0.256074 0.256074 0.256074 0.256074 0.256074 0.256074 0.256074 0.264906 0.264906 0.264906 0.264906 0.264906 0.264906 0.264906 0.264906 0.264906 0.264906 0.260378 0.260378 0.260378 0.260378 0.260378 0.260378 0.260378 0.260378 0.260378 0.260378 0.256074 0.256074 0.256074 0.256074 0.256074 0.256074 0.256074 0.256074 0.256074 0.256074 0.260378 0.260378 0.260378 0.260378 0.260378 0.260378 0.260378 0.260378 0.260378 0.256074 0.256074 0.256074 0.256074 0.256074 0.256074 0.256074 0.256074 0.256074 0.251976 0.251976 0.251976 0.251976 0.251976 0.251976 0.251976 0.251976 0.251976 0.251976 0.251976 0.251976 0.251976 0.251976
