# Output from CTFFind version 4.1.9, run on 2019-11-02 17:48:22
# Input file: stack6_bm3d_averaged_1_1.25_0_2000_half.mrc ; Number of micrographs: 1
# Pixel size: 3.000 Angstroms ; acceleration voltage: 300.0 keV ; spherical aberration: 0.00 mm ; amplitude contrast: 0.07
# Box size: 512 pixels ; min. res.: 30.0 Angstroms ; max. res.: 5.0 Angstroms ; min. def.: 5000.0 um; max. def. 50000.0 um; num. frames averaged: 1
# 6 lines per micrograph: #1 - spatial frequency (1/Angstroms); #2 - 1D rotational average of spectrum (assuming no astigmatism); #3 - 1D rotational average of spectrum; #4 - CTF fit; #5 - cross-correlation between spectrum and CTF fit; #6 - 2sigma of expected cross correlation of noise
0.000000 0.000651 0.001302 0.001953 0.002604 0.003255 0.003906 0.004557 0.005208 0.005859 0.006510 0.007161 0.007812 0.008464 0.009115 0.009766 0.010417 0.011068 0.011719 0.012370 0.013021 0.013672 0.014323 0.014974 0.015625 0.016276 0.016927 0.017578 0.018229 0.018880 0.019531 0.020182 0.020833 0.021484 0.022135 0.022786 0.023438 0.024089 0.024740 0.025391 0.026042 0.026693 0.027344 0.027995 0.028646 0.029297 0.029948 0.030599 0.031250 0.031901 0.032552 0.033203 0.033854 0.034505 0.035156 0.035807 0.036458 0.037109 0.037760 0.038411 0.039062 0.039714 0.040365 0.041016 0.041667 0.042318 0.042969 0.043620 0.044271 0.044922 0.045573 0.046224 0.046875 0.047526 0.048177 0.048828 0.049479 0.050130 0.050781 0.051432 0.052083 0.052734 0.053385 0.054036 0.054688 0.055339 0.055990 0.056641 0.057292 0.057943 0.058594 0.059245 0.059896 0.060547 0.061198 0.061849 0.062500 0.063151 0.063802 0.064453 0.065104 0.065755 0.066406 0.067057 0.067708 0.068359 0.069010 0.069661 0.070312 0.070964 0.071615 0.072266 0.072917 0.073568 0.074219 0.074870 0.075521 0.076172 0.076823 0.077474 0.078125 0.078776 0.079427 0.080078 0.080729 0.081380 0.082031 0.082682 0.083333 0.083984 0.084635 0.085286 0.085938 0.086589 0.087240 0.087891 0.088542 0.089193 0.089844 0.090495 0.091146 0.091797 0.092448 0.093099 0.093750 0.094401 0.095052 0.095703 0.096354 0.097005 0.097656 0.098307 0.098958 0.099609 0.100260 0.100911 0.101562 0.102214 0.102865 0.103516 0.104167 0.104818 0.105469 0.106120 0.106771 0.107422 0.108073 0.108724 0.109375 0.110026 0.110677 0.111328 0.111979 0.112630 0.113281 0.113932 0.114583 0.115234 0.115885 0.116536 0.117188 0.117839 0.118490 0.119141 0.119792 0.120443 0.121094 0.121745 0.122396 0.123047 0.123698 0.124349 0.125000 0.125651 0.126302 0.126953 0.127604 0.128255 0.128906 0.129557 0.130208 0.130859 0.131510 0.132161 0.132812 0.133464 0.134115 0.134766 0.135417 0.136068 0.136719 0.137370 0.138021 0.138672 0.139323 0.139974 0.140625 0.141276 0.141927 0.142578 0.143229 0.143880 0.144531 0.145182 0.145833 0.146484 0.147135 0.147786 0.148438 0.149089 0.149740 0.150391 0.151042 0.151693 0.152344 0.152995 0.153646 0.154297 0.154948 0.155599 0.156250 0.156901 0.157552 0.158203 0.158854 0.159505 0.160156 0.160807 0.161458 0.162109 0.162760 0.163411 0.164062 0.164714 0.165365 0.166016 0.166667 0.167318 0.167969 0.168620 0.169271 0.169922 0.170573 0.171224 0.171875 0.172526 0.173177 0.173828 0.174479 0.175130 0.175781 0.176432 0.177083 0.177734 0.178385 0.179036 0.179688 0.180339 0.180990 0.181641 0.182292 0.182943 0.183594 0.184245 0.184896 0.185547 0.186198 0.186849 0.187500 0.188151 0.188802 0.189453 0.190104 0.190755 0.191406 0.192057 0.192708 0.193359 0.194010 0.194661 0.195312 0.195964 0.196615 0.197266 0.197917 0.198568 0.199219 0.199870 0.200521 0.201172 0.201823 0.202474 0.203125 0.203776 0.204427 0.205078 0.205729 0.206380 0.207031 0.207682 0.208333 0.208984 0.209635 0.210286 0.210938 0.211589 0.212240 0.212891 0.213542 0.214193 0.214844 0.215495 0.216146 0.216797 0.217448 0.218099 0.218750 0.219401 0.220052 0.220703 0.221354 0.222005 0.222656 0.223307 0.223958 0.224609 0.225260 0.225911 0.226562 0.227214 0.227865 0.228516 0.229167 0.229818 0.230469 0.231120 0.231771 0.232422 0.233073 0.233724 0.234375 0.235026 0.235677
       0.31078        0.31078        0.31078        0.31078        0.31078        0.31078        0.31078        0.31078        0.31078        0.31078        0.31078        0.31078        0.31078        0.31078        0.31078        0.31078        0.31078        0.31078        0.31078        0.31078        0.31078        0.31078        0.31078        0.31078        0.31078        0.31078        0.31078        0.31078        0.31078        0.31078        0.31078        0.31078        0.31078        0.31078        0.31078        0.31078        0.31078        0.31078        0.31078        0.31078        0.31078        0.31078        0.31078        0.31078        0.31078        0.31078        0.31078        0.31078        0.31078        0.31078        0.31078        0.63541        0.81536        0.41470        0.31045        0.18902       -0.10643        0.11271       -0.00068        0.03395        0.11632        0.33721        0.42450        0.40478        0.22489       -0.01110        0.04703        0.07237       -0.16904       -0.17822       -0.08706       -0.10928       -0.29416       -0.18762       -0.30371       -0.25866       -0.28400       -0.40328       -0.47474       -0.47561       -0.41934       -0.34040       -0.43691       -0.36665       -0.41049       -0.35070       -0.27419       -0.19932       -0.19451       -0.13409       -0.09171        0.03837        0.08303        0.25067        0.28427        0.37337        0.40256        0.51535        0.58777        0.60686        0.73966        0.69739        0.73877        0.65046        0.66404        0.69617        0.63246        0.61660        0.60891        0.43642        0.39482        0.35592        0.32813        0.22465        0.13325        0.06082        0.05556       -0.00045       -0.07942       -0.03052       -0.03169       -0.07028        0.06435        0.16470        0.25550        0.31818        0.33726        0.42870        0.54398        0.58821        0.53854        0.67067        0.56266        0.53890        0.59909        0.63382        0.52919        0.46069        0.40257        0.37749        0.25072        0.21180        0.13354        0.11660        0.05569        0.06004        0.10593        0.16305        0.15012        0.17932        0.22003        0.23976        0.33150        0.45177        0.49071        0.49554        0.52307        0.57912        0.57154        0.52100        0.41908        0.38330        0.36456        0.26744        0.24430        0.21625        0.20719        0.20280        0.18109        0.15720        0.12309        0.18782        0.24540        0.34587        0.38110        0.40666        0.46276        0.53391        0.47389        0.48331        0.42578        0.40341        0.38105        0.36233        0.28780        0.25871        0.20305        0.23634        0.21835        0.19526        0.21540        0.22336        0.24377        0.30204        0.40055        0.39844        0.37448        0.39076        0.45289        0.47959        0.43078        0.35534        0.32379        0.27991        0.26186        0.24715        0.21346        0.28308        0.29436        0.29403        0.31316        0.30566        0.34252        0.37450        0.37058        0.36996        0.35508        0.31920        0.33263        0.31934        0.29694        0.28699        0.27053        0.21467        0.26964        0.27318        0.30217        0.32035        0.34113        0.37245        0.33549        0.31619        0.35824        0.36851        0.26525        0.29561        0.30723        0.24304        0.21061        0.26236        0.27452        0.27753        0.29900        0.30390        0.33206        0.33291        0.35730        0.32582        0.32272        0.30924        0.29236        0.26822        0.24350        0.25457        0.25914        0.27732        0.29968        0.29318        0.29448        0.31791        0.33191        0.26538        0.30649        0.26705        0.25911        0.27078        0.26136        0.25729        0.26225        0.31098        0.28221        0.31413        0.28896        0.27692        0.31098        0.30788        0.33158        0.31377        0.29578        0.25122        0.25712        0.27055        0.26253        0.30959        0.31655        0.33611        0.32277        0.30920        0.25807        0.28677        0.21519        0.19899        0.25300        0.26669        0.25642        0.28699        0.31461        0.29422        0.35239        0.30422        0.26032        0.22788        0.23860        0.29212        0.30622        0.30356        0.26973        0.27977        0.25346        0.31318        0.27720        0.25136        0.27236        0.25229        0.29018        0.25303        0.28626        0.32788        0.28760        0.20766        0.23261        0.27663        0.31949        0.26172        0.26150        0.23941        0.28497        0.29161        0.38254        0.29498        0.27657        0.26192        0.25738        0.21917        0.18172        0.24978        0.21256        0.20031        0.18593        0.19273        0.23952        0.22146        0.24120        0.19747        0.24679        0.22733        0.20752        0.18376        0.15540        0.19377        0.23624        0.15325        0.07449        0.20699        0.19107        0.13892        0.24035        0.15030        0.22982        0.19083       -0.10210       -0.51872       -0.97445
2.855753 2.827612 2.799615 2.771763 2.744056 2.716494 2.689077 2.661805 2.634678 2.607695 2.580858 2.554165 2.527618 2.501215 2.474957 2.448845 2.422877 2.397054 2.371375 2.345842 2.320454 2.295211 2.270112 2.245158 2.220350 2.195686 2.171167 2.146793 2.122564 2.098480 2.074541 2.050747 2.027097 2.003593 1.980233 1.957019 1.933949 1.911024 1.888244 1.865609 1.843119 1.820774 1.798574 1.776518 1.754608 1.732842 1.711222 1.689746 1.668415 1.647229 1.626189 1.924790 2.273017 1.698350 1.741335 1.383212 0.943617 1.201729 1.027720 1.077555 1.030420 1.495970 1.518885 1.546899 1.278909 0.947662 0.825312 1.013578 0.718204 0.492851 0.589954 0.679301 0.420887 0.491325 0.326871 0.365416 0.251823 0.162979 -0.035785 0.005336 0.033111 0.078744 0.042662 0.080029 -0.040831 0.027548 0.110609 0.228126 0.285987 0.212282 0.324360 0.553654 0.448571 0.728741 0.798385 0.883921 0.907585 1.117911 1.138181 1.174102 1.327833 1.230682 1.366247 1.198743 1.110446 1.295870 1.141889 1.055261 1.127059 0.890422 0.735994 0.675261 0.672914 0.467143 0.396442 0.262480 0.223443 0.092465 -0.010041 0.090254 0.025130 -0.064913 0.112832 0.257729 0.305880 0.463402 0.484448 0.554051 0.718183 0.815249 0.655412 0.953820 0.803966 0.652846 0.766769 0.788460 0.706849 0.638729 0.442404 0.498544 0.284956 0.189849 0.139781 0.006757 -0.018542 -0.105064 -0.016253 0.013766 0.095626 -0.050378 0.250991 0.096989 0.206886 0.372306 0.431021 0.525416 0.435448 0.559832 0.662968 0.503220 0.381445 0.330333 0.318563 0.142999 0.129673 0.015969 0.093264 0.024788 0.001924 -0.029924 -0.125411 -0.016120 0.015300 0.104830 0.291127 0.202603 0.350282 0.372089 0.423279 0.413566 0.396870 0.333549 0.225289 0.303605 0.161753 0.160875 0.007814 0.054746 0.066600 -0.019664 -0.006996 0.013285 0.061307 0.076492 0.218865 0.302660 0.242703 0.209865 0.371542 0.395877 0.353278 0.245228 0.173320 0.147860 0.082562 0.073731 0.024004 0.020224 0.134602 0.051060 0.186434 0.084242 0.133986 0.224619 0.214571 0.229890 0.196951 0.195913 0.120328 0.164406 0.121292 0.099515 0.116033 -0.006026 0.027222 0.084424 0.048917 0.153329 0.113575 0.210981 0.194879 0.135437 0.130884 0.218875 0.124829 0.069269 0.092835 0.063197 -0.003994 -0.021309 0.053188 0.075698 0.035637 0.115619 0.109168 0.121184 0.136705 0.171202 0.127851 0.086186 0.103692 0.083799 0.016858 0.011072 0.035794 0.007163 0.072743 0.105777 0.065586 0.060003 0.128520 0.109806 0.014308 0.118627 0.018208 0.024014 0.046067 0.016780 0.006365 0.061497 0.082839 0.018912 0.102322 0.068859 0.024722 0.117826 0.071181 0.090025 0.089555 0.029130 -0.012211 -0.007134 0.042053 0.005480 0.063629 0.098028 0.093255 0.060352 0.134978 -0.014102 0.048150 -0.094831 -0.028779 -0.021526 0.011516 0.018214 0.029046 0.090409 0.053064 0.119720 -0.001429 -0.026504 -0.079783 -0.080428 0.071581 0.028119 0.046856 -0.022876 -0.008047 -0.042001 0.045845 0.006417 -0.067026 -0.011172 -0.082040 0.024401 -0.040967 0.019657 0.062746 -0.021029 -0.089347 -0.050013 0.068108 0.046892 -0.017273 0.001328 -0.061272 0.093706 0.073155 0.179837 0.044816 0.021056 0.020767 0.071780 -0.054671 -0.037254 0.057380 -0.006136 -0.042447 -0.038037 -0.040979 0.089507 -0.059590 0.080357 -0.000615 0.102937 -0.005066 0.055465 -0.067553 -0.044910 -0.045264 0.100582 -0.022251 -0.231550 0.290181 0.271568 0.196337 0.405796 0.203640 0.292491 0.301566 -0.140867 -1.361734
0.072396 0.072834 0.074149 0.076339 0.079405 0.083345 0.088160 0.093847 0.100405 0.107833 0.116127 0.125284 0.135302 0.146175 0.157898 0.170465 0.183868 0.198098 0.213144 0.228996 0.245639 0.263057 0.281234 0.300148 0.319778 0.340098 0.361079 0.382691 0.404900 0.427666 0.450948 0.474701 0.498875 0.523416 0.548265 0.573359 0.598630 0.624006 0.649408 0.674754 0.699956 0.724921 0.749549 0.773739 0.797379 0.820359 0.842557 0.863853 0.884117 0.903220 0.921025 0.937395 0.952188 0.965263 0.976474 0.985676 0.992725 0.997476 0.999789 0.999524 0.996546 0.990727 0.981943 0.970080 0.955032 0.936706 0.915018 0.889900 0.861298 0.829178 0.793521 0.754330 0.711628 0.665463 0.615908 0.563059 0.507041 0.448008 0.386141 0.321653 0.254786 0.185813 0.115039 0.042797 0.030548 0.104602 0.178945 0.253128 0.326681 0.399110 0.469902 0.538531 0.604457 0.667134 0.726011 0.780541 0.830183 0.874411 0.912717 0.944617 0.969662 0.987441 0.997588 0.999788 0.993788 0.979400 0.956505 0.925064 0.885122 0.836808 0.780347 0.716057 0.644350 0.565741 0.480838 0.390350 0.295074 0.195902 0.093804 0.010171 0.114910 0.219239 0.321946 0.421784 0.517493 0.607813 0.691503 0.767358 0.834228 0.891040 0.936814 0.970685 0.991922 0.999942 0.994333 0.974865 0.941503 0.894421 0.834006 0.760864 0.675822 0.579925 0.474430 0.360791 0.240652 0.115820 0.011756 0.140008 0.266792 0.389911 0.507158 0.616361 0.715417 0.802340 0.875307 0.932695 0.973125 0.995504 0.999053 0.983343 0.948316 0.894303 0.822036 0.732648 0.627669 0.509003 0.378910 0.239967 0.095023 0.052851 0.200431 0.344400 0.481423 0.608235 0.721712 0.818955 0.897373 0.954760 0.989362 0.999941 0.985830 0.946968 0.883930 0.797932 0.690829 0.565082 0.423725 0.270291 0.108743 0.056626 0.221303 0.380672 0.530147 0.665306 0.782027 0.876623 0.945967 0.987609 0.999873 0.981941 0.933904 0.856795 0.752590 0.624170 0.475274 0.310388 0.134642 0.046363 0.226699 0.400328 0.561288 0.703909 0.823021 0.914152 0.973711 0.999145 0.989069 0.943351 0.863160 0.750965 0.610483 0.446581 0.265124 0.072780 0.123209 0.315295 0.495916 0.657799 0.794251 0.899460 0.968757 0.998843 0.987967 0.936052 0.844743 0.717395 0.558973 0.375891 0.175774 0.032847 0.240885 0.439084 0.618443 0.770625 0.888359 0.965817 0.998918 0.985577 0.925857 0.822029 0.678527 0.501790 0.300008 0.082760 0.139414 0.355522 0.554658 0.726567 0.862177 0.954108 0.997103 0.988358 0.927736 0.817854 0.664004 0.473952 0.257568 0.026357 0.207154 0.430068 0.629841 0.795002 0.915821 0.984930 0.997792 0.953050 0.852685 0.701979 0.509291 0.285636 0.044089 0.200964 0.434666 0.642588 0.811639 0.930916 0.992440 0.991733 0.928194 0.805225 0.630112 0.413658 0.169534 0.086524 0.337728 0.567321 0.759714 0.901566 0.982745 0.997096 0.942967 0.823423 0.646144 0.422991 0.169273 0.097286 0.357747 0.593291 0.786616 0.923213 0.992504 0.988728 0.911461 0.765786 0.562017 0.315045 0.043292 0.232620 0.491424 0.712851 0.879241 0.976989 0.997721 0.939072 0.805012 0.605655 0.356584 0.077669 0.208455 0.478207 0.709021 0.881244 0.979856 0.995855 0.927139 0.778842 0.563030 0.297813 0.005873 0.287420 0.556207 0.776426 0.928003 0.996732 0.975692 0.866019 0.676962 0.425211 0.133482 0.171457 0.461226 0.708468 0.889455 0.986428 0.989413 0.897333 0.718296 0.468977 0.173157 0.140479 0.441077 0.698667 0.887156
1.000000 1.000000 1.000000 1.000000 1.000000 1.000000 1.000000 1.000000 1.000000 1.000000 1.000000 1.000000 1.000000 1.000000 1.000000 1.000000 1.000000 1.000000 1.000000 1.000000 1.000000 1.000000 1.000000 1.000000 1.000000 1.000000 1.000000 1.000000 1.000000 1.000000 1.000000 1.000000 1.000000 1.000000 1.000000 1.000000 1.000000 1.000000 1.000000 1.000000 1.000000 1.000000 1.000000 1.000000 1.000000 1.000000 1.000000 1.000000 1.000000 1.000000 1.000000 1.000000 0.837711 0.837711 0.837711 0.837711 0.837711 0.837711 0.837711 0.817005 0.817005 0.817005 0.817005 0.817005 0.817005 0.817005 0.817005 0.817005 0.817005 0.817005 0.817005 0.817005 0.817005 0.817005 0.817005 0.817005 0.817005 0.817005 0.817005 0.817005 0.817005 0.817005 0.817005 0.817005 0.817005 0.817005 0.817005 0.817005 0.817005 0.817005 0.817005 0.817005 0.817005 0.817005 0.817005 0.817005 0.817005 0.817005 0.817005 0.817005 0.817005 0.817005 0.817005 0.955104 0.955688 0.952715 0.951599 0.949911 0.946606 0.942296 0.941871 0.943233 0.943430 0.944033 0.945362 0.946329 0.947926 0.948908 0.949711 0.950514 0.958656 0.962388 0.962123 0.961827 0.957525 0.964333 0.962503 0.962356 0.962984 0.963226 0.963918 0.963847 0.963706 0.963176 0.962432 0.963036 0.962912 0.962289 0.961399 0.959226 0.959274 0.958877 0.958987 0.959874 0.960525 0.961081 0.961523 0.961459 0.961601 0.960095 0.959454 0.954502 0.954522 0.947930 0.948524 0.949724 0.949493 0.948604 0.947305 0.947356 0.947235 0.947155 0.946951 0.947162 0.929218 0.928816 0.928837 0.929416 0.923077 0.912702 0.905904 0.899759 0.900571 0.904376 0.908885 0.909064 0.905560 0.904796 0.887850 0.885346 0.871213 0.867756 0.857514 0.867756 0.868993 0.870308 0.865264 0.864579 0.863264 0.860873 0.849693 0.853953 0.854609 0.850855 0.847483 0.845160 0.842840 0.844691 0.849424 0.846923 0.843908 0.841059 0.830594 0.820613 0.819281 0.821400 0.829893 0.841983 0.841291 0.840178 0.832974 0.829199 0.822458 0.816169 0.815474 0.817401 0.817239 0.821084 0.821213 0.828848 0.818849 0.814016 0.819007 0.830280 0.835776 0.837836 0.839825 0.837616 0.836424 0.814919 0.815637 0.817200 0.770261 0.770078 0.757762 0.757298 0.751269 0.748741 0.745836 0.743525 0.737158 0.719025 0.731856 0.736477 0.711689 0.719069 0.713255 0.703441 0.682894 0.685169 0.698655 0.707743 0.707895 0.712935 0.702440 0.702100 0.712178 0.711994 0.718675 0.712695 0.708703 0.701894 0.704163 0.696467 0.687475 0.683698 0.683182 0.683942 0.679848 0.660597 0.669884 0.660263 0.651135 0.639210 0.602440 0.580341 0.566211 0.557284 0.538418 0.509306 0.522523 0.529417 0.515423 0.505853 0.484893 0.444403 0.427878 0.426311 0.405082 0.395306 0.374707 0.328564 0.335730 0.330281 0.336036 0.318943 0.313575 0.300347 0.243790 0.240079 0.201615 0.219424 0.243523 0.236217 0.217020 0.207530 0.227267 0.229936 0.237708 0.235998 0.252194 0.209562 0.151775 0.172859 0.169497 0.180399 0.163933 0.134740 0.161453 0.162258 0.174111 0.178114 0.133107 0.103551 0.081488 0.068617 0.075920 0.098527 0.112181 0.102150 0.088574 -0.004299 0.028179 0.050673 0.050673 0.050673 0.050673 0.050673 0.050673 0.050673 0.050673 0.050673 0.050673 0.050673 -0.004391 -0.004391 -0.004391 -0.004391 -0.004391 -0.004391 -0.004391 -0.004391 -0.004391 -0.004391 -0.004391 -0.004391 -0.004391 -0.004391 -0.004391 -0.004391 -0.004391 -0.004391 -0.004391
0.000000 0.000000 0.000000 0.000000 0.000000 0.000000 0.000000 0.000000 0.000000 0.000000 0.000000 0.000000 0.000000 0.000000 0.000000 0.000000 0.000000 0.000000 0.000000 0.000000 0.000000 0.000000 0.000000 0.000000 0.000000 0.000000 0.000000 0.000000 0.000000 0.000000 0.000000 0.000000 0.000000 0.000000 0.000000 0.000000 0.000000 0.000000 0.000000 0.000000 0.000000 0.000000 0.000000 0.000000 0.000000 0.000000 0.000000 0.000000 0.000000 0.000000 0.000000 0.000000 0.173422 0.173422 0.173422 0.173422 0.173422 0.173422 0.173422 0.191565 0.191565 0.191565 0.191565 0.191565 0.191565 0.191565 0.191565 0.191565 0.191565 0.191565 0.191565 0.191565 0.191565 0.191565 0.191565 0.191565 0.191565 0.191565 0.191565 0.191565 0.191565 0.191565 0.191565 0.191565 0.191565 0.191565 0.191565 0.191565 0.191565 0.191565 0.191565 0.191565 0.191565 0.191565 0.191565 0.191565 0.191565 0.191565 0.191565 0.191565 0.191565 0.191565 0.191565 0.219529 0.219529 0.219529 0.219529 0.219529 0.219529 0.219529 0.219529 0.219529 0.219529 0.219529 0.219529 0.219529 0.219529 0.219529 0.219529 0.219529 0.219529 0.219529 0.219529 0.219529 0.219529 0.219529 0.219529 0.219529 0.219529 0.219529 0.219529 0.219529 0.219529 0.219529 0.237356 0.237356 0.237356 0.237356 0.237356 0.237356 0.237356 0.237356 0.237356 0.237356 0.237356 0.237356 0.237356 0.237356 0.237356 0.237356 0.237356 0.237356 0.237356 0.237356 0.237356 0.237356 0.237356 0.237356 0.244339 0.244339 0.244339 0.244339 0.244339 0.244339 0.244339 0.244339 0.244339 0.244339 0.244339 0.244339 0.244339 0.244339 0.244339 0.244339 0.244339 0.244339 0.244339 0.244339 0.244339 0.248069 0.248069 0.248069 0.248069 0.248069 0.248069 0.248069 0.248069 0.248069 0.248069 0.248069 0.248069 0.248069 0.248069 0.248069 0.248069 0.248069 0.248069 0.248069 0.248069 0.248069 0.248069 0.248069 0.248069 0.248069 0.248069 0.248069 0.248069 0.248069 0.248069 0.248069 0.248069 0.248069 0.248069 0.248069 0.248069 0.248069 0.256074 0.256074 0.256074 0.256074 0.256074 0.256074 0.256074 0.256074 0.256074 0.256074 0.256074 0.256074 0.256074 0.256074 0.256074 0.256074 0.256074 0.256074 0.256074 0.256074 0.256074 0.256074 0.256074 0.256074 0.256074 0.256074 0.256074 0.256074 0.256074 0.256074 0.256074 0.256074 0.256074 0.256074 0.256074 0.256074 0.256074 0.256074 0.256074 0.256074 0.256074 0.256074 0.256074 0.256074 0.256074 0.260378 0.260378 0.260378 0.260378 0.260378 0.260378 0.260378 0.260378 0.260378 0.260378 0.260378 0.260378 0.260378 0.256074 0.256074 0.256074 0.256074 0.256074 0.256074 0.256074 0.256074 0.256074 0.256074 0.256074 0.256074 0.256074 0.260378 0.260378 0.260378 0.260378 0.260378 0.260378 0.260378 0.260378 0.260378 0.260378 0.260378 0.260378 0.251976 0.251976 0.251976 0.251976 0.251976 0.251976 0.251976 0.251976 0.251976 0.251976 0.251976 0.251976 0.256074 0.256074 0.256074 0.256074 0.256074 0.256074 0.256074 0.256074 0.256074 0.256074 0.256074 0.251976 0.251976 0.251976 0.251976 0.251976 0.251976 0.251976 0.251976 0.251976 0.251976 0.251976 0.248069 0.248069 0.248069 0.248069 0.248069 0.248069 0.248069 0.248069 0.248069 0.248069 0.248069 0.256074 0.256074 0.256074 0.256074 0.256074 0.256074 0.256074 0.256074 0.256074 0.256074 0.256074 0.256074 0.256074 0.256074 0.256074 0.256074 0.256074 0.256074 0.256074
