# Output from CTFFind version 4.1.9, run on 2019-11-03 20:07:00
# Input file: stack6_bm3d_averaged_1_5.5_0_1250_half.mrc ; Number of micrographs: 1
# Pixel size: 3.000 Angstroms ; acceleration voltage: 300.0 keV ; spherical aberration: 0.00 mm ; amplitude contrast: 0.07
# Box size: 512 pixels ; min. res.: 30.0 Angstroms ; max. res.: 5.0 Angstroms ; min. def.: 5000.0 um; max. def. 50000.0 um; num. frames averaged: 1
# 6 lines per micrograph: #1 - spatial frequency (1/Angstroms); #2 - 1D rotational average of spectrum (assuming no astigmatism); #3 - 1D rotational average of spectrum; #4 - CTF fit; #5 - cross-correlation between spectrum and CTF fit; #6 - 2sigma of expected cross correlation of noise
0.000000 0.000651 0.001302 0.001953 0.002604 0.003255 0.003906 0.004557 0.005208 0.005859 0.006510 0.007161 0.007812 0.008464 0.009115 0.009766 0.010417 0.011068 0.011719 0.012370 0.013021 0.013672 0.014323 0.014974 0.015625 0.016276 0.016927 0.017578 0.018229 0.018880 0.019531 0.020182 0.020833 0.021484 0.022135 0.022786 0.023438 0.024089 0.024740 0.025391 0.026042 0.026693 0.027344 0.027995 0.028646 0.029297 0.029948 0.030599 0.031250 0.031901 0.032552 0.033203 0.033854 0.034505 0.035156 0.035807 0.036458 0.037109 0.037760 0.038411 0.039062 0.039714 0.040365 0.041016 0.041667 0.042318 0.042969 0.043620 0.044271 0.044922 0.045573 0.046224 0.046875 0.047526 0.048177 0.048828 0.049479 0.050130 0.050781 0.051432 0.052083 0.052734 0.053385 0.054036 0.054688 0.055339 0.055990 0.056641 0.057292 0.057943 0.058594 0.059245 0.059896 0.060547 0.061198 0.061849 0.062500 0.063151 0.063802 0.064453 0.065104 0.065755 0.066406 0.067057 0.067708 0.068359 0.069010 0.069661 0.070312 0.070964 0.071615 0.072266 0.072917 0.073568 0.074219 0.074870 0.075521 0.076172 0.076823 0.077474 0.078125 0.078776 0.079427 0.080078 0.080729 0.081380 0.082031 0.082682 0.083333 0.083984 0.084635 0.085286 0.085938 0.086589 0.087240 0.087891 0.088542 0.089193 0.089844 0.090495 0.091146 0.091797 0.092448 0.093099 0.093750 0.094401 0.095052 0.095703 0.096354 0.097005 0.097656 0.098307 0.098958 0.099609 0.100260 0.100911 0.101562 0.102214 0.102865 0.103516 0.104167 0.104818 0.105469 0.106120 0.106771 0.107422 0.108073 0.108724 0.109375 0.110026 0.110677 0.111328 0.111979 0.112630 0.113281 0.113932 0.114583 0.115234 0.115885 0.116536 0.117188 0.117839 0.118490 0.119141 0.119792 0.120443 0.121094 0.121745 0.122396 0.123047 0.123698 0.124349 0.125000 0.125651 0.126302 0.126953 0.127604 0.128255 0.128906 0.129557 0.130208 0.130859 0.131510 0.132161 0.132812 0.133464 0.134115 0.134766 0.135417 0.136068 0.136719 0.137370 0.138021 0.138672 0.139323 0.139974 0.140625 0.141276 0.141927 0.142578 0.143229 0.143880 0.144531 0.145182 0.145833 0.146484 0.147135 0.147786 0.148438 0.149089 0.149740 0.150391 0.151042 0.151693 0.152344 0.152995 0.153646 0.154297 0.154948 0.155599 0.156250 0.156901 0.157552 0.158203 0.158854 0.159505 0.160156 0.160807 0.161458 0.162109 0.162760 0.163411 0.164062 0.164714 0.165365 0.166016 0.166667 0.167318 0.167969 0.168620 0.169271 0.169922 0.170573 0.171224 0.171875 0.172526 0.173177 0.173828 0.174479 0.175130 0.175781 0.176432 0.177083 0.177734 0.178385 0.179036 0.179688 0.180339 0.180990 0.181641 0.182292 0.182943 0.183594 0.184245 0.184896 0.185547 0.186198 0.186849 0.187500 0.188151 0.188802 0.189453 0.190104 0.190755 0.191406 0.192057 0.192708 0.193359 0.194010 0.194661 0.195312 0.195964 0.196615 0.197266 0.197917 0.198568 0.199219 0.199870 0.200521 0.201172 0.201823 0.202474 0.203125 0.203776 0.204427 0.205078 0.205729 0.206380 0.207031 0.207682 0.208333 0.208984 0.209635 0.210286 0.210938 0.211589 0.212240 0.212891 0.213542 0.214193 0.214844 0.215495 0.216146 0.216797 0.217448 0.218099 0.218750 0.219401 0.220052 0.220703 0.221354 0.222005 0.222656 0.223307 0.223958 0.224609 0.225260 0.225911 0.226562 0.227214 0.227865 0.228516 0.229167 0.229818 0.230469 0.231120 0.231771 0.232422 0.233073 0.233724 0.234375 0.235026 0.235677
       0.30920        0.30920        0.30920        0.30920        0.30920        0.30920        0.30920        0.30920        0.30920        0.30920        0.30920        0.30920        0.30920        0.30920        0.30920        0.30920        0.30920        0.30920        0.30920        0.30920        0.30920        0.30920        0.30920        0.30920        0.30920        0.30920        0.30920        0.30920        0.30920        0.30920        0.30920        0.30920        0.30920        0.30920        0.30920        0.30920        0.30920        0.30920        0.30920        0.30920        0.30920        0.30920        0.30920        0.30920        0.30920        0.30920        0.30920        0.30920        0.30920        0.30920        0.30920        0.59715        0.72126        0.35417        0.18152        0.12524       -0.15010        0.10571        0.02615        0.03070        0.08737        0.30464        0.32411        0.25003        0.14584       -0.04156       -0.01449        0.03917       -0.13110       -0.13970       -0.08697       -0.10508       -0.22480       -0.14729       -0.26529       -0.27881       -0.27742       -0.34217       -0.41987       -0.35990       -0.26811       -0.23852       -0.33821       -0.25121       -0.30742       -0.24698       -0.17132       -0.11943       -0.08340       -0.01352        0.02078        0.12150        0.16477        0.21029        0.33327        0.39864        0.35239        0.46171        0.54700        0.55505        0.63679        0.57453        0.60809        0.59652        0.60959        0.61174        0.55235        0.57140        0.54819        0.38923        0.32759        0.36091        0.34130        0.18977        0.15980        0.13015        0.08121        0.08779        0.00063        0.05930        0.03805       -0.00636        0.09510        0.15934        0.25666        0.34951        0.33895        0.36801        0.45548        0.48982        0.41889        0.64635        0.53310        0.47846        0.56816        0.49762        0.53099        0.49238        0.36524        0.30355        0.27071        0.22242        0.20866        0.18996        0.16850        0.12349        0.20048        0.18617        0.22700        0.19862        0.26158        0.30669        0.32738        0.44121        0.42838        0.40914        0.42844        0.47111        0.44376        0.43322        0.38693        0.39857        0.33405        0.28237        0.23689        0.24575        0.23848        0.18708        0.15876        0.21468        0.21947        0.26385        0.33584        0.35305        0.40914        0.39033        0.43461        0.45721        0.44963        0.42198        0.38835        0.40817        0.36762        0.32651        0.32803        0.30711        0.25288        0.27087        0.26876        0.22707        0.29103        0.26984        0.28097        0.31474        0.36914        0.40553        0.39810        0.41956        0.37161        0.40662        0.38717        0.30071        0.28159        0.24004        0.25505        0.21843        0.19728        0.28289        0.33783        0.30987        0.28095        0.33799        0.26370        0.32482        0.37191        0.36625        0.35983        0.37969        0.32233        0.33683        0.31890        0.28110        0.27667        0.23971        0.28607        0.29865        0.30972        0.32842        0.37136        0.37208        0.36591        0.32857        0.34846        0.33272        0.31750        0.31474        0.28311        0.28266        0.25075        0.31152        0.32287        0.31379        0.28853        0.32348        0.32680        0.32816        0.33930        0.31117        0.27778        0.28527        0.28501        0.26380        0.24263        0.23171        0.24267        0.25802        0.24289        0.27882        0.27855        0.32023        0.31801        0.26776        0.30020        0.26361        0.20724        0.26173        0.24171        0.22951        0.27367        0.29941        0.29288        0.29479        0.29624        0.29326        0.30453        0.31992        0.27163        0.30613        0.30382        0.34886        0.27607        0.26377        0.25504        0.30581        0.31114        0.31854        0.33525        0.30871        0.22239        0.27915        0.25228        0.24111        0.24177        0.24507        0.28302        0.23521        0.29879        0.31061        0.34264        0.30801        0.28449        0.24571        0.25971        0.26450        0.23549        0.25922        0.27807        0.31145        0.32962        0.29442        0.28759        0.26365        0.29980        0.26649        0.23174        0.19478        0.27568        0.33427        0.31458        0.30356        0.28887        0.23625        0.22015        0.23660        0.22956        0.22863        0.26746        0.27477        0.25805        0.23324        0.21676        0.26754        0.24075        0.24561        0.25978        0.25766        0.17800        0.22397        0.24925        0.23531        0.28808        0.24391        0.23778        0.19511        0.24576        0.27708        0.19816        0.20640        0.12680        0.14597        0.31103        0.17424        0.18558        0.31062        0.18989        0.16670        0.11574        0.21883        0.12679        0.15667       -0.05671       -0.60660       -0.94702
2.515333 2.492278 2.469336 2.446506 2.423790 2.401186 2.378695 2.356316 2.334051 2.311898 2.289858 2.267931 2.246116 2.224415 2.202826 2.181350 2.159987 2.138736 2.117599 2.096574 2.075662 2.054862 2.034176 2.013602 1.993141 1.972793 1.952558 1.932435 1.912425 1.892528 1.872744 1.853073 1.833514 1.814068 1.794735 1.775515 1.756408 1.737413 1.718531 1.699762 1.681106 1.662562 1.644131 1.625813 1.607608 1.589516 1.571536 1.553670 1.535916 1.518274 1.500746 1.878252 2.223025 1.536903 1.397737 1.126806 0.551384 0.950089 0.837636 0.878065 0.731988 1.419566 1.259669 1.270156 1.014807 0.656795 0.503192 0.773090 0.574049 0.234936 0.303381 0.478150 0.212245 0.242648 0.089082 -0.014519 -0.045034 -0.041622 -0.339252 -0.215900 -0.047471 -0.084284 -0.142522 -0.051486 -0.181859 -0.157556 0.028033 0.126184 0.195435 0.243167 0.321025 0.580240 0.527995 0.604823 0.824461 1.004377 0.799119 1.202660 1.171670 1.237577 1.344723 1.247025 1.197878 1.353394 1.215487 1.355370 1.169605 1.109277 1.196100 0.948769 0.643385 0.708415 0.764323 0.452268 0.369924 0.315009 0.155051 0.151745 -0.005003 0.134115 0.099507 -0.043730 0.065820 0.191081 0.308528 0.582690 0.570129 0.536817 0.700971 0.870603 0.570373 1.024581 0.962029 0.768393 0.896231 0.741880 0.823892 0.849099 0.564633 0.381098 0.352409 0.291563 0.176267 0.129371 0.137394 -0.059471 0.135402 0.104226 0.190705 0.072965 0.244488 0.289169 0.250846 0.473126 0.575374 0.491123 0.381830 0.590067 0.579281 0.472662 0.481006 0.426008 0.297033 0.309534 0.095700 0.153952 0.026726 0.157107 -0.098126 0.017133 -0.004692 0.211294 0.079835 0.351390 0.309422 0.367601 0.413309 0.408378 0.615693 0.415447 0.412928 0.479722 0.270424 0.366154 0.203975 0.300710 0.121033 0.166720 0.129060 0.123026 0.066949 0.192498 0.091960 0.182056 0.281328 0.317407 0.379443 0.296806 0.389708 0.300956 0.329195 0.218264 0.125757 0.073857 0.018410 0.038924 -0.058430 -0.028602 0.126055 0.229245 0.095874 0.138824 0.127534 0.062341 0.228333 0.272892 0.238974 0.291542 0.183457 0.179919 0.156831 0.144549 0.095721 -0.021962 0.022735 0.187334 0.033022 0.178441 0.144753 0.288537 0.199685 0.258141 0.221079 0.240808 0.140578 0.170623 0.168241 0.095546 0.038722 0.076097 0.160563 0.180519 0.150414 0.097241 0.189944 0.164502 0.129849 0.161100 0.056976 0.012208 0.065480 0.021941 0.009120 -0.053379 -0.065387 0.003611 -0.024527 -0.052579 0.037719 0.048113 0.111037 0.077051 -0.022681 0.070322 -0.056196 -0.100282 0.028066 -0.074014 -0.088192 0.053813 0.058524 0.026054 0.085211 -0.065451 0.066538 0.136910 -0.017909 0.000696 0.105763 0.041325 0.140936 -0.036584 -0.011132 -0.050238 0.134209 0.039718 0.074681 0.122516 0.029951 -0.102387 -0.004905 -0.037477 -0.061037 -0.062886 -0.051249 0.007875 -0.106571 0.080161 0.117615 0.165694 0.056530 -0.008774 -0.017827 -0.002010 0.028258 -0.058026 0.039536 0.027314 0.142048 0.121396 0.082440 0.075035 0.042058 0.152358 -0.012445 0.007939 -0.114784 0.119800 0.195665 0.073147 0.179803 0.021292 -0.019472 -0.050399 -0.035666 -0.020077 -0.022040 0.054279 0.093308 0.030924 -0.000792 -0.037457 0.102435 0.068155 0.064221 0.096687 0.053021 -0.019457 0.031475 0.124765 0.057176 0.223658 0.107959 0.071445 0.088501 0.151698 0.216317 0.107553 0.101810 -0.054991 -0.103143 0.509672 0.334586 0.397193 0.578561 0.288401 0.307863 0.136362 0.520066 0.241039 0.343698 -0.095860 -1.764716
0.072396 0.072837 0.074160 0.076365 0.079451 0.083418 0.088264 0.093989 0.100591 0.108067 0.116416 0.125635 0.135718 0.146663 0.158463 0.171112 0.184602 0.198924 0.214068 0.230021 0.246770 0.264298 0.282589 0.301620 0.321370 0.341812 0.362917 0.384655 0.406990 0.429882 0.453290 0.477167 0.501462 0.526120 0.551082 0.576283 0.601654 0.627121 0.652606 0.678022 0.703282 0.728290 0.752946 0.777144 0.800775 0.823722 0.845866 0.867081 0.887238 0.906204 0.923841 0.940010 0.954569 0.967371 0.978273 0.987126 0.993785 0.998105 0.999942 0.999159 0.995619 0.989194 0.979760 0.967204 0.951421 0.932319 0.909818 0.883850 0.854367 0.821335 0.784742 0.744594 0.700923 0.653780 0.603245 0.549423 0.492447 0.432479 0.369710 0.304363 0.236689 0.166974 0.095533 0.022712 0.051114 0.125538 0.200129 0.274426 0.347947 0.420188 0.490627 0.558727 0.623941 0.685714 0.743493 0.796726 0.844869 0.887397 0.923804 0.953612 0.976380 0.991705 0.999235 0.998673 0.989783 0.972400 0.946431 0.911865 0.868778 0.817334 0.757793 0.690510 0.615941 0.534640 0.447260 0.354549 0.257351 0.156597 0.053298 0.051459 0.156525 0.260697 0.362737 0.461376 0.555341 0.643364 0.724205 0.796667 0.859620 0.912017 0.952915 0.981497 0.997085 0.999167 0.987403 0.961648 0.921959 0.868607 0.802083 0.723101 0.632598 0.531729 0.421859 0.304547 0.181535 0.054720 0.073870 0.202105 0.327786 0.448689 0.562594 0.667337 0.760848 0.841197 0.906641 0.955662 0.987008 0.999737 0.993240 0.967278 0.921997 0.857944 0.776076 0.677751 0.564721 0.439109 0.303375 0.160282 0.012833 0.135772 0.282216 0.423132 0.555179 0.675131 0.779954 0.866888 0.933532 0.977916 0.998566 0.994565 0.965599 0.911985 0.834692 0.735337 0.616170 0.480034 0.330310 0.170843 0.005855 0.160167 0.322585 0.476741 0.618091 0.742345 0.845608 0.924500 0.976296 0.999016 0.991523 0.953589 0.885930 0.790219 0.669068 0.525971 0.365225 0.191812 0.011259 0.170538 0.347492 0.513535 0.662826 0.789969 0.890215 0.959651 0.995375 0.995632 0.959916 0.889031 0.785102 0.651540 0.492953 0.315007 0.124240 0.072160 0.266628 0.451502 0.619328 0.763173 0.876921 0.955547 0.995366 0.994222 0.951630 0.868847 0.748870 0.596357 0.417482 0.219699 0.011453 0.198164 0.399806 0.584295 0.743039 0.868454 0.954337 0.996207 0.991561 0.940050 0.843561 0.706188 0.534093 0.335263 0.119166 0.103682 0.322218 0.525378 0.702661 0.844691 0.943728 0.994126 0.992680 0.938871 0.834958 0.685940 0.499349 0.284914 0.054072 0.180605 0.406103 0.609680 0.779589 0.905793 0.980575 0.999050 0.959528 0.863690 0.716580 0.526384 0.304022 0.062556 0.183553 0.419306 0.630076 0.802517 0.925456 0.990638 0.993330 0.932704 0.811998 0.638394 0.422650 0.178478 0.078293 0.330720 0.561874 0.755956 0.899429 0.981985 0.997335 0.943745 0.824258 0.646601 0.422738 0.168123 0.099336 0.360506 0.596394 0.789554 0.925382 0.993290 0.987572 0.907946 0.759702 0.553427 0.304298 0.031044 0.245454 0.503730 0.723403 0.886815 0.980499 0.996335 0.932331 0.792914 0.588711 0.335809 0.054557 0.232046 0.500204 0.727293 0.893818 0.985123 0.992751 0.915294 0.758678 0.535787 0.265491 0.028894 0.321577 0.586533 0.799845 0.941881 0.999177 0.965786 0.843977 0.644196 0.384253 0.087832 0.217638 0.503479 0.742454 0.911419 0.993600 0.980351 0.872155 0.678747 0.418361 0.116082 0.198513 0.494197 0.741204 0.914268 0.995263
1.000000 1.000000 1.000000 1.000000 1.000000 1.000000 1.000000 1.000000 1.000000 1.000000 1.000000 1.000000 1.000000 1.000000 1.000000 1.000000 1.000000 1.000000 1.000000 1.000000 1.000000 1.000000 1.000000 1.000000 1.000000 1.000000 1.000000 1.000000 1.000000 1.000000 1.000000 1.000000 1.000000 1.000000 1.000000 1.000000 1.000000 1.000000 1.000000 1.000000 1.000000 1.000000 1.000000 1.000000 1.000000 1.000000 1.000000 1.000000 1.000000 1.000000 1.000000 1.000000 0.782046 0.782046 0.782046 0.782046 0.782046 0.782046 0.782046 0.767840 0.767840 0.767840 0.767840 0.767840 0.767840 0.767840 0.767840 0.767840 0.767840 0.767840 0.767840 0.767840 0.767840 0.767840 0.767840 0.767840 0.767840 0.767840 0.767840 0.767840 0.767840 0.767840 0.767840 0.767840 0.767840 0.767840 0.767840 0.767840 0.767840 0.767840 0.767840 0.767840 0.767840 0.767840 0.767840 0.767840 0.767840 0.767840 0.767840 0.767840 0.767840 0.767840 0.767840 0.917230 0.917480 0.919928 0.914012 0.915766 0.913451 0.907575 0.910524 0.909640 0.909524 0.910355 0.911470 0.913275 0.918443 0.925012 0.926852 0.934819 0.938427 0.939645 0.939501 0.936899 0.943579 0.941270 0.939140 0.928195 0.931299 0.930531 0.931070 0.929567 0.930006 0.931903 0.932227 0.929778 0.928281 0.925878 0.924281 0.924553 0.924082 0.924001 0.924149 0.923426 0.924177 0.924847 0.920471 0.921866 0.920204 0.917604 0.913154 0.912961 0.913812 0.906905 0.904603 0.894626 0.889683 0.889803 0.891913 0.888970 0.888238 0.890106 0.890847 0.891537 0.888133 0.888244 0.885447 0.885626 0.881474 0.876881 0.872489 0.871971 0.874649 0.881323 0.884944 0.884795 0.882019 0.876321 0.867780 0.865947 0.850362 0.823915 0.825268 0.827898 0.829989 0.830969 0.829753 0.828567 0.825468 0.819997 0.814316 0.819760 0.820088 0.811960 0.799242 0.799185 0.794977 0.802546 0.806535 0.798418 0.801077 0.800201 0.805993 0.806568 0.805424 0.804583 0.798650 0.800448 0.808943 0.809476 0.800416 0.793234 0.789023 0.771569 0.774581 0.779471 0.791031 0.794062 0.787824 0.772720 0.782916 0.778817 0.790771 0.804083 0.805134 0.803887 0.787881 0.747535 0.736053 0.730784 0.733232 0.734684 0.724473 0.721954 0.721622 0.724219 0.686208 0.677959 0.668388 0.664375 0.671902 0.674246 0.678774 0.629233 0.649109 0.646945 0.630542 0.626384 0.589896 0.571846 0.515651 0.521022 0.521537 0.498850 0.485112 0.472741 0.488392 0.500422 0.500088 0.494100 0.471362 0.455691 0.450844 0.453860 0.462936 0.463339 0.469202 0.427492 0.405190 0.403496 0.424648 0.429120 0.427228 0.442108 0.449218 0.451346 0.438905 0.419793 0.414769 0.429213 0.439243 0.446777 0.447177 0.432628 0.412429 0.390717 0.394558 0.437502 0.431992 0.424725 0.407703 0.414477 0.408950 0.385487 0.360409 0.339768 0.379461 0.386655 0.390087 0.352135 0.316222 0.329883 0.327335 0.322820 0.310449 0.349726 0.373340 0.369829 0.373809 0.364456 0.411541 0.490780 0.480672 0.474039 0.487846 0.477600 0.462035 0.442094 0.425688 0.423398 0.412761 0.403251 0.387095 0.378695 0.365076 0.364038 0.382416 0.385282 0.416539 0.399259 0.349805 0.202718 0.255639 0.255639 0.255639 0.255639 0.255639 0.255639 0.255639 0.255639 0.255639 0.255639 0.255639 0.198964 0.198964 0.198964 0.198964 0.198964 0.198964 0.198964 0.198964 0.198964 0.198964 0.198964 0.198964 0.198964 0.198964 0.198964 0.198964 0.198964 0.198964 0.198964 0.198964
0.000000 0.000000 0.000000 0.000000 0.000000 0.000000 0.000000 0.000000 0.000000 0.000000 0.000000 0.000000 0.000000 0.000000 0.000000 0.000000 0.000000 0.000000 0.000000 0.000000 0.000000 0.000000 0.000000 0.000000 0.000000 0.000000 0.000000 0.000000 0.000000 0.000000 0.000000 0.000000 0.000000 0.000000 0.000000 0.000000 0.000000 0.000000 0.000000 0.000000 0.000000 0.000000 0.000000 0.000000 0.000000 0.000000 0.000000 0.000000 0.000000 0.000000 0.000000 0.000000 0.173422 0.173422 0.173422 0.173422 0.173422 0.173422 0.173422 0.191565 0.191565 0.191565 0.191565 0.191565 0.191565 0.191565 0.191565 0.191565 0.191565 0.191565 0.191565 0.191565 0.191565 0.191565 0.191565 0.191565 0.191565 0.191565 0.191565 0.191565 0.191565 0.191565 0.191565 0.191565 0.191565 0.191565 0.191565 0.191565 0.191565 0.191565 0.191565 0.191565 0.191565 0.191565 0.191565 0.191565 0.191565 0.191565 0.191565 0.191565 0.191565 0.191565 0.191565 0.222222 0.222222 0.222222 0.222222 0.222222 0.222222 0.222222 0.222222 0.222222 0.222222 0.222222 0.222222 0.222222 0.222222 0.222222 0.222222 0.222222 0.222222 0.222222 0.222222 0.222222 0.222222 0.222222 0.222222 0.222222 0.222222 0.222222 0.222222 0.222222 0.222222 0.234082 0.234082 0.234082 0.234082 0.234082 0.234082 0.234082 0.234082 0.234082 0.234082 0.234082 0.234082 0.234082 0.234082 0.234082 0.234082 0.234082 0.234082 0.234082 0.234082 0.234082 0.234082 0.234082 0.234082 0.234082 0.244339 0.244339 0.244339 0.244339 0.244339 0.244339 0.244339 0.244339 0.244339 0.244339 0.244339 0.244339 0.244339 0.244339 0.244339 0.244339 0.244339 0.244339 0.244339 0.244339 0.244339 0.248069 0.248069 0.248069 0.248069 0.248069 0.248069 0.248069 0.248069 0.248069 0.248069 0.248069 0.248069 0.248069 0.248069 0.248069 0.248069 0.248069 0.248069 0.248069 0.256074 0.256074 0.256074 0.256074 0.256074 0.256074 0.256074 0.256074 0.256074 0.256074 0.256074 0.256074 0.256074 0.256074 0.256074 0.256074 0.256074 0.256074 0.256074 0.256074 0.256074 0.256074 0.256074 0.256074 0.256074 0.256074 0.256074 0.256074 0.256074 0.256074 0.256074 0.256074 0.256074 0.256074 0.256074 0.256074 0.256074 0.256074 0.256074 0.256074 0.256074 0.256074 0.256074 0.256074 0.256074 0.256074 0.256074 0.256074 0.256074 0.256074 0.256074 0.256074 0.256074 0.256074 0.256074 0.256074 0.256074 0.256074 0.256074 0.256074 0.256074 0.256074 0.260378 0.260378 0.260378 0.260378 0.260378 0.260378 0.260378 0.260378 0.260378 0.260378 0.260378 0.260378 0.260378 0.256074 0.256074 0.256074 0.256074 0.256074 0.256074 0.256074 0.256074 0.256074 0.256074 0.256074 0.256074 0.256074 0.260378 0.260378 0.260378 0.260378 0.260378 0.260378 0.260378 0.260378 0.260378 0.260378 0.260378 0.260378 0.251976 0.251976 0.251976 0.251976 0.251976 0.251976 0.251976 0.251976 0.251976 0.251976 0.251976 0.251976 0.256074 0.256074 0.256074 0.256074 0.256074 0.256074 0.256074 0.256074 0.256074 0.256074 0.256074 0.251976 0.251976 0.251976 0.251976 0.251976 0.251976 0.251976 0.251976 0.251976 0.251976 0.251976 0.248069 0.248069 0.248069 0.248069 0.248069 0.248069 0.248069 0.248069 0.248069 0.248069 0.248069 0.256074 0.256074 0.256074 0.256074 0.256074 0.256074 0.256074 0.256074 0.256074 0.256074 0.256074 0.256074 0.256074 0.256074 0.256074 0.256074 0.256074 0.256074 0.256074 0.256074
