# Output from CTFFind version 4.1.9, run on 2019-11-03 20:06:59
# Input file: stack6_bm3d_averaged_1_7.0_0_1250_half.mrc ; Number of micrographs: 1
# Pixel size: 3.000 Angstroms ; acceleration voltage: 300.0 keV ; spherical aberration: 0.00 mm ; amplitude contrast: 0.07
# Box size: 512 pixels ; min. res.: 30.0 Angstroms ; max. res.: 5.0 Angstroms ; min. def.: 5000.0 um; max. def. 50000.0 um; num. frames averaged: 1
# 6 lines per micrograph: #1 - spatial frequency (1/Angstroms); #2 - 1D rotational average of spectrum (assuming no astigmatism); #3 - 1D rotational average of spectrum; #4 - CTF fit; #5 - cross-correlation between spectrum and CTF fit; #6 - 2sigma of expected cross correlation of noise
0.000000 0.000651 0.001302 0.001953 0.002604 0.003255 0.003906 0.004557 0.005208 0.005859 0.006510 0.007161 0.007812 0.008464 0.009115 0.009766 0.010417 0.011068 0.011719 0.012370 0.013021 0.013672 0.014323 0.014974 0.015625 0.016276 0.016927 0.017578 0.018229 0.018880 0.019531 0.020182 0.020833 0.021484 0.022135 0.022786 0.023438 0.024089 0.024740 0.025391 0.026042 0.026693 0.027344 0.027995 0.028646 0.029297 0.029948 0.030599 0.031250 0.031901 0.032552 0.033203 0.033854 0.034505 0.035156 0.035807 0.036458 0.037109 0.037760 0.038411 0.039062 0.039714 0.040365 0.041016 0.041667 0.042318 0.042969 0.043620 0.044271 0.044922 0.045573 0.046224 0.046875 0.047526 0.048177 0.048828 0.049479 0.050130 0.050781 0.051432 0.052083 0.052734 0.053385 0.054036 0.054688 0.055339 0.055990 0.056641 0.057292 0.057943 0.058594 0.059245 0.059896 0.060547 0.061198 0.061849 0.062500 0.063151 0.063802 0.064453 0.065104 0.065755 0.066406 0.067057 0.067708 0.068359 0.069010 0.069661 0.070312 0.070964 0.071615 0.072266 0.072917 0.073568 0.074219 0.074870 0.075521 0.076172 0.076823 0.077474 0.078125 0.078776 0.079427 0.080078 0.080729 0.081380 0.082031 0.082682 0.083333 0.083984 0.084635 0.085286 0.085938 0.086589 0.087240 0.087891 0.088542 0.089193 0.089844 0.090495 0.091146 0.091797 0.092448 0.093099 0.093750 0.094401 0.095052 0.095703 0.096354 0.097005 0.097656 0.098307 0.098958 0.099609 0.100260 0.100911 0.101562 0.102214 0.102865 0.103516 0.104167 0.104818 0.105469 0.106120 0.106771 0.107422 0.108073 0.108724 0.109375 0.110026 0.110677 0.111328 0.111979 0.112630 0.113281 0.113932 0.114583 0.115234 0.115885 0.116536 0.117188 0.117839 0.118490 0.119141 0.119792 0.120443 0.121094 0.121745 0.122396 0.123047 0.123698 0.124349 0.125000 0.125651 0.126302 0.126953 0.127604 0.128255 0.128906 0.129557 0.130208 0.130859 0.131510 0.132161 0.132812 0.133464 0.134115 0.134766 0.135417 0.136068 0.136719 0.137370 0.138021 0.138672 0.139323 0.139974 0.140625 0.141276 0.141927 0.142578 0.143229 0.143880 0.144531 0.145182 0.145833 0.146484 0.147135 0.147786 0.148438 0.149089 0.149740 0.150391 0.151042 0.151693 0.152344 0.152995 0.153646 0.154297 0.154948 0.155599 0.156250 0.156901 0.157552 0.158203 0.158854 0.159505 0.160156 0.160807 0.161458 0.162109 0.162760 0.163411 0.164062 0.164714 0.165365 0.166016 0.166667 0.167318 0.167969 0.168620 0.169271 0.169922 0.170573 0.171224 0.171875 0.172526 0.173177 0.173828 0.174479 0.175130 0.175781 0.176432 0.177083 0.177734 0.178385 0.179036 0.179688 0.180339 0.180990 0.181641 0.182292 0.182943 0.183594 0.184245 0.184896 0.185547 0.186198 0.186849 0.187500 0.188151 0.188802 0.189453 0.190104 0.190755 0.191406 0.192057 0.192708 0.193359 0.194010 0.194661 0.195312 0.195964 0.196615 0.197266 0.197917 0.198568 0.199219 0.199870 0.200521 0.201172 0.201823 0.202474 0.203125 0.203776 0.204427 0.205078 0.205729 0.206380 0.207031 0.207682 0.208333 0.208984 0.209635 0.210286 0.210938 0.211589 0.212240 0.212891 0.213542 0.214193 0.214844 0.215495 0.216146 0.216797 0.217448 0.218099 0.218750 0.219401 0.220052 0.220703 0.221354 0.222005 0.222656 0.223307 0.223958 0.224609 0.225260 0.225911 0.226562 0.227214 0.227865 0.228516 0.229167 0.229818 0.230469 0.231120 0.231771 0.232422 0.233073 0.233724 0.234375 0.235026 0.235677
       0.33177        0.33177        0.33177        0.33177        0.33177        0.33177        0.33177        0.33177        0.33177        0.33177        0.33177        0.33177        0.33177        0.33177        0.33177        0.33177        0.33177        0.33177        0.33177        0.33177        0.33177        0.33177        0.33177        0.33177        0.33177        0.33177        0.33177        0.33177        0.33177        0.33177        0.33177        0.33177        0.33177        0.33177        0.33177        0.33177        0.33177        0.33177        0.33177        0.33177        0.33177        0.33177        0.33177        0.33177        0.33177        0.33177        0.33177        0.33177        0.33177        0.33177        0.33177        0.59624        0.70943        0.36528        0.17317        0.13912       -0.12934        0.11283        0.04088        0.04341        0.09393        0.30952        0.30798        0.23673        0.14232       -0.03717       -0.00981        0.05172       -0.09091       -0.09736       -0.06897       -0.07595       -0.17528       -0.11179       -0.22109       -0.24005       -0.23793       -0.29666       -0.36778       -0.29690       -0.20565       -0.17068       -0.27756       -0.20213       -0.24289       -0.18420       -0.12369       -0.06543       -0.03706        0.01882        0.06675        0.15048        0.19179        0.23392        0.34667        0.41146        0.36130        0.48258        0.54579        0.55426        0.63052        0.55540        0.58505        0.60366        0.60487        0.59590        0.55961        0.59566        0.54242        0.39849        0.35379        0.37753        0.34449        0.21218        0.20224        0.17259        0.11624        0.11426        0.04202        0.10808        0.08658        0.05305        0.13449        0.18944        0.27677        0.35000        0.36567        0.39708        0.44884        0.48219        0.42252        0.63837        0.55001        0.48243        0.56998        0.50332        0.55751        0.51700        0.39005        0.32784        0.31337        0.26726        0.25720        0.21544        0.19717        0.17463        0.26556        0.24349        0.26436        0.23448        0.27548        0.33827        0.33858        0.45032        0.44569        0.43153        0.41826        0.48132        0.43597        0.41762        0.40735        0.39820        0.33722        0.28457        0.28084        0.27085        0.26946        0.21508        0.20284        0.25213        0.26806        0.29007        0.35202        0.38580        0.42768        0.41624        0.43008        0.48958        0.47386        0.43050        0.38399        0.41833        0.38133        0.33105        0.34036        0.33115        0.27274        0.28470        0.28124        0.25648        0.32144        0.29988        0.31878        0.33833        0.39911        0.42229        0.41298        0.44192        0.39069        0.43321        0.40540        0.33343        0.30082        0.27416        0.28562        0.25743        0.22689        0.31423        0.37641        0.33850        0.31046        0.36655        0.29208        0.35035        0.40281        0.38810        0.36637        0.38097        0.34795        0.36367        0.33661        0.30689        0.28901        0.26916        0.32115        0.33282        0.35175        0.36641        0.38949        0.37290        0.37024        0.32734        0.35695        0.36437        0.34514        0.32998        0.29233        0.28959        0.27082        0.34106        0.33748        0.34850        0.31771        0.34972        0.37103        0.33982        0.35758        0.34909        0.31509        0.31135        0.30994        0.28246        0.27251        0.26298        0.25474        0.27516        0.26806        0.30514        0.27777        0.31884        0.35972        0.26443        0.29672        0.28383        0.24761        0.30244        0.28486        0.28583        0.31203        0.32873        0.32939        0.31754        0.31588        0.31294        0.35904        0.35922        0.30375        0.32851        0.32042        0.37049        0.28146        0.27900        0.29473        0.30777        0.33257        0.36553        0.35877        0.29843        0.23423        0.29847        0.26750        0.25904        0.26079        0.27505        0.30828        0.23840        0.30664        0.33189        0.36710        0.31247        0.31502        0.28245        0.29559        0.29248        0.26517        0.28795        0.27181        0.28800        0.35243        0.34801        0.28593        0.32370        0.33165        0.26310        0.23214        0.18848        0.33156        0.33069        0.36072        0.34439        0.29487        0.23131        0.22053        0.27519        0.27033        0.27048        0.29160        0.29265        0.24671        0.28099        0.28064        0.31013        0.28175        0.27877        0.27423        0.24849        0.22913        0.28486        0.25070        0.21827        0.26485        0.25690        0.26289        0.22530        0.20474        0.27237        0.29871        0.27684        0.20012        0.14663        0.29383        0.22745        0.25622        0.27558        0.16941        0.16391        0.19963        0.24375        0.29292        0.09908       -0.10976       -0.60596       -0.96266
2.418409 2.397920 2.377522 2.357215 2.336998 2.316872 2.296837 2.276893 2.257039 2.237276 2.217604 2.198022 2.178532 2.159132 2.139822 2.120604 2.101476 2.082439 2.063492 2.044637 2.025872 2.007198 1.988614 1.970121 1.951719 1.933408 1.915188 1.897058 1.879018 1.861070 1.843212 1.825445 1.807769 1.790184 1.772689 1.755285 1.737972 1.720749 1.703617 1.686576 1.669626 1.652766 1.635997 1.619319 1.602731 1.586235 1.569829 1.553513 1.537289 1.521155 1.505112 1.863296 2.204591 1.529978 1.330500 1.104079 0.519168 0.933883 0.804867 0.845492 0.701244 1.422546 1.195666 1.212188 0.986982 0.598296 0.470642 0.748027 0.601569 0.281247 0.273256 0.487628 0.246360 0.264301 0.109757 -0.002312 -0.016322 -0.009574 -0.320012 -0.144939 0.012681 0.006861 -0.082034 -0.013993 -0.106100 -0.085990 0.068664 0.196132 0.259298 0.281112 0.385321 0.630879 0.563353 0.667696 0.829602 1.062094 0.805403 1.266940 1.194752 1.270842 1.371239 1.263167 1.164159 1.373091 1.238227 1.349380 1.205437 1.202960 1.222287 0.964989 0.713872 0.749622 0.796510 0.484208 0.446209 0.372342 0.239336 0.197805 0.035835 0.232073 0.174484 0.058494 0.139730 0.237738 0.362910 0.608118 0.611126 0.626911 0.697748 0.881250 0.594157 1.028929 1.053413 0.775904 0.927839 0.770725 0.885815 0.918601 0.650688 0.407628 0.437391 0.384700 0.222503 0.241837 0.163616 -0.014538 0.251359 0.229717 0.261528 0.155897 0.250869 0.334357 0.278297 0.501797 0.603598 0.554285 0.365873 0.652892 0.560559 0.422605 0.539550 0.436508 0.270940 0.315330 0.137923 0.214736 0.026026 0.216144 -0.055678 0.057983 0.065829 0.259224 0.051671 0.399821 0.350330 0.404859 0.382367 0.418454 0.589617 0.409752 0.348341 0.402850 0.198550 0.360074 0.110940 0.268730 0.065535 0.092531 0.082662 0.063354 0.046857 0.159442 0.059560 0.158557 0.242143 0.287338 0.330515 0.265161 0.346367 0.264201 0.293787 0.184914 0.104521 0.019658 -0.008447 0.017990 -0.065667 -0.070627 0.126916 0.219061 0.055401 0.108818 0.128372 0.008765 0.189346 0.258261 0.188857 0.184644 0.131290 0.168257 0.108041 0.098811 0.046999 -0.086571 -0.003694 0.135127 0.051192 0.153466 0.133251 0.221727 0.182748 0.157669 0.107975 0.188476 0.101525 0.143451 0.093922 0.012920 -0.011634 -0.010438 0.130424 0.124308 0.129364 0.060350 0.152532 0.159072 0.046965 0.144493 0.052685 -0.008150 0.027099 0.008163 -0.059031 -0.062309 -0.115923 -0.048212 -0.054040 -0.096054 0.013003 -0.043195 0.048589 0.101389 -0.110797 0.026039 -0.050796 -0.099232 0.048598 -0.027588 -0.063052 0.042964 0.098244 0.030542 0.059890 -0.044728 0.028514 0.198121 0.009129 -0.043425 0.082833 0.041756 0.114715 -0.106925 -0.047506 -0.008852 0.047948 0.058013 0.099381 0.133515 -0.045564 -0.108024 0.008364 -0.063159 -0.066712 -0.047495 -0.048214 0.049724 -0.176533 0.125377 0.124789 0.183814 0.038729 0.048330 0.028857 0.030356 0.093270 -0.031088 0.038202 0.009122 0.057330 0.139561 0.188699 0.043259 0.161467 0.172548 -0.039930 -0.008515 -0.162511 0.233788 0.138153 0.213779 0.169128 0.032231 -0.062861 -0.090835 0.010442 0.007876 -0.016683 0.043338 0.051159 -0.077617 0.013941 0.104788 0.072163 0.040259 0.010804 0.057441 -0.098312 -0.019323 0.052907 -0.026117 -0.111216 0.048588 -0.007619 -0.037544 -0.031117 -0.109227 0.084295 0.124133 0.002198 -0.089126 -0.338371 0.205335 0.511706 0.445779 0.575285 0.267781 0.324317 0.395905 0.513177 0.561571 0.065254 0.035335 -0.923579
0.072396 0.072838 0.074163 0.076371 0.079462 0.083435 0.088289 0.094022 0.100634 0.108122 0.116484 0.125716 0.135815 0.146776 0.158594 0.171262 0.184772 0.199116 0.214282 0.230259 0.247032 0.264586 0.282903 0.301961 0.321739 0.342209 0.363344 0.385111 0.407474 0.430396 0.453833 0.477738 0.502061 0.526747 0.551735 0.576960 0.602354 0.627843 0.653346 0.678779 0.704051 0.729069 0.753731 0.777931 0.801559 0.824499 0.846629 0.867825 0.887956 0.906890 0.924488 0.940610 0.955112 0.967851 0.978680 0.987451 0.994019 0.998237 0.999964 0.999060 0.995388 0.988821 0.979236 0.966518 0.950564 0.931282 0.908590 0.882425 0.852736 0.819493 0.782682 0.742313 0.698416 0.651047 0.600285 0.546238 0.489041 0.428857 0.365881 0.300336 0.232478 0.162594 0.091002 0.018050 0.055883 0.130388 0.205031 0.279348 0.352856 0.425047 0.495396 0.563366 0.628407 0.689964 0.747479 0.800402 0.848190 0.890315 0.926273 0.955588 0.977820 0.992569 0.999485 0.998277 0.988713 0.970632 0.943948 0.908657 0.864842 0.812675 0.752424 0.684454 0.609231 0.527317 0.439375 0.346165 0.248540 0.147440 0.043885 0.061028 0.166143 0.270251 0.372106 0.470437 0.563965 0.651424 0.731572 0.803218 0.865233 0.916578 0.956321 0.983654 0.997916 0.998607 0.985407 0.958192 0.917039 0.862242 0.794319 0.714007 0.622269 0.520285 0.409446 0.291336 0.167716 0.040506 0.088250 0.216406 0.341757 0.462066 0.575119 0.678750 0.770902 0.849658 0.913296 0.960323 0.989521 0.999980 0.991137 0.962795 0.915150 0.848800 0.764752 0.664419 0.549605 0.422480 0.285552 0.141622 0.006269 0.154897 0.300927 0.440980 0.571721 0.689935 0.792613 0.877034 0.940842 0.982127 0.999484 0.992074 0.959665 0.902665 0.822136 0.719788 0.597962 0.459586 0.308120 0.147478 0.018066 0.183983 0.345614 0.498297 0.637510 0.759000 0.858929 0.934004 0.981593 0.999836 0.987727 0.945176 0.873050 0.773168 0.648289 0.502048 0.338864 0.163824 0.017463 0.199040 0.374797 0.538674 0.684877 0.808085 0.903659 0.967832 0.997874 0.992225 0.950588 0.873990 0.764777 0.626575 0.464192 0.283467 0.091080 0.105682 0.299199 0.481803 0.646095 0.785242 0.893285 0.965408 0.998170 0.989698 0.939809 0.850073 0.723801 0.565943 0.382939 0.182460 0.026882 0.235900 0.435226 0.615737 0.768976 0.887568 0.965597 0.998919 0.985421 0.925170 0.820481 0.675864 0.497862 0.294798 0.076395 0.146661 0.363236 0.562304 0.733521 0.867767 0.957665 0.998014 0.986118 0.922006 0.808499 0.651135 0.457938 0.239048 0.006209 0.227834 0.450029 0.647754 0.809529 0.925727 0.989163 0.995583 0.943987 0.836772 0.679681 0.481538 0.253798 0.009912 0.235431 0.467203 0.670938 0.833664 0.944749 0.996643 0.985427 0.911160 0.777971 0.593885 0.370404 0.121820 0.135662 0.384967 0.609279 0.793179 0.923751 0.991510 0.991152 0.922021 0.788260 0.598637 0.366026 0.106581 0.161341 0.418481 0.646035 0.827068 0.947796 0.998685 0.975268 0.878586 0.715243 0.497021 0.240102 0.036101 0.310362 0.561273 0.768927 0.916516 0.991754 0.987952 0.904681 0.747947 0.529842 0.267673 0.017345 0.301778 0.561874 0.775578 0.924413 0.995148 0.981031 0.882517 0.707374 0.470168 0.191118 0.105567 0.393759 0.647693 0.844311 0.965377 0.999256 0.942097 0.798357 0.580554 0.308267 0.006448 0.296823 0.572914 0.795383 0.942524 0.999570 0.960250 0.827572 0.613716 0.339009 0.030078 0.282680 0.568056 0.797160 0.946401 0.999962
1.000000 1.000000 1.000000 1.000000 1.000000 1.000000 1.000000 1.000000 1.000000 1.000000 1.000000 1.000000 1.000000 1.000000 1.000000 1.000000 1.000000 1.000000 1.000000 1.000000 1.000000 1.000000 1.000000 1.000000 1.000000 1.000000 1.000000 1.000000 1.000000 1.000000 1.000000 1.000000 1.000000 1.000000 1.000000 1.000000 1.000000 1.000000 1.000000 1.000000 1.000000 1.000000 1.000000 1.000000 1.000000 1.000000 1.000000 1.000000 1.000000 1.000000 1.000000 1.000000 0.770756 0.770756 0.770756 0.770756 0.770756 0.770756 0.770756 0.759550 0.759550 0.759550 0.759550 0.759550 0.759550 0.759550 0.759550 0.759550 0.759550 0.759550 0.759550 0.759550 0.759550 0.759550 0.759550 0.759550 0.759550 0.759550 0.759550 0.759550 0.759550 0.759550 0.759550 0.759550 0.759550 0.759550 0.759550 0.759550 0.759550 0.759550 0.759550 0.759550 0.759550 0.759550 0.759550 0.759550 0.759550 0.759550 0.759550 0.759550 0.759550 0.759550 0.759550 0.899993 0.901465 0.904529 0.899950 0.901884 0.899723 0.893291 0.896218 0.896839 0.896650 0.897442 0.899096 0.901102 0.908437 0.917346 0.919234 0.926212 0.929645 0.929627 0.931142 0.929756 0.937232 0.934734 0.932963 0.921057 0.924469 0.926370 0.925379 0.924219 0.921044 0.927466 0.926061 0.923983 0.918700 0.914781 0.912870 0.914510 0.912273 0.912470 0.912655 0.913277 0.911483 0.912092 0.908245 0.909189 0.908089 0.904537 0.901526 0.901243 0.902631 0.900940 0.897564 0.891289 0.897250 0.897407 0.896771 0.895680 0.895890 0.896684 0.897458 0.898125 0.895687 0.895738 0.893143 0.894918 0.891258 0.886495 0.880344 0.880585 0.883069 0.890226 0.892275 0.890963 0.888153 0.879896 0.869262 0.867184 0.855330 0.820771 0.822636 0.826523 0.828688 0.829300 0.828390 0.824599 0.820101 0.811578 0.802488 0.807295 0.807872 0.800287 0.796035 0.796957 0.797597 0.804982 0.808514 0.800315 0.797273 0.800301 0.796297 0.797512 0.801431 0.794908 0.791473 0.798121 0.806306 0.806464 0.791020 0.786693 0.784348 0.772203 0.779301 0.785876 0.786133 0.787531 0.784521 0.772837 0.771364 0.764508 0.775226 0.782551 0.781815 0.776910 0.759761 0.716621 0.703123 0.670830 0.669866 0.671454 0.637648 0.637779 0.639349 0.643887 0.588121 0.565949 0.552013 0.552810 0.561579 0.566551 0.560637 0.533946 0.551992 0.548636 0.534238 0.530213 0.510512 0.496386 0.477414 0.480057 0.479368 0.471404 0.440969 0.441326 0.460989 0.470094 0.465539 0.461972 0.434038 0.413406 0.413541 0.406334 0.406271 0.412037 0.420699 0.364426 0.341270 0.327101 0.355915 0.354994 0.353365 0.369997 0.362294 0.355805 0.331048 0.310578 0.282823 0.295262 0.315798 0.319513 0.323265 0.291167 0.281221 0.264846 0.269151 0.314206 0.302670 0.324319 0.328985 0.333973 0.360423 0.333366 0.309694 0.287038 0.330130 0.335226 0.308606 0.299912 0.313863 0.327908 0.327430 0.323383 0.317616 0.364829 0.371190 0.350734 0.351221 0.318177 0.339821 0.371863 0.368740 0.374042 0.384490 0.389901 0.355896 0.284700 0.257103 0.260288 0.236553 0.236107 0.221835 0.206711 0.198452 0.210583 0.232646 0.238779 0.271356 0.240256 0.196290 0.104798 0.172148 0.089425 0.102041 0.102041 0.102041 0.102041 0.102041 0.102041 0.102041 0.102041 0.137257 0.137257 0.137257 0.137257 0.137257 0.137257 0.137257 0.137257 0.137257 0.137257 0.137257 0.137257 0.137257 0.137257 0.137257 0.137257 0.137257 0.137257 0.137257 0.137257 0.137257
0.000000 0.000000 0.000000 0.000000 0.000000 0.000000 0.000000 0.000000 0.000000 0.000000 0.000000 0.000000 0.000000 0.000000 0.000000 0.000000 0.000000 0.000000 0.000000 0.000000 0.000000 0.000000 0.000000 0.000000 0.000000 0.000000 0.000000 0.000000 0.000000 0.000000 0.000000 0.000000 0.000000 0.000000 0.000000 0.000000 0.000000 0.000000 0.000000 0.000000 0.000000 0.000000 0.000000 0.000000 0.000000 0.000000 0.000000 0.000000 0.000000 0.000000 0.000000 0.000000 0.173422 0.173422 0.173422 0.173422 0.173422 0.173422 0.173422 0.191565 0.191565 0.191565 0.191565 0.191565 0.191565 0.191565 0.191565 0.191565 0.191565 0.191565 0.191565 0.191565 0.191565 0.191565 0.191565 0.191565 0.191565 0.191565 0.191565 0.191565 0.191565 0.191565 0.191565 0.191565 0.191565 0.191565 0.191565 0.191565 0.191565 0.191565 0.191565 0.191565 0.191565 0.191565 0.191565 0.191565 0.191565 0.191565 0.191565 0.191565 0.191565 0.191565 0.191565 0.222222 0.222222 0.222222 0.222222 0.222222 0.222222 0.222222 0.222222 0.222222 0.222222 0.222222 0.222222 0.222222 0.222222 0.222222 0.222222 0.222222 0.222222 0.222222 0.222222 0.222222 0.222222 0.222222 0.222222 0.222222 0.222222 0.222222 0.222222 0.222222 0.222222 0.234082 0.234082 0.234082 0.234082 0.234082 0.234082 0.234082 0.234082 0.234082 0.234082 0.234082 0.234082 0.234082 0.234082 0.234082 0.234082 0.234082 0.234082 0.234082 0.234082 0.234082 0.234082 0.234082 0.234082 0.234082 0.244339 0.244339 0.244339 0.244339 0.244339 0.244339 0.244339 0.244339 0.244339 0.244339 0.244339 0.244339 0.244339 0.244339 0.244339 0.244339 0.244339 0.244339 0.244339 0.244339 0.244339 0.248069 0.248069 0.248069 0.248069 0.248069 0.248069 0.248069 0.248069 0.248069 0.248069 0.248069 0.248069 0.248069 0.248069 0.248069 0.248069 0.248069 0.248069 0.248069 0.256074 0.256074 0.256074 0.256074 0.256074 0.256074 0.256074 0.256074 0.256074 0.256074 0.256074 0.256074 0.256074 0.256074 0.256074 0.256074 0.256074 0.256074 0.256074 0.256074 0.256074 0.256074 0.256074 0.256074 0.256074 0.256074 0.256074 0.256074 0.256074 0.256074 0.256074 0.256074 0.256074 0.256074 0.256074 0.256074 0.256074 0.256074 0.256074 0.256074 0.256074 0.256074 0.256074 0.256074 0.256074 0.256074 0.256074 0.256074 0.256074 0.256074 0.256074 0.256074 0.256074 0.256074 0.256074 0.256074 0.256074 0.256074 0.256074 0.256074 0.256074 0.256074 0.260378 0.260378 0.260378 0.260378 0.260378 0.260378 0.260378 0.260378 0.260378 0.260378 0.260378 0.260378 0.260378 0.256074 0.256074 0.256074 0.256074 0.256074 0.256074 0.256074 0.256074 0.256074 0.256074 0.256074 0.256074 0.256074 0.260378 0.260378 0.260378 0.260378 0.260378 0.260378 0.260378 0.260378 0.260378 0.260378 0.260378 0.260378 0.251976 0.251976 0.251976 0.251976 0.251976 0.251976 0.251976 0.251976 0.251976 0.251976 0.251976 0.251976 0.256074 0.256074 0.256074 0.256074 0.256074 0.256074 0.256074 0.256074 0.256074 0.256074 0.256074 0.251976 0.251976 0.251976 0.251976 0.251976 0.251976 0.251976 0.251976 0.251976 0.251976 0.251976 0.260378 0.260378 0.260378 0.260378 0.260378 0.260378 0.260378 0.260378 0.260378 0.260378 0.244339 0.244339 0.244339 0.244339 0.244339 0.244339 0.244339 0.244339 0.244339 0.244339 0.244339 0.244339 0.244339 0.244339 0.244339 0.244339 0.244339 0.244339 0.244339 0.244339 0.244339
