# Output from CTFFind version 4.1.9, run on 2019-11-03 20:06:25
# Input file: stack16_bm3d_averaged_1_6.0_0_1000_half.mrc ; Number of micrographs: 1
# Pixel size: 3.000 Angstroms ; acceleration voltage: 300.0 keV ; spherical aberration: 0.00 mm ; amplitude contrast: 0.07
# Box size: 512 pixels ; min. res.: 30.0 Angstroms ; max. res.: 5.0 Angstroms ; min. def.: 5000.0 um; max. def. 50000.0 um; num. frames averaged: 1
# 6 lines per micrograph: #1 - spatial frequency (1/Angstroms); #2 - 1D rotational average of spectrum (assuming no astigmatism); #3 - 1D rotational average of spectrum; #4 - CTF fit; #5 - cross-correlation between spectrum and CTF fit; #6 - 2sigma of expected cross correlation of noise
0.000000 0.000651 0.001302 0.001953 0.002604 0.003255 0.003906 0.004557 0.005208 0.005859 0.006510 0.007161 0.007812 0.008464 0.009115 0.009766 0.010417 0.011068 0.011719 0.012370 0.013021 0.013672 0.014323 0.014974 0.015625 0.016276 0.016927 0.017578 0.018229 0.018880 0.019531 0.020182 0.020833 0.021484 0.022135 0.022786 0.023438 0.024089 0.024740 0.025391 0.026042 0.026693 0.027344 0.027995 0.028646 0.029297 0.029948 0.030599 0.031250 0.031901 0.032552 0.033203 0.033854 0.034505 0.035156 0.035807 0.036458 0.037109 0.037760 0.038411 0.039062 0.039714 0.040365 0.041016 0.041667 0.042318 0.042969 0.043620 0.044271 0.044922 0.045573 0.046224 0.046875 0.047526 0.048177 0.048828 0.049479 0.050130 0.050781 0.051432 0.052083 0.052734 0.053385 0.054036 0.054688 0.055339 0.055990 0.056641 0.057292 0.057943 0.058594 0.059245 0.059896 0.060547 0.061198 0.061849 0.062500 0.063151 0.063802 0.064453 0.065104 0.065755 0.066406 0.067057 0.067708 0.068359 0.069010 0.069661 0.070312 0.070964 0.071615 0.072266 0.072917 0.073568 0.074219 0.074870 0.075521 0.076172 0.076823 0.077474 0.078125 0.078776 0.079427 0.080078 0.080729 0.081380 0.082031 0.082682 0.083333 0.083984 0.084635 0.085286 0.085938 0.086589 0.087240 0.087891 0.088542 0.089193 0.089844 0.090495 0.091146 0.091797 0.092448 0.093099 0.093750 0.094401 0.095052 0.095703 0.096354 0.097005 0.097656 0.098307 0.098958 0.099609 0.100260 0.100911 0.101562 0.102214 0.102865 0.103516 0.104167 0.104818 0.105469 0.106120 0.106771 0.107422 0.108073 0.108724 0.109375 0.110026 0.110677 0.111328 0.111979 0.112630 0.113281 0.113932 0.114583 0.115234 0.115885 0.116536 0.117188 0.117839 0.118490 0.119141 0.119792 0.120443 0.121094 0.121745 0.122396 0.123047 0.123698 0.124349 0.125000 0.125651 0.126302 0.126953 0.127604 0.128255 0.128906 0.129557 0.130208 0.130859 0.131510 0.132161 0.132812 0.133464 0.134115 0.134766 0.135417 0.136068 0.136719 0.137370 0.138021 0.138672 0.139323 0.139974 0.140625 0.141276 0.141927 0.142578 0.143229 0.143880 0.144531 0.145182 0.145833 0.146484 0.147135 0.147786 0.148438 0.149089 0.149740 0.150391 0.151042 0.151693 0.152344 0.152995 0.153646 0.154297 0.154948 0.155599 0.156250 0.156901 0.157552 0.158203 0.158854 0.159505 0.160156 0.160807 0.161458 0.162109 0.162760 0.163411 0.164062 0.164714 0.165365 0.166016 0.166667 0.167318 0.167969 0.168620 0.169271 0.169922 0.170573 0.171224 0.171875 0.172526 0.173177 0.173828 0.174479 0.175130 0.175781 0.176432 0.177083 0.177734 0.178385 0.179036 0.179688 0.180339 0.180990 0.181641 0.182292 0.182943 0.183594 0.184245 0.184896 0.185547 0.186198 0.186849 0.187500 0.188151 0.188802 0.189453 0.190104 0.190755 0.191406 0.192057 0.192708 0.193359 0.194010 0.194661 0.195312 0.195964 0.196615 0.197266 0.197917 0.198568 0.199219 0.199870 0.200521 0.201172 0.201823 0.202474 0.203125 0.203776 0.204427 0.205078 0.205729 0.206380 0.207031 0.207682 0.208333 0.208984 0.209635 0.210286 0.210938 0.211589 0.212240 0.212891 0.213542 0.214193 0.214844 0.215495 0.216146 0.216797 0.217448 0.218099 0.218750 0.219401 0.220052 0.220703 0.221354 0.222005 0.222656 0.223307 0.223958 0.224609 0.225260 0.225911 0.226562 0.227214 0.227865 0.228516 0.229167 0.229818 0.230469 0.231120 0.231771 0.232422 0.233073 0.233724 0.234375 0.235026 0.235677
       0.34607        0.34607        0.34607        0.34607        0.34607        0.34607        0.34607        0.34607        0.34607        0.34607        0.34607        0.34607        0.34607        0.34607        0.34607        0.34607        0.34607        0.34607        0.34607        0.34607        0.34607        0.34607        0.34607        0.34607        0.34607        0.34607        0.34607        0.34607        0.34607        0.34607        0.34607        0.34607        0.34607        0.34607        0.34607        0.34607        0.34607        0.34607        0.34607        0.34607        0.34607        0.34607        0.34607        0.34607        0.34607        0.34607        0.34607        0.34607        0.34607        0.34607        0.34607        0.42606        0.55621        0.34210       -0.21413       -0.45380       -0.54749       -0.64793       -0.71778       -0.72562       -0.82063       -0.89315       -0.68606       -0.84178       -0.82359       -0.96792       -1.00579       -0.88725       -0.84621       -0.80202       -0.71665       -0.64728       -0.55851       -0.46452       -0.39917       -0.17062       -0.06812        0.03287        0.25520        0.25583        0.31282        0.37025        0.40050        0.51770        0.53674        0.57228        0.53214        0.47232        0.50530        0.52419        0.44661        0.32979        0.21205        0.17896        0.10990        0.00646       -0.00982       -0.01861        0.05396        0.02030        0.07227        0.04601        0.16166        0.19409        0.40655        0.45848        0.54852        0.65734        0.68730        0.71323        0.63568        0.61083        0.53808        0.43889        0.38660        0.27417        0.21610        0.21115        0.09978        0.10820        0.10453        0.08433        0.09456        0.30439        0.41412        0.52081        0.53250        0.56995        0.60749        0.58709        0.57351        0.58231        0.56561        0.46529        0.30367        0.26339        0.25228        0.14720        0.08917        0.16591        0.20338        0.28330        0.35207        0.42456        0.47149        0.52956        0.60052        0.54462        0.50591        0.50017        0.35464        0.27240        0.25764        0.17391        0.19308        0.23214        0.27326        0.28067        0.32420        0.42618        0.46025        0.49840        0.45146        0.44191        0.48456        0.39151        0.32832        0.28556        0.25730        0.23056        0.22804        0.23747        0.33536        0.44197        0.42961        0.48846        0.55279        0.44589        0.41102        0.35508        0.31261        0.26838        0.27959        0.26912        0.28763        0.34574        0.35444        0.43428        0.47164        0.43749        0.45865        0.37349        0.37727        0.35367        0.26869        0.25022        0.24748        0.32731        0.37771        0.36485        0.38871        0.43208        0.43963        0.37488        0.33791        0.31988        0.34993        0.31242        0.27989        0.28258        0.35323        0.37052        0.38729        0.38760        0.38795        0.41686        0.40242        0.32087        0.28791        0.31383        0.34187        0.37511        0.35890        0.40294        0.34222        0.36950        0.39129        0.33583        0.35328        0.31923        0.29957        0.33660        0.34110        0.32729        0.35285        0.37076        0.32618        0.34572        0.31891        0.31509        0.29361        0.31856        0.31603        0.32652        0.36492        0.37047        0.35268        0.30730        0.29791        0.28524        0.32839        0.31042        0.31358        0.36884        0.35726        0.34038        0.31352        0.30386        0.30930        0.27459        0.31282        0.32679        0.33575        0.36937        0.34840        0.30852        0.33427        0.34413        0.32815        0.35470        0.34495        0.31129        0.33204        0.29113        0.32117        0.29451        0.31256        0.28711        0.31974        0.35204        0.32942        0.35349        0.31045        0.32736        0.34975        0.33912        0.31482        0.31807        0.35752        0.33927        0.33528        0.32480        0.31085        0.31218        0.31343        0.32237        0.32082        0.35278        0.33840        0.33739        0.29223        0.28337        0.26678        0.26918        0.36122        0.31012        0.34440        0.29560        0.26130        0.27749        0.36239        0.30696        0.28213        0.30945        0.31577        0.29546        0.26448        0.30510        0.26961        0.28865        0.30487        0.33324        0.33309        0.31939        0.30636        0.26536        0.27225        0.26723        0.27334        0.29369        0.35941        0.29227        0.19835        0.30222        0.28602        0.32250        0.25119        0.29822        0.30001        0.33380        0.29001        0.27628        0.26582        0.24292        0.30108        0.34189        0.34116        0.24698        0.29402        0.24118        0.23235        0.21232        0.33150        0.25087        0.17411        0.12136        0.20831        0.33104        0.22904        0.19109        0.11062       -0.48186       -0.58506
3.172307 3.132140 3.092235 3.052589 3.013204 2.974079 2.935214 2.896610 2.858266 2.820183 2.782360 2.744797 2.707495 2.670452 2.633670 2.597149 2.560888 2.524887 2.489147 2.453667 2.418447 2.383488 2.348789 2.314350 2.280172 2.246254 2.212596 2.179199 2.146062 2.113185 2.080569 2.048213 2.016117 1.984282 1.952707 1.921393 1.890339 1.859545 1.829011 1.798738 1.768725 1.738973 1.709480 1.680249 1.651277 1.622566 1.594115 1.565925 1.537995 1.510325 1.482916 1.517975 1.596930 1.537079 0.842316 0.593207 0.454134 0.385714 0.290098 0.215432 0.181959 -0.050935 0.203820 0.069479 -0.031581 -0.111896 -0.238883 -0.145602 -0.057375 -0.093745 -0.075610 0.034688 0.032212 0.226091 0.106472 0.354328 0.461075 0.489387 0.765230 0.683356 0.691802 0.823638 0.795158 0.837519 0.916375 0.856723 0.887615 0.724656 0.789289 0.843445 0.684089 0.603682 0.435327 0.425367 0.336561 0.188671 0.184647 0.115034 0.208567 0.119937 0.208914 0.105140 0.216971 0.229101 0.442023 0.403780 0.574705 0.613677 0.642169 0.721003 0.609067 0.582135 0.459728 0.411270 0.291133 0.263040 0.095188 0.155115 -0.026779 0.037794 -0.032287 -0.041652 -0.052837 0.029064 0.269650 0.293336 0.362360 0.304248 0.387203 0.424332 0.398324 0.402223 0.357918 0.332181 0.124778 0.077948 0.064314 -0.017844 -0.152853 -0.048290 -0.066026 0.038282 0.079967 0.153728 0.219331 0.227726 0.322732 0.401024 0.291297 0.363091 0.236457 0.140496 0.066647 0.037907 0.002016 0.048577 0.070916 0.098275 0.117458 0.174357 0.243582 0.300798 0.278251 0.212761 0.254593 0.226673 0.110536 0.064815 0.051280 0.027431 0.007044 -0.016105 0.031755 0.169104 0.189487 0.191463 0.303345 0.187005 0.196265 0.075582 0.068082 0.006566 -0.007132 -0.000344 -0.008223 0.042921 0.063871 0.096028 0.156809 0.145930 0.211524 0.133132 0.077466 0.099465 0.045361 -0.053963 -0.022532 0.023886 0.062566 0.074357 0.069501 0.150356 0.120732 0.151883 0.036784 0.046963 0.050001 0.048551 0.026149 -0.021159 0.039710 0.047161 0.090504 0.100968 0.089990 0.110548 0.125160 0.078794 0.013659 -0.006656 0.027289 0.073509 0.072803 0.092653 0.087418 0.053607 0.109265 0.066419 0.041998 0.079968 -0.015774 0.016396 0.063605 0.040752 0.040872 0.065918 0.072937 0.049742 0.064677 0.013697 0.019779 0.002740 0.052211 0.006875 0.042821 0.073748 0.073542 0.041731 -0.007393 -0.004219 -0.019000 0.039045 0.000433 0.012287 0.069703 0.054527 -0.001036 0.010454 -0.014516 0.008644 -0.042251 0.003288 0.010000 0.035918 0.043084 0.026717 -0.011148 0.005238 0.022703 0.004265 0.039825 0.011850 0.010807 -0.103969 -0.000485 -0.024077 -0.054459 -0.012398 -0.057433 0.009730 0.025539 -0.005606 -0.008512 -0.004483 0.001168 0.026272 0.019649 -0.011893 0.004628 0.025908 0.038347 0.020363 0.009521 0.022048 -0.000018 -0.002296 0.018268 -0.005046 0.083522 0.053016 0.030216 0.002058 -0.010334 -0.033537 0.000244 0.077371 -0.011166 0.069610 -0.019194 -0.024550 -0.020864 0.095466 -0.000152 -0.021245 0.044602 0.050333 0.011129 0.005026 0.024027 0.003607 0.030943 0.024993 0.086266 0.062094 0.048442 0.039041 -0.006061 0.008377 -0.003718 0.000580 0.018732 0.101674 -0.019563 -0.092743 0.050543 -0.002385 0.057064 -0.052011 0.001817 0.011278 0.025762 0.003856 -0.018540 -0.031765 -0.058784 0.039086 0.056129 0.056496 -0.122794 0.034912 -0.029151 -0.009009 -0.109200 0.104531 0.017933 -0.037086 -0.095269 0.114932 0.280704 0.162632 0.142216 0.113223 -0.556972
0.072396 0.073047 0.074999 0.078251 0.082803 0.088653 0.095799 0.104238 0.113966 0.124977 0.137266 0.150824 0.165640 0.181703 0.198995 0.217500 0.237195 0.258054 0.280046 0.303135 0.327281 0.352437 0.378549 0.405556 0.433389 0.461973 0.491221 0.521040 0.551325 0.581962 0.612826 0.643781 0.674680 0.705365 0.735667 0.765403 0.794381 0.822399 0.849241 0.874683 0.898492 0.920425 0.940234 0.957663 0.972453 0.984341 0.993066 0.998367 0.999988 0.997681 0.991208 0.980345 0.964885 0.944642 0.919456 0.889194 0.853759 0.813090 0.767167 0.716017 0.659717 0.598398 0.532248 0.461515 0.386511 0.307613 0.225267 0.139985 0.052347 0.037002 0.127349 0.217923 0.307896 0.396390 0.482482 0.565217 0.643614 0.716680 0.783423 0.842864 0.894055 0.936094 0.968141 0.989441 0.999334 0.997281 0.982876 0.955869 0.916176 0.863896 0.799326 0.722965 0.635529 0.537944 0.431356 0.317118 0.196785 0.072099 0.055031 0.182555 0.308309 0.430051 0.545504 0.652391 0.748492 0.831687 0.900013 0.951711 0.985285 0.999544 0.993657 0.967189 0.920140 0.852967 0.766610 0.662494 0.542521 0.409059 0.264905 0.113240 0.042432 0.198351 0.350601 0.495190 0.628171 0.745744 0.844380 0.920933 0.972755 0.997804 0.994733 0.962976 0.902805 0.815365 0.702685 0.567664 0.414015 0.246194 0.069282 0.111151 0.289212 0.458879 0.614195 0.749498 0.859631 0.940158 0.987568 0.999445 0.974622 0.913278 0.816999 0.688784 0.532989 0.355214 0.162134 0.038734 0.239300 0.431226 0.606269 0.756651 0.875416 0.956780 0.996445 0.991859 0.942411 0.849546 0.716781 0.549629 0.355418 0.143007 0.077591 0.295656 0.500278 0.680910 0.827922 0.933152 0.990394 0.995809 0.948226 0.849317 0.703616 0.518378 0.303273 0.069937 0.168631 0.398777 0.606958 0.780570 0.908731 0.983009 0.998037 0.951957 0.846667 0.687841 0.484706 0.249570 0.002856 0.256361 0.494239 0.700407 0.860515 0.962994 0.999950 0.967852 0.867926 0.706241 0.493432 0.244093 0.024166 0.291911 0.539283 0.747474 0.900197 0.985022 0.994463 0.926735 0.786077 0.582614 0.331734 0.053011 0.231260 0.497823 0.724360 0.891403 0.984069 0.993486 0.917742 0.762271 0.539604 0.268479 0.027640 0.322535 0.589527 0.803915 0.945304 0.999654 0.960779 0.831170 0.622012 0.352378 0.047586 0.263076 0.549132 0.781922 0.937533 0.999341 0.959931 0.822116 0.598936 0.312594 0.007635 0.328290 0.615213 0.837192 0.969431 0.996459 0.914079 0.730151 0.464039 0.144739 0.192148 0.508343 0.767205 0.938061 0.999950 0.944363 0.776581 0.515409 0.191258 0.157247 0.487790 0.759478 0.937985 0.999999 0.936456 0.754051 0.474794 0.133544 0.226169 0.557639 0.817029 0.969270 0.992957 0.883569 0.654491 0.335638 0.030241 0.393171 0.702722 0.915060 0.999301 0.942199 0.750473 0.450311 0.084049 0.295640 0.633215 0.878437 0.993953 0.961203 0.783661 0.486812 0.114777 0.276048 0.625440 0.878644 0.995088 0.955107 0.763546 0.449539 0.062361 0.336074 0.681054 0.915584 0.999989 0.918868 0.684216 0.334005 0.073668 0.470028 0.787176 0.969801 0.985052 0.828750 0.526738 0.130965 0.289188 0.658936 0.911425 0.999990 0.907076 0.648059 0.269125 0.160669 0.561778 0.858838 0.995001 0.943072 0.711320 0.342602 0.093165 0.512074 0.832272 0.990119 0.953091 0.726883 0.355042 0.089048 0.516361 0.840022 0.993113 0.942784 0.697739 0.307233 0.148416 0.574120 0.879779 0.999543 0.906343 0.618449 0.196396 0.269341 0.677534
1.000000 1.000000 1.000000 1.000000 1.000000 1.000000 1.000000 1.000000 1.000000 1.000000 1.000000 1.000000 1.000000 1.000000 1.000000 1.000000 1.000000 1.000000 1.000000 1.000000 1.000000 1.000000 1.000000 1.000000 1.000000 1.000000 1.000000 1.000000 1.000000 1.000000 1.000000 1.000000 1.000000 1.000000 1.000000 1.000000 1.000000 1.000000 1.000000 1.000000 1.000000 1.000000 1.000000 1.000000 1.000000 1.000000 1.000000 1.000000 1.000000 1.000000 1.000000 1.000000 0.923770 0.923770 0.923770 0.923770 0.923770 0.923770 0.923770 0.923770 0.923770 0.923770 0.923770 0.923770 0.923770 0.923770 0.923770 0.923770 0.923770 0.923770 0.923770 0.923770 0.923770 0.923770 0.923770 0.923770 0.923770 0.923770 0.923770 0.923770 0.923770 0.923770 0.923770 0.923770 0.923770 0.913628 0.911670 0.912854 0.911457 0.909921 0.909336 0.908953 0.910000 0.911619 0.913674 0.935255 0.938859 0.939638 0.940938 0.942291 0.944553 0.942429 0.950120 0.956656 0.955657 0.956832 0.950834 0.952151 0.951562 0.950868 0.952187 0.952239 0.950610 0.948657 0.947137 0.946620 0.946325 0.949955 0.950436 0.950634 0.951218 0.951178 0.951897 0.952546 0.950817 0.953135 0.945475 0.944112 0.949358 0.947351 0.948772 0.948747 0.949432 0.950259 0.950574 0.950837 0.947044 0.946657 0.945826 0.937730 0.930788 0.930596 0.933037 0.936190 0.933318 0.929763 0.931033 0.933408 0.932393 0.935991 0.926425 0.922109 0.897287 0.884833 0.874931 0.875446 0.878956 0.880930 0.878824 0.871578 0.862040 0.858161 0.859485 0.854162 0.848030 0.863794 0.859249 0.857875 0.861644 0.864604 0.870035 0.867141 0.862602 0.857756 0.853430 0.845720 0.847775 0.851738 0.855680 0.839135 0.828957 0.845226 0.835163 0.826414 0.833524 0.835318 0.832011 0.830847 0.831286 0.829761 0.822683 0.815487 0.818804 0.827877 0.828214 0.819728 0.816812 0.813616 0.813273 0.807155 0.810556 0.810916 0.807302 0.800966 0.818262 0.785529 0.807428 0.807739 0.792984 0.777522 0.763142 0.773919 0.784882 0.787000 0.777660 0.776691 0.775490 0.765961 0.736785 0.735283 0.743015 0.740805 0.729247 0.714820 0.722352 0.724363 0.720216 0.715790 0.718580 0.720253 0.696101 0.709945 0.715322 0.702786 0.716669 0.718482 0.709882 0.712937 0.716030 0.719519 0.719166 0.678665 0.682030 0.657220 0.651654 0.601408 0.597468 0.594383 0.596520 0.525551 0.538948 0.529054 0.528978 0.492517 0.524114 0.445871 0.430599 0.456454 0.380757 0.322439 0.338117 0.338027 0.354877 0.359115 0.343745 0.241822 0.262841 0.307554 0.308004 0.279400 0.249513 0.275492 0.299315 0.320590 0.304897 0.320152 0.343639 0.329096 0.300920 0.286687 0.300650 0.293330 0.334714 0.279299 0.256002 0.233471 0.254071 0.266328 0.266747 0.256021 0.253755 0.219025 0.207243 0.233148 0.232744 0.243381 0.259500 0.287131 0.284259 0.296322 0.280378 0.313397 0.297000 0.297349 0.290424 0.322947 0.347136 0.351978 0.343362 0.371437 0.359117 0.369833 0.356868 0.352697 0.403878 0.384528 0.358659 0.341996 0.343641 0.347865 0.331357 0.272489 0.213546 0.222599 0.246501 0.223505 0.204309 0.165220 0.149345 0.112668 0.118244 0.132252 0.112991 0.115703 0.115703 0.115703 0.115703 0.076561 0.076561 0.076561 0.076561 0.076561 0.076561 0.076561 0.076561 0.076561 0.076561 0.076561 0.076561 0.076561 0.076561 0.098617 0.098617 0.098617 0.098617 0.098617 0.098617 0.098617 0.098617 0.098617 0.098617 0.098617 0.098617
0.000000 0.000000 0.000000 0.000000 0.000000 0.000000 0.000000 0.000000 0.000000 0.000000 0.000000 0.000000 0.000000 0.000000 0.000000 0.000000 0.000000 0.000000 0.000000 0.000000 0.000000 0.000000 0.000000 0.000000 0.000000 0.000000 0.000000 0.000000 0.000000 0.000000 0.000000 0.000000 0.000000 0.000000 0.000000 0.000000 0.000000 0.000000 0.000000 0.000000 0.000000 0.000000 0.000000 0.000000 0.000000 0.000000 0.000000 0.000000 0.000000 0.000000 0.000000 0.000000 0.209657 0.209657 0.209657 0.209657 0.209657 0.209657 0.209657 0.209657 0.209657 0.209657 0.209657 0.209657 0.209657 0.209657 0.209657 0.209657 0.209657 0.209657 0.209657 0.209657 0.209657 0.209657 0.209657 0.209657 0.209657 0.209657 0.209657 0.209657 0.209657 0.209657 0.209657 0.209657 0.209657 0.244339 0.244339 0.244339 0.244339 0.244339 0.244339 0.244339 0.244339 0.244339 0.244339 0.244339 0.244339 0.244339 0.244339 0.244339 0.244339 0.244339 0.244339 0.244339 0.244339 0.244339 0.244339 0.244339 0.244339 0.244339 0.260378 0.260378 0.260378 0.260378 0.260378 0.260378 0.260378 0.260378 0.260378 0.260378 0.260378 0.260378 0.260378 0.260378 0.260378 0.260378 0.260378 0.260378 0.260378 0.260378 0.269680 0.269680 0.269680 0.269680 0.269680 0.269680 0.269680 0.269680 0.269680 0.269680 0.269680 0.269680 0.269680 0.269680 0.269680 0.269680 0.269680 0.269680 0.269680 0.269680 0.269680 0.269680 0.269680 0.269680 0.269680 0.269680 0.269680 0.269680 0.269680 0.269680 0.269680 0.269680 0.269680 0.280056 0.280056 0.280056 0.280056 0.280056 0.280056 0.280056 0.280056 0.280056 0.280056 0.280056 0.280056 0.280056 0.280056 0.280056 0.280056 0.280056 0.280056 0.280056 0.280056 0.280056 0.280056 0.280056 0.280056 0.280056 0.280056 0.280056 0.274721 0.274721 0.274721 0.274721 0.274721 0.274721 0.274721 0.274721 0.274721 0.274721 0.274721 0.274721 0.274721 0.285714 0.285714 0.285714 0.285714 0.285714 0.285714 0.285714 0.285714 0.285714 0.285714 0.285714 0.280056 0.280056 0.280056 0.280056 0.280056 0.280056 0.280056 0.280056 0.280056 0.280056 0.280056 0.274721 0.274721 0.274721 0.274721 0.274721 0.274721 0.274721 0.274721 0.274721 0.274721 0.274721 0.280056 0.280056 0.280056 0.280056 0.280056 0.280056 0.280056 0.280056 0.280056 0.280056 0.285714 0.285714 0.285714 0.285714 0.285714 0.285714 0.285714 0.285714 0.285714 0.269680 0.269680 0.269680 0.269680 0.269680 0.269680 0.269680 0.269680 0.269680 0.269680 0.291730 0.291730 0.291730 0.291730 0.291730 0.291730 0.291730 0.291730 0.269680 0.269680 0.269680 0.269680 0.269680 0.269680 0.269680 0.269680 0.269680 0.264906 0.264906 0.264906 0.264906 0.264906 0.264906 0.264906 0.264906 0.264906 0.274721 0.274721 0.274721 0.274721 0.274721 0.274721 0.274721 0.274721 0.269680 0.269680 0.269680 0.269680 0.269680 0.269680 0.269680 0.269680 0.269680 0.269680 0.269680 0.269680 0.269680 0.269680 0.269680 0.269680 0.280056 0.280056 0.280056 0.280056 0.280056 0.280056 0.280056 0.274721 0.274721 0.274721 0.274721 0.274721 0.274721 0.274721 0.256074 0.256074 0.256074 0.256074 0.256074 0.256074 0.256074 0.256074 0.264906 0.264906 0.264906 0.264906 0.264906 0.264906 0.264906 0.264906 0.264906 0.264906 0.264906 0.264906 0.264906 0.264906 0.260378 0.260378 0.260378 0.260378 0.260378 0.260378 0.260378 0.260378 0.260378 0.260378 0.260378 0.260378
