# Output from CTFFind version 4.1.9, run on 2019-11-03 19:02:26
# Input file: stack16_bm3d_averaged_1_2.75_0_2000_half.mrc ; Number of micrographs: 1
# Pixel size: 3.000 Angstroms ; acceleration voltage: 300.0 keV ; spherical aberration: 0.00 mm ; amplitude contrast: 0.07
# Box size: 512 pixels ; min. res.: 30.0 Angstroms ; max. res.: 5.0 Angstroms ; min. def.: 5000.0 um; max. def. 50000.0 um; num. frames averaged: 1
# 6 lines per micrograph: #1 - spatial frequency (1/Angstroms); #2 - 1D rotational average of spectrum (assuming no astigmatism); #3 - 1D rotational average of spectrum; #4 - CTF fit; #5 - cross-correlation between spectrum and CTF fit; #6 - 2sigma of expected cross correlation of noise
0.000000 0.000651 0.001302 0.001953 0.002604 0.003255 0.003906 0.004557 0.005208 0.005859 0.006510 0.007161 0.007812 0.008464 0.009115 0.009766 0.010417 0.011068 0.011719 0.012370 0.013021 0.013672 0.014323 0.014974 0.015625 0.016276 0.016927 0.017578 0.018229 0.018880 0.019531 0.020182 0.020833 0.021484 0.022135 0.022786 0.023438 0.024089 0.024740 0.025391 0.026042 0.026693 0.027344 0.027995 0.028646 0.029297 0.029948 0.030599 0.031250 0.031901 0.032552 0.033203 0.033854 0.034505 0.035156 0.035807 0.036458 0.037109 0.037760 0.038411 0.039062 0.039714 0.040365 0.041016 0.041667 0.042318 0.042969 0.043620 0.044271 0.044922 0.045573 0.046224 0.046875 0.047526 0.048177 0.048828 0.049479 0.050130 0.050781 0.051432 0.052083 0.052734 0.053385 0.054036 0.054688 0.055339 0.055990 0.056641 0.057292 0.057943 0.058594 0.059245 0.059896 0.060547 0.061198 0.061849 0.062500 0.063151 0.063802 0.064453 0.065104 0.065755 0.066406 0.067057 0.067708 0.068359 0.069010 0.069661 0.070312 0.070964 0.071615 0.072266 0.072917 0.073568 0.074219 0.074870 0.075521 0.076172 0.076823 0.077474 0.078125 0.078776 0.079427 0.080078 0.080729 0.081380 0.082031 0.082682 0.083333 0.083984 0.084635 0.085286 0.085938 0.086589 0.087240 0.087891 0.088542 0.089193 0.089844 0.090495 0.091146 0.091797 0.092448 0.093099 0.093750 0.094401 0.095052 0.095703 0.096354 0.097005 0.097656 0.098307 0.098958 0.099609 0.100260 0.100911 0.101562 0.102214 0.102865 0.103516 0.104167 0.104818 0.105469 0.106120 0.106771 0.107422 0.108073 0.108724 0.109375 0.110026 0.110677 0.111328 0.111979 0.112630 0.113281 0.113932 0.114583 0.115234 0.115885 0.116536 0.117188 0.117839 0.118490 0.119141 0.119792 0.120443 0.121094 0.121745 0.122396 0.123047 0.123698 0.124349 0.125000 0.125651 0.126302 0.126953 0.127604 0.128255 0.128906 0.129557 0.130208 0.130859 0.131510 0.132161 0.132812 0.133464 0.134115 0.134766 0.135417 0.136068 0.136719 0.137370 0.138021 0.138672 0.139323 0.139974 0.140625 0.141276 0.141927 0.142578 0.143229 0.143880 0.144531 0.145182 0.145833 0.146484 0.147135 0.147786 0.148438 0.149089 0.149740 0.150391 0.151042 0.151693 0.152344 0.152995 0.153646 0.154297 0.154948 0.155599 0.156250 0.156901 0.157552 0.158203 0.158854 0.159505 0.160156 0.160807 0.161458 0.162109 0.162760 0.163411 0.164062 0.164714 0.165365 0.166016 0.166667 0.167318 0.167969 0.168620 0.169271 0.169922 0.170573 0.171224 0.171875 0.172526 0.173177 0.173828 0.174479 0.175130 0.175781 0.176432 0.177083 0.177734 0.178385 0.179036 0.179688 0.180339 0.180990 0.181641 0.182292 0.182943 0.183594 0.184245 0.184896 0.185547 0.186198 0.186849 0.187500 0.188151 0.188802 0.189453 0.190104 0.190755 0.191406 0.192057 0.192708 0.193359 0.194010 0.194661 0.195312 0.195964 0.196615 0.197266 0.197917 0.198568 0.199219 0.199870 0.200521 0.201172 0.201823 0.202474 0.203125 0.203776 0.204427 0.205078 0.205729 0.206380 0.207031 0.207682 0.208333 0.208984 0.209635 0.210286 0.210938 0.211589 0.212240 0.212891 0.213542 0.214193 0.214844 0.215495 0.216146 0.216797 0.217448 0.218099 0.218750 0.219401 0.220052 0.220703 0.221354 0.222005 0.222656 0.223307 0.223958 0.224609 0.225260 0.225911 0.226562 0.227214 0.227865 0.228516 0.229167 0.229818 0.230469 0.231120 0.231771 0.232422 0.233073 0.233724 0.234375 0.235026 0.235677
       0.33887        0.33887        0.33887        0.33887        0.33887        0.33887        0.33887        0.33887        0.33887        0.33887        0.33887        0.33887        0.33887        0.33887        0.33887        0.33887        0.33887        0.33887        0.33887        0.33887        0.33887        0.33887        0.33887        0.33887        0.33887        0.33887        0.33887        0.33887        0.33887        0.33887        0.33887        0.33887        0.33887        0.33887        0.33887        0.33887        0.33887        0.33887        0.33887        0.33887        0.33887        0.33887        0.33887        0.33887        0.33887        0.33887        0.33887        0.33887        0.33887        0.33887        0.33887        0.46046        0.64296        0.42631       -0.12404       -0.42724       -0.56965       -0.65965       -0.73334       -0.75304       -0.89119       -0.92546       -0.74850       -0.93238       -0.87733       -1.02232       -1.08477       -0.97169       -0.93591       -0.85687       -0.80529       -0.71148       -0.61866       -0.50191       -0.42350       -0.23032       -0.10945       -0.02358        0.18835        0.22474        0.30433        0.37145        0.40685        0.48983        0.57004        0.59749        0.57240        0.49539        0.55094        0.49053        0.40531        0.32796        0.19203        0.17492        0.10563       -0.04878       -0.10397       -0.07392        0.02715       -0.01171        0.02143        0.02691        0.17758        0.20387        0.38737        0.46108        0.56899        0.69881        0.77671        0.72627        0.68068        0.64976        0.57474        0.48775        0.36989        0.28647        0.19028        0.17795        0.08912        0.02460        0.00300        0.03018        0.08124        0.26988        0.38462        0.49249        0.55358        0.60625        0.69465        0.65007        0.65224        0.64940        0.59068        0.48515        0.28691        0.25298        0.21354        0.11579        0.05155        0.10149        0.12772        0.25940        0.33950        0.41506        0.48351        0.55342        0.65403        0.59322        0.53667        0.50796        0.38353        0.21177        0.23170        0.16897        0.13567        0.14760        0.22890        0.25692        0.35416        0.43306        0.43168        0.53062        0.50284        0.45728        0.44636        0.36288        0.31599        0.25712        0.21807        0.22131        0.19972        0.21411        0.30590        0.41344        0.45942        0.47777        0.54529        0.47955        0.43901        0.38583        0.31125        0.22978        0.23857        0.24361        0.26560        0.28878        0.32395        0.43158        0.50867        0.48974        0.45418        0.38050        0.36885        0.36348        0.21795        0.23518        0.25740        0.28762        0.34594        0.36258        0.40517        0.43703        0.44549        0.38198        0.34772        0.31870        0.32101        0.27353        0.24814        0.27664        0.32879        0.40377        0.41416        0.40057        0.39443        0.40956        0.35304        0.27992        0.28177        0.29018        0.31818        0.37300        0.36481        0.40715        0.34773        0.37625        0.38045        0.34723        0.30754        0.26946        0.28094        0.32502        0.32891        0.33011        0.34221        0.37750        0.33433        0.35691        0.28994        0.30322        0.25959        0.27655        0.30320        0.33100        0.38893        0.36520        0.35135        0.31700        0.27341        0.26298        0.29762        0.28943        0.32152        0.35289        0.37722        0.33987        0.31827        0.30056        0.29793        0.29779        0.28730        0.31349        0.33824        0.33652        0.32381        0.29166        0.33704        0.31876        0.29076        0.31190        0.32801        0.34375        0.35133        0.30871        0.31654        0.28469        0.29198        0.30081        0.32329        0.39136        0.32381        0.36717        0.29878        0.30578        0.30729        0.30762        0.30598        0.30181        0.30328        0.33763        0.34744        0.29208        0.31256        0.29924        0.29118        0.30680        0.30874        0.32476        0.35367        0.36316        0.30955        0.30299        0.28582        0.24001        0.31412        0.34240        0.29765        0.29516        0.26842        0.29264        0.31745        0.31850        0.28927        0.31090        0.32513        0.31971        0.24040        0.28814        0.29992        0.28235        0.32916        0.28664        0.35287        0.38102        0.28151        0.28928        0.26631        0.27337        0.30378        0.28047        0.25384        0.24351        0.26800        0.31147        0.28483        0.26893        0.25785        0.34165        0.31232        0.27312        0.22644        0.21288        0.26117        0.22984        0.21539        0.28066        0.36508        0.23868        0.24972        0.28659        0.22768        0.22643        0.29854        0.27824        0.22335        0.19088        0.27721        0.33688        0.28112        0.12552       -0.00873       -0.47643       -0.74086
2.971991 2.935046 2.898340 2.861870 2.825638 2.789644 2.753887 2.718367 2.683086 2.648041 2.613234 2.578665 2.544333 2.510239 2.476382 2.442763 2.409382 2.376238 2.343331 2.310662 2.278230 2.246037 2.214080 2.182361 2.150880 2.119636 2.088629 2.057860 2.027329 1.997035 1.966979 1.937160 1.907579 1.878235 1.849129 1.820261 1.791630 1.763236 1.735080 1.707161 1.679480 1.652037 1.624831 1.597862 1.571131 1.544638 1.518382 1.492364 1.466583 1.441040 1.415734 1.466360 1.606819 1.551812 0.921937 0.627295 0.443503 0.387038 0.300223 0.233130 0.150762 -0.031339 0.179131 0.039934 -0.054566 -0.090903 -0.230835 -0.169137 -0.097484 -0.095178 -0.087631 0.012501 0.031637 0.201864 0.128555 0.331446 0.430531 0.456349 0.675299 0.675015 0.678161 0.812946 0.784247 0.801922 0.929283 0.857952 0.913712 0.727703 0.828529 0.830703 0.628534 0.586081 0.450486 0.418039 0.367523 0.199181 0.124830 0.098520 0.216782 0.136577 0.199032 0.096801 0.283336 0.265770 0.437633 0.407685 0.596238 0.630450 0.757092 0.731030 0.635432 0.623903 0.506944 0.472231 0.309592 0.301801 0.124163 0.164901 0.020547 -0.015102 -0.044164 -0.069347 -0.019246 0.042441 0.248989 0.314398 0.378729 0.345190 0.478095 0.467071 0.507346 0.485636 0.376471 0.396744 0.147392 0.096554 0.078114 -0.011494 -0.129617 -0.032642 -0.094423 0.020285 0.128467 0.163400 0.251488 0.261166 0.367702 0.487522 0.352241 0.385448 0.304551 0.137424 0.067676 0.070635 0.033329 0.023783 0.046062 0.115316 0.131265 0.261704 0.238896 0.300078 0.342329 0.254615 0.250532 0.207438 0.121038 0.072280 0.034082 0.031452 0.017880 -0.009355 0.031091 0.162838 0.190798 0.228896 0.288467 0.224565 0.223600 0.131790 0.111887 -0.000754 -0.018970 -0.001185 0.002461 0.030551 0.021759 0.101422 0.191989 0.203182 0.212310 0.134160 0.104647 0.091149 0.042576 -0.073498 -0.003776 0.011223 0.039697 0.051738 0.101176 0.155373 0.131234 0.163201 0.066576 0.062371 0.047710 0.047843 -0.003151 -0.008517 0.019761 0.078317 0.121473 0.149051 0.075787 0.142571 0.118458 0.021251 0.010078 0.009604 0.018976 0.071825 0.085654 0.100192 0.102187 0.076804 0.106626 0.083719 0.059754 0.027078 -0.017285 0.024267 0.067396 0.042255 0.054261 0.049987 0.077098 0.083821 0.034755 0.015182 0.013490 -0.037551 0.004011 0.021455 0.045048 0.106399 0.069139 0.054449 0.013790 -0.032951 -0.015421 0.013573 0.010191 0.026425 0.070371 0.061598 0.007881 0.038625 -0.027722 0.019432 -0.014537 -0.023896 0.029329 0.054666 0.006049 0.012251 -0.010414 0.034877 -0.004343 -0.010369 0.011304 0.029170 0.028090 0.056578 0.009617 -0.006658 -0.033501 -0.003246 0.002667 0.028241 0.075081 0.020623 0.045995 -0.019814 0.027294 -0.013881 0.017945 0.009404 0.006821 -0.006995 0.043875 0.027264 0.010753 0.021854 -0.022579 -0.002884 0.000447 -0.003326 0.043938 0.050766 0.058597 0.007797 0.014857 -0.023212 -0.033305 0.006295 0.036008 0.002637 0.022136 -0.031634 -0.008945 0.021067 0.031647 0.000094 -0.004981 0.036288 0.036506 -0.063199 0.005053 0.033646 -0.015260 0.031916 0.023942 0.082385 0.100711 0.016112 0.026478 -0.019703 0.019203 -0.009324 0.001894 -0.004916 -0.028879 -0.026904 0.051229 -0.002807 -0.001314 -0.067273 0.047158 -0.000856 -0.038251 -0.091434 -0.078942 -0.023404 -0.078043 -0.094680 0.001723 0.069235 -0.104817 -0.033253 0.023753 -0.006918 -0.092703 0.032345 0.048725 0.053788 -0.051508 0.251302 0.277966 0.220807 0.074346 -0.003498 -0.655322
0.072396 0.073047 0.074998 0.078249 0.082800 0.088648 0.095792 0.104228 0.113953 0.124961 0.137246 0.150799 0.165611 0.181668 0.198955 0.217455 0.237143 0.257996 0.279981 0.303064 0.327203 0.352351 0.378456 0.405455 0.433281 0.461858 0.491099 0.520911 0.551190 0.581820 0.612679 0.643628 0.674523 0.705205 0.735504 0.765239 0.794218 0.822237 0.849082 0.874530 0.898346 0.920289 0.940110 0.957553 0.972359 0.984267 0.993014 0.998341 0.999991 0.997715 0.991277 0.980452 0.965032 0.944833 0.919694 0.889481 0.854098 0.813482 0.767614 0.716521 0.660279 0.599017 0.532924 0.462246 0.387295 0.308448 0.226149 0.140908 0.053306 0.036014 0.126340 0.216901 0.306872 0.395374 0.481486 0.564253 0.642695 0.715821 0.782637 0.842166 0.893459 0.935613 0.967791 0.989233 0.999280 0.997390 0.983158 0.956330 0.916819 0.864723 0.800335 0.724153 0.636885 0.539458 0.433011 0.318895 0.198661 0.074048 0.053039 0.180553 0.306333 0.428138 0.543692 0.650719 0.747000 0.830414 0.898993 0.950979 0.984868 0.999467 0.993937 0.967836 0.921156 0.854348 0.768341 0.664549 0.544866 0.411652 0.267692 0.116161 0.039443 0.195371 0.347704 0.492458 0.625683 0.743578 0.842609 0.919622 0.971961 0.997569 0.995086 0.963931 0.904356 0.817486 0.705334 0.570776 0.417509 0.249971 0.073228 0.107162 0.285314 0.455207 0.610885 0.746680 0.857423 0.938661 0.986862 0.999585 0.975630 0.915146 0.819685 0.692210 0.537043 0.359755 0.166991 0.033748 0.234389 0.426601 0.602138 0.753208 0.872833 0.955201 0.995971 0.992546 0.944265 0.852515 0.720759 0.554459 0.360892 0.148876 0.071605 0.289849 0.494949 0.676344 0.824378 0.930847 0.989484 0.996383 0.950295 0.852812 0.708382 0.524184 0.309821 0.076875 0.161697 0.392248 0.601232 0.776010 0.905642 0.981620 0.998479 0.954250 0.850716 0.693435 0.491527 0.257211 0.005122 0.248561 0.487144 0.694513 0.856254 0.960698 0.999830 0.969969 0.872186 0.712393 0.501079 0.252713 0.015182 0.283221 0.531548 0.741300 0.896094 0.983353 0.995417 0.930299 0.792029 0.590535 0.341029 0.062955 0.221470 0.489001 0.717266 0.886675 0.982163 0.994630 0.921904 0.769156 0.548661 0.278954 0.016657 0.312026 0.580462 0.797157 0.941533 0.999287 0.963922 0.837599 0.631181 0.363452 0.059531 0.251420 0.538925 0.774221 0.933160 0.998811 0.963377 0.829262 0.609115 0.324798 0.005347 0.315903 0.604763 0.829847 0.966056 0.997503 0.919513 0.739453 0.476240 0.158509 0.178353 0.496111 0.757984 0.932987 0.999701 0.949059 0.785755 0.528039 0.205876 0.142390 0.474517 0.749466 0.932547 0.999903 0.941810 0.764276 0.488657 0.149321 0.210508 0.544147 0.807533 0.965105 0.994778 0.891235 0.667063 0.351483 0.013255 0.377384 0.690361 0.907927 0.998496 0.947945 0.762058 0.466158 0.101923 0.278326 0.619027 0.869537 0.991759 0.966159 0.795133 0.503159 0.133570 0.257674 0.610351 0.869257 0.992975 0.960722 0.776120 0.467161 0.082267 0.317088 0.666112 0.907213 0.999681 0.926804 0.699191 0.353606 0.052706 0.451271 0.773880 0.964360 0.988533 0.840680 0.545146 0.152685 0.267990 0.642069 0.902007 0.999840 0.916363 0.665223 0.291097 0.137902 0.542460 0.846666 0.992386 0.950655 0.727795 0.364930 0.069235 0.491179 0.818561 0.986396 0.960241 0.743636 0.378167 0.064113 0.494659 0.826033 0.989811 0.951006 0.715941 0.331754 0.122633 0.552500 0.866963 0.998393 0.917269 0.639256 0.222714 0.243185 0.657269
1.000000 1.000000 1.000000 1.000000 1.000000 1.000000 1.000000 1.000000 1.000000 1.000000 1.000000 1.000000 1.000000 1.000000 1.000000 1.000000 1.000000 1.000000 1.000000 1.000000 1.000000 1.000000 1.000000 1.000000 1.000000 1.000000 1.000000 1.000000 1.000000 1.000000 1.000000 1.000000 1.000000 1.000000 1.000000 1.000000 1.000000 1.000000 1.000000 1.000000 1.000000 1.000000 1.000000 1.000000 1.000000 1.000000 1.000000 1.000000 1.000000 1.000000 1.000000 1.000000 0.935826 0.935826 0.935826 0.935826 0.935826 0.935826 0.935826 0.935826 0.935826 0.935826 0.935826 0.935826 0.935826 0.935826 0.935826 0.935826 0.935826 0.935826 0.935826 0.935826 0.935826 0.935826 0.935826 0.935826 0.935826 0.935826 0.935826 0.935826 0.935826 0.935826 0.935826 0.935826 0.935826 0.922755 0.924245 0.927087 0.928096 0.928042 0.927605 0.927328 0.927588 0.928916 0.930742 0.947174 0.948971 0.950001 0.951213 0.949926 0.952446 0.950610 0.954800 0.965368 0.964450 0.965299 0.959023 0.960258 0.959626 0.958889 0.959250 0.959302 0.957717 0.955870 0.954327 0.954557 0.954268 0.955917 0.956308 0.956116 0.956607 0.956529 0.956354 0.953498 0.951692 0.953057 0.954727 0.953736 0.959336 0.959240 0.967380 0.968381 0.967247 0.967053 0.967251 0.967427 0.963399 0.960760 0.956610 0.945540 0.936464 0.933315 0.936721 0.940576 0.938080 0.933184 0.932225 0.929629 0.925406 0.924820 0.923289 0.923670 0.916690 0.913712 0.903897 0.903199 0.904964 0.906146 0.904162 0.893262 0.888068 0.889309 0.892183 0.886155 0.883333 0.899045 0.895492 0.898320 0.902117 0.904824 0.908961 0.896910 0.892655 0.889584 0.885344 0.883713 0.885603 0.888155 0.890102 0.887767 0.884092 0.878914 0.874624 0.881078 0.886537 0.890316 0.888913 0.889567 0.889047 0.874544 0.874525 0.863196 0.863855 0.870888 0.875543 0.872676 0.871032 0.870128 0.869125 0.871587 0.871306 0.868624 0.862111 0.857636 0.855751 0.852978 0.866405 0.863610 0.852861 0.844930 0.840024 0.846897 0.853132 0.846895 0.844240 0.823407 0.823124 0.821407 0.819393 0.820715 0.825816 0.822382 0.826829 0.824932 0.828038 0.830482 0.829905 0.824132 0.824164 0.826051 0.806812 0.815335 0.811899 0.792466 0.797724 0.784019 0.780447 0.781886 0.783262 0.753287 0.758240 0.718071 0.688026 0.705401 0.713928 0.696964 0.685350 0.684013 0.688763 0.685701 0.665545 0.644984 0.641216 0.647224 0.647135 0.655970 0.617291 0.615601 0.602602 0.571699 0.576436 0.575253 0.547715 0.556916 0.551860 0.548281 0.549704 0.552760 0.558676 0.561605 0.561438 0.542150 0.538309 0.543594 0.515630 0.512583 0.511050 0.510757 0.497601 0.496664 0.469547 0.474697 0.516430 0.482511 0.463601 0.466099 0.464816 0.474048 0.481823 0.480727 0.444120 0.480933 0.451780 0.457075 0.471387 0.454120 0.407394 0.413072 0.393407 0.408816 0.388180 0.363298 0.346978 0.345174 0.337204 0.346759 0.368262 0.353761 0.338954 0.328038 0.286152 0.318433 0.307653 0.295848 0.318251 0.336700 0.318512 0.284924 0.282586 0.273822 0.227899 0.205533 0.217452 0.213709 0.156345 0.106055 0.099621 0.088213 0.056382 0.026322 0.024986 -0.007317 -0.010517 0.021375 0.020806 0.009769 0.014262 0.042862 0.042862 0.042862 0.042862 0.042862 0.042862 0.042862 0.042862 0.042862 0.042862 0.042862 0.042862 0.042862 0.042862 0.061351 0.061351 0.061351 0.061351 0.061351 0.061351 0.061351 0.061351 0.061351 0.061351 0.061351 0.061351
0.000000 0.000000 0.000000 0.000000 0.000000 0.000000 0.000000 0.000000 0.000000 0.000000 0.000000 0.000000 0.000000 0.000000 0.000000 0.000000 0.000000 0.000000 0.000000 0.000000 0.000000 0.000000 0.000000 0.000000 0.000000 7.000000 4.000000 0.000000 0.000000 0.000000 0.000000 0.000000 0.000000 0.000000 0.000000 0.000000 0.000000 0.000000 0.000000 0.000000 0.000000 0.000000 0.000000 0.000000 0.000000 0.000000 0.000000 0.000000 0.000000 0.000000 0.000000 0.000000 0.209657 0.209657 0.209657 0.209657 0.209657 0.209657 0.209657 0.209657 0.209657 0.209657 0.209657 0.209657 0.209657 0.209657 0.209657 0.209657 0.209657 0.209657 0.209657 0.209657 0.209657 0.209657 0.209657 0.209657 0.209657 0.209657 0.209657 0.209657 0.209657 0.209657 0.209657 0.209657 0.209657 0.244339 0.244339 0.244339 0.244339 0.244339 0.244339 0.244339 0.244339 0.244339 0.244339 0.244339 0.244339 0.244339 0.244339 0.244339 0.244339 0.244339 0.244339 0.244339 0.244339 0.244339 0.244339 0.244339 0.244339 0.244339 0.260378 0.260378 0.260378 0.260378 0.260378 0.260378 0.260378 0.260378 0.260378 0.260378 0.260378 0.260378 0.260378 0.260378 0.260378 0.260378 0.260378 0.260378 0.260378 0.260378 0.269680 0.269680 0.269680 0.269680 0.269680 0.269680 0.269680 0.269680 0.269680 0.269680 0.269680 0.269680 0.269680 0.269680 0.269680 0.269680 0.269680 0.269680 0.269680 0.269680 0.269680 0.269680 0.269680 0.269680 0.269680 0.269680 0.269680 0.269680 0.269680 0.269680 0.269680 0.269680 0.269680 0.280056 0.280056 0.280056 0.280056 0.280056 0.280056 0.280056 0.280056 0.280056 0.280056 0.280056 0.280056 0.280056 0.280056 0.280056 0.280056 0.280056 0.280056 0.280056 0.280056 0.280056 0.280056 0.280056 0.280056 0.280056 0.280056 0.280056 0.274721 0.274721 0.274721 0.274721 0.274721 0.274721 0.274721 0.274721 0.274721 0.274721 0.274721 0.274721 0.274721 0.285714 0.285714 0.285714 0.285714 0.285714 0.285714 0.285714 0.285714 0.285714 0.285714 0.285714 0.280056 0.280056 0.280056 0.280056 0.280056 0.280056 0.280056 0.280056 0.280056 0.280056 0.280056 0.274721 0.274721 0.274721 0.274721 0.274721 0.274721 0.274721 0.274721 0.274721 0.274721 0.274721 0.280056 0.280056 0.280056 0.280056 0.280056 0.280056 0.280056 0.280056 0.280056 0.280056 0.285714 0.285714 0.285714 0.285714 0.285714 0.285714 0.285714 0.285714 0.285714 0.269680 0.269680 0.269680 0.269680 0.269680 0.269680 0.269680 0.269680 0.269680 0.269680 0.274721 0.274721 0.274721 0.274721 0.274721 0.274721 0.274721 0.274721 0.274721 0.285714 0.285714 0.285714 0.285714 0.285714 0.285714 0.285714 0.285714 0.264906 0.264906 0.264906 0.264906 0.264906 0.264906 0.264906 0.264906 0.264906 0.274721 0.274721 0.274721 0.274721 0.274721 0.274721 0.274721 0.274721 0.269680 0.269680 0.269680 0.269680 0.269680 0.269680 0.269680 0.269680 0.269680 0.269680 0.269680 0.269680 0.269680 0.269680 0.269680 0.269680 0.280056 0.280056 0.280056 0.280056 0.280056 0.280056 0.280056 0.260378 0.260378 0.260378 0.260378 0.260378 0.260378 0.260378 0.260378 0.269680 0.269680 0.269680 0.269680 0.269680 0.269680 0.269680 0.264906 0.264906 0.264906 0.264906 0.264906 0.264906 0.264906 0.264906 0.264906 0.264906 0.264906 0.264906 0.264906 0.264906 0.260378 0.260378 0.260378 0.260378 0.260378 0.260378 0.260378 0.260378 0.260378 0.260378 0.260378 0.260378
