# Output from CTFFind version 4.1.9, run on 2019-11-03 20:05:51
# Input file: stack1_bm3d_averaged_1_7.0_0_1000_half.mrc ; Number of micrographs: 1
# Pixel size: 3.000 Angstroms ; acceleration voltage: 300.0 keV ; spherical aberration: 0.00 mm ; amplitude contrast: 0.07
# Box size: 512 pixels ; min. res.: 30.0 Angstroms ; max. res.: 5.0 Angstroms ; min. def.: 5000.0 um; max. def. 50000.0 um; num. frames averaged: 1
# 6 lines per micrograph: #1 - spatial frequency (1/Angstroms); #2 - 1D rotational average of spectrum (assuming no astigmatism); #3 - 1D rotational average of spectrum; #4 - CTF fit; #5 - cross-correlation between spectrum and CTF fit; #6 - 2sigma of expected cross correlation of noise
0.000000 0.000651 0.001302 0.001953 0.002604 0.003255 0.003906 0.004557 0.005208 0.005859 0.006510 0.007161 0.007812 0.008464 0.009115 0.009766 0.010417 0.011068 0.011719 0.012370 0.013021 0.013672 0.014323 0.014974 0.015625 0.016276 0.016927 0.017578 0.018229 0.018880 0.019531 0.020182 0.020833 0.021484 0.022135 0.022786 0.023438 0.024089 0.024740 0.025391 0.026042 0.026693 0.027344 0.027995 0.028646 0.029297 0.029948 0.030599 0.031250 0.031901 0.032552 0.033203 0.033854 0.034505 0.035156 0.035807 0.036458 0.037109 0.037760 0.038411 0.039062 0.039714 0.040365 0.041016 0.041667 0.042318 0.042969 0.043620 0.044271 0.044922 0.045573 0.046224 0.046875 0.047526 0.048177 0.048828 0.049479 0.050130 0.050781 0.051432 0.052083 0.052734 0.053385 0.054036 0.054688 0.055339 0.055990 0.056641 0.057292 0.057943 0.058594 0.059245 0.059896 0.060547 0.061198 0.061849 0.062500 0.063151 0.063802 0.064453 0.065104 0.065755 0.066406 0.067057 0.067708 0.068359 0.069010 0.069661 0.070312 0.070964 0.071615 0.072266 0.072917 0.073568 0.074219 0.074870 0.075521 0.076172 0.076823 0.077474 0.078125 0.078776 0.079427 0.080078 0.080729 0.081380 0.082031 0.082682 0.083333 0.083984 0.084635 0.085286 0.085938 0.086589 0.087240 0.087891 0.088542 0.089193 0.089844 0.090495 0.091146 0.091797 0.092448 0.093099 0.093750 0.094401 0.095052 0.095703 0.096354 0.097005 0.097656 0.098307 0.098958 0.099609 0.100260 0.100911 0.101562 0.102214 0.102865 0.103516 0.104167 0.104818 0.105469 0.106120 0.106771 0.107422 0.108073 0.108724 0.109375 0.110026 0.110677 0.111328 0.111979 0.112630 0.113281 0.113932 0.114583 0.115234 0.115885 0.116536 0.117188 0.117839 0.118490 0.119141 0.119792 0.120443 0.121094 0.121745 0.122396 0.123047 0.123698 0.124349 0.125000 0.125651 0.126302 0.126953 0.127604 0.128255 0.128906 0.129557 0.130208 0.130859 0.131510 0.132161 0.132812 0.133464 0.134115 0.134766 0.135417 0.136068 0.136719 0.137370 0.138021 0.138672 0.139323 0.139974 0.140625 0.141276 0.141927 0.142578 0.143229 0.143880 0.144531 0.145182 0.145833 0.146484 0.147135 0.147786 0.148438 0.149089 0.149740 0.150391 0.151042 0.151693 0.152344 0.152995 0.153646 0.154297 0.154948 0.155599 0.156250 0.156901 0.157552 0.158203 0.158854 0.159505 0.160156 0.160807 0.161458 0.162109 0.162760 0.163411 0.164062 0.164714 0.165365 0.166016 0.166667 0.167318 0.167969 0.168620 0.169271 0.169922 0.170573 0.171224 0.171875 0.172526 0.173177 0.173828 0.174479 0.175130 0.175781 0.176432 0.177083 0.177734 0.178385 0.179036 0.179688 0.180339 0.180990 0.181641 0.182292 0.182943 0.183594 0.184245 0.184896 0.185547 0.186198 0.186849 0.187500 0.188151 0.188802 0.189453 0.190104 0.190755 0.191406 0.192057 0.192708 0.193359 0.194010 0.194661 0.195312 0.195964 0.196615 0.197266 0.197917 0.198568 0.199219 0.199870 0.200521 0.201172 0.201823 0.202474 0.203125 0.203776 0.204427 0.205078 0.205729 0.206380 0.207031 0.207682 0.208333 0.208984 0.209635 0.210286 0.210938 0.211589 0.212240 0.212891 0.213542 0.214193 0.214844 0.215495 0.216146 0.216797 0.217448 0.218099 0.218750 0.219401 0.220052 0.220703 0.221354 0.222005 0.222656 0.223307 0.223958 0.224609 0.225260 0.225911 0.226562 0.227214 0.227865 0.228516 0.229167 0.229818 0.230469 0.231120 0.231771 0.232422 0.233073 0.233724 0.234375 0.235026 0.235677
       0.34460        0.34460        0.34460        0.34460        0.34460        0.34460        0.34460        0.34460        0.34460        0.34460        0.34460        0.34460        0.34460        0.34460        0.34460        0.34460        0.34460        0.34460        0.34460        0.34460        0.34460        0.34460        0.34460        0.34460        0.34460        0.34460        0.34460        0.34460        0.34460        0.34460        0.34460        0.34460        0.34460        0.34460        0.34460        0.34460        0.34460        0.34460        0.34460        0.34460        0.34460        0.34460        0.34460        0.34460        0.34460        0.34460        0.34460        0.34460        0.34460        0.34460        0.34460        0.34411        0.48817        0.22719        0.07929        0.00141       -0.27018       -0.11444       -0.15846       -0.22164        0.00840       -0.14524       -0.07173       -0.06294       -0.04663       -0.12467       -0.16160       -0.25430       -0.30760       -0.42072       -0.35454       -0.25543       -0.22564       -0.32301       -0.24041       -0.30143       -0.27072       -0.29397       -0.13365       -0.14575       -0.20701       -0.03829        0.02740       -0.02639        0.07256        0.03391        0.23097        0.24458        0.33576        0.35065        0.38404        0.42212        0.49783        0.55636        0.56679        0.50916        0.48691        0.51157        0.46467        0.52101        0.44495        0.41184        0.41512        0.35326        0.29727        0.30736        0.33404        0.22687        0.19663        0.12850        0.15333        0.16344        0.18231        0.16239        0.23305        0.28712        0.31346        0.29235        0.38850        0.46842        0.39608        0.48595        0.59616        0.55184        0.52101        0.56152        0.59669        0.41768        0.48152        0.39605        0.32574        0.30309        0.28298        0.25338        0.19274        0.18429        0.15001        0.20391        0.25755        0.28773        0.34251        0.30574        0.40946        0.42452        0.45820        0.48722        0.48218        0.51221        0.45503        0.43532        0.40809        0.33946        0.31891        0.31242        0.31865        0.25269        0.24519        0.25532        0.24333        0.27146        0.32614        0.42855        0.46146        0.41948        0.42245        0.47100        0.45788        0.46717        0.46161        0.38185        0.36437        0.40022        0.36266        0.30620        0.29951        0.31890        0.28209        0.29924        0.30045        0.31652        0.36261        0.37802        0.42816        0.43850        0.36165        0.45144        0.41970        0.35432        0.30598        0.34818        0.32886        0.30468        0.31982        0.28214        0.28582        0.32341        0.33784        0.44025        0.40933        0.37360        0.39079        0.43072        0.36477        0.35308        0.34027        0.34751        0.28090        0.27817        0.30184        0.37685        0.38198        0.34010        0.34811        0.39629        0.39094        0.45252        0.39510        0.36356        0.33210        0.32705        0.32159        0.31691        0.34207        0.38719        0.36851        0.37263        0.32865        0.43836        0.35785        0.34932        0.33447        0.37815        0.37114        0.30522        0.31306        0.27740        0.31221        0.32772        0.31457        0.33906        0.33322        0.35540        0.34458        0.33692        0.30870        0.29868        0.28369        0.33003        0.33915        0.33764        0.29982        0.34400        0.33741        0.33579        0.33744        0.30472        0.28582        0.31181        0.32685        0.32118        0.31531        0.29714        0.31439        0.34217        0.33122        0.32979        0.38457        0.33690        0.27324        0.31562        0.32581        0.32092        0.34188        0.29410        0.32645        0.28292        0.31680        0.31877        0.36667        0.31789        0.31273        0.29962        0.28486        0.37000        0.36040        0.32277        0.32165        0.30153        0.30188        0.33670        0.33309        0.28181        0.32141        0.27455        0.26406        0.27685        0.30542        0.31978        0.32691        0.23499        0.28141        0.33985        0.33293        0.33902        0.33212        0.30964        0.31387        0.32681        0.31459        0.25813        0.27620        0.28578        0.33390        0.32506        0.34031        0.34755        0.34117        0.33870        0.32765        0.32280        0.30792        0.31453        0.31272        0.25938        0.28056        0.32439        0.33744        0.24276        0.19856        0.20913        0.30146        0.30946        0.29554        0.27929        0.27333        0.27925        0.23861        0.27035        0.27011        0.27262        0.25611        0.25482        0.25279        0.20504        0.24983        0.32196        0.36603        0.26628        0.23653        0.20515        0.18588        0.27808        0.28678        0.38688        0.26724        0.24060        0.29937        0.36399        0.17976       -0.01122       -0.10886       -0.54381       -0.75624
3.369579 3.332012 3.294658 3.257517 3.220588 3.183872 3.147369 3.111078 3.075001 3.039135 3.003483 2.968043 2.932816 2.897802 2.863000 2.828411 2.794034 2.759871 2.725920 2.692182 2.658656 2.625343 2.592243 2.559355 2.526681 2.494218 2.461969 2.429932 2.398108 2.366497 2.335098 2.303912 2.272939 2.242178 2.211630 2.181295 2.151173 2.121263 2.091566 2.062081 2.032809 2.003750 1.974904 1.946270 1.917849 1.889641 1.861645 1.833862 1.806292 1.778935 1.751790 1.652059 1.964303 1.699280 1.080610 1.148468 0.365292 0.900471 0.528338 0.641093 0.921259 0.667597 0.657153 0.755165 0.689798 0.641446 0.462756 0.342550 0.183835 -0.006749 -0.003003 0.109117 0.402901 -0.033785 0.162115 0.042570 0.147253 -0.060060 0.259213 0.181337 0.097251 0.298359 0.497238 0.288830 0.456058 0.362954 0.772671 0.639058 0.855514 0.868675 0.810956 1.033574 0.933820 1.238325 1.067153 1.108283 0.987312 1.008846 0.952407 0.892484 0.932994 0.759315 0.727161 0.653903 0.617820 0.460209 0.557287 0.446626 0.276202 0.201063 0.138207 0.180266 0.218669 0.156498 0.182785 0.362069 0.345344 0.360423 0.462873 0.532567 0.531437 0.414050 0.800202 0.812596 0.621323 0.671428 0.755536 0.531994 0.417659 0.494518 0.197831 0.247581 0.101282 0.160540 -0.016966 -0.036823 -0.109255 -0.104088 0.104321 -0.001297 0.127840 0.188593 0.161472 0.309343 0.310350 0.389389 0.332908 0.471252 0.320706 0.265443 0.243195 0.145836 0.088575 0.054823 0.024316 0.003737 -0.062715 -0.095114 -0.096551 -0.064964 -0.060491 0.139327 0.312696 0.199178 0.206828 0.262666 0.345120 0.241957 0.343845 0.282304 0.151718 0.132548 0.274810 0.004227 0.043514 0.028157 0.057615 -0.013466 0.086465 -0.008677 0.138407 -0.007638 0.229656 0.267210 0.191601 0.252123 0.203240 0.153485 0.041724 0.076607 0.079751 0.023898 -0.006386 0.040439 -0.069844 -0.013973 0.026824 0.116478 0.281751 0.150853 0.122394 0.212927 0.142534 0.137084 0.047526 0.065310 0.062646 -0.089842 -0.009590 0.035320 0.146197 0.116461 0.037118 0.084114 0.177638 0.162393 0.280649 0.112168 0.095686 0.042760 0.013004 0.059494 0.031445 0.092812 0.164418 0.116778 0.084196 0.137851 0.191051 0.018631 0.074821 0.055938 0.134767 0.068949 -0.008946 0.007377 -0.054071 0.013093 0.048236 0.028570 0.019693 -0.014632 0.055523 0.019297 0.012542 -0.041373 -0.054018 -0.036657 -0.027235 0.060951 -0.023954 -0.008521 0.034518 0.042058 0.021922 0.056076 -0.034144 -0.030741 0.003902 0.025620 0.021083 0.020780 -0.028594 -0.006358 0.079541 0.025037 0.015002 0.166234 -0.042773 -0.065670 0.024135 0.012659 0.009659 0.033252 -0.041031 0.022561 -0.075560 0.027279 0.023159 0.096985 -0.025727 -0.018553 -0.042182 -0.033611 0.090649 0.069135 -0.032953 0.030679 -0.058144 -0.032772 0.024953 -0.003459 -0.071859 0.030821 -0.113493 -0.091600 -0.049741 -0.062687 0.033985 -0.072442 -0.219008 -0.023521 0.056481 -0.024505 -0.021696 0.035301 -0.054241 -0.026139 -0.032804 -0.056911 -0.131101 -0.128968 -0.122977 0.024864 -0.010119 -0.025239 0.019617 0.032327 -0.100125 0.027692 -0.008526 -0.087140 -0.015867 -0.008694 -0.129929 -0.056279 0.000044 0.069313 -0.089520 -0.265432 -0.108999 0.112070 0.011345 -0.037126 0.042583 0.024377 0.015194 -0.044978 -0.051659 0.034733 0.015851 0.016712 -0.001269 0.055582 -0.134938 0.059758 0.238206 0.182546 0.056426 0.070315 -0.103650 0.030408 0.070071 0.099452 0.386026 0.422355 0.415141 0.533275 0.757303 0.334785 -0.128716 -0.177842 -1.292417
0.072396 0.072907 0.074441 0.076996 0.080572 0.085169 0.090785 0.097418 0.105066 0.113727 0.123396 0.134069 0.145741 0.158405 0.172053 0.186674 0.202259 0.218793 0.236260 0.254643 0.273920 0.294068 0.315058 0.336861 0.359442 0.382761 0.406775 0.431437 0.456692 0.482483 0.508744 0.535407 0.562394 0.589622 0.617004 0.644442 0.671834 0.699070 0.726033 0.752598 0.778635 0.804006 0.828566 0.852163 0.874641 0.895836 0.915580 0.933700 0.950020 0.964360 0.976539 0.986373 0.993680 0.998279 0.999993 0.998647 0.994074 0.986116 0.974621 0.959454 0.940490 0.917622 0.890760 0.859837 0.824807 0.785650 0.742373 0.695015 0.643645 0.588366 0.529318 0.466678 0.400664 0.331531 0.259579 0.185147 0.108616 0.030411 0.049005 0.129128 0.209419 0.289300 0.368166 0.445382 0.520291 0.592217 0.660472 0.724365 0.783205 0.836311 0.883021 0.922700 0.954750 0.978618 0.993810 0.999896 0.996521 0.983420 0.960420 0.927452 0.884559 0.831906 0.769777 0.698590 0.618894 0.531371 0.436835 0.336230 0.230624 0.121204 0.009261 0.103818 0.216567 0.327459 0.434924 0.537375 0.633225 0.720920 0.798964 0.865945 0.920567 0.961675 0.988286 0.999618 0.995108 0.974443 0.937574 0.884733 0.816446 0.733537 0.637130 0.528644 0.409777 0.282494 0.148994 0.011683 0.126866 0.263961 0.396837 0.522718 0.638870 0.742668 0.831659 0.903624 0.956643 0.989152 0.999999 0.988488 0.954424 0.898133 0.820487 0.722904 0.607335 0.476249 0.332583 0.179692 0.021278 0.138689 0.296075 0.446678 0.586347 0.711099 0.817239 0.901478 0.961047 0.993800 0.998305 0.973917 0.920830 0.840110 0.733694 0.604369 0.455719 0.292042 0.118241 0.060314 0.237940 0.408823 0.567203 0.707586 0.824926 0.914831 0.973743 0.999093 0.989434 0.944536 0.865443 0.754482 0.615224 0.452397 0.271747 0.079854 0.116094 0.308556 0.489939 0.652887 0.790597 0.897118 0.967626 0.998665 0.988346 0.936482 0.844653 0.716204 0.556156 0.371044 0.168677 0.042170 0.252126 0.451635 0.631388 0.782775 0.898310 0.972030 0.999834 0.979738 0.912050 0.799424 0.646808 0.461265 0.251688 0.028402 0.197338 0.413879 0.609798 0.774501 0.898821 0.975558 0.999932 0.969928 0.886482 0.753531 0.577874 0.368878 0.138012 0.101739 0.336607 0.552809 0.737376 0.878946 0.968503 0.999987 0.970761 0.881868 0.738076 0.547683 0.322099 0.075203 0.177477 0.419726 0.635681 0.810884 0.933287 0.994118 0.988572 0.916242 0.781271 0.592194 0.361459 0.104668 0.160439 0.415198 0.641310 0.822207 0.944271 0.997933 0.978477 0.886525 0.728125 0.514444 0.261051 0.013160 0.287349 0.540287 0.752024 0.905476 0.987872 0.991880 0.916334 0.766488 0.553745 0.294884 0.010786 0.275190 0.539113 0.758498 0.914250 0.992387 0.985376 0.892945 0.722284 0.487591 0.208975 0.089175 0.380321 0.638090 0.838712 0.963246 0.999456 0.943100 0.798524 0.578439 0.302930 0.002308 0.308299 0.585527 0.806778 0.949879 0.999996 0.951267 0.807601 0.582498 0.297908 0.017823 0.332708 0.614338 0.833242 0.966022 0.997951 0.924721 0.753128 0.500588 0.193502 0.135427 0.450606 0.717403 0.905991 0.994761 0.972911 0.841891 0.615510 0.318604 0.015541 0.348870 0.642852 0.862957 0.982788 0.987367 0.875142 0.658446 0.362317 0.021729 0.322454 0.628323 0.858068 0.982719 0.985926 0.866252 0.637654 0.328038 0.024022 0.373983 0.676940 0.893431 0.994646 0.966427 0.811401 0.548960 0.213019 0.152212 0.498012 0.777597 0.952514
1.000000 1.000000 1.000000 1.000000 1.000000 1.000000 1.000000 1.000000 1.000000 1.000000 1.000000 1.000000 1.000000 1.000000 1.000000 1.000000 1.000000 1.000000 1.000000 1.000000 1.000000 1.000000 1.000000 1.000000 1.000000 1.000000 1.000000 1.000000 1.000000 1.000000 1.000000 1.000000 1.000000 1.000000 1.000000 1.000000 1.000000 1.000000 1.000000 1.000000 1.000000 1.000000 1.000000 1.000000 1.000000 1.000000 1.000000 1.000000 1.000000 1.000000 1.000000 1.000000 0.828322 0.828322 0.828322 0.807118 0.807118 0.807118 0.807118 0.807118 0.807118 0.807118 0.807118 0.807118 0.807118 0.807118 0.807118 0.807118 0.807118 0.807118 0.807118 0.807118 0.807118 0.807118 0.807118 0.807118 0.807118 0.807118 0.807118 0.807118 0.807118 0.807118 0.807118 0.807118 0.807118 0.807118 0.807118 0.807118 0.807118 0.807118 0.807118 0.807118 0.807118 0.807118 0.807118 0.807118 0.854320 0.860912 0.866114 0.869148 0.869401 0.866312 0.865161 0.864703 0.864099 0.865329 0.871663 0.896992 0.914258 0.917088 0.928361 0.929838 0.934715 0.937340 0.957058 0.958548 0.959946 0.959071 0.960011 0.961976 0.968484 0.968622 0.968711 0.969039 0.969207 0.969783 0.969506 0.968744 0.967750 0.967066 0.964573 0.964477 0.964976 0.965581 0.966176 0.960850 0.961096 0.961344 0.963283 0.961786 0.947165 0.941524 0.937700 0.935800 0.916147 0.917265 0.915787 0.911572 0.903325 0.903395 0.893043 0.894212 0.893683 0.887871 0.886536 0.883401 0.879933 0.870270 0.868951 0.867474 0.869569 0.873753 0.876658 0.862436 0.846659 0.829394 0.812727 0.797323 0.798287 0.802237 0.797986 0.801846 0.804807 0.803467 0.801908 0.796381 0.782356 0.790350 0.788771 0.785110 0.778766 0.778007 0.764477 0.758506 0.752165 0.728064 0.709937 0.695786 0.699474 0.690354 0.687296 0.689853 0.697959 0.700892 0.703912 0.697210 0.694271 0.681636 0.656361 0.662038 0.673088 0.673427 0.662215 0.658913 0.636881 0.663601 0.668661 0.687316 0.695961 0.696302 0.695721 0.676548 0.647220 0.619786 0.621426 0.604809 0.616409 0.623610 0.621442 0.609371 0.619529 0.630157 0.642338 0.602485 0.600443 0.583724 0.581178 0.580020 0.577892 0.545914 0.522142 0.510874 0.487014 0.468669 0.483580 0.475270 0.472270 0.496504 0.460323 0.458411 0.456206 0.457385 0.456574 0.447567 0.424279 0.426737 0.427142 0.410029 0.388053 0.331534 0.317885 0.319948 0.322655 0.325664 0.342350 0.358526 0.320353 0.296962 0.298711 0.321842 0.313971 0.325646 0.331432 0.303492 0.300581 0.207602 0.206011 0.228169 0.236809 0.249371 0.227368 0.246531 0.247188 0.225855 0.201158 0.134125 0.083986 0.064002 0.089145 0.099517 0.111067 0.097152 0.070884 0.074499 0.083076 0.038284 0.023616 0.016760 0.018579 0.032562 0.059514 0.054955 0.053383 0.067117 0.083941 0.050227 0.043968 0.049932 0.073979 0.056921 0.039629 0.013923 0.004719 -0.014517 -0.021770 0.000222 0.012237 0.020337 0.054019 0.025598 -0.015439 -0.040814 -0.032195 -0.050491 -0.056538 -0.086122 -0.069525 -0.090840 -0.073418 -0.052920 0.011399 0.015517 0.017207 -0.008304 0.019398 -0.025112 -0.035593 -0.026443 -0.044531 -0.031805 0.017622 0.030571 0.035745 -0.014577 -0.029892 -0.029892 -0.029892 -0.051838 -0.051838 -0.051838 -0.051838 -0.051838 -0.051838 -0.051838 -0.051838 -0.051838 -0.063309 -0.063309 -0.063309 -0.063309 -0.063309 -0.063309 -0.063309 -0.063309 -0.063309 -0.063309 -0.063309 -0.063309 -0.063309 -0.063309 -0.063309 -0.063309 -0.063309
0.000000 0.000000 0.000000 0.000000 0.000000 0.000000 0.000000 0.000000 0.000000 0.000000 0.000000 0.000000 0.000000 0.000000 0.000000 0.000000 0.000000 0.000000 0.000000 0.000000 0.000000 0.000000 0.000000 0.000000 0.000000 0.000000 0.000000 0.000000 0.000000 0.000000 0.000000 0.000000 0.000000 0.000000 0.000000 0.000000 0.000000 0.000000 0.000000 0.000000 0.000000 0.000000 0.000000 0.000000 0.000000 0.000000 0.000000 0.000000 0.000000 0.000000 0.000000 0.000000 0.180334 0.180334 0.180334 0.199007 0.199007 0.199007 0.199007 0.199007 0.199007 0.199007 0.199007 0.199007 0.199007 0.199007 0.199007 0.199007 0.199007 0.199007 0.199007 0.199007 0.199007 0.199007 0.199007 0.199007 0.199007 0.199007 0.199007 0.199007 0.199007 0.199007 0.199007 0.199007 0.199007 0.199007 0.199007 0.199007 0.199007 0.199007 0.199007 0.199007 0.199007 0.199007 0.199007 0.199007 0.230940 0.230940 0.230940 0.230940 0.230940 0.230940 0.230940 0.230940 0.230940 0.230940 0.230940 0.230940 0.230940 0.230940 0.230940 0.230940 0.230940 0.230940 0.230940 0.230940 0.230940 0.230940 0.230940 0.230940 0.230940 0.230940 0.230940 0.230940 0.248069 0.248069 0.248069 0.248069 0.248069 0.248069 0.248069 0.248069 0.248069 0.248069 0.248069 0.248069 0.248069 0.248069 0.248069 0.248069 0.248069 0.248069 0.248069 0.248069 0.248069 0.248069 0.251976 0.251976 0.251976 0.251976 0.251976 0.251976 0.251976 0.251976 0.251976 0.251976 0.251976 0.251976 0.251976 0.251976 0.251976 0.251976 0.251976 0.251976 0.251976 0.251976 0.256074 0.256074 0.256074 0.256074 0.256074 0.256074 0.256074 0.256074 0.256074 0.256074 0.256074 0.256074 0.256074 0.256074 0.256074 0.256074 0.256074 0.256074 0.264906 0.264906 0.264906 0.264906 0.264906 0.264906 0.264906 0.264906 0.264906 0.264906 0.264906 0.264906 0.264906 0.264906 0.264906 0.264906 0.264906 0.264906 0.264906 0.264906 0.264906 0.264906 0.264906 0.264906 0.264906 0.264906 0.264906 0.264906 0.264906 0.264906 0.264906 0.274721 0.274721 0.274721 0.274721 0.274721 0.274721 0.274721 0.274721 0.274721 0.274721 0.274721 0.274721 0.274721 0.256074 0.256074 0.256074 0.256074 0.256074 0.256074 0.256074 0.256074 0.256074 0.256074 0.256074 0.256074 0.256074 0.256074 0.269680 0.269680 0.269680 0.269680 0.269680 0.269680 0.269680 0.269680 0.269680 0.269680 0.269680 0.269680 0.264906 0.264906 0.264906 0.264906 0.264906 0.264906 0.264906 0.264906 0.264906 0.264906 0.264906 0.264906 0.269680 0.269680 0.269680 0.269680 0.269680 0.269680 0.269680 0.269680 0.269680 0.269680 0.269680 0.264906 0.264906 0.264906 0.264906 0.264906 0.264906 0.264906 0.264906 0.264906 0.264906 0.264906 0.269680 0.269680 0.269680 0.269680 0.269680 0.269680 0.269680 0.269680 0.269680 0.269680 0.251976 0.251976 0.251976 0.251976 0.251976 0.251976 0.251976 0.251976 0.251976 0.251976 0.251976 0.269680 0.269680 0.269680 0.269680 0.269680 0.269680 0.269680 0.269680 0.269680 0.256074 0.256074 0.256074 0.256074 0.256074 0.256074 0.256074 0.256074 0.256074 0.256074 0.260378 0.260378 0.260378 0.260378 0.260378 0.260378 0.260378 0.260378 0.260378 0.256074 0.256074 0.256074 0.256074 0.256074 0.256074 0.256074 0.256074 0.256074 0.251976 0.251976 0.251976 0.251976 0.251976 0.251976 0.251976 0.251976 0.251976 0.251976 0.251976 0.251976 0.251976 0.251976 0.251976 0.251976 0.251976
