# Output from CTFFind version 4.1.9, run on 2019-11-03 20:07:27
# Input file: stack16_bm3d_averaged_1_10_0_1250_half.mrc ; Number of micrographs: 1
# Pixel size: 3.000 Angstroms ; acceleration voltage: 300.0 keV ; spherical aberration: 0.00 mm ; amplitude contrast: 0.07
# Box size: 512 pixels ; min. res.: 30.0 Angstroms ; max. res.: 5.0 Angstroms ; min. def.: 5000.0 um; max. def. 50000.0 um; num. frames averaged: 1
# 6 lines per micrograph: #1 - spatial frequency (1/Angstroms); #2 - 1D rotational average of spectrum (assuming no astigmatism); #3 - 1D rotational average of spectrum; #4 - CTF fit; #5 - cross-correlation between spectrum and CTF fit; #6 - 2sigma of expected cross correlation of noise
0.000000 0.000651 0.001302 0.001953 0.002604 0.003255 0.003906 0.004557 0.005208 0.005859 0.006510 0.007161 0.007812 0.008464 0.009115 0.009766 0.010417 0.011068 0.011719 0.012370 0.013021 0.013672 0.014323 0.014974 0.015625 0.016276 0.016927 0.017578 0.018229 0.018880 0.019531 0.020182 0.020833 0.021484 0.022135 0.022786 0.023438 0.024089 0.024740 0.025391 0.026042 0.026693 0.027344 0.027995 0.028646 0.029297 0.029948 0.030599 0.031250 0.031901 0.032552 0.033203 0.033854 0.034505 0.035156 0.035807 0.036458 0.037109 0.037760 0.038411 0.039062 0.039714 0.040365 0.041016 0.041667 0.042318 0.042969 0.043620 0.044271 0.044922 0.045573 0.046224 0.046875 0.047526 0.048177 0.048828 0.049479 0.050130 0.050781 0.051432 0.052083 0.052734 0.053385 0.054036 0.054688 0.055339 0.055990 0.056641 0.057292 0.057943 0.058594 0.059245 0.059896 0.060547 0.061198 0.061849 0.062500 0.063151 0.063802 0.064453 0.065104 0.065755 0.066406 0.067057 0.067708 0.068359 0.069010 0.069661 0.070312 0.070964 0.071615 0.072266 0.072917 0.073568 0.074219 0.074870 0.075521 0.076172 0.076823 0.077474 0.078125 0.078776 0.079427 0.080078 0.080729 0.081380 0.082031 0.082682 0.083333 0.083984 0.084635 0.085286 0.085938 0.086589 0.087240 0.087891 0.088542 0.089193 0.089844 0.090495 0.091146 0.091797 0.092448 0.093099 0.093750 0.094401 0.095052 0.095703 0.096354 0.097005 0.097656 0.098307 0.098958 0.099609 0.100260 0.100911 0.101562 0.102214 0.102865 0.103516 0.104167 0.104818 0.105469 0.106120 0.106771 0.107422 0.108073 0.108724 0.109375 0.110026 0.110677 0.111328 0.111979 0.112630 0.113281 0.113932 0.114583 0.115234 0.115885 0.116536 0.117188 0.117839 0.118490 0.119141 0.119792 0.120443 0.121094 0.121745 0.122396 0.123047 0.123698 0.124349 0.125000 0.125651 0.126302 0.126953 0.127604 0.128255 0.128906 0.129557 0.130208 0.130859 0.131510 0.132161 0.132812 0.133464 0.134115 0.134766 0.135417 0.136068 0.136719 0.137370 0.138021 0.138672 0.139323 0.139974 0.140625 0.141276 0.141927 0.142578 0.143229 0.143880 0.144531 0.145182 0.145833 0.146484 0.147135 0.147786 0.148438 0.149089 0.149740 0.150391 0.151042 0.151693 0.152344 0.152995 0.153646 0.154297 0.154948 0.155599 0.156250 0.156901 0.157552 0.158203 0.158854 0.159505 0.160156 0.160807 0.161458 0.162109 0.162760 0.163411 0.164062 0.164714 0.165365 0.166016 0.166667 0.167318 0.167969 0.168620 0.169271 0.169922 0.170573 0.171224 0.171875 0.172526 0.173177 0.173828 0.174479 0.175130 0.175781 0.176432 0.177083 0.177734 0.178385 0.179036 0.179688 0.180339 0.180990 0.181641 0.182292 0.182943 0.183594 0.184245 0.184896 0.185547 0.186198 0.186849 0.187500 0.188151 0.188802 0.189453 0.190104 0.190755 0.191406 0.192057 0.192708 0.193359 0.194010 0.194661 0.195312 0.195964 0.196615 0.197266 0.197917 0.198568 0.199219 0.199870 0.200521 0.201172 0.201823 0.202474 0.203125 0.203776 0.204427 0.205078 0.205729 0.206380 0.207031 0.207682 0.208333 0.208984 0.209635 0.210286 0.210938 0.211589 0.212240 0.212891 0.213542 0.214193 0.214844 0.215495 0.216146 0.216797 0.217448 0.218099 0.218750 0.219401 0.220052 0.220703 0.221354 0.222005 0.222656 0.223307 0.223958 0.224609 0.225260 0.225911 0.226562 0.227214 0.227865 0.228516 0.229167 0.229818 0.230469 0.231120 0.231771 0.232422 0.233073 0.233724 0.234375 0.235026 0.235677
       0.37332        0.37332        0.37332        0.37332        0.37332        0.37332        0.37332        0.37332        0.37332        0.37332        0.37332        0.37332        0.37332        0.37331        0.37332        0.37332        0.37332        0.37331        0.37332        0.37332        0.37331        0.37331        0.37331        0.37332        0.37332        0.37332        0.37332        0.37332        0.37332        0.37332        0.37332        0.37332        0.37332        0.37332        0.37332        0.37332        0.37332        0.37332        0.37332        0.37331        0.37332        0.37332        0.37332        0.37332        0.37332        0.37332        0.37332        0.37332        0.37331        0.37332        0.37332        0.44771        0.56358        0.34993       -0.21564       -0.43378       -0.52055       -0.62879       -0.69258       -0.69298       -0.78132       -0.86325       -0.64968       -0.79760       -0.78814       -0.91961       -0.96402       -0.84565       -0.80676       -0.77090       -0.67207       -0.60483       -0.51333       -0.42335       -0.36175       -0.13621       -0.03609        0.07688        0.28993        0.27719        0.33987        0.38314        0.42126        0.55465        0.55552        0.58851        0.54427        0.49098        0.51910        0.55641        0.48194        0.35078        0.24532        0.20861        0.13225        0.05336        0.03463        0.02385        0.09336        0.06143        0.11116        0.08387        0.20280        0.22213        0.42546        0.47516        0.55370        0.66021        0.68430        0.71590        0.65543        0.61901        0.57269        0.46519        0.40572        0.31058        0.24429        0.24506        0.13374        0.15165        0.16401        0.12017        0.12077        0.32124        0.44046        0.54683        0.54447        0.56666        0.61005        0.59592        0.57371        0.59761        0.58109        0.49052        0.33632        0.28970        0.29147        0.19802        0.12155        0.20222        0.25755        0.31661        0.37215        0.44754        0.49397        0.54746        0.61306        0.56286        0.51163        0.53378        0.37781        0.32108        0.29064        0.20579        0.24900        0.27710        0.31197        0.30825        0.36279        0.45206        0.48424        0.51049        0.46855        0.45969        0.50747        0.42000        0.34336        0.30861        0.29068        0.26017        0.24295        0.25986        0.36388        0.47327        0.45756        0.49483        0.56019        0.48046        0.43748        0.37830        0.35275        0.30648        0.30687        0.29190        0.31553        0.39589        0.40361        0.46763        0.48479        0.46349        0.49007        0.40647        0.39695        0.36608        0.30065        0.28021        0.28490        0.37312        0.39664        0.37886        0.40183        0.44521        0.46414        0.41387        0.35621        0.34746        0.37796        0.34549        0.31384        0.32503        0.38640        0.40134        0.42109        0.40832        0.42091        0.44269        0.42812        0.35032        0.31398        0.32476        0.35921        0.41970        0.39289        0.42194        0.37521        0.38872        0.40871        0.36615        0.36922        0.34100        0.33073        0.35982        0.37396        0.35603        0.39566        0.40568        0.35165        0.37001        0.35084        0.33789        0.33290        0.34503        0.35885        0.34724        0.38859        0.40057        0.38861        0.32864        0.32719        0.30989        0.35323        0.34302        0.33787        0.39070        0.37680        0.35865        0.34012        0.33051        0.31838        0.30028        0.34499        0.36198        0.38404        0.38786        0.37736        0.35051        0.36695        0.39151        0.36460        0.36868        0.36659        0.34209        0.35196        0.31572        0.33687        0.33305        0.33833        0.30451        0.34913        0.37586        0.34383        0.38350        0.34324        0.36214        0.37306        0.35680        0.33936        0.36247        0.39930        0.36725        0.39745        0.35683        0.33585        0.35417        0.33886        0.35611        0.35415        0.39263        0.33703        0.34202        0.32308        0.32616        0.29599        0.31383        0.38904        0.34258        0.33037        0.30624        0.28819        0.29608        0.37705        0.32365        0.30983        0.35326        0.33368        0.29926        0.26733        0.30974        0.30335        0.33244        0.33591        0.36910        0.36163        0.34988        0.34115        0.28627        0.31997        0.32541        0.32174        0.33274        0.36463        0.32554        0.24670        0.32093        0.33830        0.35864        0.31141        0.31670        0.26623        0.31740        0.28754        0.27055        0.29939        0.25855        0.32055        0.32226        0.31283        0.29345        0.36042        0.30505        0.25933        0.26412        0.33104        0.25021        0.15407        0.11741        0.19167        0.36300        0.34397        0.21549        0.19906       -0.30397       -0.57702
3.350319 3.307216 3.264394 3.221855 3.179598 3.137623 3.095931 3.054520 3.013391 2.972544 2.931979 2.891697 2.851697 2.811978 2.772542 2.733388 2.694516 2.655926 2.617618 2.579592 2.541848 2.504386 2.467207 2.430309 2.393694 2.357360 2.321309 2.285540 2.250053 2.214848 2.179925 2.145284 2.110925 2.076848 2.043054 2.009541 1.976310 1.943362 1.910696 1.878312 1.846209 1.814389 1.782851 1.751595 1.720622 1.689930 1.659520 1.629392 1.599547 1.569984 1.540702 1.579094 1.632261 1.571182 0.847841 0.616066 0.476968 0.403425 0.304899 0.236864 0.208701 -0.043322 0.226103 0.094510 -0.017311 -0.087813 -0.230352 -0.134165 -0.038158 -0.093788 -0.060613 0.047508 0.051907 0.245324 0.114776 0.366368 0.469033 0.516548 0.788620 0.680808 0.710772 0.819277 0.795498 0.860935 0.921062 0.857346 0.881980 0.728467 0.777201 0.846541 0.701321 0.603327 0.429291 0.431416 0.312050 0.200206 0.191709 0.107662 0.207282 0.119828 0.203846 0.103624 0.213073 0.222191 0.421097 0.387697 0.550143 0.585359 0.592081 0.702425 0.591803 0.546052 0.450246 0.406357 0.267891 0.250139 0.076810 0.135216 -0.040628 0.027962 -0.030088 -0.054837 -0.079431 0.007874 0.236995 0.277453 0.330987 0.264783 0.353480 0.357140 0.378836 0.358537 0.339933 0.304754 0.102111 0.050007 0.053518 -0.037262 -0.153336 -0.081050 -0.066689 0.022830 0.058416 0.126987 0.186007 0.204843 0.297602 0.388839 0.251055 0.352538 0.206793 0.147185 0.055799 0.023334 -0.001110 0.055631 0.064947 0.080768 0.115010 0.161076 0.228174 0.288742 0.253258 0.197072 0.245418 0.216987 0.102761 0.035898 0.058779 0.014748 0.003304 -0.047011 0.027776 0.159973 0.201562 0.175315 0.281416 0.184900 0.196872 0.072537 0.063378 0.030639 -0.002422 -0.014988 -0.009104 0.049117 0.099446 0.111387 0.160484 0.138167 0.226721 0.147722 0.078271 0.097964 0.031490 -0.040716 -0.010125 0.036270 0.080858 0.066256 0.059556 0.145983 0.105810 0.153811 0.042912 0.039872 0.048703 0.045961 0.027196 -0.009995 0.041651 0.061463 0.092671 0.098763 0.080197 0.116764 0.115002 0.077529 0.006439 -0.016302 0.004810 0.069295 0.090511 0.085993 0.081507 0.053358 0.089650 0.062753 0.038694 0.057491 -0.004168 0.006567 0.071056 0.039887 0.041272 0.087664 0.088017 0.044379 0.067887 0.025269 0.017431 0.021992 0.055875 0.031848 0.033132 0.078086 0.083889 0.049742 -0.002029 0.001838 -0.019586 0.051839 0.005336 0.014662 0.074820 0.041936 0.009035 0.020996 -0.016052 -0.002404 -0.029784 0.015087 0.038356 0.063930 0.037773 0.038994 0.016246 0.011848 0.063705 0.018064 0.027808 0.019204 -0.005638 0.018818 -0.038140 -0.035377 -0.037156 -0.011078 -0.070693 0.017611 0.021212 -0.010376 -0.008898 0.002226 -0.006152 0.025281 -0.001366 -0.012500 0.019656 0.036933 0.012575 0.052072 -0.006351 0.007740 0.017011 -0.007952 0.019005 0.000716 0.095497 0.020075 0.010247 0.004871 -0.005284 -0.022214 0.013798 0.069350 0.023113 0.028993 -0.028082 -0.020740 -0.018909 0.078637 0.006083 -0.025053 0.070790 0.045559 -0.009818 -0.007725 -0.002951 0.027213 0.043213 0.041054 0.117028 0.040630 0.067860 0.046411 -0.005778 0.040142 0.025780 0.000539 0.040154 0.066034 0.010348 -0.056045 0.021943 0.045074 0.056976 -0.011474 0.007973 -0.036410 -0.006351 -0.010785 -0.043653 0.013764 -0.067880 0.053121 0.013804 0.049355 -0.076347 0.080210 0.048001 0.007673 -0.023522 0.110144 0.018366 -0.054980 -0.155923 0.166466 0.337593 0.335796 0.135166 0.199029 -0.563060
0.072396 0.073047 0.074998 0.078250 0.082801 0.088650 0.095794 0.104232 0.113957 0.124967 0.137253 0.150808 0.165621 0.181680 0.198969 0.217471 0.237162 0.258016 0.280004 0.303089 0.327230 0.352381 0.378488 0.405490 0.433319 0.461898 0.491142 0.520956 0.551237 0.581870 0.612730 0.643682 0.674578 0.705261 0.735561 0.765296 0.794275 0.822293 0.849138 0.874583 0.898397 0.920337 0.940153 0.957591 0.972392 0.984293 0.993033 0.998350 0.999990 0.997703 0.991253 0.980415 0.964981 0.944767 0.919611 0.889381 0.853980 0.813345 0.767458 0.716345 0.660083 0.598801 0.532688 0.461990 0.387021 0.308157 0.225841 0.140586 0.052971 0.036359 0.126692 0.217258 0.307230 0.395729 0.481834 0.564590 0.643016 0.716121 0.782911 0.842410 0.893667 0.935781 0.967914 0.989306 0.999299 0.997352 0.983060 0.956169 0.916595 0.864434 0.799983 0.723738 0.636411 0.538929 0.432433 0.318274 0.198006 0.073367 0.053735 0.181252 0.307023 0.428807 0.544325 0.651304 0.747522 0.830859 0.899350 0.951235 0.985014 0.999495 0.993840 0.967611 0.920802 0.853866 0.767737 0.663831 0.544047 0.410746 0.266719 0.115141 0.040487 0.196412 0.348716 0.493413 0.626553 0.744336 0.843229 0.920081 0.972240 0.997652 0.994964 0.963599 0.903816 0.816746 0.704410 0.569689 0.416289 0.248652 0.071850 0.108555 0.286676 0.456490 0.612043 0.747666 0.858196 0.939186 0.987111 0.999538 0.975280 0.914495 0.818748 0.691015 0.535628 0.358169 0.165295 0.035490 0.236106 0.428217 0.603584 0.754413 0.873739 0.955755 0.996140 0.992310 0.943621 0.851481 0.719372 0.552774 0.358981 0.146825 0.073698 0.291880 0.496814 0.677942 0.825620 0.931657 0.989807 0.996187 0.949577 0.851595 0.706720 0.522159 0.307535 0.074452 0.164121 0.394531 0.603236 0.777609 0.906727 0.982112 0.998331 0.953455 0.849307 0.691485 0.489147 0.254543 0.002334 0.251289 0.489626 0.696577 0.857749 0.961508 0.999880 0.969237 0.870705 0.710249 0.498412 0.249704 0.018319 0.286260 0.534254 0.743465 0.897536 0.983946 0.995094 0.929064 0.789959 0.587774 0.337785 0.059482 0.224893 0.492089 0.719755 0.888338 0.982841 0.994243 0.920463 0.766761 0.545506 0.275300 0.020494 0.315702 0.583638 0.799530 0.942864 0.999430 0.962839 0.835365 0.627989 0.359590 0.055357 0.255493 0.542500 0.776925 0.934704 0.999014 0.962190 0.826781 0.605569 0.320541 0.000811 0.320236 0.608427 0.832429 0.967255 0.997159 0.917635 0.736219 0.471988 0.153702 0.183178 0.500394 0.761222 0.934782 0.999812 0.947442 0.782571 0.523639 0.200774 0.147584 0.479165 0.752984 0.934472 0.999964 0.939965 0.760724 0.483827 0.143812 0.215987 0.548878 0.810875 0.966590 0.994172 0.888583 0.662692 0.345959 0.019189 0.382912 0.694704 0.910451 0.998812 0.945971 0.758037 0.460638 0.095682 0.284385 0.624009 0.872679 0.992564 0.964465 0.791157 0.497468 0.127008 0.264104 0.615649 0.872573 0.993756 0.958803 0.771760 0.461025 0.075316 0.323737 0.671362 0.910181 0.999836 0.924075 0.693996 0.346774 0.060034 0.457843 0.778565 0.966311 0.987370 0.836557 0.538747 0.145103 0.275406 0.647999 0.905349 0.999949 0.913170 0.659266 0.283438 0.145862 0.549243 0.850970 0.993362 0.948066 0.722083 0.357154 0.077605 0.498512 0.823404 0.987764 0.957809 0.737834 0.370116 0.072828 0.502278 0.830980 0.991038 0.948204 0.709637 0.323212 0.131654 0.560095 0.871508 0.998875 0.913525 0.632042 0.213534 0.252343 0.664404
1.000000 1.000000 1.000000 1.000000 1.000000 1.000000 1.000000 1.000000 1.000000 1.000000 1.000000 1.000000 1.000000 1.000000 1.000000 1.000000 1.000000 1.000000 1.000000 1.000000 1.000000 1.000000 1.000000 1.000000 1.000000 1.000000 1.000000 1.000000 1.000000 1.000000 1.000000 1.000000 1.000000 1.000000 1.000000 1.000000 1.000000 1.000000 1.000000 1.000000 1.000000 1.000000 1.000000 1.000000 1.000000 1.000000 1.000000 1.000000 1.000000 1.000000 1.000000 1.000000 0.923644 0.923644 0.923644 0.923644 0.923644 0.923644 0.923644 0.923644 0.923644 0.923644 0.923644 0.923644 0.923644 0.923644 0.923644 0.923644 0.923644 0.923644 0.923644 0.923644 0.923644 0.923644 0.923644 0.923644 0.923644 0.923644 0.923644 0.923644 0.923644 0.923644 0.923644 0.923644 0.923644 0.913420 0.911504 0.912668 0.911235 0.909757 0.909169 0.908780 0.909822 0.911430 0.913499 0.935118 0.936949 0.938225 0.939550 0.941124 0.943361 0.941176 0.945130 0.951140 0.950014 0.951331 0.951581 0.952151 0.951517 0.950792 0.953055 0.952255 0.950585 0.948595 0.946924 0.946370 0.946146 0.949786 0.950270 0.950439 0.951027 0.950975 0.951693 0.949589 0.947956 0.950249 0.931730 0.929964 0.934825 0.932209 0.933113 0.933082 0.933744 0.934655 0.935070 0.935352 0.931942 0.931381 0.930229 0.924497 0.917024 0.917339 0.919428 0.921620 0.918999 0.917922 0.919163 0.919974 0.917623 0.920571 0.913289 0.910774 0.886338 0.873517 0.867872 0.868630 0.873709 0.877699 0.875480 0.871619 0.865158 0.862777 0.861085 0.862619 0.852595 0.854263 0.853576 0.847241 0.850010 0.852787 0.858225 0.857652 0.853973 0.848838 0.842079 0.827641 0.827678 0.827923 0.831664 0.812140 0.795801 0.828727 0.823065 0.819550 0.826922 0.828707 0.826541 0.824959 0.825327 0.823307 0.815353 0.806321 0.810027 0.819169 0.823630 0.815966 0.811395 0.813198 0.813026 0.808876 0.813801 0.816324 0.813059 0.803884 0.819274 0.800793 0.815779 0.816262 0.793964 0.779493 0.766616 0.773304 0.780156 0.768181 0.768974 0.781062 0.780903 0.777316 0.767824 0.740890 0.748248 0.746297 0.738551 0.729848 0.736200 0.728351 0.727563 0.727577 0.732104 0.731640 0.709453 0.723524 0.730017 0.730528 0.741347 0.742114 0.734078 0.737349 0.742438 0.729434 0.724418 0.705721 0.708234 0.641613 0.635104 0.613962 0.609691 0.605301 0.549716 0.550816 0.534551 0.518878 0.517597 0.484767 0.526338 0.426956 0.420793 0.437319 0.377061 0.372010 0.391987 0.392985 0.408805 0.380982 0.379707 0.386913 0.363168 0.334830 0.311160 0.334794 0.342965 0.335307 0.337254 0.307334 0.300271 0.249749 0.267902 0.272248 0.298400 0.296252 0.281915 0.300280 0.353607 0.287913 0.274546 0.252426 0.278771 0.282139 0.267271 0.257899 0.284891 0.229113 0.247760 0.252363 0.253912 0.310989 0.336112 0.337311 0.333021 0.341242 0.370678 0.337962 0.344581 0.358315 0.350105 0.367356 0.370260 0.383298 0.386004 0.430884 0.454340 0.460663 0.471351 0.487235 0.487356 0.464904 0.471821 0.427602 0.452964 0.430277 0.439068 0.400198 0.385919 0.383812 0.348580 0.305504 0.306386 0.301869 0.256733 0.256551 0.245833 0.212320 0.211871 0.224301 0.234533 0.204155 0.210941 0.223270 0.223270 0.223270 0.223270 0.223270 0.223270 0.223270 0.223270 0.223270 0.223270 0.223270 0.223270 0.223270 0.223270 0.243454 0.243454 0.243454 0.243454 0.243454 0.243454 0.243454 0.243454 0.243454 0.243454 0.243454 0.243454
0.000000 0.000000 0.000000 0.000000 0.000000 0.000000 0.000000 0.000000 0.000000 0.000000 0.000000 0.000000 0.000000 0.000000 0.000000 0.000000 0.000000 0.000000 0.000000 0.000000 0.000000 0.000000 0.000000 0.000000 0.000000 0.000000 0.000000 0.000000 0.000000 0.000000 0.000000 0.000000 0.000000 0.000000 0.000000 0.000000 0.000000 0.000000 0.000000 0.000000 0.000000 0.000000 0.000000 0.000000 0.000000 0.000000 0.000000 0.000000 0.000000 0.000000 0.000000 0.000000 0.209657 0.209657 0.209657 0.209657 0.209657 0.209657 0.209657 0.209657 0.209657 0.209657 0.209657 0.209657 0.209657 0.209657 0.209657 0.209657 0.209657 0.209657 0.209657 0.209657 0.209657 0.209657 0.209657 0.209657 0.209657 0.209657 0.209657 0.209657 0.209657 0.209657 0.209657 0.209657 0.209657 0.244339 0.244339 0.244339 0.244339 0.244339 0.244339 0.244339 0.244339 0.244339 0.244339 0.244339 0.244339 0.244339 0.244339 0.244339 0.244339 0.244339 0.244339 0.244339 0.244339 0.244339 0.244339 0.244339 0.244339 0.244339 0.260378 0.260378 0.260378 0.260378 0.260378 0.260378 0.260378 0.260378 0.260378 0.260378 0.260378 0.260378 0.260378 0.260378 0.260378 0.260378 0.260378 0.260378 0.260378 0.260378 0.269680 0.269680 0.269680 0.269680 0.269680 0.269680 0.269680 0.269680 0.269680 0.269680 0.269680 0.269680 0.269680 0.269680 0.269680 0.269680 0.269680 0.269680 0.269680 0.269680 0.269680 0.269680 0.269680 0.269680 0.269680 0.269680 0.269680 0.269680 0.269680 0.269680 0.269680 0.269680 0.269680 0.280056 0.280056 0.280056 0.280056 0.280056 0.280056 0.280056 0.280056 0.280056 0.280056 0.280056 0.280056 0.280056 0.280056 0.280056 0.280056 0.280056 0.280056 0.280056 0.280056 0.280056 0.280056 0.280056 0.280056 0.280056 0.280056 0.280056 0.274721 0.274721 0.274721 0.274721 0.274721 0.274721 0.274721 0.274721 0.274721 0.274721 0.274721 0.274721 0.274721 0.285714 0.285714 0.285714 0.285714 0.285714 0.285714 0.285714 0.285714 0.285714 0.285714 0.285714 0.280056 0.280056 0.280056 0.280056 0.280056 0.280056 0.280056 0.280056 0.280056 0.280056 0.280056 0.274721 0.274721 0.274721 0.274721 0.274721 0.274721 0.274721 0.274721 0.274721 0.274721 0.274721 0.280056 0.280056 0.280056 0.280056 0.280056 0.280056 0.280056 0.280056 0.280056 0.280056 0.285714 0.285714 0.285714 0.285714 0.285714 0.285714 0.285714 0.285714 0.285714 0.269680 0.269680 0.269680 0.269680 0.269680 0.269680 0.269680 0.269680 0.269680 0.269680 0.274721 0.274721 0.274721 0.274721 0.274721 0.274721 0.274721 0.274721 0.274721 0.285714 0.285714 0.285714 0.285714 0.285714 0.285714 0.285714 0.285714 0.264906 0.264906 0.264906 0.264906 0.264906 0.264906 0.264906 0.264906 0.264906 0.274721 0.274721 0.274721 0.274721 0.274721 0.274721 0.274721 0.274721 0.269680 0.269680 0.269680 0.269680 0.269680 0.269680 0.269680 0.269680 0.269680 0.269680 0.269680 0.269680 0.269680 0.269680 0.269680 0.269680 0.280056 0.280056 0.280056 0.280056 0.280056 0.280056 0.280056 0.260378 0.260378 0.260378 0.260378 0.260378 0.260378 0.260378 0.260378 0.269680 0.269680 0.269680 0.269680 0.269680 0.269680 0.269680 0.264906 0.264906 0.264906 0.264906 0.264906 0.264906 0.264906 0.264906 0.264906 0.264906 0.264906 0.264906 0.264906 0.264906 0.260378 0.260378 0.260378 0.260378 0.260378 0.260378 0.260378 0.260378 0.260378 0.260378 0.260378 0.260378
