# Output from CTFFind version 4.1.9, run on 2019-11-02 17:50:32
# Input file: stack16_bm3d_averaged_1_1.5_0_3000_half.mrc ; Number of micrographs: 1
# Pixel size: 3.000 Angstroms ; acceleration voltage: 300.0 keV ; spherical aberration: 0.00 mm ; amplitude contrast: 0.07
# Box size: 512 pixels ; min. res.: 30.0 Angstroms ; max. res.: 5.0 Angstroms ; min. def.: 5000.0 um; max. def. 50000.0 um; num. frames averaged: 1
# 6 lines per micrograph: #1 - spatial frequency (1/Angstroms); #2 - 1D rotational average of spectrum (assuming no astigmatism); #3 - 1D rotational average of spectrum; #4 - CTF fit; #5 - cross-correlation between spectrum and CTF fit; #6 - 2sigma of expected cross correlation of noise
0.000000 0.000651 0.001302 0.001953 0.002604 0.003255 0.003906 0.004557 0.005208 0.005859 0.006510 0.007161 0.007812 0.008464 0.009115 0.009766 0.010417 0.011068 0.011719 0.012370 0.013021 0.013672 0.014323 0.014974 0.015625 0.016276 0.016927 0.017578 0.018229 0.018880 0.019531 0.020182 0.020833 0.021484 0.022135 0.022786 0.023438 0.024089 0.024740 0.025391 0.026042 0.026693 0.027344 0.027995 0.028646 0.029297 0.029948 0.030599 0.031250 0.031901 0.032552 0.033203 0.033854 0.034505 0.035156 0.035807 0.036458 0.037109 0.037760 0.038411 0.039062 0.039714 0.040365 0.041016 0.041667 0.042318 0.042969 0.043620 0.044271 0.044922 0.045573 0.046224 0.046875 0.047526 0.048177 0.048828 0.049479 0.050130 0.050781 0.051432 0.052083 0.052734 0.053385 0.054036 0.054688 0.055339 0.055990 0.056641 0.057292 0.057943 0.058594 0.059245 0.059896 0.060547 0.061198 0.061849 0.062500 0.063151 0.063802 0.064453 0.065104 0.065755 0.066406 0.067057 0.067708 0.068359 0.069010 0.069661 0.070312 0.070964 0.071615 0.072266 0.072917 0.073568 0.074219 0.074870 0.075521 0.076172 0.076823 0.077474 0.078125 0.078776 0.079427 0.080078 0.080729 0.081380 0.082031 0.082682 0.083333 0.083984 0.084635 0.085286 0.085938 0.086589 0.087240 0.087891 0.088542 0.089193 0.089844 0.090495 0.091146 0.091797 0.092448 0.093099 0.093750 0.094401 0.095052 0.095703 0.096354 0.097005 0.097656 0.098307 0.098958 0.099609 0.100260 0.100911 0.101562 0.102214 0.102865 0.103516 0.104167 0.104818 0.105469 0.106120 0.106771 0.107422 0.108073 0.108724 0.109375 0.110026 0.110677 0.111328 0.111979 0.112630 0.113281 0.113932 0.114583 0.115234 0.115885 0.116536 0.117188 0.117839 0.118490 0.119141 0.119792 0.120443 0.121094 0.121745 0.122396 0.123047 0.123698 0.124349 0.125000 0.125651 0.126302 0.126953 0.127604 0.128255 0.128906 0.129557 0.130208 0.130859 0.131510 0.132161 0.132812 0.133464 0.134115 0.134766 0.135417 0.136068 0.136719 0.137370 0.138021 0.138672 0.139323 0.139974 0.140625 0.141276 0.141927 0.142578 0.143229 0.143880 0.144531 0.145182 0.145833 0.146484 0.147135 0.147786 0.148438 0.149089 0.149740 0.150391 0.151042 0.151693 0.152344 0.152995 0.153646 0.154297 0.154948 0.155599 0.156250 0.156901 0.157552 0.158203 0.158854 0.159505 0.160156 0.160807 0.161458 0.162109 0.162760 0.163411 0.164062 0.164714 0.165365 0.166016 0.166667 0.167318 0.167969 0.168620 0.169271 0.169922 0.170573 0.171224 0.171875 0.172526 0.173177 0.173828 0.174479 0.175130 0.175781 0.176432 0.177083 0.177734 0.178385 0.179036 0.179688 0.180339 0.180990 0.181641 0.182292 0.182943 0.183594 0.184245 0.184896 0.185547 0.186198 0.186849 0.187500 0.188151 0.188802 0.189453 0.190104 0.190755 0.191406 0.192057 0.192708 0.193359 0.194010 0.194661 0.195312 0.195964 0.196615 0.197266 0.197917 0.198568 0.199219 0.199870 0.200521 0.201172 0.201823 0.202474 0.203125 0.203776 0.204427 0.205078 0.205729 0.206380 0.207031 0.207682 0.208333 0.208984 0.209635 0.210286 0.210938 0.211589 0.212240 0.212891 0.213542 0.214193 0.214844 0.215495 0.216146 0.216797 0.217448 0.218099 0.218750 0.219401 0.220052 0.220703 0.221354 0.222005 0.222656 0.223307 0.223958 0.224609 0.225260 0.225911 0.226562 0.227214 0.227865 0.228516 0.229167 0.229818 0.230469 0.231120 0.231771 0.232422 0.233073 0.233724 0.234375 0.235026 0.235677
       0.34484        0.34484        0.34484        0.34484        0.34484        0.34484        0.34484        0.34484        0.34484        0.34484        0.34484        0.34484        0.34484        0.34484        0.34484        0.34484        0.34484        0.34484        0.34484        0.34484        0.34484        0.34484        0.34484        0.34484        0.34484        0.34484        0.34484        0.34484        0.34484        0.34484        0.34484        0.34484        0.34484        0.34484        0.34484        0.34484        0.34484        0.34484        0.34484        0.34484        0.34484        0.34484        0.34484        0.34484        0.34484        0.34484        0.34484        0.34484        0.34484        0.34484        0.34484        0.48927        0.70214        0.45834       -0.10765       -0.41205       -0.56859       -0.65694       -0.74088       -0.75722       -0.86980       -0.91339       -0.75960       -0.92514       -0.87105       -1.02479       -1.09570       -0.98788       -0.95835       -0.88342       -0.85609       -0.74821       -0.63914       -0.49758       -0.41962       -0.21884       -0.11744       -0.02476        0.20057        0.24353        0.31078        0.38529        0.43772        0.51483        0.58292        0.60351        0.59380        0.50306        0.54863        0.48537        0.39266        0.32922        0.20739        0.17468        0.09946       -0.05835       -0.11431       -0.08899        0.01370       -0.01692        0.01472        0.02820        0.20694        0.21851        0.39145        0.45906        0.56612        0.70665        0.76798        0.73244        0.70811        0.70369        0.58810        0.54247        0.39897        0.27953        0.19819        0.15023        0.07025        0.02809        0.02490        0.06598        0.08517        0.27881        0.41684        0.50454        0.58911        0.64041        0.70660        0.66179        0.65590        0.67466        0.61078        0.48473        0.28840        0.23751        0.20614        0.13044        0.04520        0.09310        0.11294        0.25237        0.34847        0.41878        0.50666        0.54545        0.66024        0.60560        0.55503        0.50950        0.36527        0.20642        0.21208        0.15751        0.12212        0.12165        0.21362        0.25812        0.36492        0.44510        0.43939        0.56181        0.51479        0.45282        0.45643        0.38517        0.32516        0.27477        0.21457        0.23297        0.21493        0.21217        0.32097        0.45282        0.49119        0.48439        0.55374        0.49981        0.45511        0.40005        0.29473        0.22931        0.23630        0.24352        0.26562        0.27305        0.33258        0.44369        0.50297        0.49429        0.45954        0.41693        0.38939        0.36070        0.25146        0.23013        0.25315        0.29680        0.35721        0.36648        0.39746        0.41207        0.44785        0.37755        0.34826        0.31630        0.31145        0.27002        0.26074        0.31288        0.35014        0.41714        0.41994        0.39647        0.39296        0.40558        0.35012        0.28814        0.29801        0.28413        0.30886        0.35921        0.37111        0.41487        0.36189        0.36320        0.38969        0.34341        0.31004        0.28595        0.29057        0.33879        0.33220        0.32634        0.37585        0.39833        0.33945        0.35589        0.30188        0.30875        0.28921        0.28135        0.30379        0.32927        0.38481        0.36822        0.35019        0.33026        0.28817        0.27779        0.30034        0.28599        0.31608        0.37118        0.39652        0.33669        0.31988        0.31267        0.30142        0.29649        0.28038        0.30783        0.34137        0.33337        0.34780        0.32630        0.35054        0.32854        0.29238        0.31134        0.32121        0.34007        0.33964        0.31795        0.31414        0.30380        0.33346        0.31934        0.33888        0.39401        0.34012        0.36254        0.31884        0.30767        0.28968        0.31117        0.29299        0.31298        0.32599        0.35196        0.36415        0.30977        0.31950        0.31614        0.30204        0.29408        0.29454        0.32722        0.33894        0.35786        0.34062        0.32015        0.26360        0.26056        0.31241        0.35668        0.31542        0.29401        0.28746        0.29644        0.32893        0.31021        0.30333        0.33758        0.33827        0.31515        0.24692        0.28356        0.28997        0.29020        0.33052        0.33190        0.34937        0.34285        0.28597        0.27479        0.30132        0.27170        0.30085        0.27059        0.25353        0.26822        0.26124        0.28432        0.28336        0.28271        0.26805        0.31183        0.32936        0.32363        0.28687        0.29459        0.24224        0.26955        0.24912        0.31504        0.35060        0.23230        0.25558        0.29449        0.24776        0.23648        0.31174        0.24355        0.12668        0.17195        0.21962        0.27497        0.26477        0.16321        0.06597       -0.35960       -0.75096
3.168147 3.128316 3.088743 3.049427 3.010368 2.971568 2.933024 2.894739 2.856711 2.818940 2.781427 2.744172 2.707174 2.670433 2.633950 2.597725 2.561758 2.526048 2.490595 2.455400 2.420463 2.385783 2.351361 2.317196 2.283289 2.249639 2.216247 2.183113 2.150236 2.117616 2.085255 2.053150 2.021304 1.989715 1.958383 1.927309 1.896493 1.865934 1.835633 1.805589 1.775803 1.746274 1.717003 1.687990 1.659234 1.630735 1.602494 1.574511 1.546786 1.519317 1.492107 1.547954 1.734845 1.648984 0.997790 0.706600 0.500686 0.454592 0.343619 0.286177 0.216058 0.034897 0.211017 0.093142 0.003132 -0.050603 -0.189547 -0.144934 -0.080094 -0.086434 -0.087559 0.016361 0.040113 0.238199 0.159110 0.370322 0.450727 0.481851 0.718667 0.705743 0.716625 0.843931 0.826164 0.853742 0.928593 0.904499 0.944345 0.754135 0.839767 0.841624 0.621545 0.609551 0.455053 0.436294 0.375364 0.205055 0.110849 0.091493 0.202067 0.135329 0.189480 0.103121 0.299287 0.277443 0.448387 0.407040 0.575977 0.641432 0.762216 0.691121 0.655590 0.660627 0.524222 0.495928 0.351926 0.285331 0.108066 0.137594 -0.012121 -0.022950 -0.054273 -0.042753 -0.013547 0.023490 0.261693 0.315302 0.371000 0.385342 0.457639 0.482829 0.438835 0.485063 0.375022 0.369823 0.130934 0.043076 0.048570 -0.029877 -0.152857 -0.068597 -0.144011 -0.010971 0.116447 0.136573 0.232359 0.241429 0.361356 0.434412 0.328797 0.363151 0.260187 0.097970 0.020338 0.027581 -0.005997 -0.020072 -0.019219 0.083349 0.107994 0.248403 0.215201 0.281671 0.349614 0.224824 0.232966 0.202615 0.115369 0.068116 0.033810 0.007311 0.026382 -0.029591 0.014955 0.171554 0.214814 0.243519 0.269003 0.244593 0.243637 0.157531 0.115300 -0.015857 -0.003649 -0.000016 0.025716 0.013867 0.041617 0.117860 0.198815 0.221661 0.219955 0.133146 0.144821 0.078979 0.056258 -0.058887 -0.012447 -0.001091 0.053745 0.065440 0.080802 0.149545 0.087008 0.174093 0.064715 0.048858 0.046246 0.027916 0.001469 0.007262 0.050300 0.086512 0.130077 0.134854 0.067721 0.125167 0.095675 0.010600 0.008667 0.006294 -0.005280 0.048893 0.057926 0.098104 0.093391 0.069572 0.062866 0.079231 0.027076 0.007872 -0.007576 0.001042 0.057353 0.026148 0.033820 0.080365 0.084981 0.058075 0.032540 0.009448 0.010004 -0.007796 -0.016057 0.011252 0.048431 0.102879 0.059003 0.060983 0.034802 -0.014216 -0.002786 0.016871 0.010608 0.023748 0.104592 0.058531 0.012806 0.044679 0.000786 0.026049 -0.005433 -0.007652 0.029019 0.055411 0.033700 0.041276 0.029204 0.053795 0.024068 -0.007415 0.017848 0.037370 0.037405 0.032129 0.021730 -0.005953 -0.008453 0.026219 0.011378 0.043950 0.074581 0.043250 0.025022 0.007419 -0.006345 -0.004753 0.006225 0.001424 0.009731 0.005816 0.077140 0.047583 0.021148 0.032610 0.003995 0.011270 0.004146 -0.005671 0.044221 0.059273 0.081822 0.051843 0.041770 -0.026298 0.003095 0.027649 0.083021 0.021467 0.032833 -0.000047 0.013272 0.045654 0.044440 0.024159 0.068619 0.061222 0.050298 -0.026437 0.008954 0.046194 0.013562 0.045419 0.069010 0.075976 0.062446 0.008094 0.005027 0.011335 -0.009522 0.022405 -0.032330 -0.025489 -0.023992 -0.039539 -0.007443 -0.015336 0.000945 -0.083843 -0.010810 0.004636 0.000057 -0.052850 0.000705 -0.105535 -0.038992 -0.051915 0.000939 0.062010 -0.112088 -0.032877 0.039419 -0.006630 -0.058000 0.046532 0.025638 -0.055632 -0.045793 0.029142 0.246780 0.245497 0.117728 0.060700 -0.664817
0.072396 0.073046 0.074994 0.078241 0.082785 0.088625 0.095759 0.104183 0.113894 0.124887 0.137154 0.150689 0.165480 0.181515 0.198779 0.217252 0.236914 0.257739 0.279695 0.302747 0.326855 0.351971 0.378043 0.405010 0.432803 0.461347 0.490557 0.520338 0.550587 0.581190 0.612023 0.642951 0.673827 0.704493 0.734782 0.764512 0.793492 0.821518 0.848379 0.873849 0.897698 0.919682 0.939554 0.957060 0.971941 0.983936 0.992783 0.998222 0.999997 0.997862 0.991578 0.980920 0.965682 0.945678 0.920745 0.890751 0.855597 0.815219 0.769597 0.718755 0.662766 0.601758 0.535917 0.465485 0.390771 0.312148 0.230056 0.145001 0.057559 0.031630 0.121861 0.212366 0.302323 0.390860 0.477058 0.559967 0.638610 0.711996 0.779136 0.839052 0.890795 0.933463 0.966213 0.988284 0.999012 0.997849 0.984381 0.958344 0.919644 0.868365 0.804787 0.729392 0.642877 0.546149 0.440333 0.326763 0.206975 0.082689 0.044203 0.171666 0.297551 0.419627 0.535623 0.643268 0.740339 0.824712 0.894412 0.947664 0.982949 0.999050 0.995101 0.970629 0.925592 0.860402 0.775948 0.673602 0.555218 0.423110 0.280028 0.129108 0.026186 0.182126 0.334817 0.480282 0.614571 0.733878 0.834643 0.913685 0.968301 0.996383 0.996507 0.968018 0.911089 0.826762 0.716962 0.584480 0.432930 0.266673 0.090711 0.089451 0.267964 0.438824 0.596075 0.734018 0.847437 0.931807 0.983500 0.999960 0.979859 0.923198 0.831380 0.707214 0.554873 0.379789 0.188490 0.011623 0.212539 0.405956 0.583620 0.737687 0.861084 0.947863 0.993512 0.995232 0.952130 0.865354 0.738122 0.575654 0.385015 0.174836 0.045031 0.263968 0.471088 0.655782 0.808273 0.920169 0.984955 0.998420 0.958977 0.867851 0.729130 0.549641 0.338685 0.107590 0.130847 0.363057 0.575466 0.755295 0.891360 0.974811 0.999760 0.963758 0.868072 0.717746 0.521419 0.290894 0.040498 0.213782 0.455294 0.667810 0.836643 0.949705 0.998430 0.978501 0.890294 0.739019 0.534517 0.290696 0.024669 0.244413 0.496708 0.713158 0.876954 0.974903 0.998565 0.945070 0.817527 0.624975 0.381842 0.106973 0.177787 0.449275 0.684904 0.864570 0.972427 0.998373 0.939105 0.798612 0.588055 0.325002 0.032066 0.264966 0.539393 0.765978 0.923348 0.996075 0.976305 0.864730 0.670774 0.411948 0.112387 0.199298 0.492720 0.738666 0.912053 0.994591 0.976821 0.859345 0.653046 0.378256 0.062881 0.260338 0.557167 0.795523 0.949007 0.999942 0.941553 0.779020 0.529228 0.219181 0.116774 0.440686 0.715252 0.908177 0.996072 0.967443 0.824373 0.582629 0.270124 0.076144 0.414380 0.702999 0.905796 0.996591 0.962788 0.807311 0.548627 0.218777 0.140435 0.482641 0.762869 0.943522 0.999580 0.922241 0.720522 0.420482 0.062053 0.306101 0.633125 0.873026 0.991257 0.969877 0.810512 0.534593 0.180722 0.200517 0.553696 0.826582 0.977974 0.984103 0.842623 0.573451 0.216263 0.175134 0.540785 0.823756 0.979091 0.981168 0.828192 0.543023 0.170054 0.231444 0.596643 0.865610 0.993271 0.957212 0.761907 0.438556 0.040413 0.365758 0.710786 0.934939 0.998429 0.888766 0.623543 0.247968 0.172538 0.563568 0.854864 0.993092 0.951851 0.737063 0.386573 0.036185 0.453424 0.787234 0.974239 0.977855 0.795808 0.461261 0.037185 0.395238 0.752044 0.962829 0.984913 0.812329 0.477756 0.046742 0.394832 0.757734 0.967482 0.979900 0.790795 0.437624 0.007502 0.452230 0.803011 0.984884 0.957793 0.725838 0.337239 0.125269 0.561732
1.000000 1.000000 1.000000 1.000000 1.000000 1.000000 1.000000 1.000000 1.000000 1.000000 1.000000 1.000000 1.000000 1.000000 1.000000 1.000000 1.000000 1.000000 1.000000 1.000000 1.000000 1.000000 1.000000 1.000000 1.000000 1.000000 1.000000 1.000000 1.000000 1.000000 1.000000 1.000000 1.000000 1.000000 1.000000 1.000000 1.000000 1.000000 1.000000 1.000000 1.000000 1.000000 1.000000 1.000000 1.000000 1.000000 1.000000 1.000000 1.000000 1.000000 1.000000 1.000000 0.942123 0.942123 0.942123 0.942123 0.942123 0.942123 0.942123 0.942123 0.942123 0.942123 0.942123 0.942123 0.942123 0.942123 0.942123 0.942123 0.942123 0.942123 0.942123 0.942123 0.942123 0.942123 0.942123 0.942123 0.942123 0.942123 0.942123 0.942123 0.942123 0.942123 0.942123 0.942123 0.942123 0.923802 0.925259 0.928205 0.929270 0.929233 0.928781 0.928464 0.928672 0.929567 0.931867 0.948470 0.949937 0.950629 0.951938 0.951451 0.954167 0.952905 0.955804 0.964560 0.963444 0.963884 0.964447 0.965973 0.966352 0.966332 0.964901 0.965210 0.964780 0.963891 0.963000 0.962678 0.962377 0.964024 0.964380 0.964325 0.965652 0.965559 0.965253 0.961722 0.960355 0.961682 0.963445 0.962985 0.969089 0.969290 0.977917 0.978672 0.977173 0.977066 0.977174 0.977301 0.967992 0.962494 0.957193 0.945497 0.936546 0.933877 0.936172 0.937091 0.935811 0.931389 0.930503 0.928532 0.924350 0.923645 0.923937 0.925304 0.921816 0.918376 0.901161 0.900497 0.902858 0.902124 0.899951 0.892749 0.889126 0.890552 0.893438 0.896609 0.893918 0.896245 0.891447 0.892447 0.892910 0.894831 0.897973 0.893849 0.892150 0.888401 0.884886 0.880099 0.881230 0.867523 0.870653 0.861991 0.850248 0.842494 0.845730 0.855605 0.864096 0.872185 0.871059 0.871592 0.870734 0.863533 0.864730 0.854173 0.855279 0.860303 0.866432 0.863438 0.860458 0.865227 0.863288 0.865331 0.867124 0.863729 0.861654 0.851795 0.851409 0.854940 0.871334 0.872991 0.861467 0.854910 0.841922 0.848027 0.851140 0.850748 0.852437 0.844559 0.845547 0.836965 0.826168 0.827277 0.832360 0.827150 0.830748 0.830220 0.834549 0.835129 0.834004 0.828057 0.826684 0.832570 0.799523 0.808365 0.811320 0.807202 0.810842 0.802939 0.796139 0.793040 0.790312 0.786559 0.795699 0.793912 0.761949 0.753622 0.761009 0.751643 0.742421 0.739641 0.740585 0.714844 0.693843 0.659127 0.654728 0.641637 0.636206 0.636996 0.620788 0.596904 0.584065 0.574788 0.591363 0.593182 0.580774 0.580851 0.573746 0.567846 0.561155 0.560344 0.557448 0.560399 0.564761 0.532778 0.526964 0.533629 0.504922 0.505207 0.506705 0.494766 0.470143 0.475654 0.472331 0.497874 0.500514 0.469230 0.463742 0.475113 0.493449 0.506101 0.506105 0.492775 0.476449 0.481067 0.460401 0.434405 0.449902 0.464157 0.454867 0.465593 0.458342 0.483886 0.477167 0.462000 0.489519 0.482141 0.478231 0.486655 0.504028 0.499969 0.501544 0.492670 0.449698 0.467021 0.451966 0.377005 0.371102 0.370562 0.355387 0.353592 0.332018 0.332297 0.310301 0.285469 0.288923 0.280367 0.246548 0.209972 0.217335 0.219405 0.189202 0.161765 0.176762 0.131277 0.124450 0.141114 0.144380 0.153011 0.142805 0.167692 0.167692 0.167692 0.167692 0.167692 0.167692 0.167692 0.167692 0.167692 0.167692 0.167692 0.167692 0.167692 0.167692 0.193719 0.193719 0.193719 0.193719 0.193719 0.193719 0.193719 0.193719 0.193719 0.193719 0.193719 0.193719
0.000000 0.000000 0.000000 0.000000 0.000000 0.000000 0.000000 0.000000 0.000000 0.000000 0.000000 0.000000 0.000000 0.000000 0.000000 0.000000 0.000000 0.000000 0.000000 0.000000 0.000000 0.000000 0.000000 0.000000 0.000000 0.000000 0.000000 0.000000 0.000000 0.000000 0.000000 0.000000 0.000000 0.000000 0.000000 0.000000 0.000000 0.000000 0.000000 0.000000 0.000000 0.000000 0.000000 0.000000 0.000000 0.000000 0.000000 0.000000 0.000000 0.000000 0.000000 0.000000 0.209657 0.209657 0.209657 0.209657 0.209657 0.209657 0.209657 0.209657 0.209657 0.209657 0.209657 0.209657 0.209657 0.209657 0.209657 0.209657 0.209657 0.209657 0.209657 0.209657 0.209657 0.209657 0.209657 0.209657 0.209657 0.209657 0.209657 0.209657 0.209657 0.209657 0.209657 0.209657 0.209657 0.244339 0.244339 0.244339 0.244339 0.244339 0.244339 0.244339 0.244339 0.244339 0.244339 0.244339 0.244339 0.244339 0.244339 0.244339 0.244339 0.244339 0.244339 0.244339 0.244339 0.244339 0.244339 0.244339 0.244339 0.244339 0.260378 0.260378 0.260378 0.260378 0.260378 0.260378 0.260378 0.260378 0.260378 0.260378 0.260378 0.260378 0.260378 0.260378 0.260378 0.260378 0.260378 0.260378 0.260378 0.260378 0.269680 0.269680 0.269680 0.269680 0.269680 0.269680 0.269680 0.269680 0.269680 0.269680 0.269680 0.269680 0.269680 0.269680 0.269680 0.269680 0.269680 0.269680 0.269680 0.269680 0.269680 0.269680 0.269680 0.269680 0.269680 0.269680 0.269680 0.269680 0.269680 0.269680 0.269680 0.269680 0.269680 0.280056 0.280056 0.280056 0.280056 0.280056 0.280056 0.280056 0.280056 0.280056 0.280056 0.280056 0.280056 0.280056 0.280056 0.280056 0.280056 0.280056 0.280056 0.280056 0.280056 0.280056 0.280056 0.280056 0.280056 0.280056 0.280056 0.280056 0.274721 0.274721 0.274721 0.274721 0.274721 0.274721 0.274721 0.274721 0.274721 0.274721 0.274721 0.274721 0.274721 0.285714 0.285714 0.285714 0.285714 0.285714 0.285714 0.285714 0.285714 0.285714 0.285714 0.285714 0.280056 0.280056 0.280056 0.280056 0.280056 0.280056 0.280056 0.280056 0.280056 0.280056 0.280056 0.274721 0.274721 0.274721 0.274721 0.274721 0.274721 0.274721 0.274721 0.274721 0.274721 0.274721 0.280056 0.280056 0.280056 0.280056 0.280056 0.280056 0.280056 0.280056 0.280056 0.280056 0.285714 0.285714 0.285714 0.285714 0.285714 0.285714 0.285714 0.285714 0.285714 0.269680 0.269680 0.269680 0.269680 0.269680 0.269680 0.269680 0.269680 0.269680 0.269680 0.274721 0.274721 0.274721 0.274721 0.274721 0.274721 0.274721 0.274721 0.274721 0.285714 0.285714 0.285714 0.285714 0.285714 0.285714 0.285714 0.285714 0.264906 0.264906 0.264906 0.264906 0.264906 0.264906 0.264906 0.264906 0.264906 0.274721 0.274721 0.274721 0.274721 0.274721 0.274721 0.274721 0.274721 0.269680 0.269680 0.269680 0.269680 0.269680 0.269680 0.269680 0.269680 0.269680 0.269680 0.269680 0.269680 0.269680 0.269680 0.269680 0.269680 0.280056 0.280056 0.280056 0.280056 0.280056 0.280056 0.280056 0.260378 0.260378 0.260378 0.260378 0.260378 0.260378 0.260378 0.260378 0.269680 0.269680 0.269680 0.269680 0.269680 0.269680 0.269680 0.264906 0.264906 0.264906 0.264906 0.264906 0.264906 0.264906 0.264906 0.264906 0.264906 0.264906 0.264906 0.264906 0.264906 0.260378 0.260378 0.260378 0.260378 0.260378 0.260378 0.260378 0.260378 0.260378 0.260378 0.260378 0.260378
