# Output from CTFFind version 4.1.9, run on 2019-11-03 19:01:40
# Input file: stack11_bm3d_averaged_1_3.25_0_750_half.mrc ; Number of micrographs: 1
# Pixel size: 3.000 Angstroms ; acceleration voltage: 300.0 keV ; spherical aberration: 0.00 mm ; amplitude contrast: 0.07
# Box size: 512 pixels ; min. res.: 30.0 Angstroms ; max. res.: 5.0 Angstroms ; min. def.: 5000.0 um; max. def. 50000.0 um; num. frames averaged: 1
# 6 lines per micrograph: #1 - spatial frequency (1/Angstroms); #2 - 1D rotational average of spectrum (assuming no astigmatism); #3 - 1D rotational average of spectrum; #4 - CTF fit; #5 - cross-correlation between spectrum and CTF fit; #6 - 2sigma of expected cross correlation of noise
0.000000 0.000651 0.001302 0.001953 0.002604 0.003255 0.003906 0.004557 0.005208 0.005859 0.006510 0.007161 0.007812 0.008464 0.009115 0.009766 0.010417 0.011068 0.011719 0.012370 0.013021 0.013672 0.014323 0.014974 0.015625 0.016276 0.016927 0.017578 0.018229 0.018880 0.019531 0.020182 0.020833 0.021484 0.022135 0.022786 0.023438 0.024089 0.024740 0.025391 0.026042 0.026693 0.027344 0.027995 0.028646 0.029297 0.029948 0.030599 0.031250 0.031901 0.032552 0.033203 0.033854 0.034505 0.035156 0.035807 0.036458 0.037109 0.037760 0.038411 0.039062 0.039714 0.040365 0.041016 0.041667 0.042318 0.042969 0.043620 0.044271 0.044922 0.045573 0.046224 0.046875 0.047526 0.048177 0.048828 0.049479 0.050130 0.050781 0.051432 0.052083 0.052734 0.053385 0.054036 0.054688 0.055339 0.055990 0.056641 0.057292 0.057943 0.058594 0.059245 0.059896 0.060547 0.061198 0.061849 0.062500 0.063151 0.063802 0.064453 0.065104 0.065755 0.066406 0.067057 0.067708 0.068359 0.069010 0.069661 0.070312 0.070964 0.071615 0.072266 0.072917 0.073568 0.074219 0.074870 0.075521 0.076172 0.076823 0.077474 0.078125 0.078776 0.079427 0.080078 0.080729 0.081380 0.082031 0.082682 0.083333 0.083984 0.084635 0.085286 0.085938 0.086589 0.087240 0.087891 0.088542 0.089193 0.089844 0.090495 0.091146 0.091797 0.092448 0.093099 0.093750 0.094401 0.095052 0.095703 0.096354 0.097005 0.097656 0.098307 0.098958 0.099609 0.100260 0.100911 0.101562 0.102214 0.102865 0.103516 0.104167 0.104818 0.105469 0.106120 0.106771 0.107422 0.108073 0.108724 0.109375 0.110026 0.110677 0.111328 0.111979 0.112630 0.113281 0.113932 0.114583 0.115234 0.115885 0.116536 0.117188 0.117839 0.118490 0.119141 0.119792 0.120443 0.121094 0.121745 0.122396 0.123047 0.123698 0.124349 0.125000 0.125651 0.126302 0.126953 0.127604 0.128255 0.128906 0.129557 0.130208 0.130859 0.131510 0.132161 0.132812 0.133464 0.134115 0.134766 0.135417 0.136068 0.136719 0.137370 0.138021 0.138672 0.139323 0.139974 0.140625 0.141276 0.141927 0.142578 0.143229 0.143880 0.144531 0.145182 0.145833 0.146484 0.147135 0.147786 0.148438 0.149089 0.149740 0.150391 0.151042 0.151693 0.152344 0.152995 0.153646 0.154297 0.154948 0.155599 0.156250 0.156901 0.157552 0.158203 0.158854 0.159505 0.160156 0.160807 0.161458 0.162109 0.162760 0.163411 0.164062 0.164714 0.165365 0.166016 0.166667 0.167318 0.167969 0.168620 0.169271 0.169922 0.170573 0.171224 0.171875 0.172526 0.173177 0.173828 0.174479 0.175130 0.175781 0.176432 0.177083 0.177734 0.178385 0.179036 0.179688 0.180339 0.180990 0.181641 0.182292 0.182943 0.183594 0.184245 0.184896 0.185547 0.186198 0.186849 0.187500 0.188151 0.188802 0.189453 0.190104 0.190755 0.191406 0.192057 0.192708 0.193359 0.194010 0.194661 0.195312 0.195964 0.196615 0.197266 0.197917 0.198568 0.199219 0.199870 0.200521 0.201172 0.201823 0.202474 0.203125 0.203776 0.204427 0.205078 0.205729 0.206380 0.207031 0.207682 0.208333 0.208984 0.209635 0.210286 0.210938 0.211589 0.212240 0.212891 0.213542 0.214193 0.214844 0.215495 0.216146 0.216797 0.217448 0.218099 0.218750 0.219401 0.220052 0.220703 0.221354 0.222005 0.222656 0.223307 0.223958 0.224609 0.225260 0.225911 0.226562 0.227214 0.227865 0.228516 0.229167 0.229818 0.230469 0.231120 0.231771 0.232422 0.233073 0.233724 0.234375 0.235026 0.235677
       0.32444        0.32444        0.32444        0.32444        0.32444        0.32444        0.32444        0.32444        0.32444        0.32444        0.32444        0.32444        0.32444        0.32444        0.32444        0.32444        0.32444        0.32444        0.32444        0.32444        0.32444        0.32444        0.32444        0.32444        0.32444        0.32444        0.32444        0.32444        0.32444        0.32444        0.32444        0.32444        0.32444        0.32444        0.32444        0.32444        0.32444        0.32444        0.32444        0.32444        0.32444        0.32444        0.32444        0.32444        0.32444        0.32444        0.32444        0.32444        0.32444        0.32444        0.32444        0.68496        0.86126        0.52700        0.09727       -0.04775       -0.41481       -0.19461       -0.29521       -0.11422       -0.06593       -0.11444       -0.06202       -0.19377       -0.22205       -0.24062       -0.32353       -0.33302       -0.46882       -0.37504       -0.44886       -0.44073       -0.41354       -0.44757       -0.50243       -0.54126       -0.57509       -0.59568       -0.56040       -0.39192       -0.36528       -0.32009       -0.29962       -0.20106       -0.19379        0.03253        0.10348        0.13448        0.24013        0.37305        0.44695        0.51134        0.56871        0.56698        0.56712        0.69029        0.80474        0.72018        0.73282        0.64203        0.56693        0.48225        0.41518        0.50086        0.38589        0.22810        0.08865        0.06839        0.04298       -0.04905       -0.00875        0.01208       -0.04018        0.00096       -0.00780        0.22677        0.25798        0.28705        0.42277        0.44738        0.40587        0.56106        0.62424        0.67014        0.74182        0.68288        0.64880        0.67919        0.56814        0.47756        0.41603        0.29275        0.22080        0.16140        0.11692        0.04794        0.02470        0.02427        0.07981        0.13321        0.21715        0.27226        0.39668        0.43863        0.48933        0.59191        0.62040        0.63233        0.61995        0.55723        0.45038        0.45887        0.36221        0.23988        0.18871        0.15011        0.13814        0.13560        0.10946        0.13674        0.26824        0.28240        0.36312        0.39318        0.43619        0.50658        0.54322        0.54772        0.47844        0.44406        0.39165        0.34678        0.31012        0.27038        0.21900        0.21293        0.19407        0.21604        0.19802        0.28907        0.34704        0.37572        0.43419        0.45351        0.47435        0.41939        0.39006        0.40652        0.36342        0.28386        0.26187        0.22975        0.23354        0.20569        0.24604        0.24848        0.33114        0.36925        0.38789        0.47255        0.42591        0.43093        0.43215        0.40093        0.34305        0.31745        0.28556        0.28209        0.25321        0.28624        0.28622        0.31114        0.31532        0.33361        0.31968        0.40309        0.41672        0.37961        0.34583        0.36855        0.28985        0.28370        0.26947        0.29607        0.27754        0.29094        0.30567        0.32022        0.34031        0.36423        0.36946        0.36848        0.36234        0.30746        0.32572        0.28070        0.25424        0.30758        0.30014        0.31318        0.31280        0.31959        0.34620        0.32306        0.32134        0.29904        0.31159        0.28040        0.29254        0.26372        0.29207        0.29777        0.28687        0.30817        0.32461        0.33176        0.27148        0.30702        0.27659        0.28665        0.26726        0.22651        0.28317        0.28670        0.34014        0.31701        0.31764        0.31706        0.32320        0.28414        0.32021        0.32809        0.27773        0.26658        0.31031        0.29444        0.34152        0.32889        0.33049        0.32979        0.29139        0.27373        0.29422        0.24727        0.22079        0.29857        0.31406        0.31037        0.29992        0.31571        0.28896        0.33936        0.33209        0.25996        0.23629        0.29304        0.30459        0.28595        0.31134        0.33132        0.33288        0.30803        0.29862        0.33402        0.30881        0.27686        0.25934        0.30974        0.34995        0.38206        0.29479        0.27285        0.26983        0.30069        0.24291        0.28612        0.26112        0.24843        0.31927        0.32876        0.33978        0.31680        0.26975        0.25691        0.26331        0.24973        0.23057        0.23684        0.31536        0.29248        0.21900        0.32707        0.32393        0.25584        0.25949        0.19965        0.19280        0.24626        0.19057        0.22969        0.24785        0.22282        0.19653        0.27511        0.34853        0.33252        0.34020        0.24199        0.19858        0.17474        0.23477        0.24187        0.14509        0.18420        0.24256        0.17835        0.19427        0.14788        0.10711        0.17310        0.05538       -0.10150       -0.59052
2.660350 2.632376 2.604555 2.576886 2.549369 2.522004 2.494792 2.467732 2.440824 2.414069 2.387466 2.361015 2.334716 2.308570 2.282575 2.256734 2.231044 2.205507 2.180122 2.154889 2.129808 2.104880 2.080104 2.055480 2.031009 2.006690 1.982523 1.958508 1.934645 1.910935 1.887377 1.863972 1.840719 1.817617 1.794669 1.771872 1.749228 1.726736 1.704396 1.682209 1.660174 1.638291 1.616560 1.594982 1.573556 1.552282 1.531160 1.510191 1.489374 1.468709 1.448196 1.665359 2.081592 1.648627 1.155848 1.017184 0.428196 0.831300 0.559547 0.843368 0.790830 0.806534 0.755135 0.724988 0.580017 0.536584 0.490135 0.435235 0.228024 0.376305 0.205737 0.317144 0.230424 0.191717 0.155239 0.023210 0.030774 0.002184 -0.062272 0.118505 0.214925 0.188313 0.162504 0.335172 0.189959 0.500755 0.602964 0.588659 0.616222 0.875584 0.823358 0.938757 0.900255 0.996354 0.960712 1.078211 1.142534 1.053526 1.144432 0.928108 0.930477 0.789581 0.653465 0.785744 0.709542 0.472595 0.319038 0.248020 0.242709 0.144655 0.106304 0.145897 0.093941 0.136888 0.061295 0.260748 0.374042 0.350202 0.474987 0.557180 0.440533 0.574143 0.712165 0.713030 0.765358 0.713090 0.727992 0.684487 0.612687 0.538520 0.404459 0.281006 0.221079 0.081067 0.124463 -0.060068 -0.041578 -0.067302 -0.054861 -0.018859 0.149116 0.069400 0.264618 0.297682 0.346383 0.432237 0.515431 0.492535 0.508299 0.502495 0.323304 0.305493 0.282129 0.092042 0.046482 -0.040714 -0.016764 -0.047039 -0.082242 -0.095212 0.024441 0.066840 0.123530 0.180169 0.229908 0.289842 0.316064 0.410745 0.391088 0.282624 0.237871 0.219234 0.168865 0.122204 0.100487 0.006842 0.011356 0.037349 -0.010047 0.068934 0.152655 0.139442 0.244768 0.249542 0.296292 0.206151 0.219158 0.151077 0.205081 0.112455 0.042984 0.003086 -0.004777 -0.008669 -0.041048 0.037359 0.020282 0.140549 0.146057 0.177152 0.228242 0.182633 0.170863 0.190808 0.142434 0.076757 0.032901 0.061812 0.001285 -0.002887 0.026532 0.053239 0.063160 0.059994 0.069777 0.110647 0.128784 0.179339 0.075773 0.080879 0.066102 0.010438 -0.010826 0.010758 0.012713 0.011426 0.011210 0.032918 0.059699 0.063527 0.135286 0.060164 0.127085 0.063425 0.021791 0.052070 -0.030702 -0.005475 0.047506 0.003650 0.050739 0.048918 0.030552 0.088885 0.055057 0.024988 0.042597 0.012284 0.021459 0.010126 -0.012006 0.050218 0.000874 0.019821 0.060240 0.062091 0.043644 0.042800 0.038943 0.035012 0.023070 -0.010498 -0.018037 0.034993 0.059220 0.095996 0.074341 0.074229 0.082134 0.094269 0.043370 0.104148 0.102503 0.021683 0.041957 0.083544 0.074207 0.104673 0.114672 0.064868 0.138699 0.074426 0.028704 0.086911 -0.012628 0.013234 0.092948 0.084459 0.089654 0.068886 0.069318 0.034992 0.126399 0.077690 -0.010489 -0.027300 0.051539 0.080271 0.033161 0.038255 0.094555 0.095026 0.027276 0.059708 0.079572 0.054192 0.028484 -0.029725 0.074259 0.109817 0.115389 -0.007815 -0.005363 -0.016343 0.052206 -0.064924 0.027411 -0.031271 -0.030786 0.038737 0.074908 0.011879 0.010761 -0.041360 -0.032416 -0.062631 -0.022569 -0.074265 -0.073231 0.032257 0.079607 -0.092075 0.066358 0.015701 -0.051931 0.024148 -0.105714 -0.075203 -0.034003 -0.074831 -0.017891 -0.014171 0.005947 -0.086727 0.044323 0.190115 0.008092 0.168292 0.021710 0.212357 0.168339 0.259984 0.275243 0.141912 0.187463 0.290996 0.150281 0.216196 0.138808 0.145200 0.259367 0.056115 -0.627408
0.072396 0.072899 0.074406 0.076917 0.080433 0.084951 0.090472 0.096992 0.104510 0.113023 0.122528 0.133021 0.144496 0.156946 0.170365 0.184742 0.200067 0.216327 0.233507 0.251590 0.270555 0.290381 0.311040 0.332504 0.354739 0.377708 0.401370 0.425679 0.450584 0.476030 0.501955 0.528292 0.554969 0.581907 0.609020 0.636217 0.663400 0.690463 0.717295 0.743777 0.769783 0.795181 0.819833 0.843594 0.866311 0.887829 0.907985 0.926612 0.943540 0.958595 0.971600 0.982377 0.990749 0.996538 0.999570 0.999673 0.996680 0.990434 0.980782 0.967586 0.950717 0.930063 0.905526 0.877031 0.844520 0.807959 0.767342 0.722688 0.674047 0.621500 0.565164 0.505188 0.441760 0.375107 0.305494 0.233226 0.158651 0.082154 0.004161 0.074862 0.154412 0.233952 0.312910 0.390688 0.466659 0.540177 0.610580 0.677197 0.739352 0.796373 0.847603 0.892399 0.930152 0.960286 0.982274 0.995646 0.999996 0.994994 0.980396 0.956050 0.921904 0.878020 0.824570 0.761853 0.690288 0.610425 0.522944 0.428648 0.328471 0.223463 0.114785 0.003704 0.108424 0.220169 0.330039 0.436504 0.538016 0.633030 0.720032 0.797563 0.864244 0.918810 0.960132 0.987244 0.999371 0.995955 0.976672 0.941454 0.890506 0.824312 0.743646 0.649572 0.543439 0.426869 0.301742 0.170172 0.034474 0.102868 0.239245 0.371973 0.498344 0.615680 0.721396 0.813062 0.888459 0.945644 0.983004 0.999315 0.993780 0.966078 0.916385 0.845403 0.754358 0.645000 0.519584 0.380833 0.231892 0.076267 0.082255 0.239689 0.391949 0.534961 0.664767 0.777643 0.870217 0.939575 0.983364 0.999889 0.988187 0.948086 0.880247 0.786175 0.668210 0.529488 0.373879 0.205886 0.030539 0.146757 0.320378 0.484662 0.634092 0.763487 0.868201 0.944294 0.988701 0.999373 0.975387 0.917027 0.825814 0.704502 0.557017 0.388360 0.204452 0.011951 0.181990 0.369972 0.544636 0.698958 0.826539 0.921890 0.980685 0.999987 0.978409 0.916240 0.815478 0.679814 0.514530 0.326313 0.123019 0.086633 0.293441 0.488102 0.661645 0.805854 0.913672 0.979577 0.999892 0.973021 0.899595 0.782512 0.626872 0.439792 0.230113 0.008014 0.215470 0.428986 0.621433 0.782569 0.903557 0.977492 0.999826 0.968688 0.885070 0.752855 0.578694 0.371715 0.143083 0.094568 0.327828 0.543251 0.728146 0.871341 0.963892 0.999682 0.975870 0.893160 0.755862 0.571727 0.351563 0.108648 0.142040 0.384729 0.603842 0.785014 0.916056 0.987819 0.994885 0.936029 0.814418 0.637519 0.416702 0.166568 0.095981 0.352845 0.585990 0.778703 0.916844 0.989909 0.991903 0.921890 0.784193 0.588217 0.347872 0.080658 0.193590 0.454128 0.680888 0.856041 0.965449 0.999856 0.955756 0.835808 0.648778 0.408987 0.135287 0.150373 0.424672 0.664830 0.850500 0.965567 0.999594 0.948857 0.816831 0.614054 0.357390 0.068692 0.226988 0.503568 0.736223 0.903652 0.990102 0.986913 0.893491 0.717549 0.474577 0.186587 0.119832 0.415904 0.673370 0.867218 0.978162 0.994651 0.914177 0.743715 0.499258 0.204415 0.111782 0.417694 0.682226 0.878018 0.984345 0.989398 0.891717 0.700565 0.435187 0.122984 0.203235 0.508661 0.760187 0.930062 0.999022 0.958594 0.812265 0.575332 0.273464 0.059996 0.387638 0.672148 0.880614 0.988382 0.982102 0.861514 0.639745 0.342035 0.002985 0.337363 0.638251 0.863082 0.983963 0.985278 0.865855 0.639392 0.333067 0.015608 0.363270 0.666089 0.885300 0.992264 0.972344 0.827060 0.574208 0.245870 0.115552
1.000000 1.000000 1.000000 1.000000 1.000000 1.000000 1.000000 1.000000 1.000000 1.000000 1.000000 1.000000 1.000000 1.000000 1.000000 1.000000 1.000000 1.000000 1.000000 1.000000 1.000000 1.000000 1.000000 1.000000 1.000000 1.000000 1.000000 1.000000 1.000000 1.000000 1.000000 1.000000 1.000000 1.000000 1.000000 1.000000 1.000000 1.000000 1.000000 1.000000 1.000000 1.000000 1.000000 1.000000 1.000000 1.000000 1.000000 1.000000 1.000000 1.000000 1.000000 1.000000 0.919563 0.919563 0.919563 0.914588 0.914588 0.914588 0.914588 0.914588 0.914588 0.914588 0.914588 0.914588 0.914588 0.914588 0.914588 0.914588 0.914588 0.914588 0.914588 0.914588 0.914588 0.914588 0.914588 0.914588 0.914588 0.914588 0.914588 0.914588 0.914588 0.914588 0.914588 0.914588 0.914588 0.914588 0.914588 0.914588 0.914588 0.914588 0.914588 0.914588 0.914588 0.914588 0.914588 0.914588 0.942334 0.943788 0.951865 0.951714 0.951152 0.948995 0.947959 0.947489 0.947370 0.947681 0.948368 0.949312 0.958107 0.959299 0.962121 0.962987 0.963707 0.964321 0.964938 0.965539 0.956512 0.955431 0.954124 0.949976 0.952797 0.951989 0.951828 0.952788 0.952639 0.953009 0.953435 0.952668 0.951499 0.950459 0.949455 0.948854 0.948617 0.949366 0.949796 0.951325 0.954704 0.955270 0.955390 0.955545 0.955638 0.956942 0.955704 0.955374 0.951202 0.951455 0.950964 0.948622 0.954667 0.951869 0.952371 0.952943 0.954545 0.954866 0.949418 0.946567 0.936863 0.935745 0.930392 0.922704 0.918850 0.920823 0.923312 0.924614 0.925027 0.919715 0.919873 0.916170 0.911505 0.914611 0.912934 0.912255 0.913810 0.911380 0.907642 0.906715 0.903176 0.893958 0.885369 0.885284 0.889712 0.894684 0.896408 0.895328 0.894327 0.880664 0.860909 0.860424 0.855572 0.860106 0.852961 0.852321 0.852914 0.852645 0.856312 0.854219 0.854241 0.850488 0.838101 0.823845 0.813937 0.813156 0.819477 0.817314 0.810123 0.812216 0.825476 0.813874 0.827753 0.839566 0.831171 0.831969 0.831717 0.827750 0.811168 0.809538 0.811591 0.804952 0.805395 0.805113 0.800843 0.793509 0.799167 0.775827 0.768031 0.760601 0.764898 0.769001 0.766976 0.766538 0.766339 0.771165 0.774760 0.760413 0.748095 0.733558 0.740103 0.748103 0.753010 0.745919 0.725960 0.689449 0.633381 0.652287 0.702581 0.638426 0.661069 0.665238 0.650222 0.648703 0.639906 0.636341 0.617069 0.620650 0.626993 0.636423 0.644379 0.665928 0.657620 0.646129 0.654517 0.640320 0.638572 0.625023 0.628422 0.606319 0.599865 0.626292 0.627727 0.623552 0.635064 0.618548 0.607466 0.629665 0.638218 0.625567 0.621778 0.599013 0.560003 0.564347 0.568590 0.582827 0.608024 0.580775 0.554219 0.547341 0.543602 0.565101 0.550096 0.551974 0.559044 0.557214 0.540253 0.506297 0.509987 0.532772 0.534905 0.526674 0.493039 0.492276 0.498054 0.545382 0.535041 0.490858 0.506905 0.504010 0.505238 0.461392 0.476151 0.450603 0.435976 0.386871 0.379865 0.390612 0.378429 0.348575 0.320493 0.319629 0.323566 0.332703 0.324331 0.305592 0.284027 0.309275 0.315146 0.301297 0.244643 0.231443 0.216758 0.205833 0.209112 0.171417 0.197041 0.256512 0.259050 0.259050 0.259050 0.259050 0.259050 0.259050 0.272272 0.272272 0.272272 0.272272 0.272272 0.272272 0.272272 0.272272 0.272272 0.287331 0.287331 0.287331 0.287331 0.287331 0.287331 0.287331 0.287331 0.287331 0.287331 0.287331 0.287331 0.287331 0.287331
0.000000 0.000000 0.000000 0.000000 0.000000 0.000000 0.000000 0.000000 0.000000 0.000000 0.000000 0.000000 0.000000 0.000000 0.000000 0.000000 0.000000 0.000000 0.000000 0.000000 0.000000 0.000000 0.000000 0.000000 0.000000 0.000000 0.000000 0.000000 0.000000 0.000000 0.000000 0.000000 0.000000 0.000000 0.000000 0.000000 0.000000 0.000000 0.000000 0.000000 0.000000 0.000000 0.000000 0.000000 0.000000 0.000000 0.000000 0.000000 0.000000 0.000000 0.000000 0.000000 0.180334 0.180334 0.180334 0.199007 0.199007 0.199007 0.199007 0.199007 0.199007 0.199007 0.199007 0.199007 0.199007 0.199007 0.199007 0.199007 0.199007 0.199007 0.199007 0.199007 0.199007 0.199007 0.199007 0.199007 0.199007 0.199007 0.199007 0.199007 0.199007 0.199007 0.199007 0.199007 0.199007 0.199007 0.199007 0.199007 0.199007 0.199007 0.199007 0.199007 0.199007 0.199007 0.199007 0.199007 0.225018 0.225018 0.225018 0.225018 0.225018 0.225018 0.225018 0.225018 0.225018 0.225018 0.225018 0.225018 0.225018 0.225018 0.225018 0.225018 0.225018 0.225018 0.225018 0.225018 0.225018 0.225018 0.225018 0.225018 0.225018 0.225018 0.225018 0.225018 0.225018 0.244339 0.244339 0.244339 0.244339 0.244339 0.244339 0.244339 0.244339 0.244339 0.244339 0.244339 0.244339 0.244339 0.244339 0.244339 0.244339 0.244339 0.244339 0.244339 0.244339 0.244339 0.244339 0.244339 0.251976 0.251976 0.251976 0.251976 0.251976 0.251976 0.251976 0.251976 0.251976 0.251976 0.251976 0.251976 0.251976 0.251976 0.251976 0.251976 0.251976 0.251976 0.251976 0.251976 0.264906 0.264906 0.264906 0.264906 0.264906 0.264906 0.264906 0.264906 0.264906 0.264906 0.264906 0.264906 0.264906 0.264906 0.264906 0.264906 0.264906 0.264906 0.264906 0.264906 0.264906 0.264906 0.264906 0.264906 0.264906 0.264906 0.264906 0.264906 0.264906 0.264906 0.264906 0.264906 0.264906 0.264906 0.264906 0.264906 0.264906 0.264906 0.264906 0.264906 0.264906 0.264906 0.264906 0.264906 0.264906 0.264906 0.264906 0.264906 0.264906 0.264906 0.264906 0.264906 0.264906 0.264906 0.264906 0.264906 0.264906 0.264906 0.264906 0.264906 0.264906 0.264906 0.256074 0.256074 0.256074 0.256074 0.256074 0.256074 0.256074 0.256074 0.256074 0.256074 0.256074 0.256074 0.256074 0.256074 0.269680 0.269680 0.269680 0.269680 0.269680 0.269680 0.269680 0.269680 0.269680 0.269680 0.269680 0.269680 0.264906 0.264906 0.264906 0.264906 0.264906 0.264906 0.264906 0.264906 0.264906 0.264906 0.264906 0.264906 0.269680 0.269680 0.269680 0.269680 0.269680 0.269680 0.269680 0.269680 0.269680 0.269680 0.269680 0.264906 0.264906 0.264906 0.264906 0.264906 0.264906 0.264906 0.264906 0.264906 0.264906 0.264906 0.256074 0.256074 0.256074 0.256074 0.256074 0.256074 0.256074 0.256074 0.256074 0.256074 0.256074 0.264906 0.264906 0.264906 0.264906 0.264906 0.264906 0.264906 0.264906 0.264906 0.264906 0.260378 0.260378 0.260378 0.260378 0.260378 0.260378 0.260378 0.260378 0.260378 0.260378 0.256074 0.256074 0.256074 0.256074 0.256074 0.256074 0.256074 0.256074 0.256074 0.256074 0.260378 0.260378 0.260378 0.260378 0.260378 0.260378 0.260378 0.260378 0.260378 0.256074 0.256074 0.256074 0.256074 0.256074 0.256074 0.256074 0.256074 0.256074 0.251976 0.251976 0.251976 0.251976 0.251976 0.251976 0.251976 0.251976 0.251976 0.251976 0.251976 0.251976 0.251976 0.251976
