# Output from CTFFind version 4.1.9, run on 2019-11-03 19:01:40
# Input file: stack11_bm3d_averaged_1_2.75_0_1250_half.mrc ; Number of micrographs: 1
# Pixel size: 3.000 Angstroms ; acceleration voltage: 300.0 keV ; spherical aberration: 0.00 mm ; amplitude contrast: 0.07
# Box size: 512 pixels ; min. res.: 30.0 Angstroms ; max. res.: 5.0 Angstroms ; min. def.: 5000.0 um; max. def. 50000.0 um; num. frames averaged: 1
# 6 lines per micrograph: #1 - spatial frequency (1/Angstroms); #2 - 1D rotational average of spectrum (assuming no astigmatism); #3 - 1D rotational average of spectrum; #4 - CTF fit; #5 - cross-correlation between spectrum and CTF fit; #6 - 2sigma of expected cross correlation of noise
0.000000 0.000651 0.001302 0.001953 0.002604 0.003255 0.003906 0.004557 0.005208 0.005859 0.006510 0.007161 0.007812 0.008464 0.009115 0.009766 0.010417 0.011068 0.011719 0.012370 0.013021 0.013672 0.014323 0.014974 0.015625 0.016276 0.016927 0.017578 0.018229 0.018880 0.019531 0.020182 0.020833 0.021484 0.022135 0.022786 0.023438 0.024089 0.024740 0.025391 0.026042 0.026693 0.027344 0.027995 0.028646 0.029297 0.029948 0.030599 0.031250 0.031901 0.032552 0.033203 0.033854 0.034505 0.035156 0.035807 0.036458 0.037109 0.037760 0.038411 0.039062 0.039714 0.040365 0.041016 0.041667 0.042318 0.042969 0.043620 0.044271 0.044922 0.045573 0.046224 0.046875 0.047526 0.048177 0.048828 0.049479 0.050130 0.050781 0.051432 0.052083 0.052734 0.053385 0.054036 0.054688 0.055339 0.055990 0.056641 0.057292 0.057943 0.058594 0.059245 0.059896 0.060547 0.061198 0.061849 0.062500 0.063151 0.063802 0.064453 0.065104 0.065755 0.066406 0.067057 0.067708 0.068359 0.069010 0.069661 0.070312 0.070964 0.071615 0.072266 0.072917 0.073568 0.074219 0.074870 0.075521 0.076172 0.076823 0.077474 0.078125 0.078776 0.079427 0.080078 0.080729 0.081380 0.082031 0.082682 0.083333 0.083984 0.084635 0.085286 0.085938 0.086589 0.087240 0.087891 0.088542 0.089193 0.089844 0.090495 0.091146 0.091797 0.092448 0.093099 0.093750 0.094401 0.095052 0.095703 0.096354 0.097005 0.097656 0.098307 0.098958 0.099609 0.100260 0.100911 0.101562 0.102214 0.102865 0.103516 0.104167 0.104818 0.105469 0.106120 0.106771 0.107422 0.108073 0.108724 0.109375 0.110026 0.110677 0.111328 0.111979 0.112630 0.113281 0.113932 0.114583 0.115234 0.115885 0.116536 0.117188 0.117839 0.118490 0.119141 0.119792 0.120443 0.121094 0.121745 0.122396 0.123047 0.123698 0.124349 0.125000 0.125651 0.126302 0.126953 0.127604 0.128255 0.128906 0.129557 0.130208 0.130859 0.131510 0.132161 0.132812 0.133464 0.134115 0.134766 0.135417 0.136068 0.136719 0.137370 0.138021 0.138672 0.139323 0.139974 0.140625 0.141276 0.141927 0.142578 0.143229 0.143880 0.144531 0.145182 0.145833 0.146484 0.147135 0.147786 0.148438 0.149089 0.149740 0.150391 0.151042 0.151693 0.152344 0.152995 0.153646 0.154297 0.154948 0.155599 0.156250 0.156901 0.157552 0.158203 0.158854 0.159505 0.160156 0.160807 0.161458 0.162109 0.162760 0.163411 0.164062 0.164714 0.165365 0.166016 0.166667 0.167318 0.167969 0.168620 0.169271 0.169922 0.170573 0.171224 0.171875 0.172526 0.173177 0.173828 0.174479 0.175130 0.175781 0.176432 0.177083 0.177734 0.178385 0.179036 0.179688 0.180339 0.180990 0.181641 0.182292 0.182943 0.183594 0.184245 0.184896 0.185547 0.186198 0.186849 0.187500 0.188151 0.188802 0.189453 0.190104 0.190755 0.191406 0.192057 0.192708 0.193359 0.194010 0.194661 0.195312 0.195964 0.196615 0.197266 0.197917 0.198568 0.199219 0.199870 0.200521 0.201172 0.201823 0.202474 0.203125 0.203776 0.204427 0.205078 0.205729 0.206380 0.207031 0.207682 0.208333 0.208984 0.209635 0.210286 0.210938 0.211589 0.212240 0.212891 0.213542 0.214193 0.214844 0.215495 0.216146 0.216797 0.217448 0.218099 0.218750 0.219401 0.220052 0.220703 0.221354 0.222005 0.222656 0.223307 0.223958 0.224609 0.225260 0.225911 0.226562 0.227214 0.227865 0.228516 0.229167 0.229818 0.230469 0.231120 0.231771 0.232422 0.233073 0.233724 0.234375 0.235026 0.235677
       0.31920        0.31920        0.31920        0.31920        0.31920        0.31920        0.31920        0.31920        0.31920        0.31920        0.31920        0.31920        0.31920        0.31920        0.31920        0.31920        0.31920        0.31920        0.31920        0.31920        0.31920        0.31920        0.31920        0.31920        0.31920        0.31920        0.31920        0.31920        0.31920        0.31920        0.31919        0.31920        0.31919        0.31920        0.31919        0.31920        0.31920        0.31920        0.31920        0.31920        0.31920        0.31920        0.31920        0.31920        0.31920        0.31920        0.31920        0.31919        0.31920        0.31920        0.31920        0.68177        0.86154        0.52437        0.09116       -0.05570       -0.42240       -0.20103       -0.29973       -0.11668       -0.07244       -0.11813       -0.06681       -0.20248       -0.23002       -0.24940       -0.32991       -0.33783       -0.47857       -0.38003       -0.45735       -0.44752       -0.41978       -0.45711       -0.51839       -0.55093       -0.58158       -0.60894       -0.57001       -0.40349       -0.37449       -0.32827       -0.30900       -0.20528       -0.19891        0.02439        0.09067        0.12276        0.23229        0.36845        0.44215        0.51009        0.56177        0.55879        0.56543        0.68976        0.80544        0.72632        0.73183        0.64954        0.56843        0.48201        0.40892        0.49676        0.38158        0.21698        0.08062        0.05612        0.02919       -0.05618       -0.02193       -0.00072       -0.05413       -0.00590       -0.01669        0.22053        0.25411        0.28459        0.42088        0.44880        0.40360        0.54964        0.62198        0.67843        0.74704        0.68509        0.65048        0.68352        0.56999        0.48314        0.41436        0.28960        0.20877        0.15692        0.11063        0.04230        0.01609        0.01233        0.07498        0.12949        0.21152        0.27007        0.39455        0.42882        0.49343        0.59615        0.62483        0.62712        0.62192        0.55274        0.44565        0.45607        0.35538        0.23234        0.18347        0.14551        0.12703        0.13339        0.09574        0.12484        0.25078        0.27057        0.35103        0.37736        0.43946        0.50925        0.53848        0.54392        0.47074        0.43629        0.38572        0.34922        0.30491        0.25960        0.21365        0.20234        0.18050        0.20611        0.18830        0.27991        0.33926        0.37172        0.42882        0.45412        0.47574        0.42355        0.38521        0.40854        0.36560        0.27707        0.25977        0.22280        0.22625        0.19684        0.23125        0.23734        0.32752        0.36869        0.37737        0.46695        0.42733        0.43194        0.42889        0.39639        0.34127        0.31664        0.27990        0.26692        0.24548        0.27689        0.27846        0.30395        0.30783        0.32936        0.32026        0.40267        0.41586        0.37622        0.34502        0.36458        0.28427        0.28180        0.26388        0.28765        0.26683        0.28273        0.29676        0.31364        0.34265        0.36354        0.36788        0.35299        0.35489        0.29694        0.32341        0.27331        0.24625        0.30116        0.29429        0.31096        0.30826        0.32005        0.33581        0.31809        0.31915        0.29200        0.29921        0.27218        0.28751        0.26202        0.29220        0.28873        0.27927        0.30702        0.31559        0.32127        0.27085        0.30334        0.27391        0.27229        0.25740        0.21893        0.27810        0.28152        0.33416        0.30788        0.31303        0.31671        0.31645        0.27888        0.30611        0.32699        0.26758        0.26118        0.30307        0.28649        0.33663        0.32803        0.33415        0.32638        0.29393        0.27631        0.28302        0.24574        0.22359        0.28577        0.30859        0.29970        0.28588        0.30258        0.27967        0.33428        0.32930        0.25563        0.22794        0.28477        0.31168        0.27938        0.30983        0.33289        0.32724        0.30409        0.30626        0.33349        0.30026        0.27735        0.25428        0.29920        0.35045        0.36906        0.27972        0.26557        0.26322        0.29536        0.22996        0.28522        0.25108        0.24961        0.32718        0.32590        0.34150        0.30148        0.25126        0.25048        0.24752        0.24115        0.21695        0.23529        0.30304        0.29247        0.22799        0.31964        0.32181        0.25588        0.25739        0.19531        0.17260        0.23351        0.20255        0.21090        0.22529        0.22538        0.19061        0.25742        0.34808        0.32101        0.33720        0.23482        0.20627        0.18593        0.25291        0.26844        0.15110        0.20912        0.24779        0.13272        0.17131        0.13163        0.11242        0.21285        0.12119       -0.09609       -0.58929
2.595600 2.568607 2.541761 2.515060 2.488504 2.462095 2.435832 2.409714 2.383742 2.357916 2.332235 2.306701 2.281312 2.256069 2.230971 2.206020 2.181214 2.156554 2.132040 2.107672 2.083449 2.059373 2.035442 2.011657 1.988017 1.964524 1.941176 1.917974 1.894918 1.872008 1.849243 1.826624 1.804151 1.781824 1.759642 1.737607 1.715717 1.693973 1.672375 1.650922 1.629615 1.608455 1.587440 1.566570 1.545847 1.525269 1.504837 1.484551 1.464410 1.444416 1.424567 1.643355 2.056821 1.628325 1.135566 0.997312 0.414257 0.816368 0.548087 0.833277 0.775167 0.793119 0.746279 0.711674 0.565462 0.522949 0.480152 0.431536 0.214674 0.372847 0.199788 0.308519 0.226585 0.184630 0.144422 0.013510 0.032200 -0.005933 -0.063338 0.111153 0.208182 0.186981 0.155861 0.335929 0.191264 0.497799 0.594361 0.576561 0.609421 0.875493 0.819371 0.941608 0.896586 0.989838 0.954729 1.080297 1.144578 1.064252 1.144346 0.939315 0.936617 0.793896 0.655713 0.785538 0.714037 0.473417 0.318681 0.251167 0.237999 0.150029 0.105408 0.144335 0.092552 0.146323 0.061553 0.267393 0.383147 0.359489 0.480927 0.570741 0.455185 0.572055 0.712801 0.735535 0.774495 0.727479 0.738988 0.701527 0.623705 0.556756 0.420758 0.288267 0.226420 0.089377 0.132355 -0.045493 -0.032769 -0.062289 -0.042036 -0.006852 0.159243 0.078496 0.289108 0.298793 0.357574 0.453184 0.526902 0.503484 0.533929 0.513099 0.338467 0.321955 0.293564 0.105145 0.059108 -0.019120 -0.011635 -0.029376 -0.069060 -0.084034 0.025763 0.071347 0.135713 0.176241 0.240636 0.318277 0.328577 0.416911 0.403474 0.292671 0.245404 0.236844 0.191268 0.124135 0.105403 0.024164 0.018567 0.036181 -0.000058 0.074765 0.162103 0.148359 0.254423 0.260098 0.316813 0.219807 0.223634 0.165304 0.221237 0.124264 0.046073 0.018953 -0.000890 -0.003259 -0.035606 0.033936 0.022745 0.155099 0.146958 0.181185 0.251507 0.194719 0.182175 0.184954 0.137814 0.076463 0.037705 0.053813 -0.018322 -0.004639 0.016154 0.048985 0.051740 0.059128 0.071218 0.109614 0.135786 0.182952 0.081703 0.086985 0.070404 0.008496 -0.001851 0.012353 0.006779 0.012281 0.010336 0.031448 0.065154 0.084395 0.125363 0.062600 0.119508 0.065547 0.023906 0.061387 -0.030983 -0.002121 0.050408 0.009933 0.059911 0.053650 0.042605 0.087589 0.063884 0.044418 0.047561 0.016605 0.033462 0.019581 0.000731 0.064014 0.003215 0.031878 0.068020 0.066680 0.040236 0.049646 0.046887 0.030584 0.014900 -0.013894 -0.015528 0.034400 0.055813 0.096057 0.064710 0.077789 0.082891 0.082934 0.037567 0.091020 0.097385 0.013764 0.031844 0.076844 0.061566 0.099798 0.085272 0.134889 0.104726 0.068541 0.027443 0.063773 -0.018155 0.009949 0.069348 0.078644 0.059192 0.049161 0.048934 0.012691 0.115899 0.061039 -0.026259 -0.043028 0.035879 0.079912 0.014199 0.026680 0.085590 0.089942 0.027926 0.056068 0.075763 0.040340 0.026547 -0.033866 0.050913 0.112483 0.090300 -0.009553 -0.019980 -0.023901 0.054409 -0.084977 0.038786 -0.044698 -0.020813 0.058331 0.058549 0.030252 -0.005656 -0.051272 -0.035647 -0.074467 -0.031494 -0.083418 -0.070504 0.032130 0.059720 -0.072921 0.067773 0.022241 -0.050325 0.033560 -0.105364 -0.095896 -0.032000 -0.045354 -0.031770 -0.023059 -0.000486 -0.059325 0.027177 0.200017 -0.006869 0.156367 0.023467 0.222581 0.191305 0.287624 0.280337 0.139410 0.211872 0.295199 0.108799 0.182605 0.131331 0.106784 0.309015 0.125800 -0.620421
0.072396 0.072898 0.074405 0.076915 0.080429 0.084945 0.090462 0.096978 0.104493 0.113001 0.122501 0.132988 0.144457 0.156900 0.170312 0.184681 0.199998 0.216250 0.233421 0.251494 0.270450 0.290265 0.310914 0.332367 0.354591 0.377549 0.401200 0.425498 0.450392 0.475827 0.501742 0.528069 0.554736 0.581664 0.608768 0.635958 0.663134 0.690191 0.717019 0.743498 0.769503 0.794902 0.819556 0.843321 0.866046 0.887573 0.907741 0.926384 0.943330 0.958407 0.971437 0.982243 0.990648 0.996474 0.999546 0.999694 0.996750 0.990556 0.980962 0.967827 0.951023 0.930437 0.905973 0.877553 0.845121 0.808642 0.768108 0.723539 0.674983 0.622523 0.566272 0.506380 0.443035 0.376461 0.306924 0.234727 0.160215 0.083774 0.005830 0.073154 0.152677 0.232201 0.311158 0.388947 0.464946 0.538508 0.608972 0.675668 0.737919 0.795057 0.846422 0.891372 0.929296 0.959621 0.981817 0.995412 1.000000 0.995249 0.980912 0.956835 0.922964 0.879356 0.826182 0.763734 0.692432 0.612818 0.525568 0.431484 0.331492 0.226638 0.118082 0.007084 0.105003 0.216750 0.326671 0.433237 0.534901 0.630119 0.717376 0.795213 0.862250 0.917218 0.958982 0.986574 0.999213 0.996331 0.977598 0.942937 0.892542 0.826887 0.746738 0.653144 0.547445 0.431253 0.306435 0.175096 0.039544 0.097745 0.234170 0.367048 0.493675 0.611373 0.717555 0.809784 0.885834 0.943752 0.981914 0.999078 0.994431 0.967633 0.918839 0.848727 0.758503 0.649894 0.525131 0.386919 0.238381 0.083007 0.075428 0.232950 0.385480 0.528940 0.659371 0.773040 0.866559 0.936992 0.981963 0.999746 0.989344 0.950549 0.883981 0.791107 0.674225 0.536435 0.381568 0.214101 0.039032 0.138250 0.312133 0.476955 0.627194 0.757653 0.863657 0.941231 0.987266 0.999661 0.977436 0.920810 0.831243 0.711422 0.565214 0.397563 0.214341 0.022167 0.171829 0.360261 0.535767 0.691304 0.820437 0.917626 0.978480 0.999982 0.980662 0.920710 0.822032 0.688225 0.524476 0.337399 0.134790 0.074690 0.281854 0.477407 0.652350 0.798422 0.908494 0.976949 0.999998 0.975920 0.905212 0.790636 0.637162 0.451784 0.243248 0.021654 0.202010 0.416400 0.610395 0.773691 0.897355 0.974356 0.999991 0.972219 0.891846 0.762574 0.590878 0.385734 0.158188 0.079217 0.313109 0.530028 0.717225 0.863413 0.959490 0.999143 0.979306 0.900444 0.766626 0.585376 0.367306 0.125538 0.125049 0.368718 0.589865 0.774016 0.908815 0.984887 0.996540 0.942252 0.824878 0.651588 0.433486 0.184965 0.077219 0.335028 0.570391 0.766473 0.908922 0.986949 0.994213 0.929398 0.796445 0.604389 0.366830 0.101016 0.173345 0.435550 0.665435 0.844971 0.959707 0.999990 0.961861 0.847503 0.665224 0.428934 0.157173 0.128309 0.404253 0.647781 0.838314 0.959354 0.999985 0.955935 0.830100 0.632471 0.379434 0.092490 0.203516 0.482515 0.719517 0.892878 0.986336 0.990616 0.904447 0.734861 0.496738 0.211592 0.094296 0.392253 0.653905 0.853880 0.972344 0.997042 0.924672 0.761410 0.522510 0.230983 0.084522 0.392490 0.661684 0.864319 0.979007 0.993107 0.904227 0.720697 0.460930 0.151685 0.174610 0.483190 0.740685 0.918745 0.997256 0.966719 0.829527 0.599945 0.302767 0.029243 0.358907 0.648758 0.865333 0.983100 0.987580 0.877269 0.664072 0.372177 0.035441 0.306452 0.612630 0.845932 0.977496 0.990440 0.882175 0.665009 0.364917 0.018574 0.331032 0.639910 0.868600 0.987318 0.979952 0.846413 0.602947 0.280359 0.079776
1.000000 1.000000 1.000000 1.000000 1.000000 1.000000 1.000000 1.000000 1.000000 1.000000 1.000000 1.000000 1.000000 1.000000 1.000000 1.000000 1.000000 1.000000 1.000000 1.000000 1.000000 1.000000 1.000000 1.000000 1.000000 1.000000 1.000000 1.000000 1.000000 1.000000 1.000000 1.000000 1.000000 1.000000 1.000000 1.000000 1.000000 1.000000 1.000000 1.000000 1.000000 1.000000 1.000000 1.000000 1.000000 1.000000 1.000000 1.000000 1.000000 1.000000 1.000000 1.000000 0.927977 0.927977 0.927977 0.914811 0.914811 0.914811 0.914811 0.914811 0.914811 0.914811 0.914811 0.914811 0.914811 0.914811 0.914811 0.914811 0.914811 0.914811 0.914811 0.914811 0.914811 0.914811 0.914811 0.914811 0.914811 0.914811 0.914811 0.914811 0.914811 0.914811 0.914811 0.914811 0.914811 0.914811 0.914811 0.914811 0.914811 0.914811 0.914811 0.914811 0.914811 0.914811 0.914811 0.914811 0.942407 0.943896 0.951960 0.951776 0.951191 0.948894 0.947899 0.947403 0.947266 0.947564 0.948243 0.949182 0.958102 0.959282 0.962141 0.963065 0.963892 0.964661 0.965455 0.966374 0.965113 0.962405 0.961596 0.961405 0.964247 0.963921 0.964202 0.965333 0.965236 0.966086 0.966456 0.966260 0.965646 0.965058 0.964388 0.963962 0.963788 0.964435 0.964734 0.966079 0.969317 0.969783 0.969844 0.969999 0.970087 0.970244 0.970643 0.972322 0.968354 0.969090 0.969133 0.966954 0.973944 0.970830 0.971459 0.971947 0.973274 0.973467 0.967755 0.963745 0.954193 0.953315 0.948003 0.938998 0.935470 0.936733 0.938694 0.939711 0.939769 0.934326 0.934689 0.930798 0.929231 0.932708 0.930082 0.928667 0.930019 0.931036 0.931350 0.930560 0.929229 0.924522 0.920271 0.919372 0.922361 0.925060 0.926701 0.927247 0.923102 0.898955 0.896825 0.903113 0.890930 0.881180 0.876465 0.872283 0.877151 0.880576 0.884743 0.883157 0.870720 0.853303 0.838698 0.836850 0.837930 0.833824 0.833868 0.835984 0.826717 0.839429 0.837127 0.843029 0.841125 0.848355 0.846780 0.833416 0.830024 0.826995 0.822288 0.815183 0.821472 0.816213 0.816127 0.813984 0.810722 0.805556 0.810463 0.784311 0.771343 0.765245 0.768548 0.772815 0.766762 0.763371 0.770396 0.774151 0.778490 0.766457 0.758893 0.745770 0.749840 0.756200 0.763573 0.757901 0.741436 0.718611 0.668680 0.684191 0.720883 0.662520 0.683437 0.688360 0.673117 0.673441 0.664852 0.658717 0.655890 0.656738 0.664535 0.676922 0.689625 0.709939 0.699409 0.688869 0.689903 0.673143 0.667442 0.648960 0.657365 0.638613 0.634222 0.662125 0.636262 0.631782 0.624568 0.633080 0.648605 0.626966 0.625401 0.622622 0.616574 0.617374 0.617000 0.606876 0.616923 0.618849 0.610445 0.622831 0.635713 0.619280 0.604074 0.592531 0.557480 0.547638 0.579136 0.585552 0.567782 0.532817 0.533997 0.555680 0.557313 0.553115 0.525068 0.525031 0.532039 0.572306 0.562419 0.524347 0.539807 0.535402 0.536607 0.481035 0.475192 0.452515 0.441114 0.379993 0.364860 0.365861 0.352667 0.341657 0.307320 0.306292 0.312213 0.323319 0.325820 0.318268 0.304728 0.316002 0.311149 0.296870 0.238051 0.218825 0.204548 0.191226 0.194264 0.164193 0.185820 0.250666 0.252966 0.252966 0.252966 0.252966 0.252966 0.252966 0.262666 0.262666 0.262666 0.262666 0.262666 0.262666 0.262666 0.262666 0.262666 0.273810 0.273810 0.273810 0.273810 0.273810 0.273810 0.273810 0.273810 0.273810 0.273810 0.273810 0.273810 0.273810 0.273810
0.000000 0.000000 0.000000 0.000000 0.000000 0.000000 0.000000 0.000000 0.000000 0.000000 0.000000 0.000000 0.000000 0.000000 0.000000 0.000000 0.000000 0.000000 0.000000 0.000000 0.000000 0.000000 0.000000 0.000000 0.000000 7.000000 4.000000 0.000000 0.000000 0.000000 0.000000 0.000000 0.000000 0.000000 0.000000 0.000000 0.000000 0.000000 0.000000 0.000000 0.000000 0.000000 0.000000 0.000000 0.000000 0.000000 0.000000 0.000000 0.000000 0.000000 0.000000 0.000000 0.180334 0.180334 0.180334 0.199007 0.199007 0.199007 0.199007 0.199007 0.199007 0.199007 0.199007 0.199007 0.199007 0.199007 0.199007 0.199007 0.199007 0.199007 0.199007 0.199007 0.199007 0.199007 0.199007 0.199007 0.199007 0.199007 0.199007 0.199007 0.199007 0.199007 0.199007 0.199007 0.199007 0.199007 0.199007 0.199007 0.199007 0.199007 0.199007 0.199007 0.199007 0.199007 0.199007 0.199007 0.225018 0.225018 0.225018 0.225018 0.225018 0.225018 0.225018 0.225018 0.225018 0.225018 0.225018 0.225018 0.225018 0.225018 0.225018 0.225018 0.225018 0.225018 0.225018 0.225018 0.225018 0.225018 0.225018 0.225018 0.225018 0.225018 0.225018 0.225018 0.225018 0.244339 0.244339 0.244339 0.244339 0.244339 0.244339 0.244339 0.244339 0.244339 0.244339 0.244339 0.244339 0.244339 0.244339 0.244339 0.244339 0.244339 0.244339 0.244339 0.244339 0.244339 0.244339 0.244339 0.251976 0.251976 0.251976 0.251976 0.251976 0.251976 0.251976 0.251976 0.251976 0.251976 0.251976 0.251976 0.251976 0.251976 0.251976 0.251976 0.251976 0.251976 0.251976 0.251976 0.264906 0.264906 0.264906 0.264906 0.264906 0.264906 0.264906 0.264906 0.264906 0.264906 0.264906 0.264906 0.264906 0.264906 0.264906 0.264906 0.264906 0.256074 0.256074 0.256074 0.256074 0.256074 0.256074 0.256074 0.256074 0.256074 0.256074 0.256074 0.256074 0.256074 0.256074 0.256074 0.256074 0.256074 0.269680 0.269680 0.269680 0.269680 0.269680 0.269680 0.269680 0.269680 0.269680 0.269680 0.269680 0.269680 0.269680 0.269680 0.264906 0.264906 0.264906 0.264906 0.264906 0.264906 0.264906 0.264906 0.264906 0.264906 0.264906 0.264906 0.264906 0.264906 0.256074 0.256074 0.256074 0.256074 0.256074 0.256074 0.256074 0.256074 0.256074 0.256074 0.256074 0.256074 0.256074 0.256074 0.269680 0.269680 0.269680 0.269680 0.269680 0.269680 0.269680 0.269680 0.269680 0.269680 0.269680 0.269680 0.264906 0.264906 0.264906 0.264906 0.264906 0.264906 0.264906 0.264906 0.264906 0.264906 0.264906 0.264906 0.260378 0.260378 0.260378 0.260378 0.260378 0.260378 0.260378 0.260378 0.260378 0.260378 0.260378 0.260378 0.274721 0.274721 0.274721 0.274721 0.274721 0.274721 0.274721 0.274721 0.274721 0.274721 0.256074 0.256074 0.256074 0.256074 0.256074 0.256074 0.256074 0.256074 0.256074 0.256074 0.256074 0.264906 0.264906 0.264906 0.264906 0.264906 0.264906 0.264906 0.264906 0.264906 0.264906 0.260378 0.260378 0.260378 0.260378 0.260378 0.260378 0.260378 0.260378 0.260378 0.260378 0.256074 0.256074 0.256074 0.256074 0.256074 0.256074 0.256074 0.256074 0.256074 0.256074 0.260378 0.260378 0.260378 0.260378 0.260378 0.260378 0.260378 0.260378 0.260378 0.256074 0.256074 0.256074 0.256074 0.256074 0.256074 0.256074 0.256074 0.256074 0.251976 0.251976 0.251976 0.251976 0.251976 0.251976 0.251976 0.251976 0.251976 0.251976 0.251976 0.251976 0.251976 0.251976
