# Output from CTFFind version 4.1.9, run on 2019-11-02 17:45:10
# Input file: stack11_bm3d_averaged_1_0.75_0_750_half.mrc ; Number of micrographs: 1
# Pixel size: 3.000 Angstroms ; acceleration voltage: 300.0 keV ; spherical aberration: 0.00 mm ; amplitude contrast: 0.07
# Box size: 512 pixels ; min. res.: 30.0 Angstroms ; max. res.: 5.0 Angstroms ; min. def.: 5000.0 um; max. def. 50000.0 um; num. frames averaged: 1
# 6 lines per micrograph: #1 - spatial frequency (1/Angstroms); #2 - 1D rotational average of spectrum (assuming no astigmatism); #3 - 1D rotational average of spectrum; #4 - CTF fit; #5 - cross-correlation between spectrum and CTF fit; #6 - 2sigma of expected cross correlation of noise
0.000000 0.000651 0.001302 0.001953 0.002604 0.003255 0.003906 0.004557 0.005208 0.005859 0.006510 0.007161 0.007812 0.008464 0.009115 0.009766 0.010417 0.011068 0.011719 0.012370 0.013021 0.013672 0.014323 0.014974 0.015625 0.016276 0.016927 0.017578 0.018229 0.018880 0.019531 0.020182 0.020833 0.021484 0.022135 0.022786 0.023438 0.024089 0.024740 0.025391 0.026042 0.026693 0.027344 0.027995 0.028646 0.029297 0.029948 0.030599 0.031250 0.031901 0.032552 0.033203 0.033854 0.034505 0.035156 0.035807 0.036458 0.037109 0.037760 0.038411 0.039062 0.039714 0.040365 0.041016 0.041667 0.042318 0.042969 0.043620 0.044271 0.044922 0.045573 0.046224 0.046875 0.047526 0.048177 0.048828 0.049479 0.050130 0.050781 0.051432 0.052083 0.052734 0.053385 0.054036 0.054688 0.055339 0.055990 0.056641 0.057292 0.057943 0.058594 0.059245 0.059896 0.060547 0.061198 0.061849 0.062500 0.063151 0.063802 0.064453 0.065104 0.065755 0.066406 0.067057 0.067708 0.068359 0.069010 0.069661 0.070312 0.070964 0.071615 0.072266 0.072917 0.073568 0.074219 0.074870 0.075521 0.076172 0.076823 0.077474 0.078125 0.078776 0.079427 0.080078 0.080729 0.081380 0.082031 0.082682 0.083333 0.083984 0.084635 0.085286 0.085938 0.086589 0.087240 0.087891 0.088542 0.089193 0.089844 0.090495 0.091146 0.091797 0.092448 0.093099 0.093750 0.094401 0.095052 0.095703 0.096354 0.097005 0.097656 0.098307 0.098958 0.099609 0.100260 0.100911 0.101562 0.102214 0.102865 0.103516 0.104167 0.104818 0.105469 0.106120 0.106771 0.107422 0.108073 0.108724 0.109375 0.110026 0.110677 0.111328 0.111979 0.112630 0.113281 0.113932 0.114583 0.115234 0.115885 0.116536 0.117188 0.117839 0.118490 0.119141 0.119792 0.120443 0.121094 0.121745 0.122396 0.123047 0.123698 0.124349 0.125000 0.125651 0.126302 0.126953 0.127604 0.128255 0.128906 0.129557 0.130208 0.130859 0.131510 0.132161 0.132812 0.133464 0.134115 0.134766 0.135417 0.136068 0.136719 0.137370 0.138021 0.138672 0.139323 0.139974 0.140625 0.141276 0.141927 0.142578 0.143229 0.143880 0.144531 0.145182 0.145833 0.146484 0.147135 0.147786 0.148438 0.149089 0.149740 0.150391 0.151042 0.151693 0.152344 0.152995 0.153646 0.154297 0.154948 0.155599 0.156250 0.156901 0.157552 0.158203 0.158854 0.159505 0.160156 0.160807 0.161458 0.162109 0.162760 0.163411 0.164062 0.164714 0.165365 0.166016 0.166667 0.167318 0.167969 0.168620 0.169271 0.169922 0.170573 0.171224 0.171875 0.172526 0.173177 0.173828 0.174479 0.175130 0.175781 0.176432 0.177083 0.177734 0.178385 0.179036 0.179688 0.180339 0.180990 0.181641 0.182292 0.182943 0.183594 0.184245 0.184896 0.185547 0.186198 0.186849 0.187500 0.188151 0.188802 0.189453 0.190104 0.190755 0.191406 0.192057 0.192708 0.193359 0.194010 0.194661 0.195312 0.195964 0.196615 0.197266 0.197917 0.198568 0.199219 0.199870 0.200521 0.201172 0.201823 0.202474 0.203125 0.203776 0.204427 0.205078 0.205729 0.206380 0.207031 0.207682 0.208333 0.208984 0.209635 0.210286 0.210938 0.211589 0.212240 0.212891 0.213542 0.214193 0.214844 0.215495 0.216146 0.216797 0.217448 0.218099 0.218750 0.219401 0.220052 0.220703 0.221354 0.222005 0.222656 0.223307 0.223958 0.224609 0.225260 0.225911 0.226562 0.227214 0.227865 0.228516 0.229167 0.229818 0.230469 0.231120 0.231771 0.232422 0.233073 0.233724 0.234375 0.235026 0.235677
       0.31730        0.31730        0.31730        0.31730        0.31730        0.31730        0.31730        0.31730        0.31730        0.31730        0.31730        0.31730        0.31730        0.31730        0.31730        0.31730        0.31730        0.31730        0.31730        0.31730        0.31730        0.31730        0.31730        0.31730        0.31730        0.31730        0.31730        0.31730        0.31730        0.31730        0.31730        0.31730        0.31730        0.31730        0.31730        0.31730        0.31730        0.31730        0.31730        0.31730        0.31730        0.31730        0.31730        0.31730        0.31730        0.31730        0.31730        0.31730        0.31730        0.31730        0.31730        0.68479        0.87212        0.52344        0.08801       -0.06559       -0.42452       -0.20817       -0.29630       -0.11619       -0.07701       -0.11807       -0.06774       -0.20905       -0.23606       -0.25964       -0.32847       -0.33596       -0.48985       -0.38287       -0.46744       -0.44891       -0.42141       -0.47133       -0.54815       -0.56318       -0.58915       -0.62812       -0.57939       -0.41775       -0.37931       -0.32944       -0.31505       -0.21402       -0.20114        0.01757        0.07017        0.10376        0.22506        0.37266        0.44225        0.51630        0.55922        0.55483        0.57075        0.69979        0.81416        0.74373        0.73426        0.67325        0.58437        0.48694        0.40904        0.49333        0.37545        0.20419        0.07726        0.04765        0.01006       -0.06084       -0.03999       -0.02638       -0.07411       -0.00727       -0.01988        0.21043        0.24887        0.29170        0.43202        0.46735        0.40525        0.53596        0.63166        0.70458        0.76664        0.69160        0.65803        0.70160        0.58805        0.50718        0.41921        0.28936        0.18361        0.15683        0.10549        0.03980        0.01289       -0.00243        0.07601        0.13242        0.20429        0.28459        0.40278        0.41737        0.51522        0.60534        0.63688        0.61627        0.63112        0.55473        0.44738        0.44395        0.35127        0.23047        0.18352        0.14877        0.10744        0.11947        0.06445        0.09749        0.22285        0.26227        0.34038        0.34868        0.45466        0.51430        0.53667        0.55124        0.46997        0.42931        0.39371        0.37287        0.30764        0.25106        0.19987        0.18560        0.16007        0.18975        0.17822        0.26899        0.33205        0.36368        0.42403        0.46244        0.47958        0.44731        0.39475        0.41816        0.37516        0.28937        0.27254        0.22650        0.21366        0.19560        0.21306        0.23018        0.32934        0.37351        0.36448        0.45944        0.44127        0.43908        0.43204        0.39565        0.34535        0.32906        0.27598        0.23618        0.23657        0.26961        0.26986        0.30176        0.30119        0.34128        0.32953        0.41055        0.41897        0.37426        0.34387        0.36476        0.27978        0.28107        0.26183        0.27672        0.25973        0.27942        0.29222        0.31494        0.35366        0.36050        0.36000        0.33167        0.35080        0.28424        0.32004        0.26824        0.25073        0.28520        0.27973        0.30677        0.31391        0.33458        0.32803        0.31392        0.31639        0.28804        0.28889        0.26143        0.28080        0.26607        0.31071        0.28318        0.26428        0.30857        0.31290        0.31878        0.29095        0.30093        0.29301        0.24579        0.23812        0.22230        0.27992        0.27223        0.31033        0.31745        0.31992        0.31681        0.30455        0.27672        0.28423        0.33080        0.27277        0.26638        0.29654        0.29596        0.33973        0.33600        0.36230        0.33169        0.31477        0.28006        0.26499        0.26478        0.22841        0.26904        0.29963        0.29430        0.27784        0.29447        0.27229        0.32303        0.32468        0.24919        0.21686        0.27446        0.33814        0.27812        0.31334        0.32521        0.32728        0.30198        0.32391        0.34263        0.29893        0.29498        0.26506        0.27893        0.35488        0.35146        0.25823        0.26883        0.25399        0.28322        0.22534        0.29076        0.21960        0.25305        0.32991        0.32089        0.34418        0.29600        0.24407        0.24368        0.24369        0.24307        0.18579        0.22301        0.25741        0.29671        0.28013        0.30059        0.29595        0.28330        0.27995        0.21087        0.17574        0.18798        0.23650        0.20518        0.21551        0.22967        0.21113        0.24631        0.33183        0.29378        0.30472        0.22155        0.25472        0.23816        0.28564        0.30667        0.14919        0.21080        0.22247        0.12736        0.22664        0.10771        0.15964        0.17732        0.10824       -0.10548       -0.57553
2.590131 2.563070 2.536157 2.509390 2.482770 2.456297 2.429971 2.403791 2.377758 2.351872 2.326133 2.300540 2.275094 2.249795 2.224643 2.199638 2.174779 2.150067 2.125502 2.101084 2.076812 2.052687 2.028709 2.004878 1.981194 1.957656 1.934265 1.911021 1.887924 1.864973 1.842169 1.819513 1.797002 1.774639 1.752422 1.730352 1.708429 1.686653 1.665023 1.643541 1.622205 1.601015 1.579973 1.559077 1.538329 1.517726 1.497271 1.476963 1.456801 1.436786 1.416918 1.638245 2.044476 1.617789 1.131332 0.987428 0.426317 0.810966 0.564605 0.836481 0.774616 0.788082 0.754348 0.710022 0.563401 0.513427 0.487999 0.447833 0.206756 0.382386 0.204083 0.306111 0.240406 0.180338 0.128921 0.005176 0.043263 -0.016404 -0.054934 0.103686 0.206424 0.197846 0.155068 0.330002 0.197611 0.495088 0.575157 0.547630 0.592377 0.877446 0.807422 0.945387 0.888028 0.972710 0.940374 1.079099 1.140475 1.076140 1.124154 0.952286 0.945275 0.784532 0.653188 0.768886 0.703780 0.464295 0.306324 0.253870 0.213597 0.148056 0.088523 0.124833 0.065956 0.151109 0.052429 0.260796 0.376772 0.356627 0.480198 0.583625 0.468394 0.544472 0.698602 0.747657 0.781235 0.732662 0.729091 0.716383 0.626551 0.571704 0.428379 0.285650 0.203118 0.075922 0.128340 -0.044205 -0.027659 -0.083943 -0.038428 0.004670 0.142231 0.092260 0.301859 0.276750 0.365862 0.458999 0.521385 0.507873 0.518347 0.505749 0.331962 0.307154 0.273595 0.101293 0.045535 -0.004186 -0.036360 -0.042375 -0.094702 -0.107708 -0.018346 0.056345 0.131436 0.135721 0.227327 0.333438 0.305352 0.418981 0.390476 0.281489 0.231512 0.247464 0.205478 0.101035 0.070482 0.014739 0.002510 0.000501 -0.019099 0.057773 0.145318 0.141407 0.222856 0.253123 0.303847 0.262421 0.220743 0.192099 0.210323 0.149930 0.043331 0.044053 -0.009557 -0.009923 -0.030507 0.017092 0.014397 0.173450 0.122321 0.180463 0.238202 0.200535 0.191407 0.199242 0.136415 0.104543 0.063973 0.042864 -0.037931 0.005877 0.022429 0.052611 0.048859 0.080371 0.097584 0.119264 0.137790 0.189567 0.075983 0.097760 0.070562 0.000410 0.006150 0.008046 -0.011106 0.019458 0.001836 0.029959 0.071110 0.083640 0.117736 0.048368 0.097218 0.053292 0.008039 0.060413 -0.035329 -0.011133 0.022325 -0.003332 0.051437 0.053175 0.052818 0.053870 0.050649 0.046177 0.019385 0.001224 0.004937 0.011567 -0.015583 0.068994 -0.016993 0.007191 0.053938 0.047990 0.033349 0.043561 0.036216 0.014493 -0.024994 -0.049075 -0.015304 0.014007 0.017349 0.058538 0.058449 0.057758 0.074892 0.052546 0.026880 0.059747 0.082855 0.017749 0.019724 0.058162 0.050794 0.098750 0.107000 0.109242 0.110142 0.062745 0.036917 0.027336 0.006023 -0.005602 0.044199 0.072818 0.037905 0.028421 0.030992 0.020812 0.084792 0.053868 -0.050305 -0.053954 0.030566 0.093282 0.006411 0.029572 0.061135 0.081651 0.026224 0.054839 0.080501 0.032398 0.040186 -0.034997 0.014437 0.112973 0.065454 -0.057633 -0.020340 -0.052252 0.023186 -0.107311 0.033797 -0.111318 -0.031103 0.052309 0.028685 0.028839 -0.043981 -0.057585 -0.082923 -0.078778 -0.065849 -0.120853 -0.100740 -0.039906 0.017892 -0.023994 0.032650 -0.013577 -0.036404 0.050335 -0.106841 -0.095863 -0.095743 -0.004003 -0.047913 -0.043650 0.000537 0.015609 0.010744 0.174426 -0.011476 0.141359 0.008252 0.261589 0.257223 0.325312 0.283957 0.116002 0.213754 0.265113 0.056711 0.248667 0.114960 0.125955 0.239721 0.109915 -0.594003
0.072396 0.072899 0.074406 0.076918 0.080433 0.084952 0.090472 0.096992 0.104510 0.113024 0.122529 0.133022 0.144496 0.156947 0.170365 0.184743 0.200068 0.216328 0.233508 0.251591 0.270557 0.290383 0.311042 0.332506 0.354741 0.377710 0.401373 0.425682 0.450587 0.476033 0.501959 0.528296 0.554973 0.581911 0.609024 0.636221 0.663404 0.690467 0.717299 0.743781 0.769787 0.795186 0.819838 0.843598 0.866316 0.887833 0.907989 0.926616 0.943543 0.958598 0.971602 0.982379 0.990751 0.996539 0.999570 0.999672 0.996679 0.990432 0.980779 0.967582 0.950712 0.930057 0.905519 0.877023 0.844510 0.807948 0.767330 0.722674 0.674032 0.621484 0.565146 0.505168 0.441739 0.375085 0.305470 0.233202 0.158625 0.082127 0.004134 0.074889 0.154440 0.233980 0.312938 0.390716 0.466686 0.540204 0.610606 0.677222 0.739375 0.796395 0.847622 0.892416 0.930165 0.960296 0.982281 0.995650 0.999996 0.994990 0.980388 0.956037 0.921887 0.877998 0.824544 0.761822 0.690253 0.610386 0.522901 0.428602 0.328422 0.223411 0.114731 0.003649 0.108480 0.220225 0.330093 0.436557 0.538067 0.633077 0.720075 0.797601 0.864276 0.918836 0.960150 0.987254 0.999374 0.995949 0.976657 0.941430 0.890473 0.824270 0.743596 0.649514 0.543374 0.426798 0.301667 0.170092 0.034392 0.102950 0.239327 0.372053 0.498420 0.615749 0.721459 0.813115 0.888502 0.945674 0.983022 0.999318 0.993769 0.966052 0.916345 0.845348 0.754290 0.644920 0.519494 0.380734 0.231787 0.076158 0.082366 0.239799 0.392055 0.535059 0.664854 0.777718 0.870276 0.939616 0.983386 0.999891 0.988167 0.948046 0.880186 0.786095 0.668112 0.529376 0.373753 0.205753 0.030402 0.146895 0.320512 0.484787 0.634202 0.763582 0.868275 0.944344 0.988724 0.999367 0.975353 0.916964 0.825725 0.704388 0.556884 0.388211 0.204292 0.011785 0.182155 0.370130 0.544779 0.699082 0.826637 0.921958 0.980721 0.999986 0.978372 0.916166 0.815371 0.679677 0.514368 0.326132 0.122828 0.086827 0.293629 0.488275 0.661795 0.805974 0.913755 0.979619 0.999889 0.972973 0.899502 0.782379 0.626704 0.439597 0.229900 0.007793 0.215688 0.429189 0.621613 0.782713 0.903656 0.977541 0.999821 0.968630 0.884958 0.752696 0.578495 0.371486 0.142837 0.094817 0.328066 0.543464 0.728321 0.871468 0.963962 0.999689 0.975812 0.893040 0.755685 0.571503 0.351306 0.108373 0.142314 0.384988 0.604068 0.785191 0.916172 0.987864 0.994855 0.935925 0.814246 0.637290 0.416428 0.166267 0.096285 0.353134 0.586240 0.778899 0.916970 0.989954 0.991863 0.921765 0.783991 0.587952 0.347565 0.080327 0.193920 0.454427 0.681136 0.856218 0.965538 0.999850 0.955654 0.835616 0.648508 0.408663 0.134931 0.150731 0.425004 0.665103 0.850694 0.965664 0.999583 0.948738 0.816613 0.613753 0.357030 0.068307 0.227367 0.503908 0.736488 0.903824 0.990159 0.986848 0.893310 0.717265 0.474215 0.186178 0.120249 0.416285 0.673683 0.867431 0.978251 0.994607 0.914000 0.743424 0.498878 0.203986 0.112222 0.418099 0.682555 0.878236 0.984425 0.989331 0.891508 0.700233 0.434765 0.122514 0.203702 0.509072 0.760499 0.930239 0.999044 0.958456 0.811978 0.574930 0.272987 0.060495 0.388098 0.672524 0.880854 0.988459 0.982005 0.861251 0.639343 0.341540 0.002459 0.337862 0.638662 0.863354 0.984059 0.985186 0.865582 0.638973 0.332546 0.016161 0.363793 0.666507 0.885562 0.992334 0.972210 0.826734 0.573740 0.245308 0.116135
1.000000 1.000000 1.000000 1.000000 1.000000 1.000000 1.000000 1.000000 1.000000 1.000000 1.000000 1.000000 1.000000 1.000000 1.000000 1.000000 1.000000 1.000000 1.000000 1.000000 1.000000 1.000000 1.000000 1.000000 1.000000 1.000000 1.000000 1.000000 1.000000 1.000000 1.000000 1.000000 1.000000 1.000000 1.000000 1.000000 1.000000 1.000000 1.000000 1.000000 1.000000 1.000000 1.000000 1.000000 1.000000 1.000000 1.000000 1.000000 1.000000 1.000000 1.000000 1.000000 0.933301 0.933301 0.933301 0.924092 0.924092 0.924092 0.924092 0.924092 0.924092 0.924092 0.924092 0.924092 0.924092 0.924092 0.924092 0.924092 0.924092 0.924092 0.924092 0.924092 0.924092 0.924092 0.924092 0.924092 0.924092 0.924092 0.924092 0.924092 0.924092 0.924092 0.924092 0.924092 0.924092 0.924092 0.924092 0.924092 0.924092 0.924092 0.924092 0.924092 0.924092 0.924092 0.924092 0.924092 0.949911 0.951118 0.958972 0.958806 0.958302 0.956207 0.955292 0.954174 0.953721 0.953995 0.954603 0.955438 0.967180 0.968199 0.969731 0.970534 0.971245 0.971903 0.971762 0.972555 0.971812 0.971285 0.970792 0.966869 0.967479 0.968070 0.968250 0.969296 0.969184 0.971394 0.971505 0.970939 0.970111 0.969425 0.968762 0.968372 0.968103 0.968592 0.968859 0.970118 0.973252 0.972680 0.972361 0.972519 0.972623 0.972796 0.973193 0.973965 0.970109 0.968587 0.966933 0.964770 0.968938 0.966110 0.965883 0.967245 0.967631 0.968032 0.967050 0.963174 0.958153 0.957504 0.955046 0.945550 0.944145 0.944813 0.947053 0.947425 0.945988 0.938278 0.938864 0.931796 0.933827 0.937063 0.931072 0.930820 0.931979 0.931304 0.930049 0.929462 0.926533 0.923873 0.922255 0.922089 0.925111 0.925433 0.926593 0.926401 0.920702 0.912732 0.900321 0.898095 0.892710 0.895803 0.884286 0.884056 0.883957 0.880239 0.883634 0.883277 0.884183 0.881055 0.864500 0.847056 0.840570 0.844758 0.849777 0.845292 0.844038 0.837054 0.848225 0.828864 0.841444 0.851765 0.848639 0.848543 0.847957 0.846069 0.840973 0.841862 0.843604 0.845169 0.843710 0.843464 0.842721 0.826564 0.828490 0.764381 0.747058 0.739509 0.745319 0.751937 0.754395 0.753242 0.758786 0.763623 0.751350 0.733474 0.725873 0.718937 0.723369 0.724087 0.725354 0.705476 0.681237 0.676173 0.646025 0.664174 0.677037 0.638310 0.663379 0.674781 0.672900 0.671025 0.664696 0.661771 0.657048 0.659856 0.667554 0.680420 0.697812 0.720921 0.717602 0.708348 0.705263 0.686157 0.679863 0.673538 0.685803 0.666651 0.663684 0.681589 0.681605 0.667041 0.645264 0.634543 0.626226 0.620577 0.627791 0.617100 0.612009 0.600854 0.576293 0.570428 0.604581 0.621048 0.642111 0.611882 0.597896 0.584575 0.561988 0.575389 0.520521 0.520224 0.542110 0.550091 0.527506 0.521068 0.533147 0.540609 0.542948 0.532492 0.513670 0.503046 0.524066 0.552163 0.542235 0.524921 0.528021 0.525802 0.515413 0.425566 0.419557 0.391176 0.356647 0.305095 0.282978 0.275770 0.259312 0.248420 0.213370 0.209291 0.220984 0.227319 0.238039 0.240370 0.222210 0.231338 0.227296 0.213535 0.151407 0.141384 0.133874 0.123296 0.122456 0.101997 0.126710 0.190829 0.192869 0.192869 0.192869 0.192869 0.192869 0.192869 0.200767 0.200767 0.200767 0.200767 0.200767 0.200767 0.200767 0.200767 0.200767 0.210678 0.210678 0.210678 0.210678 0.210678 0.210678 0.210678 0.210678 0.210678 0.210678 0.210678 0.210678 0.210678 0.210678
0.000000 0.000000 0.000000 0.000000 0.000000 0.000000 0.000000 0.000000 0.000000 0.000000 0.000000 0.000000 0.000000 0.000000 0.000000 0.000000 0.000000 0.000000 0.000000 0.000000 0.000000 0.000000 0.000000 0.000000 0.000000 0.000000 0.000000 0.000000 0.000000 0.000000 0.000000 0.000000 0.000000 0.000000 0.000000 0.000000 0.000000 0.000000 0.000000 0.000000 0.000000 0.000000 0.000000 0.000000 0.000000 0.000000 0.000000 0.000000 0.000000 0.000000 0.000000 0.000000 0.180334 0.180334 0.180334 0.199007 0.199007 0.199007 0.199007 0.199007 0.199007 0.199007 0.199007 0.199007 0.199007 0.199007 0.199007 0.199007 0.199007 0.199007 0.199007 0.199007 0.199007 0.199007 0.199007 0.199007 0.199007 0.199007 0.199007 0.199007 0.199007 0.199007 0.199007 0.199007 0.199007 0.199007 0.199007 0.199007 0.199007 0.199007 0.199007 0.199007 0.199007 0.199007 0.199007 0.199007 0.225018 0.225018 0.225018 0.225018 0.225018 0.225018 0.225018 0.225018 0.225018 0.225018 0.225018 0.225018 0.225018 0.225018 0.225018 0.225018 0.225018 0.225018 0.225018 0.225018 0.225018 0.225018 0.225018 0.225018 0.225018 0.225018 0.225018 0.225018 0.225018 0.244339 0.244339 0.244339 0.244339 0.244339 0.244339 0.244339 0.244339 0.244339 0.244339 0.244339 0.244339 0.244339 0.244339 0.244339 0.244339 0.244339 0.244339 0.244339 0.244339 0.244339 0.244339 0.244339 0.251976 0.251976 0.251976 0.251976 0.251976 0.251976 0.251976 0.251976 0.251976 0.251976 0.251976 0.251976 0.251976 0.251976 0.251976 0.251976 0.251976 0.251976 0.251976 0.251976 0.264906 0.264906 0.264906 0.264906 0.264906 0.264906 0.264906 0.264906 0.264906 0.264906 0.264906 0.264906 0.264906 0.264906 0.264906 0.264906 0.264906 0.264906 0.264906 0.264906 0.264906 0.264906 0.264906 0.264906 0.264906 0.264906 0.264906 0.264906 0.264906 0.264906 0.264906 0.264906 0.264906 0.264906 0.264906 0.264906 0.264906 0.264906 0.264906 0.264906 0.264906 0.264906 0.264906 0.264906 0.264906 0.264906 0.264906 0.264906 0.264906 0.264906 0.264906 0.264906 0.264906 0.264906 0.264906 0.264906 0.264906 0.264906 0.264906 0.264906 0.264906 0.264906 0.256074 0.256074 0.256074 0.256074 0.256074 0.256074 0.256074 0.256074 0.256074 0.256074 0.256074 0.256074 0.256074 0.256074 0.269680 0.269680 0.269680 0.269680 0.269680 0.269680 0.269680 0.269680 0.269680 0.269680 0.269680 0.269680 0.264906 0.264906 0.264906 0.264906 0.264906 0.264906 0.264906 0.264906 0.264906 0.264906 0.264906 0.264906 0.269680 0.269680 0.269680 0.269680 0.269680 0.269680 0.269680 0.269680 0.269680 0.269680 0.269680 0.264906 0.264906 0.264906 0.264906 0.264906 0.264906 0.264906 0.264906 0.264906 0.264906 0.264906 0.256074 0.256074 0.256074 0.256074 0.256074 0.256074 0.256074 0.256074 0.256074 0.256074 0.256074 0.264906 0.264906 0.264906 0.264906 0.264906 0.264906 0.264906 0.264906 0.264906 0.264906 0.260378 0.260378 0.260378 0.260378 0.260378 0.260378 0.260378 0.260378 0.260378 0.260378 0.256074 0.256074 0.256074 0.256074 0.256074 0.256074 0.256074 0.256074 0.256074 0.256074 0.260378 0.260378 0.260378 0.260378 0.260378 0.260378 0.260378 0.260378 0.260378 0.256074 0.256074 0.256074 0.256074 0.256074 0.256074 0.256074 0.256074 0.256074 0.251976 0.251976 0.251976 0.251976 0.251976 0.251976 0.251976 0.251976 0.251976 0.251976 0.251976 0.251976 0.251976 0.251976
