# Output from CTFFind version 4.1.9, run on 2019-11-03 19:01:41
# Input file: stack11_bm3d_averaged_1_2.25_0_1000_half.mrc ; Number of micrographs: 1
# Pixel size: 3.000 Angstroms ; acceleration voltage: 300.0 keV ; spherical aberration: 0.00 mm ; amplitude contrast: 0.07
# Box size: 512 pixels ; min. res.: 30.0 Angstroms ; max. res.: 5.0 Angstroms ; min. def.: 5000.0 um; max. def. 50000.0 um; num. frames averaged: 1
# 6 lines per micrograph: #1 - spatial frequency (1/Angstroms); #2 - 1D rotational average of spectrum (assuming no astigmatism); #3 - 1D rotational average of spectrum; #4 - CTF fit; #5 - cross-correlation between spectrum and CTF fit; #6 - 2sigma of expected cross correlation of noise
0.000000 0.000651 0.001302 0.001953 0.002604 0.003255 0.003906 0.004557 0.005208 0.005859 0.006510 0.007161 0.007812 0.008464 0.009115 0.009766 0.010417 0.011068 0.011719 0.012370 0.013021 0.013672 0.014323 0.014974 0.015625 0.016276 0.016927 0.017578 0.018229 0.018880 0.019531 0.020182 0.020833 0.021484 0.022135 0.022786 0.023438 0.024089 0.024740 0.025391 0.026042 0.026693 0.027344 0.027995 0.028646 0.029297 0.029948 0.030599 0.031250 0.031901 0.032552 0.033203 0.033854 0.034505 0.035156 0.035807 0.036458 0.037109 0.037760 0.038411 0.039062 0.039714 0.040365 0.041016 0.041667 0.042318 0.042969 0.043620 0.044271 0.044922 0.045573 0.046224 0.046875 0.047526 0.048177 0.048828 0.049479 0.050130 0.050781 0.051432 0.052083 0.052734 0.053385 0.054036 0.054688 0.055339 0.055990 0.056641 0.057292 0.057943 0.058594 0.059245 0.059896 0.060547 0.061198 0.061849 0.062500 0.063151 0.063802 0.064453 0.065104 0.065755 0.066406 0.067057 0.067708 0.068359 0.069010 0.069661 0.070312 0.070964 0.071615 0.072266 0.072917 0.073568 0.074219 0.074870 0.075521 0.076172 0.076823 0.077474 0.078125 0.078776 0.079427 0.080078 0.080729 0.081380 0.082031 0.082682 0.083333 0.083984 0.084635 0.085286 0.085938 0.086589 0.087240 0.087891 0.088542 0.089193 0.089844 0.090495 0.091146 0.091797 0.092448 0.093099 0.093750 0.094401 0.095052 0.095703 0.096354 0.097005 0.097656 0.098307 0.098958 0.099609 0.100260 0.100911 0.101562 0.102214 0.102865 0.103516 0.104167 0.104818 0.105469 0.106120 0.106771 0.107422 0.108073 0.108724 0.109375 0.110026 0.110677 0.111328 0.111979 0.112630 0.113281 0.113932 0.114583 0.115234 0.115885 0.116536 0.117188 0.117839 0.118490 0.119141 0.119792 0.120443 0.121094 0.121745 0.122396 0.123047 0.123698 0.124349 0.125000 0.125651 0.126302 0.126953 0.127604 0.128255 0.128906 0.129557 0.130208 0.130859 0.131510 0.132161 0.132812 0.133464 0.134115 0.134766 0.135417 0.136068 0.136719 0.137370 0.138021 0.138672 0.139323 0.139974 0.140625 0.141276 0.141927 0.142578 0.143229 0.143880 0.144531 0.145182 0.145833 0.146484 0.147135 0.147786 0.148438 0.149089 0.149740 0.150391 0.151042 0.151693 0.152344 0.152995 0.153646 0.154297 0.154948 0.155599 0.156250 0.156901 0.157552 0.158203 0.158854 0.159505 0.160156 0.160807 0.161458 0.162109 0.162760 0.163411 0.164062 0.164714 0.165365 0.166016 0.166667 0.167318 0.167969 0.168620 0.169271 0.169922 0.170573 0.171224 0.171875 0.172526 0.173177 0.173828 0.174479 0.175130 0.175781 0.176432 0.177083 0.177734 0.178385 0.179036 0.179688 0.180339 0.180990 0.181641 0.182292 0.182943 0.183594 0.184245 0.184896 0.185547 0.186198 0.186849 0.187500 0.188151 0.188802 0.189453 0.190104 0.190755 0.191406 0.192057 0.192708 0.193359 0.194010 0.194661 0.195312 0.195964 0.196615 0.197266 0.197917 0.198568 0.199219 0.199870 0.200521 0.201172 0.201823 0.202474 0.203125 0.203776 0.204427 0.205078 0.205729 0.206380 0.207031 0.207682 0.208333 0.208984 0.209635 0.210286 0.210938 0.211589 0.212240 0.212891 0.213542 0.214193 0.214844 0.215495 0.216146 0.216797 0.217448 0.218099 0.218750 0.219401 0.220052 0.220703 0.221354 0.222005 0.222656 0.223307 0.223958 0.224609 0.225260 0.225911 0.226562 0.227214 0.227865 0.228516 0.229167 0.229818 0.230469 0.231120 0.231771 0.232422 0.233073 0.233724 0.234375 0.235026 0.235677
       0.31608        0.31608        0.31608        0.31608        0.31608        0.31608        0.31608        0.31608        0.31608        0.31608        0.31608        0.31608        0.31608        0.31608        0.31608        0.31608        0.31608        0.31608        0.31608        0.31608        0.31608        0.31608        0.31608        0.31608        0.31608        0.31608        0.31608        0.31608        0.31608        0.31608        0.31608        0.31608        0.31608        0.31608        0.31608        0.31608        0.31608        0.31608        0.31608        0.31608        0.31608        0.31608        0.31608        0.31608        0.31608        0.31608        0.31608        0.31608        0.31608        0.31608        0.31608        0.68023        0.86365        0.52273        0.08786       -0.06157       -0.42604       -0.20404       -0.29968       -0.11851       -0.07653       -0.11998       -0.06913       -0.20670       -0.23433       -0.25504       -0.33079       -0.34042       -0.48477       -0.38192       -0.46244       -0.44919       -0.42279       -0.46476       -0.53128       -0.55756       -0.58657       -0.61750       -0.57608       -0.41121       -0.37837       -0.33112       -0.31414       -0.20882       -0.20018        0.02033        0.08178        0.11298        0.22652        0.36690        0.44003        0.51018        0.55742        0.55365        0.56540        0.69086        0.80715        0.73087        0.73006        0.65518        0.57052        0.48208        0.40771        0.49409        0.37827        0.20850        0.07653        0.04916        0.01858       -0.06110       -0.03246       -0.01178       -0.06461       -0.00908       -0.01962        0.21469        0.25083        0.28598        0.42276        0.45163        0.40257        0.54261        0.62190        0.68737        0.75229        0.68393        0.65067        0.68967        0.57525        0.49067        0.41541        0.28846        0.19675        0.15491        0.10728        0.03863        0.00970        0.00354        0.07249        0.12817        0.20597        0.27286        0.39367        0.42195        0.50025        0.59838        0.62816        0.62148        0.62275        0.55168        0.44428        0.45113        0.35145        0.22762        0.17972        0.14458        0.11872        0.12846        0.08374        0.11159        0.23736        0.26469        0.34654        0.36383        0.44396        0.51027        0.53616        0.54265        0.46758        0.43042        0.38552        0.35406        0.30134        0.25245        0.20599        0.19184        0.16848        0.19821        0.18164        0.27439        0.33402        0.36641        0.42630        0.45732        0.47564        0.43119        0.38704        0.41135        0.36848        0.27736        0.26122        0.21996        0.21967        0.19368        0.22110        0.22966        0.32499        0.36982        0.37091        0.46332        0.43050        0.43360        0.42734        0.39249        0.34039        0.31989        0.27653        0.25270        0.23766        0.27102        0.27479        0.30168        0.30401        0.32988        0.32177        0.40292        0.41640        0.37389        0.34475        0.36283        0.28027        0.28041        0.25891        0.27913        0.26103        0.28046        0.29229        0.30897        0.34527        0.36161        0.36339        0.34046        0.35010        0.28979        0.32068        0.26924        0.24159        0.29188        0.28747        0.30973        0.30686        0.32202        0.32756        0.31550        0.31765        0.28829        0.29164        0.26505        0.28448        0.26237        0.29773        0.28368        0.27051        0.30443        0.31136        0.31643        0.27549        0.30072        0.27583        0.25967        0.24836        0.21638        0.27828        0.27686        0.32786        0.30730        0.31552        0.31588        0.31176        0.27591        0.29540        0.32676        0.26406        0.25735        0.29648        0.28408        0.33731        0.32993        0.34019        0.32600        0.30098        0.27868        0.27069        0.24834        0.22493        0.27749        0.30502        0.29216        0.27885        0.29338        0.27226        0.32824        0.32628        0.25001        0.22114        0.27918        0.32044        0.27451        0.30637        0.32860        0.32394        0.30241        0.31362        0.33580        0.29512        0.27961        0.24868        0.29151        0.35518        0.36314        0.27114        0.26186        0.25526        0.29185        0.21768        0.28619        0.23704        0.24852        0.33464        0.32546        0.34519        0.29582        0.24220        0.24056        0.24039        0.23199        0.20306        0.23255        0.28086        0.30023        0.24525        0.31474        0.31585        0.26031        0.25685        0.19786        0.15885        0.20993        0.21553        0.19842        0.21466        0.22543        0.19341        0.25593        0.34936        0.31220        0.32924        0.23030        0.21442        0.20188        0.27185        0.28158        0.15084        0.22798        0.24256        0.11153        0.18245        0.12665        0.13410        0.23132        0.13579       -0.09597       -0.58042
2.611541 2.584226 2.557059 2.530041 2.503171 2.476449 2.449876 2.423451 2.397174 2.371045 2.345064 2.319232 2.293548 2.268013 2.242625 2.217386 2.192295 2.167353 2.142558 2.117912 2.093414 2.069065 2.044863 2.020810 1.996906 1.973149 1.949541 1.926081 1.902769 1.879606 1.856591 1.833724 1.811005 1.788434 1.766012 1.743738 1.721613 1.699635 1.677806 1.656125 1.634593 1.613209 1.591972 1.570885 1.549945 1.529154 1.508511 1.488016 1.467669 1.447471 1.427421 1.646789 2.057740 1.630466 1.139277 0.999030 0.422342 0.821574 0.559944 0.839356 0.778374 0.795988 0.752938 0.715922 0.568600 0.522449 0.487715 0.439570 0.214468 0.381396 0.204293 0.312215 0.233436 0.185405 0.140850 0.012606 0.038145 -0.007710 -0.057922 0.109066 0.209305 0.191823 0.155240 0.335885 0.197535 0.497474 0.589212 0.565163 0.602424 0.875317 0.815064 0.943317 0.891323 0.981936 0.947756 1.078913 1.143076 1.073741 1.130372 0.941945 0.936921 0.789394 0.654379 0.778491 0.711579 0.466438 0.312138 0.248757 0.226084 0.146006 0.095502 0.135128 0.080190 0.145997 0.056511 0.262609 0.379353 0.357085 0.479469 0.571269 0.457091 0.560360 0.703090 0.736226 0.770698 0.730558 0.732484 0.705228 0.624092 0.559812 0.422835 0.284835 0.214480 0.081772 0.128633 -0.046300 -0.037258 -0.074187 -0.043942 -0.006719 0.150630 0.079591 0.289122 0.285129 0.358522 0.453917 0.523567 0.511794 0.511839 0.503315 0.331083 0.310872 0.279891 0.095669 0.047183 -0.020369 -0.026245 -0.038542 -0.081777 -0.099066 0.003141 0.058359 0.129633 0.156428 0.228932 0.320603 0.316790 0.417576 0.391000 0.276107 0.231047 0.234014 0.188213 0.106054 0.085829 0.013048 0.003917 0.015064 -0.012528 0.062812 0.150908 0.138669 0.238656 0.253376 0.309021 0.236726 0.218709 0.170543 0.216163 0.128937 0.039534 0.024134 -0.009115 -0.010344 -0.036144 0.021338 0.016183 0.158808 0.136943 0.178067 0.236900 0.195184 0.188218 0.193368 0.143992 0.092584 0.055205 0.056690 -0.021123 0.004194 0.024177 0.059877 0.057747 0.073799 0.087158 0.117380 0.139956 0.187780 0.083338 0.094797 0.072816 0.006308 0.003918 0.008973 -0.001421 0.016381 0.011445 0.029506 0.065490 0.080845 0.131932 0.056772 0.108655 0.059915 0.019834 0.060757 -0.031929 -0.011091 0.040133 0.005636 0.059748 0.051789 0.046942 0.069142 0.058403 0.043760 0.032474 0.004380 0.023752 0.013127 -0.006250 0.065226 -0.008907 0.020661 0.061551 0.051623 0.045753 0.047776 0.041825 0.023470 0.001169 -0.025020 -0.015665 0.030506 0.044193 0.088927 0.061455 0.072236 0.088813 0.072233 0.042727 0.084820 0.094948 0.017079 0.029396 0.071986 0.057584 0.108388 0.109787 0.101508 0.125968 0.079835 0.042193 0.052517 -0.001990 0.016077 0.069623 0.089172 0.054042 0.045087 0.040890 0.027321 0.113236 0.063130 -0.031023 -0.041331 0.040393 0.092638 0.013513 0.029687 0.086778 0.084821 0.036156 0.060126 0.081428 0.036769 0.032077 -0.044926 0.046670 0.122430 0.092510 -0.032829 -0.020639 -0.034261 0.048944 -0.103161 0.040830 -0.070101 -0.027513 0.064195 0.057773 0.033813 -0.018407 -0.060012 -0.053318 -0.079189 -0.050058 -0.088901 -0.078052 -0.005334 0.066728 -0.052357 0.064535 0.010674 -0.049660 0.034514 -0.106646 -0.110219 -0.061071 -0.028093 -0.045006 -0.048350 0.007691 -0.031651 0.024755 0.200935 -0.015034 0.163757 0.020507 0.222880 0.217907 0.311796 0.270328 0.131575 0.230816 0.285317 0.068293 0.193994 0.131337 0.110072 0.329120 0.140307 -0.606414
0.072396 0.072899 0.074406 0.076918 0.080434 0.084953 0.090474 0.096994 0.104513 0.113028 0.122534 0.133027 0.144503 0.156955 0.170375 0.184754 0.200080 0.216342 0.233524 0.251609 0.270576 0.290404 0.311065 0.332531 0.354768 0.377739 0.401403 0.425715 0.450622 0.476070 0.501997 0.528337 0.555015 0.581955 0.609070 0.636268 0.663452 0.690516 0.717349 0.743832 0.769838 0.795237 0.819888 0.843648 0.866364 0.887879 0.908033 0.926657 0.943581 0.958632 0.971632 0.982403 0.990769 0.996551 0.999575 0.999669 0.996667 0.990409 0.980747 0.967538 0.950656 0.929989 0.905438 0.876927 0.844401 0.807824 0.767191 0.722520 0.673862 0.621298 0.564945 0.504952 0.441508 0.374839 0.305211 0.232930 0.158342 0.081833 0.003831 0.075199 0.154754 0.234297 0.313256 0.391031 0.466997 0.540506 0.610898 0.677498 0.739634 0.796633 0.847836 0.892602 0.930320 0.960416 0.982364 0.995691 0.999994 0.994943 0.980294 0.955894 0.921694 0.877755 0.824251 0.761480 0.689863 0.609952 0.522424 0.428088 0.327874 0.222835 0.114133 0.003036 0.109100 0.220844 0.330704 0.437149 0.538631 0.633604 0.720556 0.798025 0.864637 0.919123 0.960357 0.987374 0.999400 0.995879 0.976487 0.941159 0.890101 0.823801 0.743033 0.648865 0.542646 0.426002 0.300815 0.169198 0.033472 0.103879 0.240247 0.372945 0.499265 0.616528 0.722154 0.813707 0.888974 0.946014 0.983216 0.999357 0.993647 0.965766 0.915896 0.844742 0.753535 0.644030 0.518485 0.379628 0.230609 0.074935 0.083604 0.241019 0.393225 0.536148 0.665829 0.778548 0.870935 0.940079 0.983634 0.999910 0.987951 0.947593 0.879503 0.785194 0.667016 0.528111 0.372356 0.204262 0.028861 0.148436 0.322006 0.486181 0.635449 0.764632 0.869091 0.944890 0.988975 0.999305 0.974972 0.916269 0.824732 0.703127 0.555391 0.386537 0.202497 0.009931 0.183997 0.371887 0.546381 0.700461 0.827733 0.922719 0.981107 0.999973 0.977950 0.915342 0.814170 0.678142 0.512556 0.324116 0.120693 0.088993 0.295725 0.490206 0.663471 0.807307 0.914678 0.980078 0.999852 0.972429 0.898466 0.780891 0.624826 0.437413 0.227514 0.005319 0.218125 0.431462 0.623601 0.784305 0.904761 0.978087 0.999768 0.967967 0.883708 0.750915 0.576271 0.368933 0.140096 0.097598 0.330726 0.545848 0.730282 0.872882 0.964733 0.999758 0.975160 0.891693 0.753710 0.569010 0.348440 0.105306 0.145393 0.387878 0.606582 0.787160 0.917453 0.988362 0.994520 0.934762 0.812319 0.634714 0.413367 0.162926 0.099683 0.356351 0.589046 0.781086 0.918368 0.990449 0.991401 0.920364 0.781736 0.584992 0.344111 0.076631 0.197582 0.457778 0.683905 0.858185 0.966532 0.999776 0.954497 0.833451 0.645491 0.405021 0.130954 0.154723 0.428685 0.668157 0.852857 0.966735 0.999453 0.947399 0.814157 0.610375 0.353011 0.063987 0.231611 0.507692 0.739469 0.905718 0.990775 0.986110 0.891260 0.714073 0.470163 0.181630 0.124872 0.420543 0.677163 0.869784 0.979231 0.994096 0.912024 0.740155 0.494620 0.199147 0.117160 0.422637 0.686223 0.880645 0.985309 0.988571 0.889158 0.696517 0.430056 0.117299 0.208876 0.513642 0.763963 0.932202 0.999266 0.956887 0.808764 0.570408 0.267643 0.066068 0.393271 0.676694 0.883531 0.989309 0.980903 0.858298 0.634860 0.336034 0.003427 0.343432 0.643233 0.866361 0.985113 0.984128 0.862513 0.634245 0.326726 0.022359 0.369592 0.671170 0.888474 0.993098 0.970697 0.823112 0.568448 0.239016 0.122604
1.000000 1.000000 1.000000 1.000000 1.000000 1.000000 1.000000 1.000000 1.000000 1.000000 1.000000 1.000000 1.000000 1.000000 1.000000 1.000000 1.000000 1.000000 1.000000 1.000000 1.000000 1.000000 1.000000 1.000000 1.000000 1.000000 1.000000 1.000000 1.000000 1.000000 1.000000 1.000000 1.000000 1.000000 1.000000 1.000000 1.000000 1.000000 1.000000 1.000000 1.000000 1.000000 1.000000 1.000000 1.000000 1.000000 1.000000 1.000000 1.000000 1.000000 1.000000 1.000000 0.926100 0.926100 0.926100 0.915136 0.915136 0.915136 0.915136 0.915136 0.915136 0.915136 0.915136 0.915136 0.915136 0.915136 0.915136 0.915136 0.915136 0.915136 0.915136 0.915136 0.915136 0.915136 0.915136 0.915136 0.915136 0.915136 0.915136 0.915136 0.915136 0.915136 0.915136 0.915136 0.915136 0.915136 0.915136 0.915136 0.915136 0.915136 0.915136 0.915136 0.915136 0.915136 0.915136 0.915136 0.943182 0.944605 0.952664 0.952506 0.951955 0.949790 0.948758 0.948300 0.948186 0.948495 0.949174 0.950104 0.958880 0.960058 0.962864 0.963727 0.964450 0.965075 0.965709 0.966335 0.965503 0.964919 0.964402 0.960432 0.963169 0.962512 0.962589 0.963605 0.963486 0.965253 0.965450 0.964828 0.963896 0.963100 0.962330 0.961873 0.961590 0.962108 0.962430 0.963776 0.966983 0.966439 0.966144 0.966301 0.966403 0.966600 0.967086 0.968848 0.965095 0.965638 0.965598 0.963536 0.970156 0.967374 0.967880 0.968395 0.969827 0.970042 0.966894 0.962845 0.954938 0.954073 0.949892 0.940618 0.938110 0.939281 0.941427 0.941979 0.941169 0.934296 0.934804 0.929592 0.929200 0.932473 0.928654 0.926812 0.928140 0.926786 0.925017 0.924172 0.921300 0.916683 0.913761 0.913434 0.916838 0.919100 0.920453 0.920169 0.914264 0.903316 0.886510 0.883698 0.879000 0.882581 0.873471 0.872971 0.873095 0.869803 0.873744 0.874775 0.875879 0.871662 0.856243 0.836481 0.827601 0.830863 0.836574 0.833560 0.832714 0.826000 0.839199 0.823309 0.836456 0.848824 0.842288 0.843272 0.843185 0.840237 0.830853 0.829546 0.832384 0.834367 0.834657 0.833717 0.825838 0.812978 0.815615 0.762621 0.746716 0.742820 0.747796 0.752135 0.751532 0.749973 0.757927 0.763304 0.764056 0.750524 0.742617 0.732643 0.737416 0.742142 0.747569 0.738068 0.723362 0.708990 0.669549 0.686471 0.714956 0.667907 0.689843 0.697497 0.690991 0.690598 0.682359 0.676455 0.669344 0.672616 0.683989 0.701169 0.717595 0.740227 0.734081 0.723682 0.725161 0.704709 0.695938 0.685128 0.690971 0.671971 0.665665 0.687358 0.687854 0.679773 0.672047 0.655210 0.639194 0.641889 0.646477 0.641515 0.641833 0.626062 0.598981 0.595380 0.627387 0.646483 0.664981 0.638514 0.623795 0.617264 0.597918 0.614095 0.568951 0.568727 0.589899 0.595921 0.574282 0.545237 0.550816 0.571111 0.578279 0.570215 0.543053 0.534029 0.547642 0.575024 0.565562 0.537624 0.544405 0.541572 0.539977 0.485133 0.483451 0.451722 0.429013 0.358059 0.332195 0.330732 0.318480 0.313050 0.282544 0.277724 0.286481 0.298481 0.304788 0.301221 0.284246 0.286733 0.278148 0.265698 0.205830 0.191347 0.181638 0.171238 0.173350 0.147188 0.165552 0.224798 0.227068 0.227068 0.227068 0.227068 0.227068 0.227068 0.237893 0.237893 0.237893 0.237893 0.237893 0.237893 0.237893 0.237893 0.237893 0.249759 0.249759 0.249759 0.249759 0.249759 0.249759 0.249759 0.249759 0.249759 0.249759 0.249759 0.249759 0.249759 0.249759
0.000000 0.000000 0.000000 0.000000 0.000000 0.000000 0.000000 0.000000 0.000000 0.000000 0.000000 0.000000 0.000000 0.000000 0.000000 0.000000 0.000000 0.000000 0.000000 0.000000 0.000000 0.000000 0.000000 0.000000 0.000000 7.000000 4.000000 0.000000 0.000000 0.000000 0.000000 0.000000 0.000000 0.000000 0.000000 0.000000 0.000000 0.000000 0.000000 0.000000 0.000000 0.000000 0.000000 0.000000 0.000000 0.000000 0.000000 0.000000 0.000000 0.000000 0.000000 0.000000 0.180334 0.180334 0.180334 0.199007 0.199007 0.199007 0.199007 0.199007 0.199007 0.199007 0.199007 0.199007 0.199007 0.199007 0.199007 0.199007 0.199007 0.199007 0.199007 0.199007 0.199007 0.199007 0.199007 0.199007 0.199007 0.199007 0.199007 0.199007 0.199007 0.199007 0.199007 0.199007 0.199007 0.199007 0.199007 0.199007 0.199007 0.199007 0.199007 0.199007 0.199007 0.199007 0.199007 0.199007 0.225018 0.225018 0.225018 0.225018 0.225018 0.225018 0.225018 0.225018 0.225018 0.225018 0.225018 0.225018 0.225018 0.225018 0.225018 0.225018 0.225018 0.225018 0.225018 0.225018 0.225018 0.225018 0.225018 0.225018 0.225018 0.225018 0.225018 0.225018 0.225018 0.244339 0.244339 0.244339 0.244339 0.244339 0.244339 0.244339 0.244339 0.244339 0.244339 0.244339 0.244339 0.244339 0.244339 0.244339 0.244339 0.244339 0.244339 0.244339 0.244339 0.244339 0.244339 0.244339 0.251976 0.251976 0.251976 0.251976 0.251976 0.251976 0.251976 0.251976 0.251976 0.251976 0.251976 0.251976 0.251976 0.251976 0.251976 0.251976 0.251976 0.251976 0.251976 0.251976 0.264906 0.264906 0.264906 0.264906 0.264906 0.264906 0.264906 0.264906 0.264906 0.264906 0.264906 0.264906 0.264906 0.264906 0.264906 0.264906 0.264906 0.264906 0.264906 0.264906 0.264906 0.264906 0.264906 0.264906 0.264906 0.264906 0.264906 0.264906 0.264906 0.264906 0.264906 0.264906 0.264906 0.264906 0.264906 0.264906 0.264906 0.264906 0.264906 0.264906 0.264906 0.264906 0.264906 0.264906 0.264906 0.264906 0.264906 0.264906 0.264906 0.264906 0.264906 0.264906 0.264906 0.264906 0.264906 0.264906 0.264906 0.264906 0.264906 0.264906 0.264906 0.264906 0.256074 0.256074 0.256074 0.256074 0.256074 0.256074 0.256074 0.256074 0.256074 0.256074 0.256074 0.256074 0.256074 0.256074 0.269680 0.269680 0.269680 0.269680 0.269680 0.269680 0.269680 0.269680 0.269680 0.269680 0.269680 0.269680 0.264906 0.264906 0.264906 0.264906 0.264906 0.264906 0.264906 0.264906 0.264906 0.264906 0.264906 0.264906 0.269680 0.269680 0.269680 0.269680 0.269680 0.269680 0.269680 0.269680 0.269680 0.269680 0.269680 0.264906 0.264906 0.264906 0.264906 0.264906 0.264906 0.264906 0.264906 0.264906 0.264906 0.264906 0.256074 0.256074 0.256074 0.256074 0.256074 0.256074 0.256074 0.256074 0.256074 0.256074 0.256074 0.264906 0.264906 0.264906 0.264906 0.264906 0.264906 0.264906 0.264906 0.264906 0.264906 0.260378 0.260378 0.260378 0.260378 0.260378 0.260378 0.260378 0.260378 0.260378 0.260378 0.256074 0.256074 0.256074 0.256074 0.256074 0.256074 0.256074 0.256074 0.256074 0.256074 0.260378 0.260378 0.260378 0.260378 0.260378 0.260378 0.260378 0.260378 0.260378 0.256074 0.256074 0.256074 0.256074 0.256074 0.256074 0.256074 0.256074 0.256074 0.251976 0.251976 0.251976 0.251976 0.251976 0.251976 0.251976 0.251976 0.251976 0.251976 0.251976 0.251976 0.251976 0.251976
