# Output from CTFFind version 4.1.9, run on 2019-11-03 19:28:34
# Input file: stack1_bm3d_averaged_1_3.75_0_1500_half.mrc ; Number of micrographs: 1
# Pixel size: 3.000 Angstroms ; acceleration voltage: 300.0 keV ; spherical aberration: 0.00 mm ; amplitude contrast: 0.07
# Box size: 512 pixels ; min. res.: 30.0 Angstroms ; max. res.: 5.0 Angstroms ; min. def.: 5000.0 um; max. def. 50000.0 um; num. frames averaged: 1
# 6 lines per micrograph: #1 - spatial frequency (1/Angstroms); #2 - 1D rotational average of spectrum (assuming no astigmatism); #3 - 1D rotational average of spectrum; #4 - CTF fit; #5 - cross-correlation between spectrum and CTF fit; #6 - 2sigma of expected cross correlation of noise
0.000000 0.000651 0.001302 0.001953 0.002604 0.003255 0.003906 0.004557 0.005208 0.005859 0.006510 0.007161 0.007812 0.008464 0.009115 0.009766 0.010417 0.011068 0.011719 0.012370 0.013021 0.013672 0.014323 0.014974 0.015625 0.016276 0.016927 0.017578 0.018229 0.018880 0.019531 0.020182 0.020833 0.021484 0.022135 0.022786 0.023438 0.024089 0.024740 0.025391 0.026042 0.026693 0.027344 0.027995 0.028646 0.029297 0.029948 0.030599 0.031250 0.031901 0.032552 0.033203 0.033854 0.034505 0.035156 0.035807 0.036458 0.037109 0.037760 0.038411 0.039062 0.039714 0.040365 0.041016 0.041667 0.042318 0.042969 0.043620 0.044271 0.044922 0.045573 0.046224 0.046875 0.047526 0.048177 0.048828 0.049479 0.050130 0.050781 0.051432 0.052083 0.052734 0.053385 0.054036 0.054688 0.055339 0.055990 0.056641 0.057292 0.057943 0.058594 0.059245 0.059896 0.060547 0.061198 0.061849 0.062500 0.063151 0.063802 0.064453 0.065104 0.065755 0.066406 0.067057 0.067708 0.068359 0.069010 0.069661 0.070312 0.070964 0.071615 0.072266 0.072917 0.073568 0.074219 0.074870 0.075521 0.076172 0.076823 0.077474 0.078125 0.078776 0.079427 0.080078 0.080729 0.081380 0.082031 0.082682 0.083333 0.083984 0.084635 0.085286 0.085938 0.086589 0.087240 0.087891 0.088542 0.089193 0.089844 0.090495 0.091146 0.091797 0.092448 0.093099 0.093750 0.094401 0.095052 0.095703 0.096354 0.097005 0.097656 0.098307 0.098958 0.099609 0.100260 0.100911 0.101562 0.102214 0.102865 0.103516 0.104167 0.104818 0.105469 0.106120 0.106771 0.107422 0.108073 0.108724 0.109375 0.110026 0.110677 0.111328 0.111979 0.112630 0.113281 0.113932 0.114583 0.115234 0.115885 0.116536 0.117188 0.117839 0.118490 0.119141 0.119792 0.120443 0.121094 0.121745 0.122396 0.123047 0.123698 0.124349 0.125000 0.125651 0.126302 0.126953 0.127604 0.128255 0.128906 0.129557 0.130208 0.130859 0.131510 0.132161 0.132812 0.133464 0.134115 0.134766 0.135417 0.136068 0.136719 0.137370 0.138021 0.138672 0.139323 0.139974 0.140625 0.141276 0.141927 0.142578 0.143229 0.143880 0.144531 0.145182 0.145833 0.146484 0.147135 0.147786 0.148438 0.149089 0.149740 0.150391 0.151042 0.151693 0.152344 0.152995 0.153646 0.154297 0.154948 0.155599 0.156250 0.156901 0.157552 0.158203 0.158854 0.159505 0.160156 0.160807 0.161458 0.162109 0.162760 0.163411 0.164062 0.164714 0.165365 0.166016 0.166667 0.167318 0.167969 0.168620 0.169271 0.169922 0.170573 0.171224 0.171875 0.172526 0.173177 0.173828 0.174479 0.175130 0.175781 0.176432 0.177083 0.177734 0.178385 0.179036 0.179688 0.180339 0.180990 0.181641 0.182292 0.182943 0.183594 0.184245 0.184896 0.185547 0.186198 0.186849 0.187500 0.188151 0.188802 0.189453 0.190104 0.190755 0.191406 0.192057 0.192708 0.193359 0.194010 0.194661 0.195312 0.195964 0.196615 0.197266 0.197917 0.198568 0.199219 0.199870 0.200521 0.201172 0.201823 0.202474 0.203125 0.203776 0.204427 0.205078 0.205729 0.206380 0.207031 0.207682 0.208333 0.208984 0.209635 0.210286 0.210938 0.211589 0.212240 0.212891 0.213542 0.214193 0.214844 0.215495 0.216146 0.216797 0.217448 0.218099 0.218750 0.219401 0.220052 0.220703 0.221354 0.222005 0.222656 0.223307 0.223958 0.224609 0.225260 0.225911 0.226562 0.227214 0.227865 0.228516 0.229167 0.229818 0.230469 0.231120 0.231771 0.232422 0.233073 0.233724 0.234375 0.235026 0.235677
       0.34902        0.34902        0.34902        0.34902        0.34902        0.34902        0.34902        0.34902        0.34902        0.34902        0.34902        0.34902        0.34902        0.34902        0.34902        0.34902        0.34902        0.34902        0.34902        0.34902        0.34902        0.34902        0.34902        0.34902        0.34902        0.34902        0.34902        0.34902        0.34902        0.34902        0.34902        0.34902        0.34902        0.34902        0.34902        0.34902        0.34902        0.34902        0.34902        0.34902        0.34902        0.34902        0.34902        0.34902        0.34902        0.34902        0.34902        0.34902        0.34902        0.34902        0.34902        0.47437        0.68563        0.36853        0.19205       -0.03610       -0.24246       -0.05350       -0.13619       -0.11496        0.01160       -0.11010       -0.11504       -0.04637       -0.03197       -0.12937       -0.16230       -0.30388       -0.46915       -0.55497       -0.51588       -0.43275       -0.33065       -0.51114       -0.38681       -0.51341       -0.42318       -0.44760       -0.32108       -0.30074       -0.28403       -0.18285       -0.10767       -0.09079        0.05105        0.02331        0.18639        0.17164        0.31775        0.39631        0.51496        0.54035        0.56198        0.59488        0.73435        0.64376        0.63473        0.55243        0.53703        0.61697        0.50600        0.48378        0.41300        0.31734        0.28471        0.29575        0.25270        0.13287        0.13243        0.00699        0.06781        0.06786        0.03780        0.09093        0.12954        0.21868        0.28972        0.29464        0.36041        0.50006        0.51805        0.53802        0.65673        0.63270        0.60948        0.63989        0.62563        0.50136        0.50170        0.40342        0.35788        0.28085        0.21848        0.18382        0.16472        0.13130        0.19329        0.20172        0.24050        0.25079        0.32638        0.37708        0.39741        0.49342        0.53949        0.55623        0.52529        0.59752        0.51623        0.49115        0.50192        0.38299        0.32057        0.28995        0.28775        0.20995        0.23097        0.21269        0.22373        0.23793        0.32120        0.37383        0.41498        0.43977        0.44650        0.47114        0.44239        0.48390        0.41980        0.38220        0.34892        0.38782        0.35749        0.34180        0.25809        0.30698        0.26460        0.26774        0.28372        0.36428        0.37896        0.41705        0.43750        0.46174        0.43561        0.43250        0.46937        0.36735        0.35474        0.34509        0.29924        0.34256        0.28709        0.32200        0.33179        0.32462        0.36974        0.40889        0.38937        0.43157        0.38664        0.41226        0.38265        0.40859        0.31187        0.30776        0.28166        0.24973        0.31393        0.34372        0.36018        0.36314        0.38213        0.38882        0.36385        0.43626        0.39811        0.37293        0.36044        0.31673        0.28679        0.31166        0.31494        0.36494        0.33055        0.35215        0.34169        0.39655        0.38078        0.37075        0.38184        0.38328        0.35420        0.31857        0.34964        0.33834        0.34812        0.31592        0.36204        0.36701        0.33427        0.33853        0.36245        0.33095        0.29173        0.30311        0.30617        0.32018        0.31297        0.35392        0.32739        0.32974        0.33503        0.33054        0.31912        0.29788        0.31579        0.32130        0.30903        0.31290        0.32001        0.31361        0.34074        0.32349        0.38254        0.37822        0.33501        0.37216        0.31784        0.25810        0.28723        0.33211        0.33182        0.30027        0.34091        0.32241        0.31800        0.34594        0.35999        0.33692        0.31247        0.28970        0.33970        0.36377        0.37534        0.30559        0.31101        0.28968        0.25959        0.26191        0.32809        0.31388        0.31309        0.30213        0.29122        0.28925        0.34044        0.36653        0.35151        0.30255        0.32289        0.33234        0.34656        0.38806        0.32835        0.33257        0.32835        0.35226        0.32083        0.32147        0.33255        0.26327        0.29146        0.32770        0.30428        0.33205        0.30481        0.25312        0.24004        0.29079        0.29335        0.35556        0.31375        0.30406        0.27607        0.32091        0.33235        0.28455        0.27775        0.25016        0.28658        0.30607        0.34877        0.28871        0.32148        0.32532        0.29298        0.33496        0.26347        0.21111        0.20523        0.26351        0.24249        0.25497        0.21314        0.20904        0.34864        0.31609        0.24805        0.24211        0.19513        0.27971        0.37382        0.22789        0.10294        0.18012        0.15673        0.17935        0.25091        0.12182        0.09105       -0.49058       -1.09524
2.782120 2.752422 2.722885 2.693510 2.664297 2.635245 2.606355 2.577626 2.549059 2.520654 2.492410 2.464328 2.436408 2.408649 2.381051 2.353615 2.326341 2.299229 2.272278 2.245489 2.218861 2.192395 2.166090 2.139947 2.113966 2.088146 2.062488 2.036992 2.011657 1.986484 1.961472 1.936622 1.911933 1.887407 1.863041 1.838838 1.814796 1.790915 1.767196 1.743639 1.720244 1.697009 1.673937 1.651026 1.628277 1.605689 1.583263 1.560999 1.538896 1.516955 1.495175 1.517363 1.875232 1.701944 1.122396 1.061487 0.500588 0.926810 0.600974 0.775595 0.880417 0.666624 0.614650 0.774424 0.743994 0.601857 0.572610 0.361796 0.053412 0.011329 -0.008177 -0.027659 0.329554 -0.065209 0.053319 -0.058508 -0.003919 -0.030130 0.091853 0.101250 0.116072 0.195196 0.309554 0.282833 0.454086 0.385016 0.628116 0.521055 0.765877 0.757244 0.930358 1.021167 0.958415 1.007936 1.138740 1.113915 1.055256 0.887345 0.877070 0.972383 0.817655 0.818207 0.659823 0.554034 0.499701 0.476546 0.458713 0.244138 0.268818 0.109204 0.064670 0.171196 0.040459 0.084326 0.171064 0.212724 0.322991 0.335236 0.416185 0.464427 0.623976 0.484831 0.749319 0.755039 0.617700 0.721683 0.693181 0.547168 0.438383 0.428853 0.287995 0.239799 0.088327 0.078291 -0.000555 -0.007749 -0.033582 0.036967 0.078639 0.070244 0.097988 0.223704 0.244801 0.294543 0.415181 0.423496 0.357680 0.455033 0.406625 0.323205 0.323940 0.286509 0.079554 0.082083 0.022061 -0.025448 -0.042588 -0.071129 -0.052335 -0.058288 -0.009254 0.084928 0.166122 0.204401 0.176251 0.213222 0.267732 0.224744 0.218663 0.208694 0.097838 0.091158 0.150144 0.058323 0.011598 -0.010289 0.029643 -0.033878 -0.003236 0.030848 0.113229 0.112248 0.161166 0.188530 0.226207 0.123882 0.204205 0.167413 0.099130 0.053330 0.013545 0.054482 -0.005802 0.012748 0.002972 0.047125 0.025743 0.101210 0.142285 0.067966 0.160475 0.090308 0.104783 0.121241 0.089304 -0.041907 -0.000940 -0.057081 -0.068394 0.019681 0.052602 0.081177 0.035438 0.092950 0.125541 0.086277 0.168927 0.066487 0.090909 0.078548 -0.053312 -0.000287 0.005923 0.022648 0.073185 0.048017 0.034862 0.082447 0.089526 0.081007 0.098371 0.089538 0.078464 0.048663 0.032944 0.051040 0.031812 0.066919 0.016888 0.084739 0.051170 0.002878 0.039394 0.061254 -0.010095 -0.054945 0.006532 -0.030680 -0.014672 -0.012149 0.045170 0.011516 -0.004224 0.026293 0.004897 0.004883 -0.011415 -0.009112 -0.009904 0.016706 -0.010337 0.000568 -0.023794 0.040371 0.023825 0.099259 0.078137 0.051502 0.066768 -0.009599 -0.089723 0.002326 0.024504 0.042500 -0.009916 0.047687 0.014771 -0.005305 0.043680 0.054026 0.038046 -0.053137 -0.008267 0.052826 0.048701 0.063285 -0.033936 -0.008609 -0.032944 -0.062592 -0.052703 0.011252 0.038615 -0.013373 0.004803 -0.040530 -0.029947 0.019820 0.101182 -0.027776 0.013336 -0.044636 0.033634 0.029316 0.075702 -0.017533 -0.025555 0.022901 -0.004332 -0.044530 -0.039908 -0.008279 -0.117258 -0.053453 -0.017442 -0.032046 -0.014092 -0.096674 -0.090304 -0.093246 -0.039532 -0.126423 0.060543 -0.053708 -0.018530 -0.064336 0.001087 0.014934 -0.033837 -0.030974 -0.105184 0.026269 0.001823 0.083248 -0.036710 0.037991 0.066063 0.003510 0.131908 -0.021029 -0.093298 -0.036183 0.025218 0.004278 0.056728 -0.025457 -0.024881 0.173800 0.126595 0.084033 0.019179 0.020140 0.089058 0.294193 0.434909 0.108542 0.222785 0.246254 0.170916 0.328564 0.085410 0.118630 -1.380033
0.072396 0.072908 0.074442 0.076999 0.080578 0.085178 0.090798 0.097436 0.105089 0.113756 0.123432 0.134113 0.145793 0.158466 0.172123 0.186755 0.202350 0.218895 0.236374 0.254770 0.274060 0.294221 0.315225 0.337042 0.359637 0.382971 0.407000 0.431676 0.456945 0.482750 0.509025 0.535701 0.562701 0.589942 0.617334 0.644782 0.672183 0.699425 0.726393 0.752961 0.778999 0.804368 0.828924 0.852514 0.874981 0.896162 0.915888 0.933987 0.950281 0.964590 0.976734 0.986527 0.993789 0.998338 0.999996 0.998589 0.993950 0.985919 0.974347 0.959097 0.940045 0.917084 0.890125 0.859101 0.823966 0.784700 0.741314 0.693843 0.642360 0.586968 0.527809 0.465060 0.398940 0.329707 0.257660 0.183140 0.106533 0.028261 0.051210 0.131374 0.211689 0.291578 0.370434 0.447619 0.522476 0.594327 0.662485 0.726256 0.784949 0.837883 0.884396 0.923854 0.955658 0.979259 0.994161 0.999937 0.996237 0.982795 0.959443 0.926116 0.882861 0.829846 0.767362 0.695831 0.615807 0.527978 0.433164 0.332314 0.226504 0.116924 0.004871 0.108263 0.221008 0.331833 0.439166 0.541415 0.636996 0.724353 0.801992 0.868504 0.922595 0.963118 0.989096 0.999755 0.994542 0.973154 0.935555 0.881990 0.812999 0.729420 0.632392 0.523348 0.404002 0.276331 0.142548 0.005071 0.133521 0.270523 0.403171 0.528682 0.644325 0.747480 0.835699 0.906777 0.958807 0.990244 0.999955 0.987272 0.952022 0.894562 0.815793 0.717162 0.600654 0.468763 0.324456 0.171110 0.012450 0.147541 0.304715 0.454866 0.593846 0.717681 0.822689 0.905608 0.963698 0.994850 0.997673 0.971571 0.916788 0.834444 0.726528 0.595882 0.446138 0.281639 0.107325 0.071402 0.248842 0.419169 0.576635 0.715753 0.831513 0.919566 0.976409 0.999537 0.987578 0.940384 0.859086 0.746094 0.605065 0.440800 0.259117 0.066652 0.129369 0.321384 0.501799 0.663276 0.799055 0.903251 0.971118 0.999304 0.986033 0.931240 0.836635 0.705689 0.543543 0.356841 0.153480 0.057697 0.267286 0.465719 0.643716 0.792724 0.905355 0.975765 0.999999 0.976241 0.904977 0.789043 0.633561 0.445756 0.234655 0.010682 0.214835 0.430236 0.624126 0.785990 0.906790 0.979495 0.999535 0.965121 0.877437 0.740662 0.561826 0.350498 0.118310 0.121652 0.355568 0.569678 0.751103 0.888642 0.973495 0.999873 0.965441 0.871564 0.723329 0.529331 0.301234 0.053112 0.199393 0.440037 0.653022 0.824047 0.941313 0.996365 0.984772 0.906536 0.766208 0.572713 0.338834 0.080431 0.184599 0.437553 0.660222 0.836231 0.952293 0.999247 0.972858 0.874261 0.710015 0.491754 0.235428 0.039796 0.312955 0.562842 0.769698 0.916779 0.991786 0.987956 0.904747 0.748044 0.529838 0.267392 0.018067 0.303004 0.563527 0.777372 0.925870 0.995624 0.979803 0.878895 0.700845 0.460538 0.178626 0.120153 0.409133 0.662082 0.855598 0.971349 0.997874 0.931821 0.778443 0.551314 0.271233 0.035614 0.340021 0.612550 0.826382 0.960013 0.999498 0.940015 0.786551 0.553618 0.264013 0.053347 0.366224 0.642341 0.852723 0.974802 0.994933 0.910038 0.728170 0.467880 0.156464 0.172829 0.484275 0.743570 0.921637 0.997978 0.963147 0.820054 0.583893 0.280681 0.055510 0.386287 0.673322 0.882810 0.989529 0.980002 0.854338 0.626500 0.322917 0.020462 0.362323 0.660948 0.879319 0.989795 0.977736 0.843604 0.603201 0.285980 0.068419 0.415056 0.709337 0.912820 0.998315 0.953673 0.783671 0.509729 0.167372 0.198252 0.538228 0.806449 0.965909
1.000000 1.000000 1.000000 1.000000 1.000000 1.000000 1.000000 1.000000 1.000000 1.000000 1.000000 1.000000 1.000000 1.000000 1.000000 1.000000 1.000000 1.000000 1.000000 1.000000 1.000000 1.000000 1.000000 1.000000 1.000000 1.000000 1.000000 1.000000 1.000000 1.000000 1.000000 1.000000 1.000000 1.000000 1.000000 1.000000 1.000000 1.000000 1.000000 1.000000 1.000000 1.000000 1.000000 1.000000 1.000000 1.000000 1.000000 1.000000 1.000000 1.000000 1.000000 1.000000 0.905284 0.905284 0.905284 0.888874 0.888874 0.888874 0.888874 0.888874 0.888874 0.888874 0.888874 0.888874 0.888874 0.888874 0.888874 0.888874 0.888874 0.888874 0.888874 0.888874 0.888874 0.888874 0.888874 0.888874 0.888874 0.888874 0.888874 0.888874 0.888874 0.888874 0.888874 0.888874 0.888874 0.888874 0.888874 0.888874 0.888874 0.888874 0.888874 0.888874 0.888874 0.888874 0.888874 0.888874 0.896510 0.898721 0.900086 0.902729 0.904112 0.901291 0.900592 0.900212 0.900665 0.901794 0.912374 0.923748 0.935564 0.947001 0.952323 0.961055 0.962836 0.963098 0.969283 0.974604 0.973066 0.972408 0.972774 0.974180 0.976044 0.973490 0.973771 0.973630 0.976609 0.977060 0.973891 0.972577 0.971739 0.970949 0.970919 0.970446 0.970561 0.971454 0.971963 0.972413 0.972743 0.972916 0.971439 0.969826 0.965227 0.965546 0.965312 0.964620 0.961375 0.957389 0.956977 0.954032 0.954114 0.954361 0.954757 0.955199 0.952654 0.952896 0.939487 0.938431 0.937781 0.934956 0.932201 0.931645 0.929456 0.931561 0.929972 0.918298 0.908297 0.882258 0.874923 0.861959 0.857742 0.852063 0.854562 0.853719 0.854979 0.852285 0.847017 0.846482 0.842763 0.846874 0.845748 0.842884 0.841583 0.840950 0.831172 0.832043 0.826988 0.817019 0.813657 0.815079 0.814562 0.814490 0.814614 0.809176 0.815064 0.808752 0.805536 0.801014 0.795368 0.787588 0.773247 0.778914 0.785018 0.800416 0.798814 0.789310 0.768346 0.782838 0.785177 0.775993 0.780097 0.776649 0.740862 0.737880 0.736022 0.717515 0.727166 0.718917 0.722694 0.714981 0.710345 0.685936 0.665445 0.675702 0.682524 0.708837 0.706263 0.703513 0.697312 0.694186 0.665107 0.653751 0.656933 0.619197 0.629939 0.636878 0.608888 0.607214 0.591348 0.589180 0.596027 0.599528 0.595565 0.613692 0.606216 0.592089 0.580855 0.577073 0.573265 0.563893 0.548575 0.559818 0.541817 0.519170 0.527062 0.522253 0.525852 0.502542 0.482107 0.472101 0.431325 0.422826 0.395867 0.363620 0.348844 0.318774 0.261378 0.243327 0.263501 0.244361 0.230007 0.228255 0.194949 0.205366 0.179084 0.169384 0.176321 0.144033 0.128048 0.107578 0.087893 0.113774 0.135225 0.143154 0.130130 0.127545 0.161700 0.168697 0.155110 0.142617 0.133183 0.135642 0.113651 0.076650 0.048851 0.018117 0.012099 -0.041099 -0.033768 -0.036433 -0.035818 -0.056895 -0.065850 -0.062905 -0.050883 -0.063497 -0.078517 -0.096254 -0.091554 -0.100393 -0.081331 -0.069966 -0.065241 -0.070429 -0.051536 -0.025544 -0.021525 -0.033790 -0.045783 -0.084983 -0.075183 -0.054311 0.009171 0.030475 0.033690 0.101171 0.098169 0.087134 0.080812 0.089404 0.067101 0.109768 0.122730 0.123403 0.118533 0.034989 0.024686 0.024686 0.024686 0.021437 0.021437 0.021437 0.021437 0.021437 0.021437 0.021437 0.021437 0.021437 0.008352 0.008352 0.008352 0.008352 0.008352 0.008352 0.008352 0.008352 0.008352 0.008352 0.008352 0.008352 0.008352 0.008352 0.008352 0.008352 0.008352
0.000000 0.000000 0.000000 0.000000 0.000000 0.000000 0.000000 0.000000 0.000000 0.000000 0.000000 0.000000 0.000000 0.000000 0.000000 0.000000 0.000000 0.000000 0.000000 0.000000 0.000000 0.000000 0.000000 0.000000 0.000000 0.000000 0.000000 0.000000 0.000000 0.000000 0.000000 0.000000 0.000000 0.000000 0.000000 0.000000 0.000000 0.000000 0.000000 0.000000 0.000000 0.000000 0.000000 0.000000 0.000000 0.000000 0.000000 0.000000 0.000000 0.000000 0.000000 0.000000 0.180334 0.180334 0.180334 0.199007 0.199007 0.199007 0.199007 0.199007 0.199007 0.199007 0.199007 0.199007 0.199007 0.199007 0.199007 0.199007 0.199007 0.199007 0.199007 0.199007 0.199007 0.199007 0.199007 0.199007 0.199007 0.199007 0.199007 0.199007 0.199007 0.199007 0.199007 0.199007 0.199007 0.199007 0.199007 0.199007 0.199007 0.199007 0.199007 0.199007 0.199007 0.199007 0.199007 0.199007 0.230940 0.230940 0.230940 0.230940 0.230940 0.230940 0.230940 0.230940 0.230940 0.230940 0.230940 0.230940 0.230940 0.230940 0.230940 0.230940 0.230940 0.230940 0.230940 0.230940 0.230940 0.230940 0.230940 0.230940 0.230940 0.230940 0.230940 0.230940 0.248069 0.248069 0.248069 0.248069 0.248069 0.248069 0.248069 0.248069 0.248069 0.248069 0.248069 0.248069 0.248069 0.248069 0.248069 0.248069 0.248069 0.248069 0.248069 0.248069 0.248069 0.248069 0.251976 0.251976 0.251976 0.251976 0.251976 0.251976 0.251976 0.251976 0.251976 0.251976 0.251976 0.251976 0.251976 0.251976 0.251976 0.251976 0.251976 0.251976 0.251976 0.251976 0.256074 0.256074 0.256074 0.256074 0.256074 0.256074 0.256074 0.256074 0.256074 0.256074 0.256074 0.256074 0.256074 0.256074 0.256074 0.256074 0.256074 0.256074 0.264906 0.264906 0.264906 0.264906 0.264906 0.264906 0.264906 0.264906 0.264906 0.264906 0.264906 0.264906 0.264906 0.264906 0.264906 0.264906 0.264906 0.264906 0.264906 0.264906 0.264906 0.264906 0.264906 0.264906 0.264906 0.264906 0.264906 0.264906 0.264906 0.264906 0.264906 0.274721 0.274721 0.274721 0.274721 0.274721 0.274721 0.274721 0.274721 0.274721 0.274721 0.274721 0.274721 0.274721 0.264906 0.264906 0.264906 0.264906 0.264906 0.264906 0.264906 0.264906 0.264906 0.264906 0.264906 0.264906 0.264906 0.260378 0.260378 0.260378 0.260378 0.260378 0.260378 0.260378 0.260378 0.260378 0.260378 0.260378 0.260378 0.260378 0.264906 0.264906 0.264906 0.264906 0.264906 0.264906 0.264906 0.264906 0.264906 0.264906 0.264906 0.264906 0.269680 0.269680 0.269680 0.269680 0.269680 0.269680 0.269680 0.269680 0.269680 0.269680 0.269680 0.264906 0.264906 0.264906 0.264906 0.264906 0.264906 0.264906 0.264906 0.264906 0.264906 0.264906 0.269680 0.269680 0.269680 0.269680 0.269680 0.269680 0.269680 0.269680 0.269680 0.269680 0.264906 0.264906 0.264906 0.264906 0.264906 0.264906 0.264906 0.264906 0.264906 0.264906 0.260378 0.260378 0.260378 0.260378 0.260378 0.260378 0.260378 0.260378 0.260378 0.260378 0.256074 0.256074 0.256074 0.256074 0.256074 0.256074 0.256074 0.256074 0.256074 0.256074 0.260378 0.260378 0.260378 0.260378 0.260378 0.260378 0.260378 0.260378 0.260378 0.256074 0.256074 0.256074 0.256074 0.256074 0.256074 0.256074 0.256074 0.256074 0.251976 0.251976 0.251976 0.251976 0.251976 0.251976 0.251976 0.251976 0.251976 0.251976 0.251976 0.251976 0.251976 0.251976 0.251976 0.251976 0.251976
