# Output from CTFFind version 4.1.9, run on 2019-11-02 17:48:23
# Input file: stack6_bm3d_averaged_1_0.75_0_2000_half.mrc ; Number of micrographs: 1
# Pixel size: 3.000 Angstroms ; acceleration voltage: 300.0 keV ; spherical aberration: 0.00 mm ; amplitude contrast: 0.07
# Box size: 512 pixels ; min. res.: 30.0 Angstroms ; max. res.: 5.0 Angstroms ; min. def.: 5000.0 um; max. def. 50000.0 um; num. frames averaged: 1
# 6 lines per micrograph: #1 - spatial frequency (1/Angstroms); #2 - 1D rotational average of spectrum (assuming no astigmatism); #3 - 1D rotational average of spectrum; #4 - CTF fit; #5 - cross-correlation between spectrum and CTF fit; #6 - 2sigma of expected cross correlation of noise
0.000000 0.000651 0.001302 0.001953 0.002604 0.003255 0.003906 0.004557 0.005208 0.005859 0.006510 0.007161 0.007812 0.008464 0.009115 0.009766 0.010417 0.011068 0.011719 0.012370 0.013021 0.013672 0.014323 0.014974 0.015625 0.016276 0.016927 0.017578 0.018229 0.018880 0.019531 0.020182 0.020833 0.021484 0.022135 0.022786 0.023438 0.024089 0.024740 0.025391 0.026042 0.026693 0.027344 0.027995 0.028646 0.029297 0.029948 0.030599 0.031250 0.031901 0.032552 0.033203 0.033854 0.034505 0.035156 0.035807 0.036458 0.037109 0.037760 0.038411 0.039062 0.039714 0.040365 0.041016 0.041667 0.042318 0.042969 0.043620 0.044271 0.044922 0.045573 0.046224 0.046875 0.047526 0.048177 0.048828 0.049479 0.050130 0.050781 0.051432 0.052083 0.052734 0.053385 0.054036 0.054688 0.055339 0.055990 0.056641 0.057292 0.057943 0.058594 0.059245 0.059896 0.060547 0.061198 0.061849 0.062500 0.063151 0.063802 0.064453 0.065104 0.065755 0.066406 0.067057 0.067708 0.068359 0.069010 0.069661 0.070312 0.070964 0.071615 0.072266 0.072917 0.073568 0.074219 0.074870 0.075521 0.076172 0.076823 0.077474 0.078125 0.078776 0.079427 0.080078 0.080729 0.081380 0.082031 0.082682 0.083333 0.083984 0.084635 0.085286 0.085938 0.086589 0.087240 0.087891 0.088542 0.089193 0.089844 0.090495 0.091146 0.091797 0.092448 0.093099 0.093750 0.094401 0.095052 0.095703 0.096354 0.097005 0.097656 0.098307 0.098958 0.099609 0.100260 0.100911 0.101562 0.102214 0.102865 0.103516 0.104167 0.104818 0.105469 0.106120 0.106771 0.107422 0.108073 0.108724 0.109375 0.110026 0.110677 0.111328 0.111979 0.112630 0.113281 0.113932 0.114583 0.115234 0.115885 0.116536 0.117188 0.117839 0.118490 0.119141 0.119792 0.120443 0.121094 0.121745 0.122396 0.123047 0.123698 0.124349 0.125000 0.125651 0.126302 0.126953 0.127604 0.128255 0.128906 0.129557 0.130208 0.130859 0.131510 0.132161 0.132812 0.133464 0.134115 0.134766 0.135417 0.136068 0.136719 0.137370 0.138021 0.138672 0.139323 0.139974 0.140625 0.141276 0.141927 0.142578 0.143229 0.143880 0.144531 0.145182 0.145833 0.146484 0.147135 0.147786 0.148438 0.149089 0.149740 0.150391 0.151042 0.151693 0.152344 0.152995 0.153646 0.154297 0.154948 0.155599 0.156250 0.156901 0.157552 0.158203 0.158854 0.159505 0.160156 0.160807 0.161458 0.162109 0.162760 0.163411 0.164062 0.164714 0.165365 0.166016 0.166667 0.167318 0.167969 0.168620 0.169271 0.169922 0.170573 0.171224 0.171875 0.172526 0.173177 0.173828 0.174479 0.175130 0.175781 0.176432 0.177083 0.177734 0.178385 0.179036 0.179688 0.180339 0.180990 0.181641 0.182292 0.182943 0.183594 0.184245 0.184896 0.185547 0.186198 0.186849 0.187500 0.188151 0.188802 0.189453 0.190104 0.190755 0.191406 0.192057 0.192708 0.193359 0.194010 0.194661 0.195312 0.195964 0.196615 0.197266 0.197917 0.198568 0.199219 0.199870 0.200521 0.201172 0.201823 0.202474 0.203125 0.203776 0.204427 0.205078 0.205729 0.206380 0.207031 0.207682 0.208333 0.208984 0.209635 0.210286 0.210938 0.211589 0.212240 0.212891 0.213542 0.214193 0.214844 0.215495 0.216146 0.216797 0.217448 0.218099 0.218750 0.219401 0.220052 0.220703 0.221354 0.222005 0.222656 0.223307 0.223958 0.224609 0.225260 0.225911 0.226562 0.227214 0.227865 0.228516 0.229167 0.229818 0.230469 0.231120 0.231771 0.232422 0.233073 0.233724 0.234375 0.235026 0.235677
       0.31331        0.31331        0.31331        0.31331        0.31331        0.31331        0.31331        0.31331        0.31331        0.31331        0.31331        0.31331        0.31331        0.31331        0.31331        0.31331        0.31331        0.31331        0.31331        0.31331        0.31331        0.31331        0.31331        0.31331        0.31331        0.31331        0.31331        0.31331        0.31331        0.31331        0.31331        0.31331        0.31331        0.31331        0.31331        0.31331        0.31331        0.31331        0.31331        0.31331        0.31331        0.31331        0.31331        0.31331        0.31331        0.31331        0.31331        0.31331        0.31331        0.31331        0.31331        0.63728        0.82151        0.41795        0.31361        0.19229       -0.10350        0.11402       -0.00083        0.03604        0.11898        0.33773        0.42747        0.40925        0.22695       -0.00871        0.04960        0.07346       -0.16449       -0.17642       -0.08692       -0.10618       -0.29107       -0.18510       -0.30131       -0.25487       -0.28250       -0.39910       -0.47476       -0.47603       -0.41926       -0.33657       -0.43703       -0.36664       -0.40728       -0.34772       -0.27183       -0.19774       -0.19174       -0.13277       -0.09227        0.03826        0.08635        0.25099        0.28332        0.37348        0.40346        0.51860        0.58957        0.60793        0.74312        0.70164        0.74175        0.65064        0.66694        0.69962        0.63571        0.61650        0.61002        0.43780        0.40012        0.36064        0.32620        0.22426        0.13557        0.06185        0.05986       -0.00077       -0.07734       -0.03103       -0.02994       -0.06785        0.06392        0.16665        0.25738        0.32307        0.33910        0.43412        0.54794        0.59297        0.54519        0.67102        0.56638        0.54378        0.60065        0.64203        0.53331        0.46145        0.40953        0.37708        0.25311        0.21746        0.13324        0.11662        0.05710        0.06263        0.11213        0.16958        0.14850        0.18086        0.21926        0.24119        0.33525        0.45855        0.49655        0.49913        0.52359        0.57875        0.57237        0.52496        0.42571        0.38665        0.36897        0.27137        0.24932        0.21852        0.20778        0.20693        0.18442        0.15934        0.12600        0.19097        0.25045        0.35045        0.38422        0.40706        0.46420        0.53787        0.47916        0.48507        0.42349        0.40243        0.38487        0.36534        0.29120        0.26114        0.20403        0.23583        0.21956        0.19451        0.21920        0.22568        0.24383        0.30017        0.40268        0.40273        0.37264        0.39109        0.45626        0.48552        0.42963        0.35671        0.32749        0.28333        0.26368        0.24716        0.21379        0.28617        0.29463        0.29507        0.31733        0.31196        0.35126        0.37463        0.37530        0.37658        0.35740        0.31963        0.33689        0.31996        0.30038        0.28317        0.27240        0.21860        0.27383        0.27540        0.30465        0.32320        0.34556        0.37657        0.34102        0.32146        0.36049        0.37162        0.27017        0.29752        0.30767        0.24571        0.21379        0.26131        0.27231        0.27781        0.30125        0.30684        0.33560        0.33745        0.36417        0.32997        0.32550        0.31083        0.29384        0.27495        0.24989        0.25572        0.26070        0.27620        0.30054        0.29452        0.30030        0.31564        0.33031        0.26604        0.30616        0.26988        0.26419        0.27974        0.26546        0.26215        0.26800        0.31441        0.28855        0.31877        0.28860        0.27727        0.30994        0.31143        0.33112        0.31622        0.29593        0.25510        0.26865        0.27542        0.26759        0.31205        0.31691        0.34021        0.32518        0.30808        0.26295        0.28395        0.21275        0.20589        0.24480        0.26310        0.25540        0.29002        0.31340        0.29615        0.34936        0.31202        0.26825        0.23605        0.23670        0.28925        0.30923        0.30649        0.26720        0.27859        0.25516        0.32284        0.28610        0.25226        0.26693        0.25436        0.29113        0.25252        0.29435        0.33073        0.28952        0.21688        0.23111        0.28296        0.32560        0.27654        0.26643        0.24372        0.27919        0.29010        0.37612        0.29884        0.28337        0.25816        0.26281        0.22404        0.18174        0.25511        0.22960        0.20772        0.19359        0.19556        0.23751        0.22869        0.24200        0.19285        0.25351        0.22986        0.20651        0.17969        0.16540        0.19782        0.23324        0.15110        0.07412        0.19773        0.20070        0.15585        0.24975        0.14726        0.22881        0.21850       -0.07796       -0.48830       -0.96041
2.853587 2.825505 2.797567 2.769774 2.742124 2.714620 2.687260 2.660044 2.632973 2.606046 2.579264 2.552626 2.526133 2.499784 2.473579 2.447519 2.421604 2.395833 2.370206 2.344724 2.319386 2.294193 2.269144 2.244240 2.219480 2.194864 2.170393 2.146067 2.121885 2.097847 2.073954 2.050205 2.026601 2.003141 1.979826 1.956655 1.933629 1.910747 1.888009 1.865416 1.842967 1.820663 1.798503 1.776488 1.754617 1.732891 1.711309 1.689872 1.668579 1.647430 1.626426 1.923105 2.279392 1.700189 1.742641 1.385031 0.945318 1.202101 1.023082 1.075652 1.031947 1.492558 1.521639 1.548377 1.280984 0.946074 0.826200 1.011263 0.720116 0.494153 0.585865 0.679861 0.421686 0.492019 0.325256 0.369622 0.249090 0.164237 -0.037075 0.001838 0.027861 0.080771 0.040519 0.073811 -0.039488 0.027004 0.114134 0.225954 0.287632 0.209848 0.321475 0.549641 0.452901 0.727521 0.792144 0.882649 0.908977 1.118376 1.140028 1.174245 1.329510 1.236392 1.369989 1.195003 1.113683 1.299284 1.145510 1.053746 1.125727 0.889471 0.742346 0.680386 0.673906 0.459524 0.397205 0.259361 0.230294 0.088390 -0.008550 0.086456 0.025762 -0.063933 0.113848 0.253505 0.306313 0.467732 0.486261 0.559498 0.722524 0.819522 0.663119 0.957278 0.798187 0.666301 0.767252 0.801201 0.710721 0.639245 0.450406 0.499667 0.281790 0.195821 0.140735 0.004837 -0.020880 -0.102896 -0.013814 0.023464 0.095120 -0.052171 0.249779 0.096179 0.208105 0.376609 0.440621 0.529168 0.437496 0.574555 0.629283 0.518439 0.389319 0.333450 0.323093 0.146188 0.136335 0.017980 0.089992 0.033470 -0.000906 -0.026433 -0.124485 -0.012970 0.018930 0.109963 0.295543 0.199544 0.353749 0.371699 0.424938 0.419512 0.387309 0.325450 0.227862 0.303985 0.165294 0.155079 0.012487 0.047281 0.064402 -0.024455 -0.009899 0.014852 0.058546 0.072369 0.211694 0.306718 0.239191 0.206720 0.375264 0.405225 0.351056 0.243170 0.175307 0.150663 0.082497 0.074940 0.019813 0.020111 0.135819 0.049670 0.186341 0.086813 0.142383 0.231048 0.212616 0.221480 0.209080 0.193354 0.120751 0.162982 0.120851 0.096935 0.106992 -0.001651 0.028699 0.086986 0.049138 0.148038 0.119792 0.208373 0.202059 0.134909 0.128404 0.228484 0.121110 0.074377 0.086045 0.058627 -0.001258 -0.026319 0.043974 0.069128 0.029514 0.113931 0.108638 0.121125 0.129211 0.179846 0.119334 0.080612 0.098747 0.079823 0.017482 0.012599 0.029709 0.000085 0.066017 0.101091 0.057238 0.064011 0.141230 0.083927 0.015430 0.112254 0.020669 0.030260 0.060287 0.018469 0.011726 0.061989 0.085195 0.031755 0.109479 0.050359 0.032287 0.120099 0.072778 0.090075 0.093021 0.025426 -0.006241 0.005221 0.046970 0.012976 0.066699 0.097101 0.094241 0.067071 0.133204 -0.003410 0.033284 -0.090742 -0.018085 -0.037842 0.012704 0.017633 0.037616 0.073649 0.080428 0.109648 0.018014 -0.010075 -0.061453 -0.079480 0.072219 0.041573 0.055606 -0.021729 -0.001100 -0.039578 0.069768 0.016376 -0.061282 -0.017753 -0.074820 0.029402 -0.041135 0.036160 0.067553 -0.013244 -0.074111 -0.047367 0.091854 0.050962 0.012296 0.003196 -0.050053 0.080177 0.071265 0.174046 0.056672 0.024069 0.034028 0.061113 -0.051200 -0.042121 0.062274 0.019328 -0.025057 -0.031646 -0.040749 0.092367 -0.051064 0.078581 -0.002628 0.117457 -0.008696 0.054176 -0.085990 -0.027030 -0.041259 0.087915 -0.021278 -0.160695 0.281572 0.289419 0.220542 0.420045 0.172663 0.297960 0.372142 -0.107611 -1.343625
0.072396 0.072834 0.074148 0.076338 0.079403 0.083343 0.088156 0.093842 0.100398 0.107824 0.116116 0.125272 0.135287 0.146158 0.157878 0.170442 0.183841 0.198068 0.213111 0.228959 0.245598 0.263013 0.281185 0.300095 0.319721 0.340036 0.361013 0.382621 0.404825 0.427586 0.450864 0.474613 0.498782 0.523319 0.548164 0.573254 0.598521 0.623894 0.649293 0.674637 0.699837 0.724800 0.749427 0.773616 0.797257 0.820237 0.842438 0.863736 0.884005 0.903112 0.920923 0.937300 0.952102 0.965186 0.976408 0.985622 0.992685 0.997452 0.999782 0.999535 0.996577 0.990780 0.982019 0.970181 0.955159 0.936860 0.915201 0.890114 0.861544 0.829457 0.793833 0.754676 0.712009 0.665880 0.616359 0.563545 0.507562 0.448562 0.386728 0.322271 0.255434 0.186488 0.115738 0.043517 0.029810 0.103851 0.178184 0.252362 0.325915 0.398349 0.469154 0.537801 0.603751 0.666459 0.725375 0.779950 0.829645 0.873933 0.912305 0.944280 0.969406 0.987272 0.997512 0.999810 0.993914 0.979632 0.956847 0.925519 0.885689 0.837488 0.781139 0.716956 0.645353 0.566842 0.482030 0.391623 0.296419 0.197306 0.095254 0.008690 0.113413 0.217744 0.320471 0.420348 0.516115 0.606514 0.690302 0.766274 0.833281 0.890248 0.936194 0.970252 0.991689 0.999920 0.994531 0.975288 0.942154 0.895298 0.835104 0.762175 0.677333 0.581619 0.476286 0.362786 0.242757 0.118005 0.009525 0.137769 0.264582 0.387770 0.505127 0.614480 0.713725 0.800876 0.874104 0.931785 0.972536 0.995256 0.999164 0.983820 0.949162 0.895513 0.823597 0.734538 0.629857 0.511453 0.381577 0.242799 0.097963 0.049866 0.197467 0.341525 0.478708 0.605747 0.719515 0.817111 0.895938 0.953780 0.988874 0.999972 0.986393 0.948064 0.885545 0.800039 0.693386 0.568034 0.427001 0.273812 0.112420 0.052893 0.217617 0.377140 0.526873 0.662391 0.779566 0.874702 0.944656 0.986963 0.999930 0.982717 0.935392 0.858968 0.755394 0.627533 0.479101 0.314566 0.139040 0.041883 0.222289 0.396136 0.557462 0.700592 0.820340 0.912217 0.972608 0.998934 0.989778 0.944975 0.865661 0.754271 0.614487 0.451147 0.270093 0.077968 0.117997 0.310263 0.491268 0.653727 0.790933 0.897048 0.967369 0.998559 0.988823 0.938037 0.847796 0.721409 0.563795 0.381332 0.181605 0.026872 0.235031 0.433616 0.613616 0.766672 0.885480 0.964169 0.998603 0.986637 0.928270 0.825707 0.683317 0.507483 0.306340 0.089434 0.132725 0.349153 0.548939 0.721801 0.858627 0.951982 0.996540 0.989417 0.930393 0.821997 0.669440 0.480408 0.264715 0.033813 0.199795 0.423220 0.623900 0.790316 0.912686 0.983550 0.998283 0.955417 0.856821 0.707673 0.516234 0.293435 0.052284 0.192863 0.427155 0.636144 0.806678 0.927777 0.991353 0.992802 0.931388 0.810376 0.636921 0.421709 0.178320 0.077570 0.329201 0.559796 0.753719 0.897533 0.980983 0.997765 0.946060 0.828765 0.653399 0.431678 0.178796 0.087596 0.348578 0.585324 0.780449 0.919326 0.991225 0.990192 0.915605 0.772337 0.570522 0.324883 0.053732 0.222379 0.482181 0.705344 0.874086 0.974632 0.998394 0.942769 0.811479 0.614415 0.366950 0.088819 0.197433 0.468229 0.700940 0.875766 0.977488 0.996844 0.931452 0.786152 0.572754 0.309135 0.017828 0.275879 0.546114 0.768700 0.923374 0.995663 0.978332 0.872180 0.686132 0.436581 0.146034 0.158884 0.449816 0.699310 0.883455 0.984204 0.991231 0.903077 0.727460 0.480714 0.186347 0.127112 0.428866 0.688846 0.880744
1.000000 1.000000 1.000000 1.000000 1.000000 1.000000 1.000000 1.000000 1.000000 1.000000 1.000000 1.000000 1.000000 1.000000 1.000000 1.000000 1.000000 1.000000 1.000000 1.000000 1.000000 1.000000 1.000000 1.000000 1.000000 1.000000 1.000000 1.000000 1.000000 1.000000 1.000000 1.000000 1.000000 1.000000 1.000000 1.000000 1.000000 1.000000 1.000000 1.000000 1.000000 1.000000 1.000000 1.000000 1.000000 1.000000 1.000000 1.000000 1.000000 1.000000 1.000000 1.000000 0.835790 0.835790 0.835790 0.835790 0.835790 0.835790 0.835790 0.813379 0.813379 0.813379 0.813379 0.813379 0.813379 0.813379 0.813379 0.813379 0.813379 0.813379 0.813379 0.813379 0.813379 0.813379 0.813379 0.813379 0.813379 0.813379 0.813379 0.813379 0.813379 0.813379 0.813379 0.813379 0.813379 0.813379 0.813379 0.813379 0.813379 0.813379 0.813379 0.813379 0.813379 0.813379 0.813379 0.813379 0.813379 0.813379 0.813379 0.813379 0.813379 0.813379 0.813379 0.953381 0.954015 0.946336 0.945213 0.943456 0.940250 0.935793 0.935338 0.936697 0.936904 0.937539 0.939710 0.940761 0.942475 0.943720 0.944600 0.945447 0.953531 0.957178 0.956810 0.956390 0.951896 0.958579 0.956638 0.956477 0.957260 0.957562 0.958278 0.958157 0.957988 0.957439 0.956289 0.957010 0.956863 0.956139 0.955107 0.952787 0.952770 0.952314 0.952435 0.953392 0.954082 0.954721 0.955234 0.955192 0.955378 0.955360 0.955261 0.950221 0.950252 0.943788 0.944472 0.945653 0.945346 0.944288 0.942883 0.942933 0.942796 0.942704 0.942499 0.942726 0.923767 0.923172 0.923203 0.923429 0.916174 0.905495 0.898590 0.892293 0.893188 0.897150 0.901986 0.902216 0.898965 0.898079 0.881550 0.885293 0.872561 0.869545 0.858469 0.868810 0.870987 0.872339 0.867419 0.866782 0.865530 0.863417 0.854545 0.858606 0.859321 0.855170 0.851832 0.849610 0.848226 0.849664 0.854485 0.850816 0.846374 0.843692 0.832445 0.823114 0.821923 0.824408 0.832300 0.844306 0.844570 0.843900 0.836472 0.832589 0.825591 0.818858 0.816193 0.818080 0.815358 0.819291 0.817926 0.824462 0.814511 0.810185 0.815441 0.825449 0.831561 0.834331 0.836713 0.834683 0.831550 0.812527 0.813212 0.806018 0.757729 0.761042 0.747917 0.747632 0.738055 0.736461 0.733453 0.733279 0.727725 0.714742 0.726915 0.719442 0.696878 0.704031 0.697990 0.687244 0.664426 0.668330 0.682722 0.691354 0.690881 0.695583 0.684460 0.683708 0.696183 0.698038 0.705252 0.700479 0.698558 0.691483 0.693302 0.683163 0.680084 0.674112 0.673075 0.673993 0.670416 0.659902 0.667908 0.665231 0.661073 0.652284 0.606779 0.571670 0.550399 0.543508 0.525906 0.499725 0.517175 0.525229 0.506943 0.496672 0.476745 0.435673 0.426171 0.424406 0.397459 0.384285 0.362659 0.331724 0.337520 0.339082 0.345497 0.332712 0.330388 0.314921 0.267020 0.262550 0.224074 0.242026 0.262024 0.250011 0.229752 0.231324 0.242306 0.239017 0.248623 0.247115 0.261715 0.215798 0.160483 0.176972 0.173007 0.184562 0.170128 0.143658 0.168762 0.160350 0.170623 0.173371 0.133680 0.102567 0.081584 0.058254 0.064353 0.089460 0.104859 0.097976 0.075994 -0.014209 0.018031 0.045455 0.045455 0.045455 0.045455 0.045455 0.045455 0.045455 0.045455 0.045455 0.045455 0.045455 -0.019401 -0.019401 -0.019401 -0.019401 -0.019401 -0.019401 -0.019401 -0.019401 -0.019401 -0.019401 -0.019401 -0.019401 -0.019401 -0.019401 -0.019401 -0.019401 -0.019401 -0.019401 -0.019401
0.000000 0.000000 0.000000 0.000000 0.000000 0.000000 0.000000 0.000000 0.000000 0.000000 0.000000 0.000000 0.000000 0.000000 0.000000 0.000000 0.000000 0.000000 0.000000 0.000000 0.000000 0.000000 0.000000 0.000000 0.000000 0.000000 0.000000 0.000000 0.000000 0.000000 0.000000 0.000000 0.000000 0.000000 0.000000 0.000000 0.000000 0.000000 0.000000 0.000000 0.000000 0.000000 0.000000 0.000000 0.000000 0.000000 0.000000 0.000000 0.000000 0.000000 0.000000 0.000000 0.173422 0.173422 0.173422 0.173422 0.173422 0.173422 0.173422 0.191565 0.191565 0.191565 0.191565 0.191565 0.191565 0.191565 0.191565 0.191565 0.191565 0.191565 0.191565 0.191565 0.191565 0.191565 0.191565 0.191565 0.191565 0.191565 0.191565 0.191565 0.191565 0.191565 0.191565 0.191565 0.191565 0.191565 0.191565 0.191565 0.191565 0.191565 0.191565 0.191565 0.191565 0.191565 0.191565 0.191565 0.191565 0.191565 0.191565 0.191565 0.191565 0.191565 0.191565 0.219529 0.219529 0.219529 0.219529 0.219529 0.219529 0.219529 0.219529 0.219529 0.219529 0.219529 0.219529 0.219529 0.219529 0.219529 0.219529 0.219529 0.219529 0.219529 0.219529 0.219529 0.219529 0.219529 0.219529 0.219529 0.219529 0.219529 0.219529 0.219529 0.219529 0.219529 0.237356 0.237356 0.237356 0.237356 0.237356 0.237356 0.237356 0.237356 0.237356 0.237356 0.237356 0.237356 0.237356 0.237356 0.237356 0.237356 0.237356 0.237356 0.237356 0.237356 0.237356 0.237356 0.237356 0.237356 0.244339 0.244339 0.244339 0.244339 0.244339 0.244339 0.244339 0.244339 0.244339 0.244339 0.244339 0.244339 0.244339 0.244339 0.244339 0.244339 0.244339 0.244339 0.244339 0.244339 0.244339 0.248069 0.248069 0.248069 0.248069 0.248069 0.248069 0.248069 0.248069 0.248069 0.248069 0.248069 0.248069 0.248069 0.248069 0.248069 0.248069 0.248069 0.248069 0.248069 0.248069 0.248069 0.248069 0.248069 0.248069 0.248069 0.248069 0.248069 0.248069 0.248069 0.248069 0.248069 0.248069 0.248069 0.248069 0.248069 0.248069 0.248069 0.256074 0.256074 0.256074 0.256074 0.256074 0.256074 0.256074 0.256074 0.256074 0.256074 0.256074 0.256074 0.256074 0.256074 0.256074 0.256074 0.256074 0.256074 0.256074 0.256074 0.256074 0.256074 0.256074 0.256074 0.256074 0.256074 0.256074 0.256074 0.256074 0.256074 0.256074 0.256074 0.256074 0.256074 0.256074 0.256074 0.256074 0.256074 0.256074 0.256074 0.256074 0.256074 0.256074 0.256074 0.256074 0.260378 0.260378 0.260378 0.260378 0.260378 0.260378 0.260378 0.260378 0.260378 0.260378 0.260378 0.260378 0.260378 0.256074 0.256074 0.256074 0.256074 0.256074 0.256074 0.256074 0.256074 0.256074 0.256074 0.256074 0.256074 0.256074 0.260378 0.260378 0.260378 0.260378 0.260378 0.260378 0.260378 0.260378 0.260378 0.260378 0.260378 0.260378 0.251976 0.251976 0.251976 0.251976 0.251976 0.251976 0.251976 0.251976 0.251976 0.251976 0.251976 0.251976 0.256074 0.256074 0.256074 0.256074 0.256074 0.256074 0.256074 0.256074 0.256074 0.256074 0.256074 0.251976 0.251976 0.251976 0.251976 0.251976 0.251976 0.251976 0.251976 0.251976 0.251976 0.251976 0.248069 0.248069 0.248069 0.248069 0.248069 0.248069 0.248069 0.248069 0.248069 0.248069 0.248069 0.256074 0.256074 0.256074 0.256074 0.256074 0.256074 0.256074 0.256074 0.256074 0.256074 0.256074 0.256074 0.256074 0.256074 0.256074 0.256074 0.256074 0.256074 0.256074
