# Output from CTFFind version 4.1.9, run on 2019-11-04 22:09:10
# Input file: stack1_bm3d_averaged_1_0_0_2500_half.mrc ; Number of micrographs: 1
# Pixel size: 3.000 Angstroms ; acceleration voltage: 300.0 keV ; spherical aberration: 0.00 mm ; amplitude contrast: 0.07
# Box size: 512 pixels ; min. res.: 30.0 Angstroms ; max. res.: 5.0 Angstroms ; min. def.: 5000.0 um; max. def. 50000.0 um; num. frames averaged: 1
# 6 lines per micrograph: #1 - spatial frequency (1/Angstroms); #2 - 1D rotational average of spectrum (assuming no astigmatism); #3 - 1D rotational average of spectrum; #4 - CTF fit; #5 - cross-correlation between spectrum and CTF fit; #6 - 2sigma of expected cross correlation of noise
0.000000 0.000651 0.001302 0.001953 0.002604 0.003255 0.003906 0.004557 0.005208 0.005859 0.006510 0.007161 0.007812 0.008464 0.009115 0.009766 0.010417 0.011068 0.011719 0.012370 0.013021 0.013672 0.014323 0.014974 0.015625 0.016276 0.016927 0.017578 0.018229 0.018880 0.019531 0.020182 0.020833 0.021484 0.022135 0.022786 0.023438 0.024089 0.024740 0.025391 0.026042 0.026693 0.027344 0.027995 0.028646 0.029297 0.029948 0.030599 0.031250 0.031901 0.032552 0.033203 0.033854 0.034505 0.035156 0.035807 0.036458 0.037109 0.037760 0.038411 0.039062 0.039714 0.040365 0.041016 0.041667 0.042318 0.042969 0.043620 0.044271 0.044922 0.045573 0.046224 0.046875 0.047526 0.048177 0.048828 0.049479 0.050130 0.050781 0.051432 0.052083 0.052734 0.053385 0.054036 0.054688 0.055339 0.055990 0.056641 0.057292 0.057943 0.058594 0.059245 0.059896 0.060547 0.061198 0.061849 0.062500 0.063151 0.063802 0.064453 0.065104 0.065755 0.066406 0.067057 0.067708 0.068359 0.069010 0.069661 0.070312 0.070964 0.071615 0.072266 0.072917 0.073568 0.074219 0.074870 0.075521 0.076172 0.076823 0.077474 0.078125 0.078776 0.079427 0.080078 0.080729 0.081380 0.082031 0.082682 0.083333 0.083984 0.084635 0.085286 0.085938 0.086589 0.087240 0.087891 0.088542 0.089193 0.089844 0.090495 0.091146 0.091797 0.092448 0.093099 0.093750 0.094401 0.095052 0.095703 0.096354 0.097005 0.097656 0.098307 0.098958 0.099609 0.100260 0.100911 0.101562 0.102214 0.102865 0.103516 0.104167 0.104818 0.105469 0.106120 0.106771 0.107422 0.108073 0.108724 0.109375 0.110026 0.110677 0.111328 0.111979 0.112630 0.113281 0.113932 0.114583 0.115234 0.115885 0.116536 0.117188 0.117839 0.118490 0.119141 0.119792 0.120443 0.121094 0.121745 0.122396 0.123047 0.123698 0.124349 0.125000 0.125651 0.126302 0.126953 0.127604 0.128255 0.128906 0.129557 0.130208 0.130859 0.131510 0.132161 0.132812 0.133464 0.134115 0.134766 0.135417 0.136068 0.136719 0.137370 0.138021 0.138672 0.139323 0.139974 0.140625 0.141276 0.141927 0.142578 0.143229 0.143880 0.144531 0.145182 0.145833 0.146484 0.147135 0.147786 0.148438 0.149089 0.149740 0.150391 0.151042 0.151693 0.152344 0.152995 0.153646 0.154297 0.154948 0.155599 0.156250 0.156901 0.157552 0.158203 0.158854 0.159505 0.160156 0.160807 0.161458 0.162109 0.162760 0.163411 0.164062 0.164714 0.165365 0.166016 0.166667 0.167318 0.167969 0.168620 0.169271 0.169922 0.170573 0.171224 0.171875 0.172526 0.173177 0.173828 0.174479 0.175130 0.175781 0.176432 0.177083 0.177734 0.178385 0.179036 0.179688 0.180339 0.180990 0.181641 0.182292 0.182943 0.183594 0.184245 0.184896 0.185547 0.186198 0.186849 0.187500 0.188151 0.188802 0.189453 0.190104 0.190755 0.191406 0.192057 0.192708 0.193359 0.194010 0.194661 0.195312 0.195964 0.196615 0.197266 0.197917 0.198568 0.199219 0.199870 0.200521 0.201172 0.201823 0.202474 0.203125 0.203776 0.204427 0.205078 0.205729 0.206380 0.207031 0.207682 0.208333 0.208984 0.209635 0.210286 0.210938 0.211589 0.212240 0.212891 0.213542 0.214193 0.214844 0.215495 0.216146 0.216797 0.217448 0.218099 0.218750 0.219401 0.220052 0.220703 0.221354 0.222005 0.222656 0.223307 0.223958 0.224609 0.225260 0.225911 0.226562 0.227214 0.227865 0.228516 0.229167 0.229818 0.230469 0.231120 0.231771 0.232422 0.233073 0.233724 0.234375 0.235026 0.235677
       0.33470        0.33470        0.33470        0.33470        0.33470        0.33470        0.33470        0.33470        0.33470        0.33470        0.33470        0.33470        0.33470        0.33470        0.33470        0.33470        0.33470        0.33470        0.33470        0.33470        0.33470        0.33470        0.33470        0.33470        0.33470        0.33470        0.33470        0.33470        0.33470        0.33470        0.33470        0.33470        0.33470        0.33470        0.33470        0.33470        0.33470        0.33470        0.33470        0.33470        0.33470        0.33470        0.33470        0.33470        0.33470        0.33470        0.33470        0.33470        0.33470        0.33470        0.33470        0.50336        0.71962        0.43070        0.19025       -0.08002       -0.26327       -0.06890       -0.13278       -0.05269       -0.00109       -0.14476       -0.08982       -0.04867       -0.00096       -0.14948       -0.21765       -0.34479       -0.46101       -0.55677       -0.51587       -0.44663       -0.37090       -0.54512       -0.44664       -0.61900       -0.49940       -0.47299       -0.38830       -0.38286       -0.34073       -0.24871       -0.15801       -0.13490        0.03421       -0.00942        0.11998        0.17036        0.30536        0.40937        0.46563        0.49659        0.54136        0.55058        0.69500        0.64735        0.67900        0.59197        0.55676        0.65662        0.52936        0.42746        0.38442        0.32404        0.22917        0.26701        0.25385        0.10949        0.08590        0.00107       -0.00490        0.03766       -0.00119        0.07801        0.10009        0.23352        0.28363        0.30698        0.38088        0.55941        0.53853        0.58071        0.67213        0.70028        0.63215        0.63608        0.63238        0.55418        0.57755        0.39676        0.34628        0.26812        0.18715        0.07296        0.14636        0.12155        0.09069        0.10652        0.21117        0.21642        0.31815        0.36014        0.41532        0.49671        0.58804        0.54346        0.55549        0.61038        0.54469        0.46601        0.47885        0.32629        0.25319        0.25780        0.24411        0.14591        0.14840        0.15474        0.22098        0.24921        0.32922        0.36408        0.39013        0.47058        0.44881        0.48124        0.45785        0.46876        0.44557        0.40979        0.38400        0.35230        0.31077        0.28681        0.20411        0.19819        0.22236        0.26996        0.27142        0.35287        0.37807        0.36003        0.41191        0.45928        0.45215        0.42516        0.43930        0.37134        0.33843        0.28707        0.26659        0.29216        0.27251        0.29689        0.30189        0.35171        0.34441        0.40191        0.40893        0.42886        0.41110        0.42875        0.40348        0.36619        0.28520        0.29519        0.31214        0.27680        0.25836        0.33128        0.37227        0.34353        0.35528        0.36009        0.35625        0.40800        0.40235        0.35965        0.34094        0.31260        0.31097        0.31581        0.31734        0.29919        0.28787        0.33758        0.35825        0.38047        0.33479        0.32745        0.33605        0.34526        0.30752        0.28429        0.30849        0.31711        0.33849        0.32395        0.33421        0.35983        0.33224        0.31526        0.33035        0.30522        0.26725        0.25464        0.26733        0.30676        0.32431        0.34981        0.30278        0.31841        0.34148        0.29599        0.31950        0.28825        0.28613        0.29462        0.30277        0.30959        0.34473        0.32430        0.33129        0.33686        0.31257        0.33651        0.31911        0.32002        0.30805        0.28525        0.29785        0.31827        0.29514        0.33087        0.34169        0.33368        0.31778        0.33748        0.31650        0.27539        0.25565        0.27298        0.33378        0.36044        0.34931        0.31652        0.29530        0.29737        0.31599        0.24793        0.29925        0.30368        0.32880        0.30056        0.32478        0.28946        0.33826        0.34488        0.34873        0.32930        0.29540        0.31990        0.39817        0.32863        0.31582        0.31355        0.29001        0.28494        0.29951        0.26412        0.30908        0.24146        0.28154        0.29729        0.31738        0.29649        0.27896        0.30220        0.23860        0.23038        0.26276        0.30850        0.30548        0.28525        0.28693        0.33572        0.25800        0.21356        0.31545        0.27841        0.25583        0.28300        0.39802        0.30310        0.28616        0.24981        0.25152        0.26262        0.23346        0.23259        0.16237        0.25685        0.23585        0.24980        0.32042        0.28393        0.34681        0.28312        0.26084        0.24284        0.21904        0.23396        0.29283        0.23128        0.12265        0.14329        0.24397        0.24651        0.33465        0.30558        0.02634       -0.43483       -0.90964
2.742251 2.713135 2.684177 2.655376 2.626732 2.598245 2.569915 2.541743 2.513728 2.485870 2.458170 2.430627 2.403241 2.376012 2.348941 2.322027 2.295270 2.268670 2.242228 2.215943 2.189815 2.163845 2.138031 2.112375 2.086876 2.061535 2.036351 2.011324 1.986454 1.961742 1.937187 1.912789 1.888548 1.864465 1.840539 1.816770 1.793158 1.769704 1.746407 1.723267 1.700285 1.677459 1.654791 1.632281 1.609927 1.587731 1.565692 1.543810 1.522086 1.500519 1.479109 1.548934 1.850394 1.543102 1.205343 0.955134 0.552551 0.924710 0.643683 0.887880 0.940904 0.602157 0.723007 0.794990 0.831437 0.641799 0.550375 0.353722 0.109622 0.085312 0.048440 0.087892 0.306783 -0.030239 0.088065 -0.132656 -0.006503 -0.016195 0.086599 0.067504 0.099743 0.180836 0.288681 0.256623 0.487955 0.403908 0.553860 0.531514 0.775483 0.794584 0.888250 0.924863 0.948591 0.950866 1.130806 0.942311 1.151498 0.954780 0.856356 1.025149 0.854321 0.764953 0.617987 0.601471 0.457335 0.422330 0.515386 0.266661 0.201786 0.157742 0.009688 0.208705 -0.004636 0.121593 0.182322 0.258678 0.330806 0.351947 0.427056 0.536105 0.667517 0.541131 0.745049 0.862741 0.643546 0.700893 0.666144 0.594368 0.543378 0.462745 0.297369 0.216113 0.116452 -0.046081 -0.020434 0.057304 -0.101659 -0.061508 0.044833 0.054053 0.115700 0.217408 0.240455 0.310544 0.450472 0.452518 0.427111 0.485125 0.454928 0.338425 0.332592 0.242080 0.056673 0.060873 0.015366 -0.042518 -0.096409 -0.098161 -0.013109 -0.052332 0.070737 0.126257 0.111923 0.265367 0.233096 0.240279 0.286620 0.242349 0.231402 0.212187 0.167058 0.105255 0.096518 0.021633 -0.000190 -0.123441 -0.055253 -0.002821 -0.001293 0.025415 0.095621 0.084160 0.117212 0.215436 0.266789 0.186630 0.181153 0.111442 0.145000 0.028248 -0.027872 0.029362 -0.021417 0.014555 -0.003332 0.041035 0.092012 0.057309 0.163705 0.113503 0.180885 0.073713 0.156886 0.101737 0.003661 -0.052575 0.001943 -0.022191 -0.057698 -0.056699 0.068211 0.074739 0.001630 0.090233 0.073443 0.080572 0.157075 0.078784 0.072175 0.066102 -0.011674 0.033633 0.012091 0.023518 0.009850 0.006580 0.051593 0.086514 0.079749 0.041653 0.054381 0.036873 0.070286 0.002945 -0.005686 0.035186 0.024572 0.072859 0.048235 0.065252 0.085038 0.048971 0.022529 0.038394 0.008078 -0.038812 -0.024692 -0.019168 0.030137 0.044988 0.094720 0.008165 0.065666 0.057396 -0.014654 0.063850 0.004213 0.005283 0.031742 0.048358 0.026309 0.087100 0.039887 0.063622 0.074169 0.066510 0.067155 0.062966 0.082566 0.028621 -0.007251 0.051487 0.044996 0.045138 0.072347 0.082521 0.018727 0.054365 0.071013 0.001691 -0.004615 -0.060588 -0.024718 0.111415 0.078091 0.058672 0.029507 -0.022371 0.049442 0.018853 -0.074202 0.052466 0.024841 0.060787 0.033290 0.016951 0.043207 0.008216 0.056456 0.025420 0.040475 -0.053259 0.069539 0.112548 -0.004369 -0.006687 0.008760 -0.015392 -0.042589 -0.023732 -0.059282 -0.015645 -0.090859 -0.019547 -0.040345 0.018675 -0.027434 -0.060977 0.021793 -0.063082 -0.054414 -0.079705 0.050497 0.011174 0.010186 -0.009503 0.088472 -0.049345 -0.085574 0.062627 -0.016153 -0.002935 0.001031 0.196460 -0.017709 0.024188 -0.009780 -0.013541 -0.012575 -0.045498 -0.014197 -0.178491 0.027843 -0.024433 -0.034295 0.081454 0.034720 0.131245 0.010052 0.029719 0.004868 0.020633 -0.039636 0.360437 0.278102 0.148564 0.188200 0.248459 0.333394 0.366501 0.374073 0.033606 -1.074803
0.072396 0.072911 0.074454 0.077025 0.080624 0.085249 0.090900 0.097575 0.105271 0.113986 0.123715 0.134455 0.146200 0.158942 0.172674 0.187386 0.203066 0.219700 0.237273 0.255766 0.275158 0.295424 0.316536 0.338464 0.361171 0.384619 0.408762 0.433553 0.458936 0.484852 0.511236 0.538016 0.565116 0.592450 0.619928 0.647452 0.674918 0.702214 0.729221 0.755813 0.781856 0.807211 0.831731 0.855262 0.877644 0.898713 0.918297 0.936222 0.952309 0.966376 0.978240 0.987715 0.994619 0.998769 0.999985 0.998093 0.992926 0.984325 0.972140 0.956236 0.936489 0.912796 0.885069 0.853245 0.817281 0.777164 0.732907 0.684555 0.632183 0.575906 0.515872 0.452267 0.385321 0.315301 0.242518 0.167325 0.090117 0.011332 0.068553 0.149021 0.229516 0.309449 0.388201 0.465124 0.539550 0.610794 0.678158 0.740944 0.798458 0.850016 0.894956 0.932647 0.962497 0.983964 0.996567 0.999894 0.993611 0.977478 0.951352 0.915196 0.869091 0.813240 0.747974 0.673755 0.591180 0.500981 0.404024 0.301304 0.193940 0.083166 0.029680 0.143168 0.255796 0.366005 0.472199 0.572775 0.666141 0.750745 0.825105 0.887834 0.937675 0.973524 0.994461 0.999778 0.989003 0.961919 0.918586 0.859354 0.784874 0.696099 0.594283 0.480975 0.358003 0.227450 0.091627 0.046960 0.185658 0.321712 0.452320 0.574689 0.686100 0.783971 0.865922 0.929839 0.973938 0.996821 0.997528 0.975584 0.931029 0.864446 0.776973 0.670294 0.546632 0.408708 0.259695 0.103161 0.057019 0.216742 0.371786 0.517923 0.651030 0.767218 0.862948 0.935152 0.981345 0.999717 0.989226 0.949655 0.881656 0.786769 0.667407 0.526821 0.369024 0.198698 0.021067 0.158255 0.333438 0.498616 0.648101 0.776572 0.879283 0.952254 0.992439 0.997875 0.967796 0.902706 0.804410 0.675993 0.521758 0.347100 0.158343 0.037474 0.232853 0.420112 0.591693 0.740477 0.860083 0.945171 0.991696 0.997130 0.960622 0.883097 0.767275 0.617616 0.440184 0.242428 0.032895 0.179127 0.384005 0.572204 0.734742 0.863622 0.952264 0.995859 0.991668 0.939225 0.840434 0.699552 0.523050 0.319354 0.098480 0.128444 0.349718 0.553677 0.729306 0.866862 0.958436 0.998449 0.984029 0.915256 0.795250 0.630087 0.428542 0.201669 0.037778 0.276036 0.499117 0.693635 0.847627 0.951324 0.997806 0.983517 0.908584 0.776913 0.596060 0.376846 0.132771 0.120799 0.367560 0.591327 0.777108 0.912127 0.986755 0.995250 0.936254 0.813008 0.633260 0.408843 0.154957 0.110824 0.369733 0.603129 0.793870 0.927590 0.993836 0.986950 0.906622 0.758052 0.551699 0.302632 0.029464 0.246960 0.505180 0.724746 0.887906 0.981070 0.996017 0.930694 0.789550 0.583319 0.328309 0.045168 0.242727 0.511187 0.737248 0.901162 0.988186 0.989985 0.905518 0.741309 0.511052 0.234558 0.063867 0.357523 0.619694 0.826083 0.957129 0.999928 0.949606 0.809958 0.593302 0.319497 0.014209 0.293431 0.573574 0.798588 0.945804 0.999894 0.954568 0.813413 0.589755 0.305520 0.010820 0.327025 0.610366 0.831010 0.965237 0.998078 0.925095 0.753103 0.499663 0.191432 0.138548 0.454355 0.721057 0.908650 0.995490 0.970917 0.836698 0.607084 0.307453 0.028381 0.361913 0.654320 0.871023 0.985840 0.984276 0.865493 0.642696 0.341827 0.001325 0.345287 0.647874 0.871410 0.987479 0.980672 0.850794 0.613187 0.297098 0.057782 0.406221 0.703169 0.909637 0.997901 0.955385 0.786615 0.512948 0.170071 0.196561 0.537642 0.806643 0.966262 0.993693
1.000000 1.000000 1.000000 1.000000 1.000000 1.000000 1.000000 1.000000 1.000000 1.000000 1.000000 1.000000 1.000000 1.000000 1.000000 1.000000 1.000000 1.000000 1.000000 1.000000 1.000000 1.000000 1.000000 1.000000 1.000000 1.000000 1.000000 1.000000 1.000000 1.000000 1.000000 1.000000 1.000000 1.000000 1.000000 1.000000 1.000000 1.000000 1.000000 1.000000 1.000000 1.000000 1.000000 1.000000 1.000000 1.000000 1.000000 1.000000 1.000000 1.000000 1.000000 1.000000 0.918608 0.918608 0.905852 0.905852 0.905852 0.905852 0.905852 0.905852 0.905852 0.905852 0.905852 0.905852 0.905852 0.905852 0.905852 0.905852 0.905852 0.905852 0.905852 0.905852 0.905852 0.905852 0.905852 0.905852 0.905852 0.905852 0.905852 0.905852 0.905852 0.905852 0.905852 0.905852 0.905852 0.905852 0.905852 0.905852 0.905852 0.905852 0.905852 0.905852 0.905852 0.905852 0.905852 0.901607 0.906675 0.908554 0.907163 0.910640 0.910679 0.909973 0.910344 0.910034 0.910398 0.911791 0.922225 0.933156 0.944300 0.944801 0.949994 0.954305 0.956852 0.957628 0.959301 0.969626 0.968172 0.967717 0.968354 0.969645 0.971646 0.970520 0.969867 0.973102 0.973676 0.972229 0.969798 0.969203 0.967889 0.967230 0.966892 0.966768 0.966620 0.967145 0.967337 0.967439 0.967587 0.967651 0.968651 0.969800 0.972331 0.973382 0.973298 0.972285 0.970480 0.974444 0.975352 0.975160 0.975155 0.974761 0.974994 0.956973 0.954676 0.954566 0.951701 0.950314 0.947206 0.945563 0.944361 0.945072 0.944052 0.943396 0.940169 0.925376 0.910910 0.899472 0.920330 0.904197 0.892913 0.866785 0.867262 0.862956 0.863353 0.854843 0.848959 0.844394 0.841811 0.843759 0.839865 0.844166 0.840705 0.825335 0.828678 0.825428 0.794461 0.778767 0.762719 0.762460 0.759344 0.760403 0.761816 0.755174 0.763847 0.757835 0.755611 0.746145 0.723538 0.690387 0.676474 0.687901 0.698262 0.696221 0.692321 0.676719 0.645727 0.658537 0.679286 0.676800 0.678585 0.671601 0.664565 0.673257 0.675014 0.672001 0.665044 0.664331 0.664315 0.674906 0.679134 0.673391 0.663983 0.649160 0.639160 0.630934 0.646251 0.654879 0.625608 0.619425 0.610374 0.604615 0.590315 0.558035 0.559666 0.539200 0.525937 0.530132 0.532800 0.531443 0.542378 0.542988 0.521632 0.545972 0.555975 0.584862 0.560739 0.557750 0.559094 0.569436 0.550873 0.530131 0.521233 0.522501 0.539041 0.574419 0.616730 0.610704 0.599355 0.591066 0.605198 0.582392 0.590025 0.607131 0.586557 0.510420 0.471423 0.468760 0.436467 0.429924 0.416220 0.397658 0.381521 0.381934 0.376802 0.362244 0.351897 0.286459 0.251313 0.236461 0.221839 0.221289 0.227727 0.215034 0.209165 0.243516 0.290001 0.289162 0.278921 0.283264 0.286048 0.293077 0.258533 0.260839 0.224076 0.220082 0.247301 0.191408 0.194662 0.148331 0.138931 0.149427 0.177125 0.179754 0.133270 0.127699 0.153141 0.167824 0.164070 0.154305 0.111822 0.077755 0.064136 0.077219 0.065970 0.026174 0.035306 0.048945 0.038210 0.026724 0.049852 0.044100 0.050078 0.038754 0.038835 0.085176 0.113688 0.101725 0.103382 0.119125 0.114787 0.090790 0.083500 0.073307 0.068458 0.013145 -0.012786 -0.012786 -0.012050 -0.012050 -0.012050 -0.012050 -0.012050 -0.012050 -0.012050 -0.012050 -0.012050 -0.013016 -0.013016 -0.013016 -0.013016 -0.013016 -0.013016 -0.013016 -0.013016 -0.013016 0.011882 0.011882 0.011882 0.011882 0.011882 0.011882 0.011882 0.011882 0.011882
0.000000 0.000000 0.000000 0.000000 0.000000 0.000000 0.000000 0.000000 0.000000 0.000000 0.000000 0.000000 0.000000 0.000000 0.000000 0.000000 0.000000 0.000000 2.000000 0.000000 0.000000 0.000000 0.000000 0.000000 0.000000 0.000000 0.000000 0.000000 0.000000 0.000000 0.000000 0.000000 0.000000 0.000000 0.000000 0.000000 0.000000 0.000000 0.000000 0.000000 0.000000 0.000000 0.000000 0.000000 0.000000 0.000000 0.000000 0.000000 0.000000 0.000000 0.000000 0.000000 0.181818 0.181818 0.199007 0.199007 0.199007 0.199007 0.199007 0.199007 0.199007 0.199007 0.199007 0.199007 0.199007 0.199007 0.199007 0.199007 0.199007 0.199007 0.199007 0.199007 0.199007 0.199007 0.199007 0.199007 0.199007 0.199007 0.199007 0.199007 0.199007 0.199007 0.199007 0.199007 0.199007 0.199007 0.199007 0.199007 0.199007 0.199007 0.199007 0.199007 0.199007 0.199007 0.199007 0.230940 0.230940 0.230940 0.230940 0.230940 0.230940 0.230940 0.230940 0.230940 0.230940 0.230940 0.230940 0.230940 0.230940 0.230940 0.230940 0.230940 0.230940 0.230940 0.230940 0.230940 0.230940 0.230940 0.230940 0.230940 0.230940 0.230940 0.230940 0.244339 0.244339 0.244339 0.244339 0.244339 0.244339 0.244339 0.244339 0.244339 0.244339 0.244339 0.244339 0.244339 0.244339 0.244339 0.244339 0.244339 0.244339 0.244339 0.244339 0.244339 0.244339 0.244339 0.251976 0.251976 0.251976 0.251976 0.251976 0.251976 0.251976 0.251976 0.251976 0.251976 0.251976 0.251976 0.251976 0.251976 0.251976 0.251976 0.251976 0.251976 0.251976 0.251976 0.264906 0.264906 0.264906 0.264906 0.264906 0.264906 0.264906 0.264906 0.264906 0.264906 0.264906 0.264906 0.264906 0.264906 0.264906 0.264906 0.264906 0.264906 0.264906 0.264906 0.264906 0.264906 0.264906 0.264906 0.264906 0.264906 0.264906 0.264906 0.264906 0.264906 0.264906 0.264906 0.264906 0.264906 0.264906 0.264906 0.264906 0.264906 0.264906 0.264906 0.264906 0.264906 0.264906 0.264906 0.264906 0.264906 0.264906 0.264906 0.264906 0.264906 0.264906 0.264906 0.264906 0.264906 0.264906 0.264906 0.264906 0.264906 0.264906 0.264906 0.264906 0.264906 0.264906 0.264906 0.264906 0.264906 0.264906 0.264906 0.264906 0.264906 0.264906 0.264906 0.264906 0.264906 0.264906 0.269680 0.269680 0.269680 0.269680 0.269680 0.269680 0.269680 0.269680 0.269680 0.269680 0.269680 0.269680 0.264906 0.264906 0.264906 0.264906 0.264906 0.264906 0.264906 0.264906 0.264906 0.264906 0.264906 0.264906 0.269680 0.269680 0.269680 0.269680 0.269680 0.269680 0.269680 0.269680 0.269680 0.269680 0.269680 0.264906 0.264906 0.264906 0.264906 0.264906 0.264906 0.264906 0.264906 0.264906 0.264906 0.264906 0.269680 0.269680 0.269680 0.269680 0.269680 0.269680 0.269680 0.269680 0.269680 0.269680 0.251976 0.251976 0.251976 0.251976 0.251976 0.251976 0.251976 0.251976 0.251976 0.251976 0.251976 0.269680 0.269680 0.269680 0.269680 0.269680 0.269680 0.269680 0.269680 0.269680 0.256074 0.256074 0.256074 0.256074 0.256074 0.256074 0.256074 0.256074 0.256074 0.256074 0.260378 0.260378 0.260378 0.260378 0.260378 0.260378 0.260378 0.260378 0.260378 0.256074 0.256074 0.256074 0.256074 0.256074 0.256074 0.256074 0.256074 0.256074 0.251976 0.251976 0.251976 0.251976 0.251976 0.251976 0.251976 0.251976 0.251976 0.264906 0.264906 0.264906 0.264906 0.264906 0.264906 0.264906 0.264906 0.264906
