# Output from CTFFind version 4.1.9, run on 2019-11-03 19:28:23
# Input file: stack16_bm3d_averaged_1_3.75_0_1250_half.mrc ; Number of micrographs: 1
# Pixel size: 3.000 Angstroms ; acceleration voltage: 300.0 keV ; spherical aberration: 0.00 mm ; amplitude contrast: 0.07
# Box size: 512 pixels ; min. res.: 30.0 Angstroms ; max. res.: 5.0 Angstroms ; min. def.: 5000.0 um; max. def. 50000.0 um; num. frames averaged: 1
# 6 lines per micrograph: #1 - spatial frequency (1/Angstroms); #2 - 1D rotational average of spectrum (assuming no astigmatism); #3 - 1D rotational average of spectrum; #4 - CTF fit; #5 - cross-correlation between spectrum and CTF fit; #6 - 2sigma of expected cross correlation of noise
0.000000 0.000651 0.001302 0.001953 0.002604 0.003255 0.003906 0.004557 0.005208 0.005859 0.006510 0.007161 0.007812 0.008464 0.009115 0.009766 0.010417 0.011068 0.011719 0.012370 0.013021 0.013672 0.014323 0.014974 0.015625 0.016276 0.016927 0.017578 0.018229 0.018880 0.019531 0.020182 0.020833 0.021484 0.022135 0.022786 0.023438 0.024089 0.024740 0.025391 0.026042 0.026693 0.027344 0.027995 0.028646 0.029297 0.029948 0.030599 0.031250 0.031901 0.032552 0.033203 0.033854 0.034505 0.035156 0.035807 0.036458 0.037109 0.037760 0.038411 0.039062 0.039714 0.040365 0.041016 0.041667 0.042318 0.042969 0.043620 0.044271 0.044922 0.045573 0.046224 0.046875 0.047526 0.048177 0.048828 0.049479 0.050130 0.050781 0.051432 0.052083 0.052734 0.053385 0.054036 0.054688 0.055339 0.055990 0.056641 0.057292 0.057943 0.058594 0.059245 0.059896 0.060547 0.061198 0.061849 0.062500 0.063151 0.063802 0.064453 0.065104 0.065755 0.066406 0.067057 0.067708 0.068359 0.069010 0.069661 0.070312 0.070964 0.071615 0.072266 0.072917 0.073568 0.074219 0.074870 0.075521 0.076172 0.076823 0.077474 0.078125 0.078776 0.079427 0.080078 0.080729 0.081380 0.082031 0.082682 0.083333 0.083984 0.084635 0.085286 0.085938 0.086589 0.087240 0.087891 0.088542 0.089193 0.089844 0.090495 0.091146 0.091797 0.092448 0.093099 0.093750 0.094401 0.095052 0.095703 0.096354 0.097005 0.097656 0.098307 0.098958 0.099609 0.100260 0.100911 0.101562 0.102214 0.102865 0.103516 0.104167 0.104818 0.105469 0.106120 0.106771 0.107422 0.108073 0.108724 0.109375 0.110026 0.110677 0.111328 0.111979 0.112630 0.113281 0.113932 0.114583 0.115234 0.115885 0.116536 0.117188 0.117839 0.118490 0.119141 0.119792 0.120443 0.121094 0.121745 0.122396 0.123047 0.123698 0.124349 0.125000 0.125651 0.126302 0.126953 0.127604 0.128255 0.128906 0.129557 0.130208 0.130859 0.131510 0.132161 0.132812 0.133464 0.134115 0.134766 0.135417 0.136068 0.136719 0.137370 0.138021 0.138672 0.139323 0.139974 0.140625 0.141276 0.141927 0.142578 0.143229 0.143880 0.144531 0.145182 0.145833 0.146484 0.147135 0.147786 0.148438 0.149089 0.149740 0.150391 0.151042 0.151693 0.152344 0.152995 0.153646 0.154297 0.154948 0.155599 0.156250 0.156901 0.157552 0.158203 0.158854 0.159505 0.160156 0.160807 0.161458 0.162109 0.162760 0.163411 0.164062 0.164714 0.165365 0.166016 0.166667 0.167318 0.167969 0.168620 0.169271 0.169922 0.170573 0.171224 0.171875 0.172526 0.173177 0.173828 0.174479 0.175130 0.175781 0.176432 0.177083 0.177734 0.178385 0.179036 0.179688 0.180339 0.180990 0.181641 0.182292 0.182943 0.183594 0.184245 0.184896 0.185547 0.186198 0.186849 0.187500 0.188151 0.188802 0.189453 0.190104 0.190755 0.191406 0.192057 0.192708 0.193359 0.194010 0.194661 0.195312 0.195964 0.196615 0.197266 0.197917 0.198568 0.199219 0.199870 0.200521 0.201172 0.201823 0.202474 0.203125 0.203776 0.204427 0.205078 0.205729 0.206380 0.207031 0.207682 0.208333 0.208984 0.209635 0.210286 0.210938 0.211589 0.212240 0.212891 0.213542 0.214193 0.214844 0.215495 0.216146 0.216797 0.217448 0.218099 0.218750 0.219401 0.220052 0.220703 0.221354 0.222005 0.222656 0.223307 0.223958 0.224609 0.225260 0.225911 0.226562 0.227214 0.227865 0.228516 0.229167 0.229818 0.230469 0.231120 0.231771 0.232422 0.233073 0.233724 0.234375 0.235026 0.235677
       0.33512        0.33512        0.33512        0.33512        0.33512        0.33512        0.33512        0.33512        0.33512        0.33512        0.33512        0.33512        0.33512        0.33512        0.33512        0.33512        0.33512        0.33512        0.33512        0.33512        0.33512        0.33512        0.33512        0.33512        0.33512        0.33512        0.33512        0.33512        0.33512        0.33512        0.33512        0.33512        0.33512        0.33512        0.33512        0.33512        0.33512        0.33512        0.33512        0.33512        0.33512        0.33512        0.33512        0.33512        0.33512        0.33512        0.33512        0.33512        0.33512        0.33512        0.33512        0.42861        0.58410        0.37235       -0.17017       -0.44790       -0.56171       -0.65619       -0.73092       -0.75402       -0.87109       -0.91960       -0.72248       -0.89207       -0.85529       -1.00546       -1.04712       -0.93489       -0.89133       -0.82564       -0.76566       -0.67919       -0.59390       -0.50209       -0.42436       -0.20690       -0.09330       -0.00334        0.22709        0.23949        0.30460        0.37085        0.39793        0.49702        0.55133        0.58316        0.55024        0.48602        0.52446        0.49725        0.41836        0.32018        0.18333        0.17074        0.10801       -0.04248       -0.05865       -0.05582        0.02614       -0.01227        0.04151        0.02874        0.14367        0.18976        0.40614        0.46567        0.56355        0.66741        0.72030        0.72767        0.65887        0.63632        0.53813        0.45071        0.38060        0.26496        0.20361        0.18710        0.07513        0.04968        0.02992        0.05614        0.08304        0.29083        0.41112        0.50888        0.55620        0.59507        0.64401        0.61185        0.61843        0.60599        0.57324        0.47429        0.28287        0.25092        0.21001        0.11553        0.06072        0.11018        0.12933        0.26378        0.35451        0.40958        0.48340        0.54786        0.62097        0.56998        0.52079        0.50025        0.36364        0.22114        0.21776        0.15583        0.12933        0.17472        0.22532        0.26396        0.31882        0.42113        0.43201        0.51911        0.46830        0.46106        0.47060        0.37701        0.32060        0.27077        0.21839        0.20399        0.22080        0.23089        0.31609        0.42544        0.42541        0.48678        0.54305        0.46907        0.43013        0.36172        0.29510        0.24281        0.23577        0.26498        0.27784        0.29834        0.32580        0.41181        0.46909        0.45272        0.45325        0.35117        0.36398        0.35225        0.21820        0.23019        0.24658        0.28486        0.34814        0.36985        0.40149        0.44138        0.43936        0.37119        0.35358        0.30855        0.32507        0.28517        0.27081        0.27281        0.32173        0.37203        0.38158        0.40182        0.37617        0.40051        0.36411        0.28727        0.27928        0.29707        0.32700        0.35920        0.34668        0.41541        0.34720        0.37478        0.37572        0.32155        0.33422        0.28420        0.29392        0.34040        0.32250        0.32530        0.33281        0.35144        0.31658        0.34020        0.29463        0.31102        0.27474        0.28712        0.29212        0.34398        0.38065        0.35609        0.34112        0.29390        0.27157        0.27390        0.30728        0.27581        0.30505        0.36127        0.37862        0.33526        0.30714        0.30280        0.29636        0.28267        0.28085        0.28314        0.32398        0.33743        0.30790        0.27838        0.33384        0.30502        0.29290        0.33202        0.32731        0.32138        0.33780        0.30217        0.32229        0.27378        0.29678        0.29991        0.31598        0.39998        0.32646        0.34442        0.30374        0.30146        0.30340        0.32124        0.28733        0.28159        0.30937        0.31016        0.33516        0.30762        0.31064        0.29269        0.29443        0.30632        0.33260        0.31864        0.33558        0.33905        0.30343        0.27724        0.28772        0.25735        0.32790        0.32554        0.32704        0.29733        0.27217        0.29651        0.32701        0.31652        0.29277        0.28350        0.30730        0.29244        0.24348        0.30685        0.28794        0.28894        0.30912        0.29827        0.34130        0.36556        0.28925        0.24853        0.24485        0.26326        0.27588        0.26899        0.28561        0.26529        0.24701        0.28415        0.29205        0.27474        0.23925        0.33084        0.30261        0.27406        0.25133        0.23677        0.26848        0.23336        0.26743        0.31701        0.34896        0.27921        0.26143        0.26087        0.25620        0.20406        0.30776        0.23130        0.19331        0.15095        0.22193        0.26760        0.22121        0.01562        0.15184       -0.44299       -0.83007
2.955023 2.918429 2.882070 2.845946 2.810056 2.774401 2.738982 2.703796 2.668846 2.634130 2.599649 2.565403 2.531392 2.497616 2.464074 2.430767 2.397695 2.364857 2.332255 2.299887 2.267754 2.235856 2.204192 2.172763 2.141569 2.110610 2.079886 2.049396 2.019141 1.989121 1.959336 1.929786 1.900470 1.871389 1.842543 1.813932 1.785555 1.757413 1.729506 1.701834 1.674397 1.647194 1.620226 1.593493 1.566995 1.540731 1.514702 1.488908 1.463349 1.438025 1.412935 1.448558 1.564600 1.507598 0.859368 0.579041 0.425247 0.360452 0.272880 0.188243 0.133275 -0.067720 0.170347 0.031378 -0.058759 -0.129282 -0.251009 -0.172567 -0.091188 -0.096033 -0.102362 0.022139 0.016426 0.197994 0.098066 0.331356 0.444006 0.456720 0.728141 0.681445 0.672229 0.824750 0.793550 0.813569 0.917008 0.871187 0.905087 0.732923 0.818737 0.839192 0.656114 0.593117 0.445636 0.415409 0.378428 0.176170 0.162990 0.116149 0.216831 0.123452 0.215994 0.104579 0.252414 0.242832 0.476931 0.424824 0.608649 0.638664 0.697450 0.741700 0.659348 0.640829 0.489319 0.443052 0.324242 0.297790 0.123739 0.186881 -0.001541 0.019341 -0.040070 -0.036964 -0.011510 0.052257 0.301829 0.331651 0.409465 0.360101 0.451714 0.486722 0.469819 0.460138 0.389695 0.390532 0.152960 0.114184 0.071493 0.014432 -0.141158 -0.028236 -0.087843 0.041216 0.135653 0.184262 0.273473 0.268148 0.361782 0.471296 0.352378 0.406121 0.301245 0.148277 0.059239 0.074537 0.021030 0.032746 0.072531 0.112973 0.131063 0.238992 0.259217 0.299505 0.355317 0.255986 0.277508 0.243160 0.122772 0.105847 0.036518 0.036804 0.014553 0.022395 0.051799 0.174404 0.203867 0.200424 0.323379 0.217310 0.246666 0.112336 0.096885 -0.012035 -0.005646 0.000521 0.025230 0.035770 0.031384 0.092236 0.167692 0.173995 0.217549 0.115323 0.080046 0.102279 0.030804 -0.088418 -0.010685 0.012403 0.035015 0.052554 0.104605 0.162698 0.132703 0.160966 0.055279 0.066007 0.036103 0.047839 0.007894 -0.005805 0.016066 0.052034 0.089519 0.119443 0.096590 0.102886 0.115614 0.044309 -0.005721 0.005534 0.012951 0.072437 0.055778 0.091258 0.117868 0.058066 0.091853 0.061349 0.037288 0.046638 -0.025894 0.027020 0.062259 0.028044 0.032892 0.095777 0.031858 0.053061 0.028341 0.011984 0.025526 -0.030462 0.000411 0.009475 0.062018 0.096931 0.063907 0.038247 -0.012478 -0.021571 -0.010256 0.013758 -0.010408 0.019660 0.078057 0.075129 0.004071 0.028382 -0.009243 0.004570 -0.014457 -0.020704 -0.005643 0.040304 -0.001229 0.005384 -0.006565 0.022369 -0.009480 0.004173 0.026454 0.024346 0.041443 -0.019335 0.008551 0.004570 -0.048221 -0.003951 -0.005799 0.033739 0.097756 0.007396 0.022849 0.007275 0.008909 -0.018625 0.036193 -0.018743 -0.014118 0.003059 0.037066 0.026603 0.011345 0.045658 -0.034186 0.001222 0.007949 0.032570 0.035258 0.048923 0.021277 0.025464 0.003033 -0.020721 -0.011545 0.029831 0.040716 0.033383 0.009891 -0.016430 0.000515 0.040492 0.020678 0.020388 -0.006088 0.003002 -0.008722 -0.049334 0.006559 0.006726 -0.001210 0.015902 0.018323 0.068653 0.069643 0.017268 -0.016856 -0.043183 -0.008706 0.010179 -0.044790 0.023478 -0.027076 -0.063012 0.017401 0.006604 -0.079921 -0.066351 0.026284 -0.021393 -0.057474 -0.067385 -0.052764 -0.014156 -0.064838 -0.011296 0.031400 0.083070 -0.014588 0.002347 0.113826 0.030409 -0.045059 0.168240 0.097686 0.123424 0.067028 0.209309 0.243739 0.215924 -0.122567 0.144466 -0.762687
0.072396 0.073047 0.075001 0.078256 0.082812 0.088667 0.095820 0.104266 0.114002 0.125023 0.137322 0.150891 0.165720 0.181796 0.199104 0.217624 0.237336 0.258211 0.280221 0.303329 0.327495 0.352670 0.378802 0.405829 0.433682 0.462286 0.491554 0.521392 0.551695 0.582348 0.613228 0.644196 0.675107 0.705801 0.736108 0.765848 0.794825 0.822838 0.849671 0.875099 0.898888 0.920796 0.940573 0.957963 0.972707 0.984542 0.993206 0.998438 0.999981 0.997588 0.991021 0.980055 0.964483 0.944121 0.918807 0.888411 0.852836 0.812020 0.765947 0.714644 0.658189 0.596714 0.530409 0.459526 0.384377 0.305343 0.222871 0.137475 0.049739 0.039688 0.130092 0.220700 0.310679 0.399150 0.485188 0.567833 0.646106 0.719010 0.785553 0.844754 0.895667 0.937390 0.969085 0.989997 0.999471 0.996972 0.982098 0.954605 0.914415 0.861635 0.796569 0.719728 0.631832 0.533822 0.426850 0.312282 0.191682 0.066800 0.060444 0.187992 0.313674 0.435244 0.550417 0.656918 0.752527 0.835127 0.902759 0.953676 0.986389 0.999724 0.992866 0.965399 0.917343 0.849182 0.761879 0.656883 0.536124 0.401995 0.257317 0.105293 0.050552 0.206446 0.358458 0.502593 0.634901 0.751592 0.849148 0.924443 0.974858 0.998382 0.993710 0.960320 0.898531 0.809542 0.695437 0.559163 0.404488 0.235911 0.058553 0.121984 0.299787 0.468822 0.623138 0.757090 0.865553 0.944136 0.989388 0.998965 0.971780 0.908101 0.809609 0.679396 0.521908 0.342830 0.148907 0.052283 0.252616 0.443738 0.617416 0.765906 0.882310 0.960933 0.997584 0.989837 0.937225 0.841338 0.705848 0.536410 0.340482 0.127030 0.093846 0.311385 0.514670 0.693186 0.837386 0.939228 0.992661 0.994036 0.942394 0.839630 0.690502 0.502474 0.285402 0.051067 0.187439 0.416420 0.622363 0.792757 0.916877 0.986511 0.996554 0.945449 0.835411 0.672426 0.466013 0.228728 0.024542 0.277475 0.513357 0.716187 0.871798 0.968890 0.999915 0.961739 0.856018 0.689246 0.472456 0.220566 0.048573 0.315404 0.560080 0.763932 0.910956 0.989114 0.991414 0.916616 0.769526 0.560806 0.306308 0.025959 0.257755 0.521544 0.743260 0.903774 0.988710 0.989824 0.905910 0.743122 0.514668 0.239847 0.057477 0.350899 0.613797 0.821761 0.954933 0.999988 0.951587 0.813123 0.596659 0.322019 0.015086 0.294561 0.576458 0.802265 0.948694 0.999997 0.949799 0.802023 0.570776 0.279160 0.042904 0.361669 0.643075 0.856402 0.977723 0.992701 0.898452 0.704171 0.430431 0.107175 0.229454 0.541078 0.791480 0.950871 0.999569 0.930586 0.750803 0.480513 0.151314 0.197447 0.523291 0.785788 0.951642 0.999049 0.920751 0.725333 0.436520 0.090504 0.268442 0.593567 0.841740 0.979269 0.986639 0.861498 0.619396 0.292108 0.076348 0.435487 0.735254 0.933054 0.999949 0.925111 0.717802 0.406525 0.035343 0.342198 0.670709 0.901135 0.998207 0.946064 0.751100 0.441517 0.063497 0.325471 0.665280 0.902497 0.998929 0.937999 0.727885 0.400757 0.008149 0.386975 0.720245 0.936414 0.998706 0.895337 0.642039 0.280022 0.130445 0.519933 0.821493 0.982340 0.973288 0.794375 0.475472 0.071657 0.346067 0.703114 0.934720 0.997844 0.879495 0.599745 0.208714 0.222107 0.612727 0.889546 0.999341 0.919827 0.664538 0.280978 0.157898 0.567315 0.867037 0.997242 0.930757 0.679133 0.291094 0.156498 0.573657 0.875315 0.998835 0.917336 0.645968 0.239587 0.217951 0.630875 0.911512 0.999130 0.873424 0.559685 0.124194 0.339400 0.730044
1.000000 1.000000 1.000000 1.000000 1.000000 1.000000 1.000000 1.000000 1.000000 1.000000 1.000000 1.000000 1.000000 1.000000 1.000000 1.000000 1.000000 1.000000 1.000000 1.000000 1.000000 1.000000 1.000000 1.000000 1.000000 1.000000 1.000000 1.000000 1.000000 1.000000 1.000000 1.000000 1.000000 1.000000 1.000000 1.000000 1.000000 1.000000 1.000000 1.000000 1.000000 1.000000 1.000000 1.000000 1.000000 1.000000 1.000000 1.000000 1.000000 1.000000 1.000000 1.000000 0.935882 0.935882 0.935882 0.935882 0.935882 0.935882 0.935882 0.935882 0.935882 0.935882 0.935882 0.935882 0.935882 0.935882 0.935882 0.935882 0.935882 0.935882 0.935882 0.935882 0.935882 0.935882 0.935882 0.935882 0.935882 0.935882 0.935882 0.935882 0.935882 0.935882 0.935882 0.935882 0.935882 0.924490 0.922473 0.925233 0.926183 0.926091 0.925642 0.925379 0.925673 0.927104 0.928889 0.950247 0.952471 0.953370 0.954400 0.953235 0.955789 0.953756 0.958417 0.969104 0.968439 0.969328 0.963689 0.964515 0.964147 0.963580 0.965451 0.965150 0.963880 0.962375 0.961229 0.960221 0.959883 0.961433 0.961888 0.962171 0.962538 0.962506 0.962410 0.960006 0.957774 0.960197 0.959584 0.958501 0.963984 0.962636 0.964600 0.964597 0.965282 0.966086 0.966307 0.966484 0.960388 0.958801 0.956758 0.942829 0.936993 0.932541 0.935490 0.938715 0.936729 0.931694 0.929511 0.931757 0.923261 0.922802 0.917442 0.917873 0.905099 0.899491 0.889403 0.890798 0.892426 0.892318 0.889559 0.878016 0.868753 0.866921 0.869999 0.864009 0.860476 0.876653 0.871902 0.873949 0.877329 0.879880 0.886995 0.873964 0.868131 0.864254 0.859645 0.859097 0.861176 0.864675 0.867119 0.862990 0.854924 0.858622 0.853285 0.858502 0.863972 0.861557 0.856884 0.854572 0.854140 0.855160 0.850654 0.856210 0.845933 0.843031 0.842067 0.835713 0.834821 0.828497 0.828232 0.829592 0.832666 0.824047 0.830455 0.810765 0.817929 0.812167 0.817966 0.814262 0.816065 0.816888 0.800093 0.794787 0.792031 0.800359 0.807550 0.779489 0.777137 0.772580 0.762034 0.766758 0.773591 0.768023 0.768529 0.760240 0.768396 0.767419 0.769953 0.765927 0.746261 0.748458 0.757505 0.764096 0.740649 0.730206 0.725074 0.725540 0.723682 0.684768 0.672803 0.659687 0.647289 0.651339 0.642185 0.622154 0.627656 0.629132 0.603792 0.605648 0.599854 0.555067 0.545135 0.533578 0.537244 0.533356 0.552215 0.552652 0.534013 0.548331 0.553260 0.554582 0.568486 0.447472 0.453722 0.434739 0.457544 0.468755 0.469916 0.448873 0.458179 0.452801 0.457920 0.458015 0.452287 0.468998 0.449533 0.445648 0.459589 0.438814 0.427835 0.443061 0.458070 0.463943 0.449165 0.448560 0.451123 0.447392 0.396375 0.397287 0.427650 0.420302 0.378333 0.383052 0.399995 0.382436 0.416109 0.412312 0.421971 0.434462 0.391512 0.400486 0.385746 0.412873 0.436659 0.420152 0.404267 0.395937 0.409847 0.368939 0.380856 0.406419 0.382815 0.452147 0.397283 0.387725 0.310717 0.347824 0.303856 0.314268 0.307725 0.248214 0.239547 0.212244 0.216284 0.189482 0.201680 0.184528 0.160162 0.123157 0.125946 0.099510 0.122198 0.132491 0.106922 0.102196 0.102196 0.102196 0.102196 0.084501 0.084501 0.084501 0.084501 0.084501 0.084501 0.084501 0.084501 0.084501 0.084501 0.084501 0.084501 0.084501 0.084501 -0.000841 -0.000841 -0.000841 -0.000841 -0.000841 -0.000841 -0.000841 -0.000841 -0.000841 -0.000841 -0.000841 -0.000841
0.000000 0.000000 0.000000 0.000000 0.000000 0.000000 0.000000 0.000000 0.000000 0.000000 0.000000 0.000000 0.000000 0.000000 0.000000 0.000000 0.000000 0.000000 0.000000 0.000000 0.000000 0.000000 0.000000 0.000000 0.000000 7.000000 4.000000 0.000000 0.000000 0.000000 0.000000 0.000000 0.000000 0.000000 0.000000 0.000000 0.000000 0.000000 0.000000 0.000000 0.000000 0.000000 0.000000 0.000000 0.000000 0.000000 0.000000 0.000000 0.000000 0.000000 0.000000 0.000000 0.209657 0.209657 0.209657 0.209657 0.209657 0.209657 0.209657 0.209657 0.209657 0.209657 0.209657 0.209657 0.209657 0.209657 0.209657 0.209657 0.209657 0.209657 0.209657 0.209657 0.209657 0.209657 0.209657 0.209657 0.209657 0.209657 0.209657 0.209657 0.209657 0.209657 0.209657 0.209657 0.209657 0.244339 0.244339 0.244339 0.244339 0.244339 0.244339 0.244339 0.244339 0.244339 0.244339 0.244339 0.244339 0.244339 0.244339 0.244339 0.244339 0.244339 0.244339 0.244339 0.244339 0.244339 0.244339 0.244339 0.244339 0.244339 0.260378 0.260378 0.260378 0.260378 0.260378 0.260378 0.260378 0.260378 0.260378 0.260378 0.260378 0.260378 0.260378 0.260378 0.260378 0.260378 0.260378 0.260378 0.260378 0.260378 0.269680 0.269680 0.269680 0.269680 0.269680 0.269680 0.269680 0.269680 0.269680 0.269680 0.269680 0.269680 0.269680 0.269680 0.269680 0.269680 0.269680 0.269680 0.269680 0.269680 0.269680 0.269680 0.269680 0.269680 0.269680 0.269680 0.269680 0.269680 0.269680 0.269680 0.269680 0.269680 0.269680 0.280056 0.280056 0.280056 0.280056 0.280056 0.280056 0.280056 0.280056 0.280056 0.280056 0.280056 0.280056 0.280056 0.280056 0.280056 0.280056 0.280056 0.280056 0.280056 0.280056 0.280056 0.280056 0.280056 0.280056 0.280056 0.280056 0.280056 0.285714 0.285714 0.285714 0.285714 0.285714 0.285714 0.285714 0.285714 0.285714 0.285714 0.285714 0.285714 0.274721 0.274721 0.274721 0.274721 0.274721 0.274721 0.274721 0.274721 0.274721 0.274721 0.274721 0.274721 0.280056 0.280056 0.280056 0.280056 0.280056 0.280056 0.280056 0.280056 0.280056 0.280056 0.280056 0.285714 0.285714 0.285714 0.285714 0.285714 0.285714 0.285714 0.285714 0.285714 0.285714 0.269680 0.269680 0.269680 0.269680 0.269680 0.269680 0.269680 0.269680 0.269680 0.269680 0.269680 0.285714 0.285714 0.285714 0.285714 0.285714 0.285714 0.285714 0.285714 0.285714 0.280056 0.280056 0.280056 0.280056 0.280056 0.280056 0.280056 0.280056 0.280056 0.274721 0.274721 0.274721 0.274721 0.274721 0.274721 0.274721 0.274721 0.274721 0.269680 0.269680 0.269680 0.269680 0.269680 0.269680 0.269680 0.269680 0.269680 0.280056 0.280056 0.280056 0.280056 0.280056 0.280056 0.280056 0.280056 0.260378 0.260378 0.260378 0.260378 0.260378 0.260378 0.260378 0.260378 0.260378 0.269680 0.269680 0.269680 0.269680 0.269680 0.269680 0.269680 0.269680 0.285714 0.285714 0.285714 0.285714 0.285714 0.285714 0.285714 0.264906 0.264906 0.264906 0.264906 0.264906 0.264906 0.264906 0.264906 0.274721 0.274721 0.274721 0.274721 0.274721 0.274721 0.274721 0.256074 0.256074 0.256074 0.256074 0.256074 0.256074 0.256074 0.256074 0.264906 0.264906 0.264906 0.264906 0.264906 0.264906 0.264906 0.264906 0.264906 0.264906 0.264906 0.264906 0.264906 0.264906 0.280056 0.280056 0.280056 0.280056 0.280056 0.280056 0.280056 0.280056 0.280056 0.280056 0.280056 0.280056
