# Output from CTFFind version 4.1.9, run on 2019-11-03 19:01:45
# Input file: stack11_bm3d_averaged_1_2.25_0_250_half.mrc ; Number of micrographs: 1
# Pixel size: 3.000 Angstroms ; acceleration voltage: 300.0 keV ; spherical aberration: 0.00 mm ; amplitude contrast: 0.07
# Box size: 512 pixels ; min. res.: 30.0 Angstroms ; max. res.: 5.0 Angstroms ; min. def.: 5000.0 um; max. def. 50000.0 um; num. frames averaged: 1
# 6 lines per micrograph: #1 - spatial frequency (1/Angstroms); #2 - 1D rotational average of spectrum (assuming no astigmatism); #3 - 1D rotational average of spectrum; #4 - CTF fit; #5 - cross-correlation between spectrum and CTF fit; #6 - 2sigma of expected cross correlation of noise
0.000000 0.000651 0.001302 0.001953 0.002604 0.003255 0.003906 0.004557 0.005208 0.005859 0.006510 0.007161 0.007812 0.008464 0.009115 0.009766 0.010417 0.011068 0.011719 0.012370 0.013021 0.013672 0.014323 0.014974 0.015625 0.016276 0.016927 0.017578 0.018229 0.018880 0.019531 0.020182 0.020833 0.021484 0.022135 0.022786 0.023438 0.024089 0.024740 0.025391 0.026042 0.026693 0.027344 0.027995 0.028646 0.029297 0.029948 0.030599 0.031250 0.031901 0.032552 0.033203 0.033854 0.034505 0.035156 0.035807 0.036458 0.037109 0.037760 0.038411 0.039062 0.039714 0.040365 0.041016 0.041667 0.042318 0.042969 0.043620 0.044271 0.044922 0.045573 0.046224 0.046875 0.047526 0.048177 0.048828 0.049479 0.050130 0.050781 0.051432 0.052083 0.052734 0.053385 0.054036 0.054688 0.055339 0.055990 0.056641 0.057292 0.057943 0.058594 0.059245 0.059896 0.060547 0.061198 0.061849 0.062500 0.063151 0.063802 0.064453 0.065104 0.065755 0.066406 0.067057 0.067708 0.068359 0.069010 0.069661 0.070312 0.070964 0.071615 0.072266 0.072917 0.073568 0.074219 0.074870 0.075521 0.076172 0.076823 0.077474 0.078125 0.078776 0.079427 0.080078 0.080729 0.081380 0.082031 0.082682 0.083333 0.083984 0.084635 0.085286 0.085938 0.086589 0.087240 0.087891 0.088542 0.089193 0.089844 0.090495 0.091146 0.091797 0.092448 0.093099 0.093750 0.094401 0.095052 0.095703 0.096354 0.097005 0.097656 0.098307 0.098958 0.099609 0.100260 0.100911 0.101562 0.102214 0.102865 0.103516 0.104167 0.104818 0.105469 0.106120 0.106771 0.107422 0.108073 0.108724 0.109375 0.110026 0.110677 0.111328 0.111979 0.112630 0.113281 0.113932 0.114583 0.115234 0.115885 0.116536 0.117188 0.117839 0.118490 0.119141 0.119792 0.120443 0.121094 0.121745 0.122396 0.123047 0.123698 0.124349 0.125000 0.125651 0.126302 0.126953 0.127604 0.128255 0.128906 0.129557 0.130208 0.130859 0.131510 0.132161 0.132812 0.133464 0.134115 0.134766 0.135417 0.136068 0.136719 0.137370 0.138021 0.138672 0.139323 0.139974 0.140625 0.141276 0.141927 0.142578 0.143229 0.143880 0.144531 0.145182 0.145833 0.146484 0.147135 0.147786 0.148438 0.149089 0.149740 0.150391 0.151042 0.151693 0.152344 0.152995 0.153646 0.154297 0.154948 0.155599 0.156250 0.156901 0.157552 0.158203 0.158854 0.159505 0.160156 0.160807 0.161458 0.162109 0.162760 0.163411 0.164062 0.164714 0.165365 0.166016 0.166667 0.167318 0.167969 0.168620 0.169271 0.169922 0.170573 0.171224 0.171875 0.172526 0.173177 0.173828 0.174479 0.175130 0.175781 0.176432 0.177083 0.177734 0.178385 0.179036 0.179688 0.180339 0.180990 0.181641 0.182292 0.182943 0.183594 0.184245 0.184896 0.185547 0.186198 0.186849 0.187500 0.188151 0.188802 0.189453 0.190104 0.190755 0.191406 0.192057 0.192708 0.193359 0.194010 0.194661 0.195312 0.195964 0.196615 0.197266 0.197917 0.198568 0.199219 0.199870 0.200521 0.201172 0.201823 0.202474 0.203125 0.203776 0.204427 0.205078 0.205729 0.206380 0.207031 0.207682 0.208333 0.208984 0.209635 0.210286 0.210938 0.211589 0.212240 0.212891 0.213542 0.214193 0.214844 0.215495 0.216146 0.216797 0.217448 0.218099 0.218750 0.219401 0.220052 0.220703 0.221354 0.222005 0.222656 0.223307 0.223958 0.224609 0.225260 0.225911 0.226562 0.227214 0.227865 0.228516 0.229167 0.229818 0.230469 0.231120 0.231771 0.232422 0.233073 0.233724 0.234375 0.235026 0.235677
       0.32004        0.32004        0.32004        0.32004        0.32004        0.32004        0.32004        0.32004        0.32004        0.32004        0.32004        0.32004        0.32004        0.32004        0.32004        0.32004        0.32004        0.32004        0.32004        0.32004        0.32004        0.32004        0.32004        0.32004        0.32004        0.32004        0.32004        0.32004        0.32004        0.32004        0.32004        0.32004        0.32004        0.32004        0.32004        0.32004        0.32004        0.32004        0.32004        0.32004        0.32004        0.32004        0.32004        0.32004        0.32004        0.32004        0.32004        0.32004        0.32004        0.32004        0.32004        0.68247        0.86289        0.52465        0.09204       -0.05411       -0.41678       -0.19857       -0.29481       -0.11597       -0.07033       -0.11771       -0.06389       -0.19774       -0.22636       -0.24751       -0.32528       -0.33637       -0.47560       -0.37767       -0.45566       -0.44387       -0.41609       -0.45550       -0.51611       -0.54890       -0.57988       -0.60790       -0.56763       -0.40140       -0.37125       -0.32314       -0.30449       -0.20656       -0.19818        0.02514        0.09311        0.12440        0.23243        0.36880        0.44313        0.50902        0.56329        0.56117        0.56434        0.69082        0.80582        0.72398        0.73058        0.64764        0.56777        0.47987        0.41290        0.49764        0.38118        0.22009        0.08189        0.06062        0.03179       -0.05521       -0.02002       -0.00076       -0.05369       -0.00487       -0.01220        0.21917        0.25316        0.28446        0.42377        0.44894        0.40418        0.55319        0.62230        0.67979        0.74604        0.68134        0.64799        0.68523        0.57425        0.48663        0.41675        0.29009        0.20797        0.15680        0.10937        0.04228        0.01773        0.01201        0.07486        0.12919        0.21120        0.27549        0.39410        0.43292        0.49537        0.59699        0.62311        0.62972        0.62235        0.55711        0.44742        0.45708        0.35758        0.23303        0.17882        0.14559        0.12778        0.12917        0.09563        0.12290        0.25483        0.27318        0.35734        0.37814        0.43730        0.50798        0.54008        0.54729        0.47417        0.43994        0.38802        0.34889        0.30346        0.26162        0.20946        0.19946        0.18031        0.20658        0.18868        0.28183        0.34119        0.37381        0.43089        0.45263        0.47769        0.42554        0.38945        0.40894        0.36389        0.28263        0.26126        0.22266        0.22418        0.19727        0.23213        0.23965        0.32832        0.36677        0.37845        0.46736        0.42850        0.43257        0.42902        0.39839        0.34265        0.31625        0.27767        0.26691        0.24462        0.28133        0.27846        0.30384        0.31225        0.33169        0.32079        0.40396        0.41851        0.37719        0.34698        0.36835        0.28747        0.28468        0.26288        0.28937        0.26811        0.28358        0.29528        0.31207        0.34270        0.36595        0.36818        0.35480        0.35922        0.29837        0.32268        0.27455        0.24315        0.30051        0.29396        0.31162        0.31031        0.32064        0.33926        0.31972        0.31828        0.29085        0.30323        0.27523        0.28773        0.25967        0.29287        0.29020        0.27870        0.30552        0.31828        0.32565        0.27204        0.30390        0.27299        0.27275        0.25818        0.22136        0.28151        0.28255        0.33758        0.31247        0.31647        0.31832        0.31836        0.27580        0.30725        0.32566        0.26930        0.26274        0.30268        0.29030        0.33649        0.32712        0.32996        0.32613        0.29290        0.27490        0.28519        0.24649        0.22266        0.29256        0.31339        0.30059        0.28974        0.30233        0.27903        0.33329        0.32505        0.25260        0.22263        0.28674        0.30843        0.27528        0.31076        0.32943        0.33400        0.31231        0.30319        0.33319        0.30866        0.28096        0.25602        0.30323        0.35508        0.37557        0.28017        0.26327        0.26433        0.29987        0.22918        0.28323        0.24490        0.24630        0.32902        0.32376        0.33951        0.30640        0.26345        0.24503        0.24650        0.23647        0.21660        0.23694        0.30096        0.30101        0.22444        0.32029        0.32131        0.26161        0.25585        0.20077        0.17349        0.22950        0.20776        0.22391        0.22761        0.22088        0.18635        0.26354        0.35162        0.33446        0.34095        0.24053        0.19405        0.18896        0.26418        0.25752        0.13363        0.19069        0.24017        0.13676        0.18105        0.13537        0.11999        0.18988        0.08599       -0.10785       -0.59589
2.623351 2.595842 2.568483 2.541273 2.514213 2.487302 2.460541 2.433929 2.407467 2.381155 2.354992 2.328978 2.303115 2.277400 2.251836 2.226421 2.201155 2.176039 2.151073 2.126256 2.101589 2.077071 2.052703 2.028484 2.004415 1.980496 1.956726 1.933106 1.909635 1.886314 1.863142 1.840120 1.817248 1.794525 1.771952 1.749528 1.727254 1.705129 1.683154 1.661329 1.639653 1.618126 1.596750 1.575522 1.554445 1.533517 1.512738 1.492109 1.471630 1.451300 1.431120 1.648245 2.060974 1.632684 1.142335 1.002978 0.427740 0.822381 0.561051 0.837236 0.782851 0.796567 0.751920 0.719915 0.573608 0.526968 0.488815 0.435726 0.221369 0.378275 0.203600 0.313659 0.233129 0.188646 0.147294 0.018600 0.036244 -0.005748 -0.060023 0.113925 0.211593 0.191301 0.161625 0.331847 0.192370 0.495220 0.594350 0.574973 0.606284 0.870451 0.815039 0.936478 0.891386 0.986206 0.950176 1.066374 1.150563 1.061025 1.127902 0.930824 0.930493 0.781926 0.653747 0.779600 0.707480 0.469484 0.314549 0.247465 0.235991 0.144272 0.101809 0.139767 0.085964 0.139580 0.059956 0.260259 0.375527 0.349093 0.476606 0.561190 0.447971 0.566120 0.705121 0.723028 0.761568 0.720860 0.724021 0.694259 0.619679 0.550630 0.412660 0.283450 0.215665 0.080741 0.125362 -0.055706 -0.037900 -0.071021 -0.050751 -0.012288 0.148135 0.077788 0.275269 0.292370 0.354044 0.443122 0.518794 0.506702 0.507954 0.507417 0.326692 0.309055 0.282539 0.096826 0.044257 -0.033570 -0.019156 -0.044405 -0.081887 -0.097239 0.016573 0.066477 0.126351 0.171839 0.227237 0.302216 0.318891 0.422109 0.391587 0.278118 0.237925 0.224093 0.176976 0.117349 0.091330 0.007835 0.006721 0.027591 -0.012212 0.068756 0.151083 0.142698 0.245614 0.248018 0.310724 0.221190 0.214369 0.162853 0.210428 0.118931 0.044526 0.013395 -0.008615 -0.008828 -0.040665 0.029465 0.019919 0.150546 0.140166 0.177906 0.230824 0.189947 0.182327 0.193880 0.145713 0.083759 0.041596 0.057614 -0.010961 0.002370 0.027389 0.054307 0.060484 0.071208 0.076481 0.114603 0.141096 0.183549 0.083074 0.090512 0.071911 0.014563 0.000301 0.009757 0.007802 0.016291 0.008602 0.029032 0.061532 0.082512 0.123646 0.060599 0.120928 0.063949 0.022662 0.058970 -0.031700 -0.010477 0.047332 0.005796 0.059599 0.050381 0.040916 0.096130 0.054368 0.032475 0.037536 0.014699 0.026180 0.011009 -0.010146 0.057983 -0.002121 0.022741 0.060817 0.057709 0.051547 0.041936 0.043269 0.028398 0.013872 -0.017180 -0.013377 0.035084 0.053718 0.093880 0.073512 0.070096 0.092936 0.082861 0.042787 0.095096 0.099337 0.018354 0.037430 0.079466 0.067456 0.108053 0.105072 0.083153 0.134995 0.076722 0.034818 0.075092 -0.009089 0.018384 0.088903 0.090967 0.071443 0.063360 0.048091 0.032508 0.120375 0.070153 -0.020359 -0.033836 0.047412 0.085609 0.012963 0.049784 0.099283 0.095562 0.052953 0.052011 0.082717 0.058377 0.033141 -0.027935 0.066544 0.123749 0.110567 -0.013022 -0.010566 -0.019393 0.060881 -0.079473 0.030963 -0.046777 -0.029588 0.059913 0.055679 0.038325 -0.000957 -0.036709 -0.044299 -0.072291 -0.036558 -0.074513 -0.070768 0.016740 0.081419 -0.065042 0.072316 0.019441 -0.041723 0.031613 -0.099095 -0.090646 -0.038655 -0.047720 -0.010013 -0.031343 0.015357 -0.065571 0.037847 0.211976 0.017841 0.185743 0.038467 0.202941 0.197598 0.293427 0.270390 0.119929 0.192210 0.287938 0.105901 0.193472 0.133629 0.125318 0.276436 0.088075 -0.625318
0.072396 0.072899 0.074407 0.076919 0.080436 0.084956 0.090478 0.097001 0.104522 0.113039 0.122547 0.133044 0.144523 0.156978 0.170401 0.184783 0.200114 0.216380 0.233566 0.251656 0.270628 0.290460 0.311127 0.332598 0.354840 0.377817 0.401487 0.425803 0.450716 0.476169 0.502102 0.528446 0.555130 0.582074 0.609193 0.636395 0.663582 0.690649 0.717484 0.743968 0.769975 0.795373 0.820024 0.843781 0.866493 0.888005 0.908152 0.926768 0.943684 0.958723 0.971711 0.982469 0.990818 0.996582 0.999586 0.999658 0.996632 0.990349 0.980658 0.967420 0.950506 0.929805 0.905219 0.876671 0.844106 0.807490 0.766815 0.722103 0.673403 0.620797 0.564401 0.504367 0.440883 0.374175 0.304511 0.232195 0.157576 0.081040 0.003014 0.076035 0.155604 0.235154 0.314114 0.391883 0.467834 0.541322 0.611683 0.678246 0.740334 0.797275 0.848412 0.893103 0.930736 0.960739 0.982585 0.995803 0.999989 0.994816 0.980038 0.955506 0.921172 0.877098 0.823459 0.760556 0.688811 0.608778 0.521137 0.426698 0.326394 0.221279 0.112519 0.001382 0.110775 0.222516 0.332350 0.438746 0.540152 0.635025 0.721851 0.799170 0.865606 0.919896 0.960912 0.987694 0.999470 0.995686 0.976025 0.940425 0.889096 0.822532 0.741512 0.647109 0.540679 0.423852 0.298515 0.166786 0.030989 0.106386 0.242728 0.375352 0.501544 0.618629 0.724024 0.815301 0.890246 0.946925 0.983734 0.999457 0.993312 0.964989 0.914679 0.843099 0.751491 0.641622 0.515759 0.376642 0.227428 0.071634 0.086944 0.244312 0.396384 0.539083 0.668454 0.780782 0.872704 0.941319 0.984294 0.999953 0.987357 0.946361 0.877649 0.782757 0.664051 0.524694 0.368580 0.200234 0.024703 0.152596 0.326030 0.489937 0.638802 0.767461 0.871283 0.946353 0.989638 0.999123 0.973928 0.914378 0.822039 0.699708 0.551352 0.382015 0.197646 0.004930 0.188961 0.376622 0.550695 0.704170 0.830676 0.924756 0.982132 0.999918 0.976791 0.913100 0.810912 0.673984 0.507654 0.318667 0.114923 0.094833 0.301377 0.495409 0.667974 0.810887 0.917146 0.981292 0.999725 0.970935 0.895646 0.776851 0.619738 0.431505 0.221064 0.001359 0.224697 0.437586 0.628948 0.788580 0.907712 0.979529 0.999590 0.966142 0.880303 0.746080 0.570246 0.362030 0.132687 0.105103 0.337895 0.552258 0.735544 0.876660 0.966773 0.999901 0.973358 0.888015 0.748344 0.562254 0.340687 0.097023 0.153690 0.395661 0.613341 0.792431 0.920865 0.989652 0.993561 0.931575 0.807074 0.627729 0.405087 0.153894 0.108849 0.365015 0.596582 0.786939 0.922086 0.991724 0.990093 0.916519 0.775593 0.576966 0.334767 0.066647 0.207455 0.466783 0.691333 0.863428 0.969142 0.999500 0.951306 0.827544 0.637300 0.395166 0.120210 0.165492 0.438581 0.676347 0.858620 0.969543 0.999016 0.943698 0.807454 0.601203 0.342127 0.052319 0.243039 0.517861 0.747444 0.910741 0.992341 0.984016 0.885641 0.705388 0.459175 0.169331 0.137336 0.431993 0.686480 0.876038 0.981766 0.992603 0.906586 0.731244 0.483069 0.186076 0.130465 0.434827 0.696038 0.887038 0.987564 0.986391 0.882702 0.686398 0.417288 0.103203 0.222810 0.525908 0.773205 0.937364 0.999719 0.952510 0.799970 0.558113 0.253180 0.081095 0.407163 0.687844 0.890612 0.991442 0.977765 0.850181 0.622647 0.321111 0.019318 0.358398 0.655457 0.874323 0.987778 0.981095 0.854073 0.621368 0.310959 0.039086 0.385174 0.683617 0.896154 0.994960 0.966417 0.813163 0.554045 0.221993 0.140053
1.000000 1.000000 1.000000 1.000000 1.000000 1.000000 1.000000 1.000000 1.000000 1.000000 1.000000 1.000000 1.000000 1.000000 1.000000 1.000000 1.000000 1.000000 1.000000 1.000000 1.000000 1.000000 1.000000 1.000000 1.000000 1.000000 1.000000 1.000000 1.000000 1.000000 1.000000 1.000000 1.000000 1.000000 1.000000 1.000000 1.000000 1.000000 1.000000 1.000000 1.000000 1.000000 1.000000 1.000000 1.000000 1.000000 1.000000 1.000000 1.000000 1.000000 1.000000 1.000000 0.923921 0.923921 0.923921 0.914502 0.914502 0.914502 0.914502 0.914502 0.914502 0.914502 0.914502 0.914502 0.914502 0.914502 0.914502 0.914502 0.914502 0.914502 0.914502 0.914502 0.914502 0.914502 0.914502 0.914502 0.914502 0.914502 0.914502 0.914502 0.914502 0.914502 0.914502 0.914502 0.914502 0.914502 0.914502 0.914502 0.914502 0.914502 0.914502 0.914502 0.914502 0.914502 0.914502 0.914502 0.942217 0.943647 0.951732 0.951582 0.951032 0.948899 0.947831 0.947375 0.947268 0.947589 0.948283 0.949232 0.957995 0.959163 0.961950 0.962832 0.963573 0.964216 0.964870 0.965481 0.962098 0.961084 0.960579 0.956660 0.959343 0.958654 0.958687 0.959683 0.959568 0.960970 0.961188 0.960545 0.959558 0.958702 0.957868 0.957373 0.957190 0.957876 0.958236 0.959628 0.962863 0.963407 0.963516 0.963673 0.963777 0.965075 0.963763 0.963230 0.959443 0.959801 0.959584 0.957489 0.963777 0.961139 0.961586 0.962130 0.963660 0.963917 0.959034 0.954547 0.945638 0.944487 0.939415 0.931702 0.928805 0.930478 0.932599 0.933302 0.933076 0.926909 0.927196 0.922133 0.920178 0.923222 0.919902 0.918171 0.919633 0.918275 0.916342 0.915602 0.912881 0.906502 0.901409 0.901269 0.905252 0.908782 0.910238 0.909372 0.904045 0.894728 0.874040 0.871834 0.868083 0.871911 0.863982 0.863415 0.863761 0.862529 0.866146 0.867236 0.868236 0.863726 0.846896 0.827487 0.815359 0.820359 0.826565 0.826291 0.818212 0.821001 0.834100 0.816665 0.829710 0.841336 0.831223 0.831607 0.830745 0.827209 0.816844 0.816511 0.816469 0.810425 0.809993 0.809759 0.805089 0.798379 0.803614 0.780391 0.768639 0.761058 0.763730 0.768037 0.767984 0.765709 0.770568 0.776642 0.778750 0.765477 0.756731 0.744558 0.749984 0.755015 0.760973 0.754585 0.739283 0.715574 0.666835 0.683743 0.722987 0.666839 0.687601 0.691895 0.680995 0.680167 0.671519 0.664740 0.652240 0.655653 0.667265 0.683882 0.693375 0.715485 0.700542 0.689742 0.692035 0.679859 0.671278 0.659690 0.666785 0.645322 0.639590 0.667226 0.667273 0.658359 0.656860 0.636564 0.634989 0.652806 0.661094 0.657465 0.653512 0.631844 0.595137 0.596324 0.604169 0.621588 0.646319 0.624691 0.603941 0.595601 0.584256 0.603151 0.580369 0.579705 0.594034 0.600836 0.582424 0.555139 0.559936 0.583498 0.589147 0.577877 0.545998 0.540702 0.549868 0.588566 0.578470 0.543647 0.553837 0.550448 0.550452 0.508978 0.513931 0.482586 0.462727 0.412296 0.397064 0.404282 0.393352 0.378060 0.351119 0.348943 0.355752 0.366295 0.366478 0.355526 0.333483 0.351408 0.352092 0.339124 0.277505 0.261763 0.247887 0.238849 0.238792 0.210001 0.229226 0.283297 0.284367 0.284367 0.284367 0.284367 0.284367 0.284367 0.297630 0.297630 0.297630 0.297630 0.297630 0.297630 0.297630 0.297630 0.297630 0.313309 0.313309 0.313309 0.313309 0.313309 0.313309 0.313309 0.313309 0.313309 0.313309 0.313309 0.313309 0.313309 0.313309
0.000000 0.000000 0.000000 0.000000 0.000000 0.000000 0.000000 0.000000 0.000000 0.000000 0.000000 0.000000 0.000000 0.000000 0.000000 0.000000 0.000000 0.000000 0.000000 0.000000 0.000000 0.000000 0.000000 0.000000 0.000000 0.000000 0.000000 0.000000 0.000000 0.000000 0.000000 0.000000 0.000000 0.000000 0.000000 0.000000 0.000000 0.000000 0.000000 0.000000 0.000000 0.000000 0.000000 0.000000 0.000000 0.000000 0.000000 0.000000 0.000000 0.000000 0.000000 0.000000 0.180334 0.180334 0.180334 0.199007 0.199007 0.199007 0.199007 0.199007 0.199007 0.199007 0.199007 0.199007 0.199007 0.199007 0.199007 0.199007 0.199007 0.199007 0.199007 0.199007 0.199007 0.199007 0.199007 0.199007 0.199007 0.199007 0.199007 0.199007 0.199007 0.199007 0.199007 0.199007 0.199007 0.199007 0.199007 0.199007 0.199007 0.199007 0.199007 0.199007 0.199007 0.199007 0.199007 0.199007 0.225018 0.225018 0.225018 0.225018 0.225018 0.225018 0.225018 0.225018 0.225018 0.225018 0.225018 0.225018 0.225018 0.225018 0.225018 0.225018 0.225018 0.225018 0.225018 0.225018 0.225018 0.225018 0.225018 0.225018 0.225018 0.225018 0.225018 0.225018 0.225018 0.244339 0.244339 0.244339 0.244339 0.244339 0.244339 0.244339 0.244339 0.244339 0.244339 0.244339 0.244339 0.244339 0.244339 0.244339 0.244339 0.244339 0.244339 0.244339 0.244339 0.244339 0.244339 0.244339 0.251976 0.251976 0.251976 0.251976 0.251976 0.251976 0.251976 0.251976 0.251976 0.251976 0.251976 0.251976 0.251976 0.251976 0.251976 0.251976 0.251976 0.251976 0.251976 0.251976 0.264906 0.264906 0.264906 0.264906 0.264906 0.264906 0.264906 0.264906 0.264906 0.264906 0.264906 0.264906 0.264906 0.264906 0.264906 0.264906 0.264906 0.264906 0.264906 0.264906 0.264906 0.264906 0.264906 0.264906 0.264906 0.264906 0.264906 0.264906 0.264906 0.264906 0.264906 0.264906 0.264906 0.264906 0.264906 0.264906 0.264906 0.264906 0.264906 0.264906 0.264906 0.264906 0.264906 0.264906 0.264906 0.264906 0.264906 0.264906 0.264906 0.264906 0.264906 0.264906 0.264906 0.264906 0.264906 0.264906 0.264906 0.264906 0.264906 0.264906 0.264906 0.264906 0.256074 0.256074 0.256074 0.256074 0.256074 0.256074 0.256074 0.256074 0.256074 0.256074 0.256074 0.256074 0.256074 0.256074 0.269680 0.269680 0.269680 0.269680 0.269680 0.269680 0.269680 0.269680 0.269680 0.269680 0.269680 0.269680 0.264906 0.264906 0.264906 0.264906 0.264906 0.264906 0.264906 0.264906 0.264906 0.264906 0.264906 0.264906 0.269680 0.269680 0.269680 0.269680 0.269680 0.269680 0.269680 0.269680 0.269680 0.269680 0.269680 0.264906 0.264906 0.264906 0.264906 0.264906 0.264906 0.264906 0.264906 0.264906 0.264906 0.264906 0.256074 0.256074 0.256074 0.256074 0.256074 0.256074 0.256074 0.256074 0.256074 0.256074 0.256074 0.264906 0.264906 0.264906 0.264906 0.264906 0.264906 0.264906 0.264906 0.264906 0.264906 0.260378 0.260378 0.260378 0.260378 0.260378 0.260378 0.260378 0.260378 0.260378 0.260378 0.256074 0.256074 0.256074 0.256074 0.256074 0.256074 0.256074 0.256074 0.256074 0.256074 0.260378 0.260378 0.260378 0.260378 0.260378 0.260378 0.260378 0.260378 0.260378 0.256074 0.256074 0.256074 0.256074 0.256074 0.256074 0.256074 0.256074 0.256074 0.251976 0.251976 0.251976 0.251976 0.251976 0.251976 0.251976 0.251976 0.251976 0.251976 0.251976 0.251976 0.251976 0.251976
