# Output from CTFFind version 4.1.9, run on 2019-11-03 19:00:56
# Input file: stack6_bm3d_averaged_1_2.75_0_250_half.mrc ; Number of micrographs: 1
# Pixel size: 3.000 Angstroms ; acceleration voltage: 300.0 keV ; spherical aberration: 0.00 mm ; amplitude contrast: 0.07
# Box size: 512 pixels ; min. res.: 30.0 Angstroms ; max. res.: 5.0 Angstroms ; min. def.: 5000.0 um; max. def. 50000.0 um; num. frames averaged: 1
# 6 lines per micrograph: #1 - spatial frequency (1/Angstroms); #2 - 1D rotational average of spectrum (assuming no astigmatism); #3 - 1D rotational average of spectrum; #4 - CTF fit; #5 - cross-correlation between spectrum and CTF fit; #6 - 2sigma of expected cross correlation of noise
0.000000 0.000651 0.001302 0.001953 0.002604 0.003255 0.003906 0.004557 0.005208 0.005859 0.006510 0.007161 0.007812 0.008464 0.009115 0.009766 0.010417 0.011068 0.011719 0.012370 0.013021 0.013672 0.014323 0.014974 0.015625 0.016276 0.016927 0.017578 0.018229 0.018880 0.019531 0.020182 0.020833 0.021484 0.022135 0.022786 0.023438 0.024089 0.024740 0.025391 0.026042 0.026693 0.027344 0.027995 0.028646 0.029297 0.029948 0.030599 0.031250 0.031901 0.032552 0.033203 0.033854 0.034505 0.035156 0.035807 0.036458 0.037109 0.037760 0.038411 0.039062 0.039714 0.040365 0.041016 0.041667 0.042318 0.042969 0.043620 0.044271 0.044922 0.045573 0.046224 0.046875 0.047526 0.048177 0.048828 0.049479 0.050130 0.050781 0.051432 0.052083 0.052734 0.053385 0.054036 0.054688 0.055339 0.055990 0.056641 0.057292 0.057943 0.058594 0.059245 0.059896 0.060547 0.061198 0.061849 0.062500 0.063151 0.063802 0.064453 0.065104 0.065755 0.066406 0.067057 0.067708 0.068359 0.069010 0.069661 0.070312 0.070964 0.071615 0.072266 0.072917 0.073568 0.074219 0.074870 0.075521 0.076172 0.076823 0.077474 0.078125 0.078776 0.079427 0.080078 0.080729 0.081380 0.082031 0.082682 0.083333 0.083984 0.084635 0.085286 0.085938 0.086589 0.087240 0.087891 0.088542 0.089193 0.089844 0.090495 0.091146 0.091797 0.092448 0.093099 0.093750 0.094401 0.095052 0.095703 0.096354 0.097005 0.097656 0.098307 0.098958 0.099609 0.100260 0.100911 0.101562 0.102214 0.102865 0.103516 0.104167 0.104818 0.105469 0.106120 0.106771 0.107422 0.108073 0.108724 0.109375 0.110026 0.110677 0.111328 0.111979 0.112630 0.113281 0.113932 0.114583 0.115234 0.115885 0.116536 0.117188 0.117839 0.118490 0.119141 0.119792 0.120443 0.121094 0.121745 0.122396 0.123047 0.123698 0.124349 0.125000 0.125651 0.126302 0.126953 0.127604 0.128255 0.128906 0.129557 0.130208 0.130859 0.131510 0.132161 0.132812 0.133464 0.134115 0.134766 0.135417 0.136068 0.136719 0.137370 0.138021 0.138672 0.139323 0.139974 0.140625 0.141276 0.141927 0.142578 0.143229 0.143880 0.144531 0.145182 0.145833 0.146484 0.147135 0.147786 0.148438 0.149089 0.149740 0.150391 0.151042 0.151693 0.152344 0.152995 0.153646 0.154297 0.154948 0.155599 0.156250 0.156901 0.157552 0.158203 0.158854 0.159505 0.160156 0.160807 0.161458 0.162109 0.162760 0.163411 0.164062 0.164714 0.165365 0.166016 0.166667 0.167318 0.167969 0.168620 0.169271 0.169922 0.170573 0.171224 0.171875 0.172526 0.173177 0.173828 0.174479 0.175130 0.175781 0.176432 0.177083 0.177734 0.178385 0.179036 0.179688 0.180339 0.180990 0.181641 0.182292 0.182943 0.183594 0.184245 0.184896 0.185547 0.186198 0.186849 0.187500 0.188151 0.188802 0.189453 0.190104 0.190755 0.191406 0.192057 0.192708 0.193359 0.194010 0.194661 0.195312 0.195964 0.196615 0.197266 0.197917 0.198568 0.199219 0.199870 0.200521 0.201172 0.201823 0.202474 0.203125 0.203776 0.204427 0.205078 0.205729 0.206380 0.207031 0.207682 0.208333 0.208984 0.209635 0.210286 0.210938 0.211589 0.212240 0.212891 0.213542 0.214193 0.214844 0.215495 0.216146 0.216797 0.217448 0.218099 0.218750 0.219401 0.220052 0.220703 0.221354 0.222005 0.222656 0.223307 0.223958 0.224609 0.225260 0.225911 0.226562 0.227214 0.227865 0.228516 0.229167 0.229818 0.230469 0.231120 0.231771 0.232422 0.233073 0.233724 0.234375 0.235026 0.235677
       0.29847        0.29847        0.29847        0.29847        0.29847        0.29847        0.29847        0.29847        0.29847        0.29847        0.29847        0.29847        0.29847        0.29847        0.29847        0.29847        0.29847        0.29847        0.29847        0.29847        0.29847        0.29847        0.29847        0.29847        0.29847        0.29847        0.29847        0.29847        0.29847        0.29847        0.29847        0.29847        0.29847        0.29847        0.29847        0.29847        0.29847        0.29847        0.29847        0.29847        0.29847        0.29847        0.29847        0.29847        0.29847        0.29847        0.29847        0.29847        0.29847        0.29847        0.29847        0.61464        0.77444        0.38121        0.25502        0.15204       -0.13105        0.11936        0.02327        0.03249        0.10516        0.34387        0.39382        0.34682        0.20140       -0.02335        0.02342        0.05890       -0.17537       -0.18415       -0.09316       -0.12208       -0.28763       -0.17916       -0.31155       -0.27969       -0.30464       -0.38993       -0.45881       -0.45495       -0.38792       -0.33176       -0.41617       -0.31751       -0.39133       -0.33329       -0.26959       -0.20316       -0.17414       -0.09121       -0.05284        0.05257        0.08906        0.22266        0.31087        0.37362        0.38190        0.49827        0.56536        0.59537        0.67833        0.65768        0.72211        0.62125        0.64828        0.65771        0.60351        0.59617        0.60554        0.40014        0.36718        0.36050        0.32539        0.18256        0.11752        0.05300        0.07471        0.02684       -0.06953       -0.00290       -0.04503       -0.08052        0.04625        0.15313        0.25795        0.31980        0.31579        0.39351        0.50725        0.53800        0.50543        0.65505        0.53602        0.51801        0.56493        0.57637        0.52527        0.47592        0.40285        0.35469        0.22230        0.18851        0.12232        0.13173        0.10109        0.04336        0.07701        0.14643        0.14350        0.16115        0.20532        0.23840        0.32830        0.44573        0.44545        0.45034        0.49603        0.55802        0.54742        0.50540        0.39203        0.39968        0.36232        0.28092        0.23266        0.20790        0.16989        0.18207        0.17937        0.16264        0.13093        0.19474        0.23820        0.33777        0.37241        0.40270        0.46245        0.49533        0.43172        0.44812        0.40791        0.39690        0.39641        0.33684        0.26582        0.26058        0.19414        0.21896        0.21003        0.18642        0.21218        0.21916        0.24784        0.31665        0.37096        0.37086        0.37169        0.38695        0.43271        0.42974        0.41677        0.32262        0.29925        0.26835        0.28909        0.25122        0.20994        0.25892        0.29156        0.28411        0.28545        0.32271        0.30517        0.37778        0.34360        0.34223        0.35574        0.33469        0.31967        0.30399        0.27306        0.28914        0.25660        0.22645        0.25732        0.25575        0.29311        0.30258        0.33744        0.35380        0.31631        0.29952        0.34654        0.32832        0.25047        0.27938        0.28162        0.25055        0.24071        0.28288        0.26707        0.26716        0.29893        0.29715        0.30977        0.32471        0.33306        0.27466        0.28843        0.30343        0.26881        0.25089        0.24370        0.23585        0.24014        0.26119        0.27158        0.27711        0.26524        0.31070        0.34043        0.28913        0.30419        0.24968        0.23767        0.24408        0.23244        0.22818        0.24379        0.29872        0.25156        0.29438        0.28671        0.28118        0.30685        0.25887        0.28799        0.29704        0.28554        0.25485        0.24963        0.23216        0.24855        0.29231        0.28777        0.30752        0.29351        0.31113        0.28914        0.30583        0.25613        0.20061        0.27813        0.26975        0.25426        0.26861        0.31228        0.29739        0.34139        0.27918        0.22730        0.22699        0.23669        0.26436        0.30379        0.28683        0.24852        0.28394        0.26635        0.28588        0.27165        0.25006        0.24907        0.24865        0.28145        0.23535        0.26298        0.31236        0.29476        0.25463        0.27312        0.25689        0.26619        0.20658        0.23225        0.24110        0.26432        0.27503        0.31924        0.25228        0.24172        0.24147        0.21548        0.20045        0.18258        0.22827        0.20610        0.23243        0.22742        0.19274        0.26392        0.24954        0.26330        0.22731        0.18100        0.20375        0.20456        0.14028        0.18611        0.13875        0.17296        0.18108        0.08492        0.25602        0.12932        0.05698        0.15190        0.13700        0.12587        0.12324       -0.12191       -0.55802       -0.98171
2.793444 2.766327 2.739348 2.712506 2.685801 2.659234 2.632804 2.606511 2.580356 2.554338 2.528457 2.502714 2.477108 2.451639 2.426308 2.401114 2.376057 2.351138 2.326356 2.301711 2.277203 2.252834 2.228601 2.204505 2.180547 2.156727 2.133043 2.109497 2.086089 2.062817 2.039683 2.016686 1.993827 1.971105 1.948520 1.926073 1.903763 1.881590 1.859555 1.837657 1.815896 1.794273 1.772787 1.751438 1.730227 1.709153 1.688216 1.667417 1.646754 1.626230 1.605842 1.925215 2.251291 1.666275 1.650607 1.328544 0.856057 1.179549 1.049712 1.078034 0.972184 1.529710 1.484167 1.485619 1.233714 0.912688 0.765100 0.993073 0.702137 0.425549 0.565828 0.641324 0.389985 0.459072 0.285037 0.286292 0.178447 0.164289 -0.071852 -0.027200 0.027644 0.041773 0.022535 0.129008 -0.053336 -0.002109 0.108957 0.196438 0.245790 0.288117 0.334292 0.598331 0.462694 0.675603 0.868522 0.903400 0.893544 1.153573 1.137125 1.217082 1.308503 1.189046 1.416109 1.176188 1.148146 1.317618 1.133777 1.066896 1.184290 0.879378 0.710660 0.695938 0.717339 0.428770 0.391485 0.235927 0.226159 0.147632 0.000158 0.133067 0.005773 -0.065587 0.092939 0.218881 0.343118 0.477904 0.500999 0.532754 0.720321 0.783817 0.631657 0.987501 0.816880 0.664644 0.769025 0.759903 0.732403 0.714007 0.462572 0.520353 0.251288 0.199772 0.121585 -0.007935 0.060268 -0.084198 -0.057279 -0.005635 0.085331 -0.041787 0.223349 0.126929 0.197781 0.405329 0.468626 0.460134 0.403254 0.605440 0.630295 0.515318 0.376115 0.345886 0.337810 0.178701 0.115272 0.029135 0.046398 -0.018905 -0.005856 -0.025810 -0.115699 -0.007689 0.010976 0.127376 0.263423 0.233327 0.378701 0.369040 0.397882 0.360055 0.434026 0.354590 0.261568 0.327459 0.124733 0.187461 0.015916 0.061004 0.024720 0.025305 -0.036044 0.031893 0.068410 0.117201 0.236843 0.279775 0.215792 0.257945 0.314846 0.342668 0.341791 0.206933 0.126240 0.126099 0.079565 0.090314 0.002785 -0.009973 0.106229 0.066157 0.098301 0.096186 0.112877 0.194739 0.216875 0.168503 0.186677 0.194694 0.144555 0.136800 0.086824 0.073221 0.114939 -0.035137 0.041302 0.062810 0.019636 0.137429 0.108151 0.187586 0.188119 0.129986 0.111745 0.211970 0.104651 0.036753 0.091273 0.052018 0.018384 0.040320 0.087731 0.043281 0.047017 0.131549 0.094082 0.114380 0.101158 0.120543 0.082129 0.047843 0.085959 0.038901 0.008266 -0.014139 -0.014232 0.001168 0.018456 0.060090 0.071163 -0.000021 0.126234 0.154511 0.032172 0.104767 0.007733 0.000954 -0.012166 -0.016211 -0.032228 0.051740 0.076558 -0.027039 0.102024 0.064612 0.062319 0.083129 0.020827 0.050752 0.115762 0.006184 0.041140 -0.014161 0.000617 -0.010969 0.083974 0.068111 0.074326 0.034910 0.149548 0.042034 0.093136 -0.033345 -0.068037 0.064761 0.004621 0.038071 -0.017124 0.145505 0.049801 0.102087 0.014010 -0.095480 -0.024953 -0.055574 0.063205 0.063417 0.034632 -0.018022 0.026930 -0.006916 0.023649 -0.003703 -0.029750 -0.014814 -0.078168 0.031164 -0.049486 0.036936 0.063551 0.022404 -0.006418 0.039315 0.025293 0.015710 -0.099751 -0.028372 -0.026816 0.037127 0.075619 0.115328 -0.005367 0.008894 0.017913 -0.002942 -0.076466 0.004227 0.003534 0.021153 0.027675 0.037048 -0.010968 0.123015 0.083124 0.124269 0.054653 0.037610 0.054661 0.063822 -0.090845 0.057047 -0.097439 0.129768 0.031487 -0.010178 0.378567 0.156831 0.089952 0.269891 0.208317 0.180856 0.251272 -0.177661 -1.453976
0.072396 0.072835 0.074151 0.076344 0.079414 0.083360 0.088181 0.093876 0.100444 0.107881 0.116187 0.125357 0.135388 0.146276 0.158015 0.170599 0.184020 0.198269 0.213336 0.229208 0.245873 0.263314 0.281515 0.300453 0.320108 0.340453 0.361460 0.383098 0.405333 0.428125 0.451434 0.475212 0.499411 0.523976 0.548849 0.573965 0.599257 0.624652 0.650071 0.675432 0.700646 0.725620 0.750254 0.774446 0.798085 0.821058 0.843245 0.864524 0.884767 0.903841 0.921612 0.937941 0.952686 0.965705 0.976852 0.985982 0.992951 0.997614 0.999829 0.999457 0.996363 0.990419 0.981501 0.969495 0.954296 0.935809 0.913953 0.888659 0.859876 0.827567 0.791716 0.752327 0.709424 0.663057 0.613298 0.560247 0.504030 0.444803 0.382748 0.318081 0.251046 0.181917 0.111003 0.038638 0.034809 0.108942 0.183339 0.257549 0.331099 0.403493 0.474216 0.542740 0.608523 0.671017 0.729671 0.783937 0.833274 0.877155 0.915072 0.946544 0.971121 0.988396 0.998004 0.999636 0.993040 0.978033 0.954502 0.922415 0.881820 0.832857 0.775755 0.710841 0.638536 0.559363 0.473939 0.382981 0.287297 0.187785 0.085426 0.018725 0.123547 0.227860 0.330446 0.430053 0.525419 0.615282 0.698399 0.773569 0.839645 0.895558 0.940337 0.973125 0.993202 1.000000 0.993121 0.972353 0.937679 0.889293 0.827603 0.753238 0.667048 0.570099 0.463671 0.349242 0.228474 0.103194 0.024631 0.152922 0.279521 0.402225 0.518826 0.627149 0.725099 0.810701 0.882145 0.937831 0.976406 0.996804 0.998284 0.980452 0.943295 0.887186 0.812905 0.721630 0.614937 0.494777 0.363452 0.223578 0.078037 0.070073 0.217505 0.360929 0.497011 0.622487 0.734251 0.829431 0.905474 0.960217 0.991965 0.999544 0.982358 0.940423 0.874396 0.785575 0.675897 0.547904 0.404703 0.249894 0.087495 0.078157 0.242517 0.400958 0.548897 0.681936 0.795995 0.887444 0.953237 0.991016 0.999215 0.977134 0.924992 0.843956 0.736130 0.604528 0.453006 0.286158 0.109197 0.072203 0.252075 0.424367 0.583136 0.722756 0.838138 0.924918 0.979639 0.999910 0.984521 0.933532 0.848310 0.731519 0.587067 0.419990 0.236302 0.042788 0.153229 0.344166 0.522471 0.680923 0.812937 0.912851 0.976187 0.999874 0.982417 0.924011 0.826582 0.693757 0.530762 0.344236 0.141991 0.067310 0.274505 0.470332 0.645853 0.792862 0.904295 0.974580 0.999950 0.978671 0.911181 0.800128 0.650314 0.468514 0.263199 0.044171 0.177893 0.391953 0.587159 0.753398 0.881846 0.965458 0.999377 0.981261 0.911465 0.793102 0.631942 0.436179 0.216044 0.016707 0.249395 0.469110 0.663427 0.821123 0.932850 0.991716 0.993754 0.938227 0.827749 0.668222 0.468571 0.240272 0.003260 0.247447 0.477415 0.678892 0.839127 0.947710 0.997290 0.984123 0.908391 0.774293 0.589867 0.366560 0.118567 0.138054 0.386393 0.609809 0.793051 0.923331 0.991249 0.991532 0.923483 0.791148 0.603132 0.372110 0.114012 0.153038 0.409971 0.638139 0.820692 0.943832 0.997923 0.978296 0.885707 0.726405 0.511783 0.257622 0.017019 0.291197 0.543678 0.754592 0.907011 0.988365 0.991540 0.915557 0.765795 0.553683 0.295906 0.013149 0.271538 0.534574 0.753849 0.910576 0.990973 0.987533 0.899802 0.734560 0.505399 0.231666 0.063100 0.353168 0.612841 0.818745 0.951991 0.999952 0.957548 0.827858 0.622007 0.358306 0.060682 0.243420 0.525567 0.758986 0.921142 0.995983 0.975602 0.861164 0.662974 0.399651 0.096457 0.217062 0.509920 0.752773 0.920872
1.000000 1.000000 1.000000 1.000000 1.000000 1.000000 1.000000 1.000000 1.000000 1.000000 1.000000 1.000000 1.000000 1.000000 1.000000 1.000000 1.000000 1.000000 1.000000 1.000000 1.000000 1.000000 1.000000 1.000000 1.000000 1.000000 1.000000 1.000000 1.000000 1.000000 1.000000 1.000000 1.000000 1.000000 1.000000 1.000000 1.000000 1.000000 1.000000 1.000000 1.000000 1.000000 1.000000 1.000000 1.000000 1.000000 1.000000 1.000000 1.000000 1.000000 1.000000 1.000000 0.825974 0.825974 0.825974 0.825974 0.825974 0.825974 0.825974 0.804204 0.804204 0.804204 0.804204 0.804204 0.804204 0.804204 0.804204 0.804204 0.804204 0.804204 0.804204 0.804204 0.804204 0.804204 0.804204 0.804204 0.804204 0.804204 0.804204 0.804204 0.804204 0.804204 0.804204 0.804204 0.804204 0.804204 0.804204 0.804204 0.804204 0.804204 0.804204 0.804204 0.804204 0.804204 0.804204 0.804204 0.804204 0.804204 0.804204 0.804204 0.804204 0.804204 0.804204 0.948450 0.949340 0.949737 0.948833 0.947410 0.943713 0.939734 0.938871 0.941256 0.941501 0.941568 0.942576 0.943192 0.944812 0.945851 0.947752 0.948209 0.956173 0.959753 0.959408 0.959126 0.957990 0.967587 0.964861 0.962209 0.962358 0.962498 0.962442 0.962305 0.962197 0.961850 0.960913 0.961458 0.961272 0.960702 0.959840 0.958053 0.958011 0.957414 0.957447 0.958335 0.959068 0.959744 0.960900 0.960909 0.961581 0.960344 0.959421 0.949824 0.948149 0.948540 0.945117 0.945951 0.945498 0.944648 0.943228 0.943303 0.943256 0.942337 0.942293 0.941094 0.935141 0.934396 0.934388 0.935054 0.929619 0.918710 0.914274 0.911778 0.913228 0.917031 0.920752 0.920743 0.919475 0.915589 0.907108 0.900220 0.886685 0.883473 0.880335 0.887736 0.889686 0.890783 0.891031 0.891210 0.890001 0.888056 0.868744 0.873231 0.869071 0.866140 0.861038 0.859010 0.858065 0.860040 0.863070 0.854367 0.835566 0.836014 0.821068 0.794299 0.792507 0.796816 0.807499 0.816069 0.814727 0.811435 0.798414 0.793594 0.778269 0.766408 0.766859 0.769912 0.767911 0.774916 0.779911 0.769519 0.767333 0.762488 0.768001 0.782004 0.792207 0.796621 0.793892 0.790173 0.789696 0.744773 0.744851 0.747799 0.733249 0.737433 0.732834 0.733136 0.738816 0.736398 0.732644 0.733092 0.729973 0.703412 0.711129 0.716233 0.713308 0.714156 0.696305 0.688731 0.647312 0.650494 0.631991 0.642149 0.645489 0.656649 0.646774 0.655668 0.663438 0.656709 0.664426 0.662959 0.650984 0.643180 0.652730 0.659828 0.628369 0.640268 0.639780 0.626186 0.619554 0.617144 0.630864 0.627619 0.608214 0.607141 0.558557 0.518634 0.508683 0.496137 0.483146 0.471326 0.485566 0.491475 0.486106 0.476952 0.453072 0.394541 0.401004 0.399658 0.366009 0.379593 0.367585 0.340315 0.361651 0.362877 0.368368 0.341162 0.322384 0.296006 0.241080 0.224371 0.190629 0.199974 0.195688 0.185721 0.174626 0.172284 0.167397 0.151396 0.159821 0.158537 0.188816 0.164656 0.142153 0.157993 0.173211 0.169103 0.164062 0.151087 0.201580 0.175640 0.180487 0.188101 0.138409 0.105466 0.042077 0.050183 0.056772 0.090199 0.122935 0.107138 0.077099 -0.025427 0.004903 0.039656 0.039656 0.039656 0.039656 0.039656 0.039656 0.039656 0.039656 0.039656 0.039656 0.039656 -0.029843 -0.029843 -0.029843 -0.029843 -0.029843 -0.029843 -0.029843 -0.029843 -0.029843 -0.029843 -0.029843 -0.029843 -0.029843 -0.029843 -0.029843 -0.029843 -0.029843 -0.029843 -0.029843
0.000000 0.000000 0.000000 0.000000 0.000000 0.000000 0.000000 0.000000 0.000000 0.000000 0.000000 0.000000 0.000000 0.000000 0.000000 0.000000 0.000000 0.000000 0.000000 0.000000 0.000000 0.000000 0.000000 0.000000 0.000000 0.000000 0.000000 0.000000 0.000000 0.000000 0.000000 0.000000 0.000000 0.000000 0.000000 0.000000 0.000000 0.000000 0.000000 0.000000 0.000000 0.000000 0.000000 0.000000 0.000000 0.000000 0.000000 0.000000 0.000000 0.000000 0.000000 0.000000 0.173422 0.173422 0.173422 0.173422 0.173422 0.173422 0.173422 0.191565 0.191565 0.191565 0.191565 0.191565 0.191565 0.191565 0.191565 0.191565 0.191565 0.191565 0.191565 0.191565 0.191565 0.191565 0.191565 0.191565 0.191565 0.191565 0.191565 0.191565 0.191565 0.191565 0.191565 0.191565 0.191565 0.191565 0.191565 0.191565 0.191565 0.191565 0.191565 0.191565 0.191565 0.191565 0.191565 0.191565 0.191565 0.191565 0.191565 0.191565 0.191565 0.191565 0.191565 0.219529 0.219529 0.219529 0.219529 0.219529 0.219529 0.219529 0.219529 0.219529 0.219529 0.219529 0.219529 0.219529 0.219529 0.219529 0.219529 0.219529 0.219529 0.219529 0.219529 0.219529 0.219529 0.219529 0.219529 0.219529 0.219529 0.219529 0.219529 0.219529 0.219529 0.219529 0.237356 0.237356 0.237356 0.237356 0.237356 0.237356 0.237356 0.237356 0.237356 0.237356 0.237356 0.237356 0.237356 0.237356 0.237356 0.237356 0.237356 0.237356 0.237356 0.237356 0.237356 0.237356 0.237356 0.237356 0.244339 0.244339 0.244339 0.244339 0.244339 0.244339 0.244339 0.244339 0.244339 0.244339 0.244339 0.244339 0.244339 0.244339 0.244339 0.244339 0.244339 0.244339 0.244339 0.244339 0.244339 0.248069 0.248069 0.248069 0.248069 0.248069 0.248069 0.248069 0.248069 0.248069 0.248069 0.248069 0.248069 0.248069 0.248069 0.248069 0.248069 0.248069 0.248069 0.248069 0.248069 0.248069 0.248069 0.248069 0.248069 0.248069 0.248069 0.248069 0.248069 0.248069 0.248069 0.248069 0.248069 0.248069 0.248069 0.248069 0.248069 0.248069 0.256074 0.256074 0.256074 0.256074 0.256074 0.256074 0.256074 0.256074 0.256074 0.256074 0.256074 0.256074 0.256074 0.256074 0.256074 0.256074 0.256074 0.256074 0.256074 0.256074 0.256074 0.256074 0.256074 0.256074 0.256074 0.256074 0.256074 0.256074 0.256074 0.256074 0.256074 0.256074 0.256074 0.256074 0.256074 0.256074 0.256074 0.256074 0.256074 0.256074 0.256074 0.256074 0.256074 0.256074 0.256074 0.260378 0.260378 0.260378 0.260378 0.260378 0.260378 0.260378 0.260378 0.260378 0.260378 0.260378 0.260378 0.260378 0.256074 0.256074 0.256074 0.256074 0.256074 0.256074 0.256074 0.256074 0.256074 0.256074 0.256074 0.256074 0.256074 0.260378 0.260378 0.260378 0.260378 0.260378 0.260378 0.260378 0.260378 0.260378 0.260378 0.260378 0.260378 0.251976 0.251976 0.251976 0.251976 0.251976 0.251976 0.251976 0.251976 0.251976 0.251976 0.251976 0.251976 0.256074 0.256074 0.256074 0.256074 0.256074 0.256074 0.256074 0.256074 0.256074 0.256074 0.256074 0.251976 0.251976 0.251976 0.251976 0.251976 0.251976 0.251976 0.251976 0.251976 0.251976 0.251976 0.248069 0.248069 0.248069 0.248069 0.248069 0.248069 0.248069 0.248069 0.248069 0.248069 0.248069 0.256074 0.256074 0.256074 0.256074 0.256074 0.256074 0.256074 0.256074 0.256074 0.256074 0.256074 0.256074 0.256074 0.256074 0.256074 0.256074 0.256074 0.256074 0.256074
