# Output from CTFFind version 4.1.9, run on 2019-11-03 19:01:37
# Input file: stack11_bm3d_averaged_1_2.25_0_1500_half.mrc ; Number of micrographs: 1
# Pixel size: 3.000 Angstroms ; acceleration voltage: 300.0 keV ; spherical aberration: 0.00 mm ; amplitude contrast: 0.07
# Box size: 512 pixels ; min. res.: 30.0 Angstroms ; max. res.: 5.0 Angstroms ; min. def.: 5000.0 um; max. def. 50000.0 um; num. frames averaged: 1
# 6 lines per micrograph: #1 - spatial frequency (1/Angstroms); #2 - 1D rotational average of spectrum (assuming no astigmatism); #3 - 1D rotational average of spectrum; #4 - CTF fit; #5 - cross-correlation between spectrum and CTF fit; #6 - 2sigma of expected cross correlation of noise
0.000000 0.000651 0.001302 0.001953 0.002604 0.003255 0.003906 0.004557 0.005208 0.005859 0.006510 0.007161 0.007812 0.008464 0.009115 0.009766 0.010417 0.011068 0.011719 0.012370 0.013021 0.013672 0.014323 0.014974 0.015625 0.016276 0.016927 0.017578 0.018229 0.018880 0.019531 0.020182 0.020833 0.021484 0.022135 0.022786 0.023438 0.024089 0.024740 0.025391 0.026042 0.026693 0.027344 0.027995 0.028646 0.029297 0.029948 0.030599 0.031250 0.031901 0.032552 0.033203 0.033854 0.034505 0.035156 0.035807 0.036458 0.037109 0.037760 0.038411 0.039062 0.039714 0.040365 0.041016 0.041667 0.042318 0.042969 0.043620 0.044271 0.044922 0.045573 0.046224 0.046875 0.047526 0.048177 0.048828 0.049479 0.050130 0.050781 0.051432 0.052083 0.052734 0.053385 0.054036 0.054688 0.055339 0.055990 0.056641 0.057292 0.057943 0.058594 0.059245 0.059896 0.060547 0.061198 0.061849 0.062500 0.063151 0.063802 0.064453 0.065104 0.065755 0.066406 0.067057 0.067708 0.068359 0.069010 0.069661 0.070312 0.070964 0.071615 0.072266 0.072917 0.073568 0.074219 0.074870 0.075521 0.076172 0.076823 0.077474 0.078125 0.078776 0.079427 0.080078 0.080729 0.081380 0.082031 0.082682 0.083333 0.083984 0.084635 0.085286 0.085938 0.086589 0.087240 0.087891 0.088542 0.089193 0.089844 0.090495 0.091146 0.091797 0.092448 0.093099 0.093750 0.094401 0.095052 0.095703 0.096354 0.097005 0.097656 0.098307 0.098958 0.099609 0.100260 0.100911 0.101562 0.102214 0.102865 0.103516 0.104167 0.104818 0.105469 0.106120 0.106771 0.107422 0.108073 0.108724 0.109375 0.110026 0.110677 0.111328 0.111979 0.112630 0.113281 0.113932 0.114583 0.115234 0.115885 0.116536 0.117188 0.117839 0.118490 0.119141 0.119792 0.120443 0.121094 0.121745 0.122396 0.123047 0.123698 0.124349 0.125000 0.125651 0.126302 0.126953 0.127604 0.128255 0.128906 0.129557 0.130208 0.130859 0.131510 0.132161 0.132812 0.133464 0.134115 0.134766 0.135417 0.136068 0.136719 0.137370 0.138021 0.138672 0.139323 0.139974 0.140625 0.141276 0.141927 0.142578 0.143229 0.143880 0.144531 0.145182 0.145833 0.146484 0.147135 0.147786 0.148438 0.149089 0.149740 0.150391 0.151042 0.151693 0.152344 0.152995 0.153646 0.154297 0.154948 0.155599 0.156250 0.156901 0.157552 0.158203 0.158854 0.159505 0.160156 0.160807 0.161458 0.162109 0.162760 0.163411 0.164062 0.164714 0.165365 0.166016 0.166667 0.167318 0.167969 0.168620 0.169271 0.169922 0.170573 0.171224 0.171875 0.172526 0.173177 0.173828 0.174479 0.175130 0.175781 0.176432 0.177083 0.177734 0.178385 0.179036 0.179688 0.180339 0.180990 0.181641 0.182292 0.182943 0.183594 0.184245 0.184896 0.185547 0.186198 0.186849 0.187500 0.188151 0.188802 0.189453 0.190104 0.190755 0.191406 0.192057 0.192708 0.193359 0.194010 0.194661 0.195312 0.195964 0.196615 0.197266 0.197917 0.198568 0.199219 0.199870 0.200521 0.201172 0.201823 0.202474 0.203125 0.203776 0.204427 0.205078 0.205729 0.206380 0.207031 0.207682 0.208333 0.208984 0.209635 0.210286 0.210938 0.211589 0.212240 0.212891 0.213542 0.214193 0.214844 0.215495 0.216146 0.216797 0.217448 0.218099 0.218750 0.219401 0.220052 0.220703 0.221354 0.222005 0.222656 0.223307 0.223958 0.224609 0.225260 0.225911 0.226562 0.227214 0.227865 0.228516 0.229167 0.229818 0.230469 0.231120 0.231771 0.232422 0.233073 0.233724 0.234375 0.235026 0.235677
       0.31583        0.31583        0.31583        0.31583        0.31583        0.31583        0.31583        0.31583        0.31583        0.31583        0.31583        0.31583        0.31583        0.31583        0.31583        0.31583        0.31583        0.31583        0.31583        0.31583        0.31583        0.31583        0.31583        0.31583        0.31583        0.31583        0.31583        0.31583        0.31583        0.31583        0.31583        0.31583        0.31583        0.31583        0.31583        0.31583        0.31583        0.31583        0.31583        0.31583        0.31583        0.31583        0.31583        0.31583        0.31583        0.31583        0.31583        0.31583        0.31583        0.31583        0.31583        0.68056        0.86347        0.52199        0.08742       -0.06178       -0.42652       -0.20396       -0.29988       -0.11955       -0.07672       -0.12022       -0.06984       -0.20763       -0.23512       -0.25516       -0.33151       -0.34147       -0.48583       -0.38208       -0.46270       -0.45047       -0.42262       -0.46460       -0.53157       -0.55754       -0.58640       -0.61770       -0.57646       -0.41142       -0.37807       -0.33161       -0.31517       -0.20933       -0.19956        0.02094        0.08040        0.11245        0.22602        0.36704        0.43999        0.50989        0.55693        0.55289        0.56596        0.69109        0.80775        0.73212        0.73067        0.65598        0.57045        0.48168        0.40600        0.49401        0.37742        0.20690        0.07602        0.04824        0.01717       -0.06105       -0.03327       -0.01237       -0.06489       -0.00971       -0.02059        0.21448        0.25077        0.28640        0.42141        0.45063        0.40177        0.54087        0.62251        0.68744        0.75347        0.68368        0.65096        0.68878        0.57575        0.49085        0.41490        0.28684        0.19611        0.15516        0.10861        0.03779        0.01019        0.00439        0.07276        0.12870        0.20594        0.27311        0.39322        0.42147        0.49964        0.59736        0.62749        0.62047        0.62324        0.55106        0.44326        0.45101        0.35145        0.22677        0.17940        0.14424        0.11803        0.12798        0.08278        0.11093        0.23571        0.26459        0.34725        0.36249        0.44256        0.50901        0.53665        0.54298        0.46706        0.43003        0.38567        0.35519        0.30101        0.25229        0.20679        0.19161        0.16835        0.19834        0.18110        0.27395        0.33335        0.36739        0.42583        0.45756        0.47601        0.43126        0.38637        0.41017        0.36836        0.27772        0.26207        0.22053        0.21957        0.19377        0.22022        0.22993        0.32520        0.37025        0.37142        0.46199        0.42955        0.43441        0.42645        0.39234        0.33961        0.32023        0.27704        0.25115        0.23752        0.27036        0.27418        0.30111        0.30361        0.32960        0.32139        0.40308        0.41650        0.37395        0.34467        0.36278        0.28051        0.27988        0.25928        0.27992        0.26125        0.28007        0.29085        0.30800        0.34431        0.36086        0.36377        0.34115        0.35052        0.28969        0.32148        0.26879        0.24043        0.28995        0.28755        0.31045        0.30735        0.32106        0.32657        0.31392        0.31698        0.28717        0.29043        0.26508        0.28454        0.26280        0.29829        0.28351        0.27002        0.30393        0.31008        0.31625        0.27589        0.30042        0.27613        0.25901        0.24923        0.21583        0.27770        0.27616        0.32730        0.30616        0.31631        0.31480        0.31160        0.27543        0.29371        0.32611        0.26461        0.25720        0.29513        0.28366        0.33790        0.33138        0.34228        0.32763        0.30000        0.27875        0.27079        0.24741        0.22435        0.27648        0.30480        0.29248        0.27860        0.29274        0.27214        0.32728        0.32858        0.25042        0.22059        0.27700        0.32206        0.27561        0.30832        0.32960        0.32296        0.29969        0.31204        0.33615        0.29539        0.27893        0.24818        0.29071        0.35499        0.36312        0.26990        0.26111        0.25472        0.29003        0.21665        0.28578        0.23582        0.24907        0.33390        0.32569        0.34681        0.29763        0.23910        0.23757        0.24150        0.23163        0.20211        0.23075        0.27801        0.29908        0.24364        0.31542        0.31436        0.25901        0.25775        0.19836        0.16213        0.20792        0.21611        0.19608        0.21408        0.22490        0.18984        0.25562        0.35278        0.31252        0.33134        0.23275        0.21524        0.20186        0.27643        0.28236        0.14957        0.23469        0.24077        0.11020        0.18817        0.12773        0.13906        0.22304        0.14969       -0.09854       -0.59657
2.609083 2.581805 2.554675 2.527693 2.500859 2.474173 2.447635 2.421245 2.395003 2.368909 2.342963 2.317166 2.291516 2.266014 2.240660 2.215454 2.190396 2.165486 2.140725 2.116111 2.091645 2.067327 2.043158 2.019136 1.995262 1.971536 1.947959 1.924529 1.901247 1.878114 1.855128 1.832290 1.809601 1.787059 1.764665 1.742420 1.720322 1.698373 1.676571 1.654918 1.633412 1.612054 1.590845 1.569783 1.548870 1.528105 1.507487 1.487018 1.466696 1.446523 1.426497 1.646562 2.056751 1.628473 1.138284 0.998686 0.421207 0.821917 0.559043 0.838230 0.777970 0.795309 0.752485 0.714939 0.567380 0.521867 0.487458 0.438459 0.213505 0.381095 0.203987 0.311322 0.233562 0.185536 0.141000 0.012984 0.038086 -0.007083 -0.057841 0.108807 0.210081 0.191402 0.154667 0.335478 0.197867 0.499030 0.588019 0.564218 0.602140 0.875599 0.815378 0.942846 0.891007 0.981255 0.947723 1.079618 1.143280 1.074905 1.131031 0.943447 0.936903 0.789476 0.652549 0.778268 0.711790 0.464781 0.311893 0.248593 0.224578 0.146575 0.095419 0.134772 0.080649 0.146099 0.055852 0.262429 0.379608 0.359158 0.477763 0.570535 0.457180 0.558510 0.703613 0.736928 0.770814 0.731480 0.732918 0.704894 0.624674 0.560779 0.423513 0.283131 0.214137 0.081643 0.130988 -0.045755 -0.036765 -0.072616 -0.043541 -0.004721 0.151118 0.080304 0.289998 0.284843 0.358390 0.452000 0.524969 0.511068 0.512780 0.502793 0.331641 0.310230 0.281239 0.095422 0.047380 -0.020226 -0.025231 -0.038816 -0.082077 -0.098164 0.003033 0.056361 0.132405 0.156611 0.227244 0.320269 0.316196 0.419650 0.390911 0.276873 0.231359 0.235804 0.188801 0.105372 0.087183 0.014542 0.003537 0.015740 -0.011515 0.062096 0.150417 0.139525 0.239800 0.252877 0.310017 0.237642 0.217512 0.170072 0.215564 0.129709 0.039594 0.025925 -0.008672 -0.010389 -0.036195 0.021154 0.017060 0.158811 0.138407 0.177530 0.235726 0.195888 0.188814 0.191897 0.143925 0.092276 0.056033 0.056974 -0.023171 0.004965 0.022985 0.059595 0.057564 0.073212 0.087392 0.116731 0.140172 0.188003 0.083480 0.094606 0.073254 0.005866 0.004016 0.009074 -0.000086 0.015893 0.010740 0.028323 0.064676 0.080310 0.131685 0.058499 0.109795 0.060194 0.020764 0.061663 -0.031677 -0.012157 0.038709 0.007172 0.061102 0.052763 0.046208 0.068805 0.057568 0.043476 0.031842 0.003877 0.024964 0.013912 -0.004832 0.065935 -0.008784 0.021229 0.061441 0.051559 0.046141 0.047886 0.041981 0.024808 0.000586 -0.022842 -0.016568 0.030837 0.043807 0.088555 0.061046 0.072922 0.088554 0.072281 0.041749 0.084220 0.094279 0.018296 0.029077 0.070624 0.058547 0.108610 0.111470 0.107494 0.125984 0.079469 0.043665 0.053983 -0.002183 0.015926 0.070059 0.089859 0.055824 0.044864 0.042357 0.028216 0.113635 0.067083 -0.030113 -0.041426 0.040231 0.095603 0.015688 0.032154 0.088885 0.084255 0.034661 0.059860 0.083744 0.038126 0.031079 -0.044100 0.046816 0.123427 0.092399 -0.033737 -0.021642 -0.034138 0.045059 -0.104238 0.041037 -0.072798 -0.026615 0.062104 0.058640 0.033260 -0.018278 -0.064586 -0.058771 -0.078527 -0.052372 -0.091136 -0.081571 -0.009071 0.066247 -0.055880 0.065989 0.007282 -0.051585 0.035832 -0.106553 -0.106406 -0.064604 -0.026671 -0.046340 -0.048920 0.008016 -0.033055 0.025067 0.207182 -0.013879 0.167096 0.025774 0.223491 0.217645 0.318139 0.267063 0.126950 0.237904 0.282444 0.059558 0.201311 0.132935 0.116537 0.308284 0.154853 -0.623014
0.072396 0.072899 0.074406 0.076918 0.080434 0.084953 0.090474 0.096995 0.104514 0.113028 0.122534 0.133028 0.144504 0.156955 0.170375 0.184754 0.200081 0.216343 0.233524 0.251609 0.270577 0.290404 0.311065 0.332531 0.354768 0.377740 0.401404 0.425715 0.450623 0.476071 0.501998 0.528337 0.555016 0.581956 0.609071 0.636269 0.663453 0.690517 0.717350 0.743833 0.769839 0.795238 0.819889 0.843649 0.866365 0.887880 0.908034 0.926658 0.943582 0.958632 0.971632 0.982404 0.990769 0.996551 0.999575 0.999668 0.996666 0.990409 0.980746 0.967537 0.950655 0.929987 0.905436 0.876926 0.844398 0.807822 0.767188 0.722517 0.673858 0.621294 0.564940 0.504947 0.441503 0.374834 0.305206 0.232924 0.158336 0.081828 0.003825 0.075205 0.154761 0.234304 0.313263 0.391038 0.467003 0.540512 0.610903 0.677504 0.739639 0.796638 0.847840 0.892605 0.930323 0.960419 0.982365 0.995692 0.999994 0.994942 0.980292 0.955891 0.921690 0.877750 0.824245 0.761473 0.689856 0.609943 0.522415 0.428078 0.327863 0.222823 0.114121 0.003024 0.109113 0.220857 0.330716 0.437161 0.538642 0.633615 0.720565 0.798034 0.864644 0.919129 0.960361 0.987376 0.999401 0.995877 0.976483 0.941154 0.890094 0.823791 0.743022 0.648852 0.542631 0.425987 0.300797 0.169181 0.033453 0.103898 0.240266 0.372963 0.499282 0.616544 0.722167 0.813719 0.888984 0.946020 0.983220 0.999358 0.993645 0.965760 0.915888 0.844730 0.753519 0.644012 0.518465 0.379606 0.230585 0.074910 0.083628 0.241044 0.393249 0.536169 0.665848 0.778565 0.870948 0.940088 0.983639 0.999911 0.987947 0.947583 0.879489 0.785177 0.666994 0.528086 0.372328 0.204232 0.028830 0.148467 0.322035 0.486209 0.635474 0.764655 0.869107 0.944902 0.988980 0.999304 0.974964 0.916255 0.824712 0.703101 0.555361 0.386503 0.202460 0.009895 0.184032 0.371922 0.546413 0.700488 0.827756 0.922734 0.981115 0.999973 0.977941 0.915326 0.814147 0.678112 0.512518 0.324074 0.120649 0.089035 0.295767 0.490246 0.663504 0.807334 0.914696 0.980087 0.999851 0.972418 0.898445 0.780861 0.624789 0.437368 0.227466 0.005269 0.218174 0.431508 0.623641 0.784337 0.904783 0.978099 0.999767 0.967953 0.883683 0.750879 0.576226 0.368882 0.140041 0.097655 0.330780 0.545895 0.730321 0.872909 0.964748 0.999759 0.975147 0.891665 0.753670 0.568960 0.348381 0.105245 0.145453 0.387936 0.606633 0.787197 0.917479 0.988371 0.994513 0.934739 0.812281 0.634661 0.413308 0.162858 0.099751 0.356415 0.589101 0.781129 0.918396 0.990459 0.991392 0.920336 0.781689 0.584933 0.344043 0.076555 0.197657 0.457843 0.683960 0.858224 0.966551 0.999774 0.954475 0.833407 0.645430 0.404948 0.130874 0.154806 0.428757 0.668219 0.852901 0.966757 0.999451 0.947372 0.814106 0.610308 0.352929 0.063900 0.231696 0.507768 0.739531 0.905755 0.990788 0.986094 0.891219 0.714009 0.470082 0.181536 0.124963 0.420630 0.677233 0.869831 0.979251 0.994085 0.911985 0.740088 0.494534 0.199050 0.117258 0.422727 0.686296 0.880694 0.985326 0.988556 0.889111 0.696443 0.429963 0.117193 0.208976 0.513733 0.764032 0.932241 0.999270 0.956855 0.808699 0.570317 0.267537 0.066179 0.393373 0.676778 0.883584 0.989326 0.980880 0.858237 0.634768 0.335923 0.003545 0.343543 0.643326 0.866420 0.985133 0.984106 0.862452 0.634151 0.326611 0.022485 0.369709 0.671263 0.888531 0.993113 0.970667 0.823038 0.568341 0.238890 0.122733
1.000000 1.000000 1.000000 1.000000 1.000000 1.000000 1.000000 1.000000 1.000000 1.000000 1.000000 1.000000 1.000000 1.000000 1.000000 1.000000 1.000000 1.000000 1.000000 1.000000 1.000000 1.000000 1.000000 1.000000 1.000000 1.000000 1.000000 1.000000 1.000000 1.000000 1.000000 1.000000 1.000000 1.000000 1.000000 1.000000 1.000000 1.000000 1.000000 1.000000 1.000000 1.000000 1.000000 1.000000 1.000000 1.000000 1.000000 1.000000 1.000000 1.000000 1.000000 1.000000 0.926060 0.926060 0.926060 0.915084 0.915084 0.915084 0.915084 0.915084 0.915084 0.915084 0.915084 0.915084 0.915084 0.915084 0.915084 0.915084 0.915084 0.915084 0.915084 0.915084 0.915084 0.915084 0.915084 0.915084 0.915084 0.915084 0.915084 0.915084 0.915084 0.915084 0.915084 0.915084 0.915084 0.915084 0.915084 0.915084 0.915084 0.915084 0.915084 0.915084 0.915084 0.915084 0.915084 0.915084 0.943184 0.944607 0.952666 0.952508 0.951957 0.949793 0.948760 0.948302 0.948189 0.948498 0.949176 0.950107 0.958882 0.960061 0.962866 0.963729 0.964453 0.965078 0.965712 0.966338 0.965506 0.964923 0.964405 0.960437 0.963173 0.962516 0.962593 0.963610 0.963491 0.965257 0.965454 0.964832 0.963900 0.963105 0.962334 0.961878 0.961595 0.962113 0.962435 0.963781 0.966988 0.966444 0.966148 0.966306 0.966408 0.966605 0.967091 0.968853 0.965101 0.965644 0.965603 0.963542 0.970162 0.967381 0.967887 0.968402 0.969834 0.970049 0.966929 0.962673 0.954618 0.953714 0.949575 0.940295 0.937940 0.939128 0.941291 0.941840 0.941010 0.934239 0.934736 0.929633 0.929112 0.932379 0.928675 0.926723 0.928053 0.926932 0.925370 0.924527 0.921794 0.917349 0.914662 0.914223 0.917597 0.919610 0.920953 0.920713 0.915004 0.904226 0.887836 0.884349 0.879544 0.883060 0.873575 0.872863 0.872908 0.869177 0.873127 0.874489 0.875583 0.871081 0.854934 0.834192 0.824600 0.827884 0.833729 0.831222 0.830275 0.823483 0.836654 0.820387 0.833600 0.846308 0.840258 0.841279 0.841028 0.838084 0.828371 0.827283 0.830324 0.832175 0.832434 0.831337 0.822643 0.809072 0.811167 0.757059 0.741207 0.737495 0.742514 0.746794 0.746219 0.744371 0.752893 0.758197 0.760034 0.746717 0.739044 0.729263 0.733937 0.738701 0.744399 0.734730 0.719770 0.706105 0.667980 0.684624 0.711488 0.665541 0.687430 0.695621 0.690028 0.689799 0.681531 0.675553 0.669838 0.673167 0.684830 0.703104 0.718847 0.741978 0.735727 0.725291 0.726836 0.706349 0.698098 0.687530 0.693734 0.674267 0.667708 0.688742 0.689003 0.680839 0.672368 0.656201 0.641406 0.644336 0.648467 0.642671 0.643612 0.628432 0.602090 0.599426 0.632240 0.651133 0.669035 0.642769 0.628382 0.622287 0.604312 0.620250 0.574158 0.573813 0.594941 0.600684 0.579653 0.548809 0.554471 0.573356 0.580700 0.572891 0.545200 0.535435 0.549211 0.576265 0.566857 0.536430 0.542160 0.540006 0.539465 0.484381 0.480792 0.449219 0.424330 0.354411 0.328728 0.327805 0.315851 0.310937 0.280815 0.276194 0.284184 0.296541 0.302300 0.298756 0.283078 0.285196 0.275734 0.263742 0.204453 0.190807 0.182150 0.171825 0.173278 0.146905 0.164727 0.224636 0.226856 0.226856 0.226856 0.226856 0.226856 0.226856 0.236959 0.236959 0.236959 0.236959 0.236959 0.236959 0.236959 0.236959 0.236959 0.250016 0.250016 0.250016 0.250016 0.250016 0.250016 0.250016 0.250016 0.250016 0.250016 0.250016 0.250016 0.250016 0.250016
0.000000 0.000000 0.000000 0.000000 0.000000 0.000000 0.000000 0.000000 0.000000 0.000000 0.000000 0.000000 0.000000 0.000000 0.000000 0.000000 0.000000 0.000000 0.000000 0.000000 0.000000 0.000000 0.000000 0.000000 0.000000 7.000000 4.000000 0.000000 0.000000 0.000000 0.000000 0.000000 0.000000 0.000000 0.000000 0.000000 0.000000 0.000000 0.000000 0.000000 0.000000 0.000000 0.000000 0.000000 0.000000 0.000000 0.000000 0.000000 0.000000 0.000000 0.000000 0.000000 0.180334 0.180334 0.180334 0.199007 0.199007 0.199007 0.199007 0.199007 0.199007 0.199007 0.199007 0.199007 0.199007 0.199007 0.199007 0.199007 0.199007 0.199007 0.199007 0.199007 0.199007 0.199007 0.199007 0.199007 0.199007 0.199007 0.199007 0.199007 0.199007 0.199007 0.199007 0.199007 0.199007 0.199007 0.199007 0.199007 0.199007 0.199007 0.199007 0.199007 0.199007 0.199007 0.199007 0.199007 0.225018 0.225018 0.225018 0.225018 0.225018 0.225018 0.225018 0.225018 0.225018 0.225018 0.225018 0.225018 0.225018 0.225018 0.225018 0.225018 0.225018 0.225018 0.225018 0.225018 0.225018 0.225018 0.225018 0.225018 0.225018 0.225018 0.225018 0.225018 0.225018 0.244339 0.244339 0.244339 0.244339 0.244339 0.244339 0.244339 0.244339 0.244339 0.244339 0.244339 0.244339 0.244339 0.244339 0.244339 0.244339 0.244339 0.244339 0.244339 0.244339 0.244339 0.244339 0.244339 0.251976 0.251976 0.251976 0.251976 0.251976 0.251976 0.251976 0.251976 0.251976 0.251976 0.251976 0.251976 0.251976 0.251976 0.251976 0.251976 0.251976 0.251976 0.251976 0.251976 0.264906 0.264906 0.264906 0.264906 0.264906 0.264906 0.264906 0.264906 0.264906 0.264906 0.264906 0.264906 0.264906 0.264906 0.264906 0.264906 0.264906 0.264906 0.264906 0.264906 0.264906 0.264906 0.264906 0.264906 0.264906 0.264906 0.264906 0.264906 0.264906 0.264906 0.264906 0.264906 0.264906 0.264906 0.264906 0.264906 0.264906 0.264906 0.264906 0.264906 0.264906 0.264906 0.264906 0.264906 0.264906 0.264906 0.264906 0.264906 0.264906 0.264906 0.264906 0.264906 0.264906 0.264906 0.264906 0.264906 0.264906 0.264906 0.264906 0.264906 0.264906 0.264906 0.256074 0.256074 0.256074 0.256074 0.256074 0.256074 0.256074 0.256074 0.256074 0.256074 0.256074 0.256074 0.256074 0.256074 0.269680 0.269680 0.269680 0.269680 0.269680 0.269680 0.269680 0.269680 0.269680 0.269680 0.269680 0.269680 0.264906 0.264906 0.264906 0.264906 0.264906 0.264906 0.264906 0.264906 0.264906 0.264906 0.264906 0.264906 0.269680 0.269680 0.269680 0.269680 0.269680 0.269680 0.269680 0.269680 0.269680 0.269680 0.269680 0.264906 0.264906 0.264906 0.264906 0.264906 0.264906 0.264906 0.264906 0.264906 0.264906 0.264906 0.256074 0.256074 0.256074 0.256074 0.256074 0.256074 0.256074 0.256074 0.256074 0.256074 0.256074 0.264906 0.264906 0.264906 0.264906 0.264906 0.264906 0.264906 0.264906 0.264906 0.264906 0.260378 0.260378 0.260378 0.260378 0.260378 0.260378 0.260378 0.260378 0.260378 0.260378 0.256074 0.256074 0.256074 0.256074 0.256074 0.256074 0.256074 0.256074 0.256074 0.256074 0.260378 0.260378 0.260378 0.260378 0.260378 0.260378 0.260378 0.260378 0.260378 0.256074 0.256074 0.256074 0.256074 0.256074 0.256074 0.256074 0.256074 0.256074 0.251976 0.251976 0.251976 0.251976 0.251976 0.251976 0.251976 0.251976 0.251976 0.251976 0.251976 0.251976 0.251976 0.251976
