# Output from CTFFind version 4.1.9, run on 2019-11-02 17:45:35
# Input file: stack1_bm3d_averaged_1_1.0_0_1000_half.mrc ; Number of micrographs: 1
# Pixel size: 3.000 Angstroms ; acceleration voltage: 300.0 keV ; spherical aberration: 0.00 mm ; amplitude contrast: 0.07
# Box size: 512 pixels ; min. res.: 30.0 Angstroms ; max. res.: 5.0 Angstroms ; min. def.: 5000.0 um; max. def. 50000.0 um; num. frames averaged: 1
# 6 lines per micrograph: #1 - spatial frequency (1/Angstroms); #2 - 1D rotational average of spectrum (assuming no astigmatism); #3 - 1D rotational average of spectrum; #4 - CTF fit; #5 - cross-correlation between spectrum and CTF fit; #6 - 2sigma of expected cross correlation of noise
0.000000 0.000651 0.001302 0.001953 0.002604 0.003255 0.003906 0.004557 0.005208 0.005859 0.006510 0.007161 0.007812 0.008464 0.009115 0.009766 0.010417 0.011068 0.011719 0.012370 0.013021 0.013672 0.014323 0.014974 0.015625 0.016276 0.016927 0.017578 0.018229 0.018880 0.019531 0.020182 0.020833 0.021484 0.022135 0.022786 0.023438 0.024089 0.024740 0.025391 0.026042 0.026693 0.027344 0.027995 0.028646 0.029297 0.029948 0.030599 0.031250 0.031901 0.032552 0.033203 0.033854 0.034505 0.035156 0.035807 0.036458 0.037109 0.037760 0.038411 0.039062 0.039714 0.040365 0.041016 0.041667 0.042318 0.042969 0.043620 0.044271 0.044922 0.045573 0.046224 0.046875 0.047526 0.048177 0.048828 0.049479 0.050130 0.050781 0.051432 0.052083 0.052734 0.053385 0.054036 0.054688 0.055339 0.055990 0.056641 0.057292 0.057943 0.058594 0.059245 0.059896 0.060547 0.061198 0.061849 0.062500 0.063151 0.063802 0.064453 0.065104 0.065755 0.066406 0.067057 0.067708 0.068359 0.069010 0.069661 0.070312 0.070964 0.071615 0.072266 0.072917 0.073568 0.074219 0.074870 0.075521 0.076172 0.076823 0.077474 0.078125 0.078776 0.079427 0.080078 0.080729 0.081380 0.082031 0.082682 0.083333 0.083984 0.084635 0.085286 0.085938 0.086589 0.087240 0.087891 0.088542 0.089193 0.089844 0.090495 0.091146 0.091797 0.092448 0.093099 0.093750 0.094401 0.095052 0.095703 0.096354 0.097005 0.097656 0.098307 0.098958 0.099609 0.100260 0.100911 0.101562 0.102214 0.102865 0.103516 0.104167 0.104818 0.105469 0.106120 0.106771 0.107422 0.108073 0.108724 0.109375 0.110026 0.110677 0.111328 0.111979 0.112630 0.113281 0.113932 0.114583 0.115234 0.115885 0.116536 0.117188 0.117839 0.118490 0.119141 0.119792 0.120443 0.121094 0.121745 0.122396 0.123047 0.123698 0.124349 0.125000 0.125651 0.126302 0.126953 0.127604 0.128255 0.128906 0.129557 0.130208 0.130859 0.131510 0.132161 0.132812 0.133464 0.134115 0.134766 0.135417 0.136068 0.136719 0.137370 0.138021 0.138672 0.139323 0.139974 0.140625 0.141276 0.141927 0.142578 0.143229 0.143880 0.144531 0.145182 0.145833 0.146484 0.147135 0.147786 0.148438 0.149089 0.149740 0.150391 0.151042 0.151693 0.152344 0.152995 0.153646 0.154297 0.154948 0.155599 0.156250 0.156901 0.157552 0.158203 0.158854 0.159505 0.160156 0.160807 0.161458 0.162109 0.162760 0.163411 0.164062 0.164714 0.165365 0.166016 0.166667 0.167318 0.167969 0.168620 0.169271 0.169922 0.170573 0.171224 0.171875 0.172526 0.173177 0.173828 0.174479 0.175130 0.175781 0.176432 0.177083 0.177734 0.178385 0.179036 0.179688 0.180339 0.180990 0.181641 0.182292 0.182943 0.183594 0.184245 0.184896 0.185547 0.186198 0.186849 0.187500 0.188151 0.188802 0.189453 0.190104 0.190755 0.191406 0.192057 0.192708 0.193359 0.194010 0.194661 0.195312 0.195964 0.196615 0.197266 0.197917 0.198568 0.199219 0.199870 0.200521 0.201172 0.201823 0.202474 0.203125 0.203776 0.204427 0.205078 0.205729 0.206380 0.207031 0.207682 0.208333 0.208984 0.209635 0.210286 0.210938 0.211589 0.212240 0.212891 0.213542 0.214193 0.214844 0.215495 0.216146 0.216797 0.217448 0.218099 0.218750 0.219401 0.220052 0.220703 0.221354 0.222005 0.222656 0.223307 0.223958 0.224609 0.225260 0.225911 0.226562 0.227214 0.227865 0.228516 0.229167 0.229818 0.230469 0.231120 0.231771 0.232422 0.233073 0.233724 0.234375 0.235026 0.235677
       0.33107        0.33107        0.33107        0.33107        0.33107        0.33107        0.33107        0.33107        0.33107        0.33107        0.33107        0.33107        0.33107        0.33107        0.33107        0.33107        0.33107        0.33107        0.33107        0.33107        0.33107        0.33107        0.33107        0.33107        0.33107        0.33107        0.33107        0.33107        0.33107        0.33107        0.33107        0.33107        0.33107        0.33107        0.33107        0.33107        0.33107        0.33107        0.33107        0.33107        0.33107        0.33107        0.33107        0.33107        0.33107        0.33107        0.33107        0.33107        0.33107        0.33107        0.33107        0.50096        0.71755        0.42632        0.18939       -0.08260       -0.26337       -0.07038       -0.13387       -0.05564       -0.00344       -0.14957       -0.09530       -0.05262       -0.00401       -0.15393       -0.22359       -0.34747       -0.46454       -0.56205       -0.52119       -0.45038       -0.37373       -0.55072       -0.45274       -0.62363       -0.50662       -0.47627       -0.39277       -0.38589       -0.34046       -0.25219       -0.16424       -0.13883        0.03030       -0.01432        0.11658        0.16711        0.30392        0.40931        0.46162        0.49628        0.53935        0.54897        0.69024        0.64321        0.67546        0.58984        0.55554        0.65223        0.52551        0.42687        0.38289        0.31795        0.22627        0.26069        0.24904        0.10386        0.08226       -0.00008       -0.00753        0.03336       -0.00722        0.07108        0.09474        0.22875        0.28207        0.29963        0.38078        0.56108        0.53570        0.57628        0.66798        0.69872        0.62797        0.63302        0.63198        0.55189        0.57250        0.39488        0.34423        0.26414        0.18361        0.07090        0.14293        0.11663        0.09116        0.10639        0.20811        0.20921        0.31470        0.35631        0.41023        0.48913        0.57861        0.54191        0.55467        0.60611        0.53624        0.45981        0.47869        0.32228        0.24806        0.25554        0.24139        0.13922        0.14117        0.15033        0.21931        0.24603        0.32902        0.36481        0.39177        0.46548        0.44493        0.47599        0.44934        0.46747        0.44369        0.40393        0.38010        0.35438        0.31068        0.28550        0.20349        0.19697        0.22070        0.26875        0.26389        0.34729        0.37307        0.35516        0.41038        0.45369        0.44466        0.42377        0.43808        0.36746        0.33226        0.27960        0.26114        0.28701        0.26550        0.29204        0.29891        0.34445        0.33745        0.39535        0.39769        0.42384        0.40897        0.43167        0.40346        0.36312        0.27999        0.28940        0.30353        0.27221        0.25405        0.32763        0.36875        0.33921        0.35274        0.35889        0.35189        0.40663        0.39938        0.35885        0.33802        0.30776        0.31027        0.31548        0.31357        0.29962        0.28498        0.33522        0.35739        0.37422        0.33181        0.32992        0.33403        0.34407        0.30606        0.28151        0.30518        0.31482        0.33376        0.31782        0.33024        0.35433        0.32874        0.31280        0.32739        0.30047        0.26060        0.24803        0.26353        0.30453        0.32079        0.35178        0.29999        0.31081        0.33116        0.29095        0.31461        0.28827        0.27810        0.28992        0.29588        0.30779        0.34224        0.32444        0.32621        0.33234        0.31311        0.33171        0.31877        0.32029        0.31097        0.27787        0.28940        0.30680        0.28844        0.32384        0.33169        0.33504        0.32015        0.34159        0.31795        0.27678        0.24906        0.26936        0.32829        0.35560        0.34357        0.31564        0.29255        0.29754        0.31182        0.24813        0.29532        0.30270        0.32662        0.29470        0.30793        0.28039        0.33283        0.33982        0.34075        0.32134        0.29427        0.30979        0.39389        0.32907        0.31073        0.30376        0.29240        0.28391        0.29608        0.27209        0.31452        0.23391        0.27144        0.29645        0.31260        0.29294        0.27083        0.29499        0.23775        0.22426        0.26365        0.30582        0.30478        0.28166        0.28354        0.32995        0.25565        0.21756        0.30455        0.26340        0.25609        0.27916        0.38698        0.28489        0.28457        0.24770        0.24883        0.26595        0.24232        0.23186        0.17437        0.24916        0.22879        0.24861        0.31591        0.26955        0.34862        0.29059        0.24838        0.22969        0.21499        0.24065        0.29849        0.22054        0.13158        0.16882        0.23640        0.24051        0.32165        0.28595        0.03574       -0.43352       -0.92673
2.683605 2.655285 2.627118 2.599102 2.571238 2.543526 2.515966 2.488558 2.461302 2.434197 2.407244 2.380443 2.353794 2.327297 2.300952 2.274758 2.248716 2.222827 2.197089 2.171503 2.146068 2.120786 2.095655 2.070677 2.045850 2.021175 1.996652 1.972280 1.948061 1.923993 1.900077 1.876313 1.852701 1.829241 1.805933 1.782776 1.759771 1.736918 1.714217 1.691668 1.669271 1.647025 1.624932 1.602990 1.581200 1.559562 1.538076 1.516741 1.495559 1.474528 1.453649 1.523698 1.825536 1.509233 1.192258 0.936859 0.542778 0.908959 0.633431 0.870783 0.924470 0.588308 0.706095 0.778145 0.818688 0.626611 0.533855 0.347598 0.102057 0.077183 0.041280 0.080252 0.300349 -0.036429 0.078472 -0.135013 -0.015687 -0.018381 0.080721 0.061435 0.102735 0.175840 0.280158 0.249273 0.481419 0.395957 0.546328 0.527161 0.767655 0.787660 0.877474 0.921555 0.937250 0.944318 1.103852 0.946895 1.138076 0.946242 0.851150 1.014626 0.845659 0.758208 0.618786 0.592751 0.455730 0.415321 0.507700 0.264474 0.198652 0.160048 0.013787 0.205778 -0.005144 0.119287 0.176611 0.257094 0.333398 0.346427 0.425892 0.540847 0.664855 0.539173 0.744298 0.854244 0.637443 0.695519 0.667024 0.593076 0.537174 0.462336 0.299562 0.214072 0.118981 -0.040690 -0.019133 0.057650 -0.094902 -0.057134 0.052165 0.054140 0.109850 0.221080 0.237481 0.308148 0.429213 0.435510 0.452206 0.477061 0.447876 0.326750 0.333641 0.241688 0.051184 0.062016 0.018647 -0.045743 -0.099871 -0.097493 -0.013513 -0.049137 0.074540 0.124059 0.124748 0.262338 0.225933 0.247106 0.291291 0.245500 0.243749 0.213739 0.170729 0.115316 0.107447 0.027385 0.011852 -0.116040 -0.049607 0.009263 -0.000569 0.020597 0.099838 0.083803 0.137624 0.186631 0.257430 0.175155 0.186846 0.108007 0.136206 0.021417 -0.033621 0.019329 -0.020711 0.001569 -0.006162 0.034995 0.077558 0.052427 0.150074 0.097729 0.166199 0.064487 0.148411 0.094458 -0.010387 -0.061086 -0.017911 -0.036977 -0.069599 -0.068769 0.056469 0.057566 -0.008941 0.050350 0.061282 0.072221 0.143217 0.065833 0.062658 0.048896 -0.024922 0.027559 -0.001069 0.010951 0.004008 -0.006115 0.034819 0.065436 0.067323 0.029138 0.045318 0.020183 0.056112 -0.010186 -0.019359 0.021137 0.009654 0.056855 0.034863 0.041243 0.051083 0.046891 0.015903 0.033901 -0.004258 -0.050521 -0.035138 -0.029547 0.023423 0.040268 0.099078 -0.005042 0.057471 0.053568 -0.005954 0.063934 0.017353 0.008857 0.039804 0.055161 0.042045 0.095224 0.057181 0.070995 0.089113 0.066982 0.063647 0.073948 0.089266 0.037362 -0.009062 0.049734 0.039275 0.047168 0.070941 0.094719 -0.001530 0.066758 0.079559 0.010311 0.009378 -0.065271 -0.020633 0.110571 0.079187 0.051399 0.041859 -0.018066 0.052866 0.027436 -0.060239 0.050803 0.038326 0.066955 0.035847 0.003549 0.005541 0.049550 0.049707 0.018153 0.042462 -0.032102 0.061445 0.116679 0.009892 -0.006584 -0.005188 -0.007366 -0.027992 -0.024905 -0.042981 -0.001951 -0.097959 -0.023022 -0.029249 0.020586 -0.039044 -0.058540 0.030425 -0.073367 -0.052667 -0.077382 0.055930 0.010448 0.006850 -0.005160 0.078884 -0.043144 -0.056878 0.039463 -0.017861 0.012543 0.002574 0.190559 -0.037348 0.018952 0.014187 -0.022018 0.000239 -0.029244 -0.021861 -0.149200 0.013942 -0.042158 0.006914 0.015886 -0.002583 0.133960 0.012729 -0.009401 -0.044173 -0.029455 -0.053764 0.048989 0.264759 0.159516 0.214318 0.234332 0.326167 0.349448 0.336687 0.044210 -1.084458
0.072396 0.072910 0.074451 0.077020 0.080614 0.085235 0.090879 0.097546 0.105234 0.113939 0.123657 0.134385 0.146116 0.158844 0.172561 0.187256 0.202918 0.219535 0.237088 0.255561 0.274932 0.295176 0.316266 0.338171 0.360855 0.384279 0.408399 0.433166 0.458526 0.484419 0.510781 0.537540 0.564619 0.591934 0.619394 0.646903 0.674356 0.701641 0.728640 0.755227 0.781269 0.806627 0.831155 0.854698 0.877098 0.898190 0.917804 0.935765 0.951895 0.966012 0.977934 0.987475 0.994453 0.998685 0.999993 0.998201 0.993144 0.984660 0.972602 0.956833 0.937230 0.913687 0.886119 0.854460 0.818667 0.778726 0.734648 0.686477 0.634289 0.578193 0.518339 0.454910 0.388133 0.318274 0.245642 0.170586 0.093500 0.014819 0.064983 0.145390 0.225850 0.305777 0.384553 0.461533 0.536051 0.607423 0.674954 0.737947 0.795707 0.847552 0.892820 0.930878 0.961134 0.983044 0.996123 0.999957 0.994208 0.978631 0.953077 0.917504 0.871986 0.816717 0.752022 0.678353 0.596299 0.506583 0.410061 0.307718 0.200665 0.090127 0.022566 0.135992 0.248657 0.359005 0.465447 0.566382 0.660218 0.745402 0.820450 0.883971 0.934698 0.971519 0.993503 0.999926 0.990300 0.964390 0.922236 0.864167 0.790809 0.703093 0.602248 0.489800 0.367553 0.237568 0.102139 0.036250 0.174957 0.311240 0.442302 0.565352 0.677667 0.776658 0.859928 0.925346 0.971099 0.995760 0.998331 0.978296 0.935653 0.870937 0.785236 0.680186 0.557961 0.421235 0.273141 0.117205 0.042722 0.202565 0.358115 0.505146 0.639527 0.757350 0.855045 0.929502 0.978181 0.999208 0.991469 0.954666 0.889368 0.797027 0.679969 0.541361 0.385140 0.215920 0.038867 0.140444 0.316205 0.482560 0.633797 0.764561 0.870047 0.946195 0.989860 0.998965 0.972617 0.911184 0.816330 0.691005 0.539378 0.366727 0.179272 0.016025 0.211713 0.400131 0.573704 0.725262 0.848337 0.937470 0.988467 0.998623 0.966893 0.893996 0.782444 0.636497 0.462030 0.266332 0.057828 0.154278 0.360387 0.550948 0.716901 0.850125 0.943862 0.993078 0.994778 0.948211 0.854988 0.719074 0.546666 0.345958 0.126767 0.099905 0.322417 0.529086 0.708799 0.851634 0.949434 0.996304 0.989011 0.927245 0.813726 0.654144 0.456926 0.232836 0.005581 0.244675 0.470468 0.669462 0.829482 0.940434 0.994991 0.989119 0.922431 0.798308 0.623807 0.409309 0.167959 0.085107 0.333683 0.561534 0.753451 0.896314 0.980008 0.998209 0.948908 0.834677 0.662615 0.443979 0.193505 0.071536 0.332504 0.570695 0.768679 0.911628 0.988457 0.992758 0.923392 0.784725 0.586433 0.342911 0.072286 0.204887 0.467157 0.693854 0.866733 0.971488 0.999011 0.946250 0.816620 0.619883 0.371501 0.091499 0.197101 0.470147 0.704380 0.879431 0.979672 0.995660 0.925133 0.773373 0.552928 0.282666 0.013758 0.309930 0.579007 0.796168 0.940937 0.999203 0.964676 0.839665 0.635064 0.369515 0.067800 0.241404 0.528224 0.764478 0.926494 0.997549 0.969701 0.844783 0.634438 0.359165 0.046418 0.272056 0.563426 0.797149 0.948231 0.999996 0.946034 0.791108 0.550898 0.250531 0.077930 0.398867 0.676929 0.880973 0.987619 0.984045 0.869656 0.656412 0.367731 0.036049 0.300759 0.603641 0.836938 0.972632 0.993828 0.897001 0.692690 0.404519 0.066619 0.280339 0.593975 0.835406 0.974116 0.991957 0.885659 0.667549 0.364303 0.013825 0.339385 0.649845 0.876974 0.990481 0.974544 0.830182 0.575457 0.243391 0.122165 0.472242 0.759287 0.943699 0.999377
1.000000 1.000000 1.000000 1.000000 1.000000 1.000000 1.000000 1.000000 1.000000 1.000000 1.000000 1.000000 1.000000 1.000000 1.000000 1.000000 1.000000 1.000000 1.000000 1.000000 1.000000 1.000000 1.000000 1.000000 1.000000 1.000000 1.000000 1.000000 1.000000 1.000000 1.000000 1.000000 1.000000 1.000000 1.000000 1.000000 1.000000 1.000000 1.000000 1.000000 1.000000 1.000000 1.000000 1.000000 1.000000 1.000000 1.000000 1.000000 1.000000 1.000000 1.000000 1.000000 0.918085 0.918085 0.904496 0.904496 0.904496 0.904496 0.904496 0.904496 0.904496 0.904496 0.904496 0.904496 0.904496 0.904496 0.904496 0.904496 0.904496 0.904496 0.904496 0.904496 0.904496 0.904496 0.904496 0.904496 0.904496 0.904496 0.904496 0.904496 0.904496 0.904496 0.904496 0.904496 0.904496 0.904496 0.904496 0.904496 0.904496 0.904496 0.904496 0.904496 0.904496 0.904496 0.904496 0.900709 0.905450 0.907347 0.905710 0.909304 0.909384 0.908666 0.908969 0.908598 0.908900 0.910292 0.920844 0.931925 0.943027 0.943582 0.948715 0.953112 0.955437 0.956359 0.957830 0.967558 0.966291 0.965754 0.966464 0.968017 0.970224 0.968843 0.968572 0.971694 0.972405 0.970692 0.968582 0.967962 0.967342 0.967426 0.967028 0.966919 0.966810 0.967313 0.967530 0.967270 0.967412 0.967452 0.968475 0.969634 0.971938 0.972931 0.972739 0.971563 0.965994 0.969865 0.970481 0.970140 0.970070 0.969606 0.969930 0.957961 0.952986 0.952932 0.949476 0.948481 0.945296 0.943877 0.942039 0.942247 0.941159 0.941687 0.938540 0.925817 0.912641 0.901265 0.921394 0.906824 0.895128 0.870960 0.871008 0.866286 0.866915 0.858838 0.852956 0.848383 0.845073 0.846340 0.845170 0.849444 0.847041 0.833246 0.836435 0.832860 0.803275 0.786881 0.771162 0.772396 0.769892 0.771082 0.770737 0.766624 0.774938 0.765317 0.763898 0.755610 0.736815 0.705178 0.689130 0.699615 0.709508 0.708698 0.705190 0.690281 0.659192 0.671000 0.699248 0.691532 0.694124 0.686239 0.680312 0.682007 0.681951 0.678981 0.671336 0.670762 0.669950 0.677710 0.682257 0.677443 0.667599 0.652660 0.639709 0.626668 0.640899 0.646199 0.613909 0.608756 0.599620 0.592669 0.580436 0.546451 0.544188 0.520470 0.509716 0.509529 0.511133 0.506920 0.514498 0.515819 0.497817 0.520356 0.526156 0.553389 0.529911 0.528576 0.529815 0.537675 0.523173 0.498072 0.491474 0.492433 0.503565 0.535116 0.574603 0.565456 0.551464 0.539053 0.552961 0.523349 0.532900 0.551893 0.528679 0.459287 0.411237 0.408092 0.368611 0.364519 0.355126 0.344941 0.344323 0.337526 0.325661 0.312101 0.298831 0.246154 0.208277 0.191004 0.166547 0.172369 0.190120 0.176875 0.175177 0.203366 0.251099 0.250333 0.241289 0.216132 0.218160 0.189164 0.200962 0.228984 0.184945 0.180030 0.173135 0.146142 0.139696 0.098384 0.128454 0.039584 0.021450 0.020501 0.040100 0.053472 0.052576 0.060557 0.028087 0.047483 0.044042 0.023686 0.011374 0.030207 0.019224 -0.009975 0.001387 0.012791 -0.002240 -0.026788 -0.006732 0.005100 0.021326 0.014360 0.013643 0.071305 0.103444 0.091682 0.092911 0.088316 0.090470 0.063065 0.050877 0.041119 0.030496 -0.013981 -0.043346 -0.043346 -0.037629 -0.037629 -0.037629 -0.037629 -0.037629 -0.037629 -0.037629 -0.037629 -0.037629 -0.041248 -0.041248 -0.041248 -0.041248 -0.041248 -0.041248 -0.041248 -0.041248 -0.041248 -0.016111 -0.016111 -0.016111 -0.016111 -0.016111 -0.016111 -0.016111 -0.016111 -0.016111
0.000000 0.000000 0.000000 0.000000 0.000000 0.000000 0.000000 0.000000 0.000000 0.000000 0.000000 0.000000 0.000000 0.000000 0.000000 0.000000 0.000000 0.000000 0.000000 0.000000 0.000000 0.000000 0.000000 0.000000 0.000000 0.000000 0.000000 0.000000 0.000000 0.000000 0.000000 0.000000 0.000000 0.000000 0.000000 0.000000 0.000000 0.000000 0.000000 0.000000 0.000000 0.000000 0.000000 0.000000 0.000000 0.000000 0.000000 0.000000 0.000000 0.000000 0.000000 0.000000 0.181818 0.181818 0.199007 0.199007 0.199007 0.199007 0.199007 0.199007 0.199007 0.199007 0.199007 0.199007 0.199007 0.199007 0.199007 0.199007 0.199007 0.199007 0.199007 0.199007 0.199007 0.199007 0.199007 0.199007 0.199007 0.199007 0.199007 0.199007 0.199007 0.199007 0.199007 0.199007 0.199007 0.199007 0.199007 0.199007 0.199007 0.199007 0.199007 0.199007 0.199007 0.199007 0.199007 0.230940 0.230940 0.230940 0.230940 0.230940 0.230940 0.230940 0.230940 0.230940 0.230940 0.230940 0.230940 0.230940 0.230940 0.230940 0.230940 0.230940 0.230940 0.230940 0.230940 0.230940 0.230940 0.230940 0.230940 0.230940 0.230940 0.230940 0.230940 0.244339 0.244339 0.244339 0.244339 0.244339 0.244339 0.244339 0.244339 0.244339 0.244339 0.244339 0.244339 0.244339 0.244339 0.244339 0.244339 0.244339 0.244339 0.244339 0.244339 0.244339 0.244339 0.244339 0.251976 0.251976 0.251976 0.251976 0.251976 0.251976 0.251976 0.251976 0.251976 0.251976 0.251976 0.251976 0.251976 0.251976 0.251976 0.251976 0.251976 0.251976 0.251976 0.251976 0.264906 0.264906 0.264906 0.264906 0.264906 0.264906 0.264906 0.264906 0.264906 0.264906 0.264906 0.264906 0.264906 0.264906 0.264906 0.264906 0.264906 0.264906 0.264906 0.264906 0.264906 0.264906 0.264906 0.264906 0.264906 0.264906 0.264906 0.264906 0.264906 0.264906 0.264906 0.264906 0.264906 0.264906 0.264906 0.264906 0.264906 0.264906 0.264906 0.264906 0.264906 0.264906 0.264906 0.264906 0.264906 0.264906 0.264906 0.264906 0.264906 0.264906 0.264906 0.264906 0.264906 0.264906 0.264906 0.264906 0.264906 0.264906 0.264906 0.264906 0.264906 0.264906 0.264906 0.264906 0.264906 0.264906 0.264906 0.264906 0.264906 0.264906 0.264906 0.264906 0.264906 0.264906 0.264906 0.269680 0.269680 0.269680 0.269680 0.269680 0.269680 0.269680 0.269680 0.269680 0.269680 0.269680 0.269680 0.264906 0.264906 0.264906 0.264906 0.264906 0.264906 0.264906 0.264906 0.264906 0.264906 0.264906 0.264906 0.269680 0.269680 0.269680 0.269680 0.269680 0.269680 0.269680 0.269680 0.269680 0.269680 0.269680 0.264906 0.264906 0.264906 0.264906 0.264906 0.264906 0.264906 0.264906 0.264906 0.264906 0.264906 0.256074 0.256074 0.256074 0.256074 0.256074 0.256074 0.256074 0.256074 0.256074 0.256074 0.256074 0.264906 0.264906 0.264906 0.264906 0.264906 0.264906 0.264906 0.264906 0.264906 0.264906 0.269680 0.269680 0.269680 0.269680 0.269680 0.269680 0.269680 0.269680 0.269680 0.256074 0.256074 0.256074 0.256074 0.256074 0.256074 0.256074 0.256074 0.256074 0.256074 0.260378 0.260378 0.260378 0.260378 0.260378 0.260378 0.260378 0.260378 0.260378 0.256074 0.256074 0.256074 0.256074 0.256074 0.256074 0.256074 0.256074 0.256074 0.251976 0.251976 0.251976 0.251976 0.251976 0.251976 0.251976 0.251976 0.251976 0.264906 0.264906 0.264906 0.264906 0.264906 0.264906 0.264906 0.264906 0.264906
