# Output from CTFFind version 4.1.9, run on 2019-11-03 19:31:25
# Input file: stack1_bm3d_averaged_1_4.25_0_50_half.mrc ; Number of micrographs: 1
# Pixel size: 3.000 Angstroms ; acceleration voltage: 300.0 keV ; spherical aberration: 0.00 mm ; amplitude contrast: 0.07
# Box size: 512 pixels ; min. res.: 30.0 Angstroms ; max. res.: 5.0 Angstroms ; min. def.: 5000.0 um; max. def. 50000.0 um; num. frames averaged: 1
# 6 lines per micrograph: #1 - spatial frequency (1/Angstroms); #2 - 1D rotational average of spectrum (assuming no astigmatism); #3 - 1D rotational average of spectrum; #4 - CTF fit; #5 - cross-correlation between spectrum and CTF fit; #6 - 2sigma of expected cross correlation of noise
0.000000 0.000651 0.001302 0.001953 0.002604 0.003255 0.003906 0.004557 0.005208 0.005859 0.006510 0.007161 0.007812 0.008464 0.009115 0.009766 0.010417 0.011068 0.011719 0.012370 0.013021 0.013672 0.014323 0.014974 0.015625 0.016276 0.016927 0.017578 0.018229 0.018880 0.019531 0.020182 0.020833 0.021484 0.022135 0.022786 0.023438 0.024089 0.024740 0.025391 0.026042 0.026693 0.027344 0.027995 0.028646 0.029297 0.029948 0.030599 0.031250 0.031901 0.032552 0.033203 0.033854 0.034505 0.035156 0.035807 0.036458 0.037109 0.037760 0.038411 0.039062 0.039714 0.040365 0.041016 0.041667 0.042318 0.042969 0.043620 0.044271 0.044922 0.045573 0.046224 0.046875 0.047526 0.048177 0.048828 0.049479 0.050130 0.050781 0.051432 0.052083 0.052734 0.053385 0.054036 0.054688 0.055339 0.055990 0.056641 0.057292 0.057943 0.058594 0.059245 0.059896 0.060547 0.061198 0.061849 0.062500 0.063151 0.063802 0.064453 0.065104 0.065755 0.066406 0.067057 0.067708 0.068359 0.069010 0.069661 0.070312 0.070964 0.071615 0.072266 0.072917 0.073568 0.074219 0.074870 0.075521 0.076172 0.076823 0.077474 0.078125 0.078776 0.079427 0.080078 0.080729 0.081380 0.082031 0.082682 0.083333 0.083984 0.084635 0.085286 0.085938 0.086589 0.087240 0.087891 0.088542 0.089193 0.089844 0.090495 0.091146 0.091797 0.092448 0.093099 0.093750 0.094401 0.095052 0.095703 0.096354 0.097005 0.097656 0.098307 0.098958 0.099609 0.100260 0.100911 0.101562 0.102214 0.102865 0.103516 0.104167 0.104818 0.105469 0.106120 0.106771 0.107422 0.108073 0.108724 0.109375 0.110026 0.110677 0.111328 0.111979 0.112630 0.113281 0.113932 0.114583 0.115234 0.115885 0.116536 0.117188 0.117839 0.118490 0.119141 0.119792 0.120443 0.121094 0.121745 0.122396 0.123047 0.123698 0.124349 0.125000 0.125651 0.126302 0.126953 0.127604 0.128255 0.128906 0.129557 0.130208 0.130859 0.131510 0.132161 0.132812 0.133464 0.134115 0.134766 0.135417 0.136068 0.136719 0.137370 0.138021 0.138672 0.139323 0.139974 0.140625 0.141276 0.141927 0.142578 0.143229 0.143880 0.144531 0.145182 0.145833 0.146484 0.147135 0.147786 0.148438 0.149089 0.149740 0.150391 0.151042 0.151693 0.152344 0.152995 0.153646 0.154297 0.154948 0.155599 0.156250 0.156901 0.157552 0.158203 0.158854 0.159505 0.160156 0.160807 0.161458 0.162109 0.162760 0.163411 0.164062 0.164714 0.165365 0.166016 0.166667 0.167318 0.167969 0.168620 0.169271 0.169922 0.170573 0.171224 0.171875 0.172526 0.173177 0.173828 0.174479 0.175130 0.175781 0.176432 0.177083 0.177734 0.178385 0.179036 0.179688 0.180339 0.180990 0.181641 0.182292 0.182943 0.183594 0.184245 0.184896 0.185547 0.186198 0.186849 0.187500 0.188151 0.188802 0.189453 0.190104 0.190755 0.191406 0.192057 0.192708 0.193359 0.194010 0.194661 0.195312 0.195964 0.196615 0.197266 0.197917 0.198568 0.199219 0.199870 0.200521 0.201172 0.201823 0.202474 0.203125 0.203776 0.204427 0.205078 0.205729 0.206380 0.207031 0.207682 0.208333 0.208984 0.209635 0.210286 0.210938 0.211589 0.212240 0.212891 0.213542 0.214193 0.214844 0.215495 0.216146 0.216797 0.217448 0.218099 0.218750 0.219401 0.220052 0.220703 0.221354 0.222005 0.222656 0.223307 0.223958 0.224609 0.225260 0.225911 0.226562 0.227214 0.227865 0.228516 0.229167 0.229818 0.230469 0.231120 0.231771 0.232422 0.233073 0.233724 0.234375 0.235026 0.235677
       0.33642        0.33642        0.33642        0.33642        0.33642        0.33642        0.33642        0.33642        0.33642        0.33642        0.33642        0.33642        0.33642        0.33642        0.33642        0.33642        0.33642        0.33642        0.33642        0.33642        0.33642        0.33642        0.33642        0.33642        0.33642        0.33642        0.33642        0.33642        0.33642        0.33642        0.33642        0.33642        0.33642        0.33642        0.33642        0.33642        0.33642        0.33642        0.33642        0.33642        0.33642        0.33642        0.33642        0.33642        0.33642        0.33642        0.33642        0.33642        0.33642        0.33642        0.33642        0.45066        0.66277        0.34091        0.16688       -0.04164       -0.25319       -0.06310       -0.15513       -0.14351       -0.00010       -0.12553       -0.12388       -0.06183       -0.05497       -0.14073       -0.16812       -0.31543       -0.46746       -0.55231       -0.51857       -0.42684       -0.32818       -0.49747       -0.38677       -0.50302       -0.41486       -0.44846       -0.30715       -0.29139       -0.29131       -0.18014       -0.11797       -0.09152        0.04789        0.01403        0.17946        0.16349        0.31024        0.37928        0.49243        0.51829        0.55490        0.58149        0.70642        0.61122        0.59741        0.52922        0.52370        0.59348        0.48982        0.46352        0.39130        0.30391        0.27199        0.27764        0.25355        0.13391        0.12736        0.01094        0.07436        0.07003        0.04663        0.08345        0.11510        0.20670        0.29380        0.27250        0.32474        0.47897        0.49146        0.50611        0.62873        0.62398        0.58323        0.60045        0.59431        0.46774        0.48126        0.39012        0.34229        0.27817        0.21181        0.18580        0.16816        0.12141        0.17640        0.19450        0.22401        0.23144        0.32421        0.36503        0.38898        0.47306        0.51830        0.51776        0.48678        0.57675        0.49014        0.48266        0.48313        0.38054        0.31320        0.27401        0.27505        0.19531        0.22179        0.21221        0.20963        0.21483        0.29351        0.36027        0.40774        0.43130        0.44231        0.47924        0.43855        0.47558        0.40752        0.37967        0.34714        0.36775        0.34729        0.34063        0.24840        0.28896        0.25439        0.26220        0.27927        0.35190        0.37756        0.40122        0.42409        0.44638        0.42618        0.41135        0.45037        0.37504        0.34115        0.34794        0.30436        0.33885        0.27481        0.31243        0.30706        0.32114        0.35102        0.38109        0.39262        0.41878        0.38318        0.39678        0.36630        0.38868        0.29928        0.30466        0.28149        0.23848        0.31010        0.31058        0.33226        0.35020        0.35834        0.36379        0.36040        0.43958        0.37748        0.35817        0.34016        0.30037        0.28605        0.30777        0.31162        0.34060        0.32043        0.33603        0.32643        0.38561        0.35700        0.36151        0.37215        0.36501        0.33422        0.31281        0.33024        0.30780        0.33654        0.30780        0.35479        0.35330        0.33141        0.31946        0.34833        0.32227        0.28542        0.28064        0.28485        0.31715        0.31717        0.34001        0.31202        0.31345        0.32352        0.31811        0.29364        0.28008        0.31605        0.32881        0.30657        0.29743        0.31133        0.31490        0.33781        0.31490        0.34151        0.35315        0.33153        0.33199        0.29023        0.24340        0.28497        0.33290        0.32950        0.28915        0.34534        0.30700        0.28329        0.32333        0.33944        0.31399        0.31003        0.26113        0.31044        0.34594        0.35589        0.29100        0.29064        0.28907        0.25988        0.25760        0.31208        0.30261        0.31668        0.29696        0.29216        0.28424        0.33728        0.33479        0.32478        0.29839        0.29511        0.32737        0.33511        0.38070        0.30252        0.31451        0.33048        0.34156        0.28559        0.30546        0.30808        0.23696        0.30345        0.34574        0.31652        0.33289        0.30262        0.25076        0.22860        0.27770        0.30494        0.33131        0.30074        0.25695        0.22626        0.31895        0.31646        0.27984        0.23377        0.23602        0.25652        0.25197        0.30302        0.26162        0.31935        0.30975        0.25522        0.31118        0.28572        0.18636        0.19636        0.28311        0.21921        0.23889        0.20216        0.23741        0.37689        0.27171        0.24991        0.25637        0.17460        0.28078        0.35638        0.22090        0.11204        0.20338        0.19743        0.16014        0.30002        0.14917       -0.07087       -0.53491       -0.73196
2.935971 2.904226 2.872655 2.841258 2.810035 2.778985 2.748110 2.717408 2.686880 2.656526 2.626345 2.596339 2.566506 2.536847 2.507362 2.478051 2.448914 2.419950 2.391161 2.362545 2.334103 2.305835 2.277740 2.249820 2.222073 2.194500 2.167101 2.139876 2.112825 2.085947 2.059243 2.032714 2.006358 1.980175 1.954167 1.928332 1.902672 1.877185 1.851872 1.826733 1.801767 1.776976 1.752358 1.727914 1.703644 1.679548 1.655626 1.631877 1.608302 1.584901 1.561674 1.575943 1.951926 1.493438 1.287637 0.996195 0.539449 0.970616 0.603081 0.782624 0.908389 0.691959 0.631903 0.794043 0.743869 0.619148 0.588139 0.369447 0.059804 0.010755 -0.014903 -0.029359 0.355281 -0.065869 0.062264 -0.054980 0.006078 -0.036562 0.113641 0.111116 0.110716 0.208366 0.305528 0.287004 0.469867 0.392118 0.651730 0.534986 0.788092 0.771636 0.944848 1.044073 0.973499 1.061940 1.211151 1.002116 1.055699 0.901211 0.911242 0.982787 0.833262 0.820680 0.668635 0.559451 0.504779 0.469597 0.463888 0.255864 0.271731 0.107747 0.083953 0.160989 0.057579 0.074022 0.147895 0.193159 0.347901 0.321982 0.392662 0.433600 0.628821 0.450292 0.739340 0.763811 0.591924 0.688042 0.690694 0.516772 0.422223 0.424930 0.268857 0.250801 0.066942 0.085979 -0.013392 -0.018588 -0.061595 0.010524 0.066605 0.034227 0.083583 0.222842 0.239708 0.290776 0.399665 0.394516 0.375226 0.408225 0.386688 0.327041 0.322853 0.285021 0.086536 0.067363 0.012065 -0.058141 -0.067342 -0.067040 -0.072159 -0.080107 -0.071701 0.053179 0.184208 0.199109 0.192177 0.217794 0.280979 0.188857 0.229973 0.181624 0.094640 0.074310 0.143616 0.038994 0.008180 -0.048217 0.025115 -0.069387 -0.000486 -0.000769 0.127155 0.089983 0.135356 0.212185 0.211043 0.110964 0.173867 0.164430 0.099049 0.035350 0.027385 0.048871 -0.012402 -0.015744 -0.009492 0.003464 0.034804 0.068509 0.113394 0.123808 0.118659 0.089399 0.078917 0.115305 0.064974 -0.040612 -0.016903 -0.064675 -0.079606 0.004512 0.007704 0.061028 0.010400 0.096620 0.087732 0.116327 0.183289 0.059716 0.089165 0.069273 -0.056292 0.009150 0.032932 0.023539 0.062268 0.058088 0.037196 0.006919 0.105253 0.088345 0.095586 0.103147 0.049625 0.055691 0.041245 0.023435 0.016708 0.084600 0.015449 0.103874 0.053329 0.051175 0.038548 0.072632 0.033535 -0.036032 -0.009406 -0.000604 0.017801 0.042982 0.073845 0.032436 0.029790 0.077989 -0.017855 0.025605 0.007090 0.037765 0.043206 0.036806 0.013848 0.036002 0.023729 0.080154 0.051145 0.105805 0.086762 0.104782 0.049582 0.010945 -0.058712 0.045881 0.071922 0.080640 0.002570 0.101243 -0.021271 -0.013759 0.035905 0.049206 0.043168 -0.021394 -0.040892 0.054304 0.068233 0.054958 -0.026709 -0.024662 -0.005997 -0.106396 -0.029885 -0.018204 0.043191 0.008648 -0.002427 -0.007195 -0.014428 0.032704 0.049596 -0.023087 0.015224 -0.030454 0.057839 0.039895 0.096343 -0.036632 -0.007934 0.098095 0.015320 -0.058912 -0.000710 0.009977 -0.081481 0.015619 0.088917 0.021760 0.057171 -0.049315 0.048169 -0.047475 0.053746 -0.004843 0.152247 0.021431 0.013957 -0.005142 0.036377 0.114649 0.025442 0.059462 -0.065982 0.088482 0.019891 0.095853 0.020013 0.116470 0.150892 -0.007552 0.152398 0.083896 -0.071900 -0.019352 0.065145 -0.017941 -0.008848 0.000825 0.005956 0.244475 0.028527 0.045445 0.039591 -0.127492 0.103483 0.350945 0.238265 0.063986 0.271025 0.314862 0.133342 0.399822 0.131540 -0.086486 -0.972502
0.072396 0.072911 0.074456 0.077030 0.080632 0.085263 0.090920 0.097601 0.105305 0.114029 0.123768 0.134519 0.146276 0.159031 0.172777 0.187504 0.203200 0.219851 0.237442 0.255953 0.275364 0.295649 0.316782 0.338730 0.361458 0.384927 0.409092 0.433904 0.459308 0.485245 0.511649 0.538449 0.565567 0.592919 0.620412 0.647951 0.675429 0.702735 0.729749 0.756345 0.782389 0.807741 0.832254 0.855773 0.878140 0.899187 0.918744 0.936636 0.952684 0.966705 0.978516 0.987932 0.994768 0.998842 0.999975 0.997992 0.992726 0.984017 0.971718 0.955690 0.935813 0.911982 0.884111 0.852137 0.816018 0.775742 0.731322 0.682804 0.630267 0.573825 0.513627 0.449863 0.382763 0.312597 0.239678 0.164361 0.087043 0.008164 0.071796 0.152317 0.232843 0.312781 0.391509 0.468380 0.542721 0.613846 0.681057 0.743654 0.800942 0.852237 0.896878 0.934234 0.963714 0.984778 0.996947 0.999812 0.993044 0.976405 0.949758 0.913073 0.866436 0.810056 0.744273 0.669555 0.586509 0.495874 0.398525 0.295465 0.187822 0.076837 0.036142 0.149681 0.262271 0.372346 0.478309 0.578554 0.671486 0.755557 0.829285 0.891291 0.940321 0.975282 0.995265 0.999576 0.987754 0.959603 0.915200 0.854915 0.779419 0.689687 0.586996 0.472915 0.349294 0.218235 0.082069 0.056685 0.195360 0.331192 0.461372 0.583107 0.693681 0.790522 0.871260 0.933804 0.976391 0.997653 0.996663 0.972983 0.926693 0.858422 0.769348 0.661204 0.536253 0.397261 0.247438 0.090384 0.069996 0.229580 0.384135 0.529431 0.661352 0.776027 0.869949 0.940087 0.984006 0.999957 0.986963 0.944881 0.874439 0.777258 0.655829 0.513477 0.354286 0.183000 0.004892 0.174391 0.348994 0.513056 0.660900 0.787244 0.887397 0.957452 0.994456 0.996550 0.963085 0.894687 0.793291 0.662106 0.505554 0.329138 0.139269 0.056946 0.251962 0.438089 0.607785 0.753978 0.870373 0.951739 0.994172 0.995305 0.954465 0.872764 0.753111 0.600150 0.420111 0.220584 0.010224 0.201603 0.405245 0.591188 0.750521 0.875370 0.959319 0.997770 0.988219 0.930461 0.826665 0.681354 0.501240 0.294968 0.072714 0.154278 0.374266 0.575606 0.747386 0.880029 0.965865 0.999603 0.978706 0.903609 0.777797 0.607693 0.402384 0.173176 0.066995 0.304273 0.524680 0.714938 0.863297 0.960286 0.999371 0.977433 0.895070 0.756665 0.570220 0.346950 0.100658 0.153089 0.397919 0.617715 0.797688 0.925405 0.991690 0.991339 0.923589 0.792292 0.605778 0.376389 0.119727 0.146367 0.403043 0.631757 0.815637 0.940762 0.997274 0.980214 0.890025 0.732664 0.519294 0.265562 0.009483 0.284787 0.538893 0.751602 0.905641 0.988092 0.991563 0.914920 0.763540 0.549042 0.288462 0.002993 0.283717 0.547490 0.765673 0.919122 0.993938 0.982814 0.885829 0.710629 0.471924 0.190349 0.109251 0.399972 0.655268 0.851386 0.969636 0.998255 0.933669 0.781029 0.553921 0.273266 0.034516 0.339953 0.613310 0.827508 0.960862 0.999360 0.938243 0.782691 0.547526 0.255924 0.062792 0.376025 0.651232 0.859321 0.977803 0.993313 0.903238 0.716234 0.451544 0.137129 0.193178 0.503282 0.758767 0.930757 0.999270 0.955661 0.803849 0.560134 0.251593 0.086820 0.416157 0.697955 0.898741 0.994117 0.971836 0.833522 0.594762 0.283513 0.063051 0.402892 0.694187 0.900507 0.995473 0.966254 0.815462 0.561133 0.234733 0.122588 0.465121 0.748419 0.935126 0.999998 0.933483 0.743287 0.453686 0.102621 0.263193 0.594386 0.845607 0.981841 0.983412
1.000000 1.000000 1.000000 1.000000 1.000000 1.000000 1.000000 1.000000 1.000000 1.000000 1.000000 1.000000 1.000000 1.000000 1.000000 1.000000 1.000000 1.000000 1.000000 1.000000 1.000000 1.000000 1.000000 1.000000 1.000000 1.000000 1.000000 1.000000 1.000000 1.000000 1.000000 1.000000 1.000000 1.000000 1.000000 1.000000 1.000000 1.000000 1.000000 1.000000 1.000000 1.000000 1.000000 1.000000 1.000000 1.000000 1.000000 1.000000 1.000000 1.000000 1.000000 1.000000 0.893048 0.893048 0.888998 0.888998 0.888998 0.888998 0.888998 0.888998 0.888998 0.888998 0.888998 0.888998 0.888998 0.888998 0.888998 0.888998 0.888998 0.888998 0.888998 0.888998 0.888998 0.888998 0.888998 0.888998 0.888998 0.888998 0.888998 0.888998 0.888998 0.888998 0.888998 0.888998 0.888998 0.888998 0.888998 0.888998 0.888998 0.888998 0.888998 0.888998 0.888998 0.888998 0.888998 0.874506 0.881503 0.885653 0.887869 0.890652 0.892296 0.890377 0.888723 0.888521 0.889250 0.890907 0.901467 0.915866 0.934943 0.946019 0.952883 0.954199 0.956611 0.956559 0.963300 0.971766 0.970593 0.970183 0.970714 0.971713 0.967998 0.968108 0.960844 0.975347 0.969981 0.969932 0.960544 0.959744 0.958988 0.958670 0.958347 0.959019 0.958935 0.959510 0.959948 0.959375 0.959530 0.957895 0.956200 0.950343 0.951983 0.954276 0.951711 0.932811 0.922013 0.923959 0.922903 0.922038 0.922774 0.923242 0.923816 0.914148 0.914712 0.914648 0.903427 0.901541 0.898927 0.897540 0.897501 0.900030 0.899320 0.898692 0.887962 0.867893 0.840292 0.817569 0.847189 0.820216 0.794704 0.776395 0.780106 0.782952 0.783476 0.780909 0.776097 0.759777 0.744414 0.746675 0.742842 0.749776 0.747200 0.746717 0.741577 0.739371 0.717487 0.697463 0.698962 0.696787 0.697352 0.696886 0.693518 0.685143 0.697006 0.694344 0.688314 0.678036 0.669410 0.657471 0.639108 0.584915 0.595594 0.612493 0.603457 0.567127 0.569295 0.589516 0.590953 0.601052 0.596377 0.590630 0.545445 0.553289 0.549104 0.545503 0.550927 0.546505 0.546618 0.556930 0.556569 0.548829 0.544951 0.527315 0.524736 0.531958 0.539123 0.568347 0.535589 0.519410 0.503658 0.485337 0.455735 0.439344 0.453655 0.465885 0.449558 0.459190 0.441774 0.446718 0.453723 0.452826 0.445003 0.455366 0.460001 0.489550 0.469853 0.463268 0.468511 0.460198 0.444569 0.392930 0.364813 0.364385 0.358173 0.368066 0.394098 0.401326 0.457666 0.450919 0.432204 0.422516 0.432599 0.409352 0.409657 0.386668 0.310322 0.306251 0.333586 0.321408 0.310254 0.254651 0.241986 0.238026 0.220194 0.198661 0.201263 0.157436 0.150821 0.122006 0.114469 0.130173 0.128119 0.123825 0.103400 0.140861 0.193555 0.196205 0.197600 0.212145 0.200474 0.209872 0.172697 0.150229 0.133445 0.107551 0.118150 0.068151 0.074637 0.046091 0.047978 0.019061 0.028491 0.032422 0.061933 0.033469 0.004173 0.031474 0.042278 0.093447 0.081483 0.081282 0.084313 0.097187 0.078950 0.085857 0.063956 0.034214 0.025026 0.012604 0.014855 0.008973 0.018308 0.007416 0.040635 0.108709 0.121577 0.112415 0.102852 0.127703 0.095119 0.123274 0.118109 0.081173 0.070382 0.005508 0.000929 0.000929 0.001430 0.001430 0.001430 0.001430 0.001430 0.001430 0.001430 0.001430 0.001430 0.024354 0.024354 0.024354 0.024354 0.024354 0.024354 0.024354 0.024354 0.004276 0.004276 0.004276 0.004276 0.004276 0.004276 0.004276 0.004276 0.004276 0.004276
0.000000 0.000000 0.000000 0.000000 0.000000 0.000000 0.000000 0.000000 0.000000 0.000000 0.000000 0.000000 0.000000 0.000000 0.000000 0.000000 0.000000 0.000000 0.000000 0.000000 0.000000 0.000000 0.000000 0.000000 0.000000 0.000000 0.000000 0.000000 0.000000 0.000000 0.000000 0.000000 0.000000 0.000000 0.000000 0.000000 0.000000 0.000000 0.000000 0.000000 0.000000 0.000000 0.000000 0.000000 0.000000 0.000000 0.000000 0.000000 0.000000 0.000000 0.000000 0.000000 0.181818 0.181818 0.199007 0.199007 0.199007 0.199007 0.199007 0.199007 0.199007 0.199007 0.199007 0.199007 0.199007 0.199007 0.199007 0.199007 0.199007 0.199007 0.199007 0.199007 0.199007 0.199007 0.199007 0.199007 0.199007 0.199007 0.199007 0.199007 0.199007 0.199007 0.199007 0.199007 0.199007 0.199007 0.199007 0.199007 0.199007 0.199007 0.199007 0.199007 0.199007 0.199007 0.199007 0.230940 0.230940 0.230940 0.230940 0.230940 0.230940 0.230940 0.230940 0.230940 0.230940 0.230940 0.230940 0.230940 0.230940 0.230940 0.230940 0.230940 0.230940 0.230940 0.230940 0.230940 0.230940 0.230940 0.230940 0.230940 0.230940 0.230940 0.230940 0.244339 0.244339 0.244339 0.244339 0.244339 0.244339 0.244339 0.244339 0.244339 0.244339 0.244339 0.244339 0.244339 0.244339 0.244339 0.244339 0.244339 0.244339 0.244339 0.244339 0.244339 0.244339 0.244339 0.251976 0.251976 0.251976 0.251976 0.251976 0.251976 0.251976 0.251976 0.251976 0.251976 0.251976 0.251976 0.251976 0.251976 0.251976 0.251976 0.251976 0.251976 0.251976 0.251976 0.264906 0.264906 0.264906 0.264906 0.264906 0.264906 0.264906 0.264906 0.264906 0.264906 0.264906 0.264906 0.264906 0.264906 0.264906 0.264906 0.264906 0.264906 0.264906 0.264906 0.264906 0.264906 0.264906 0.264906 0.264906 0.264906 0.264906 0.264906 0.264906 0.264906 0.264906 0.264906 0.264906 0.264906 0.264906 0.264906 0.264906 0.264906 0.264906 0.264906 0.264906 0.264906 0.264906 0.264906 0.264906 0.264906 0.264906 0.264906 0.264906 0.264906 0.264906 0.264906 0.264906 0.264906 0.264906 0.264906 0.264906 0.264906 0.264906 0.264906 0.264906 0.264906 0.264906 0.264906 0.264906 0.264906 0.264906 0.264906 0.264906 0.264906 0.264906 0.264906 0.264906 0.264906 0.264906 0.269680 0.269680 0.269680 0.269680 0.269680 0.269680 0.269680 0.269680 0.269680 0.269680 0.269680 0.269680 0.264906 0.264906 0.264906 0.264906 0.264906 0.264906 0.264906 0.264906 0.264906 0.264906 0.264906 0.264906 0.269680 0.269680 0.269680 0.269680 0.269680 0.269680 0.269680 0.269680 0.269680 0.269680 0.269680 0.264906 0.264906 0.264906 0.264906 0.264906 0.264906 0.264906 0.264906 0.264906 0.264906 0.264906 0.269680 0.269680 0.269680 0.269680 0.269680 0.269680 0.269680 0.269680 0.269680 0.269680 0.264906 0.264906 0.264906 0.264906 0.264906 0.264906 0.264906 0.264906 0.264906 0.264906 0.260378 0.260378 0.260378 0.260378 0.260378 0.260378 0.260378 0.260378 0.260378 0.260378 0.256074 0.256074 0.256074 0.256074 0.256074 0.256074 0.256074 0.256074 0.256074 0.256074 0.260378 0.260378 0.260378 0.260378 0.260378 0.260378 0.260378 0.260378 0.260378 0.256074 0.256074 0.256074 0.256074 0.256074 0.256074 0.256074 0.256074 0.256074 0.269680 0.269680 0.269680 0.269680 0.269680 0.269680 0.269680 0.269680 0.248069 0.248069 0.248069 0.248069 0.248069 0.248069 0.248069 0.248069 0.248069 0.248069
