# Output from CTFFind version 4.1.9, run on 2019-11-03 19:35:51
# Input file: stack6_bm3d_averaged_1_4.25_0_2000_half.mrc ; Number of micrographs: 1
# Pixel size: 3.000 Angstroms ; acceleration voltage: 300.0 keV ; spherical aberration: 0.00 mm ; amplitude contrast: 0.07
# Box size: 512 pixels ; min. res.: 30.0 Angstroms ; max. res.: 5.0 Angstroms ; min. def.: 5000.0 um; max. def. 50000.0 um; num. frames averaged: 1
# 6 lines per micrograph: #1 - spatial frequency (1/Angstroms); #2 - 1D rotational average of spectrum (assuming no astigmatism); #3 - 1D rotational average of spectrum; #4 - CTF fit; #5 - cross-correlation between spectrum and CTF fit; #6 - 2sigma of expected cross correlation of noise
0.000000 0.000651 0.001302 0.001953 0.002604 0.003255 0.003906 0.004557 0.005208 0.005859 0.006510 0.007161 0.007812 0.008464 0.009115 0.009766 0.010417 0.011068 0.011719 0.012370 0.013021 0.013672 0.014323 0.014974 0.015625 0.016276 0.016927 0.017578 0.018229 0.018880 0.019531 0.020182 0.020833 0.021484 0.022135 0.022786 0.023438 0.024089 0.024740 0.025391 0.026042 0.026693 0.027344 0.027995 0.028646 0.029297 0.029948 0.030599 0.031250 0.031901 0.032552 0.033203 0.033854 0.034505 0.035156 0.035807 0.036458 0.037109 0.037760 0.038411 0.039062 0.039714 0.040365 0.041016 0.041667 0.042318 0.042969 0.043620 0.044271 0.044922 0.045573 0.046224 0.046875 0.047526 0.048177 0.048828 0.049479 0.050130 0.050781 0.051432 0.052083 0.052734 0.053385 0.054036 0.054688 0.055339 0.055990 0.056641 0.057292 0.057943 0.058594 0.059245 0.059896 0.060547 0.061198 0.061849 0.062500 0.063151 0.063802 0.064453 0.065104 0.065755 0.066406 0.067057 0.067708 0.068359 0.069010 0.069661 0.070312 0.070964 0.071615 0.072266 0.072917 0.073568 0.074219 0.074870 0.075521 0.076172 0.076823 0.077474 0.078125 0.078776 0.079427 0.080078 0.080729 0.081380 0.082031 0.082682 0.083333 0.083984 0.084635 0.085286 0.085938 0.086589 0.087240 0.087891 0.088542 0.089193 0.089844 0.090495 0.091146 0.091797 0.092448 0.093099 0.093750 0.094401 0.095052 0.095703 0.096354 0.097005 0.097656 0.098307 0.098958 0.099609 0.100260 0.100911 0.101562 0.102214 0.102865 0.103516 0.104167 0.104818 0.105469 0.106120 0.106771 0.107422 0.108073 0.108724 0.109375 0.110026 0.110677 0.111328 0.111979 0.112630 0.113281 0.113932 0.114583 0.115234 0.115885 0.116536 0.117188 0.117839 0.118490 0.119141 0.119792 0.120443 0.121094 0.121745 0.122396 0.123047 0.123698 0.124349 0.125000 0.125651 0.126302 0.126953 0.127604 0.128255 0.128906 0.129557 0.130208 0.130859 0.131510 0.132161 0.132812 0.133464 0.134115 0.134766 0.135417 0.136068 0.136719 0.137370 0.138021 0.138672 0.139323 0.139974 0.140625 0.141276 0.141927 0.142578 0.143229 0.143880 0.144531 0.145182 0.145833 0.146484 0.147135 0.147786 0.148438 0.149089 0.149740 0.150391 0.151042 0.151693 0.152344 0.152995 0.153646 0.154297 0.154948 0.155599 0.156250 0.156901 0.157552 0.158203 0.158854 0.159505 0.160156 0.160807 0.161458 0.162109 0.162760 0.163411 0.164062 0.164714 0.165365 0.166016 0.166667 0.167318 0.167969 0.168620 0.169271 0.169922 0.170573 0.171224 0.171875 0.172526 0.173177 0.173828 0.174479 0.175130 0.175781 0.176432 0.177083 0.177734 0.178385 0.179036 0.179688 0.180339 0.180990 0.181641 0.182292 0.182943 0.183594 0.184245 0.184896 0.185547 0.186198 0.186849 0.187500 0.188151 0.188802 0.189453 0.190104 0.190755 0.191406 0.192057 0.192708 0.193359 0.194010 0.194661 0.195312 0.195964 0.196615 0.197266 0.197917 0.198568 0.199219 0.199870 0.200521 0.201172 0.201823 0.202474 0.203125 0.203776 0.204427 0.205078 0.205729 0.206380 0.207031 0.207682 0.208333 0.208984 0.209635 0.210286 0.210938 0.211589 0.212240 0.212891 0.213542 0.214193 0.214844 0.215495 0.216146 0.216797 0.217448 0.218099 0.218750 0.219401 0.220052 0.220703 0.221354 0.222005 0.222656 0.223307 0.223958 0.224609 0.225260 0.225911 0.226562 0.227214 0.227865 0.228516 0.229167 0.229818 0.230469 0.231120 0.231771 0.232422 0.233073 0.233724 0.234375 0.235026 0.235677
       0.30223        0.30223        0.30223        0.30223        0.30223        0.30223        0.30223        0.30223        0.30223        0.30223        0.30223        0.30223        0.30223        0.30223        0.30223        0.30223        0.30223        0.30223        0.30223        0.30223        0.30223        0.30223        0.30223        0.30223        0.30223        0.30223        0.30223        0.30223        0.30223        0.30223        0.30223        0.30223        0.30223        0.30223        0.30223        0.30223        0.30223        0.30223        0.30223        0.30223        0.30223        0.30223        0.30223        0.30223        0.30223        0.30223        0.30223        0.30223        0.30223        0.30223        0.30223        0.60887        0.75020        0.36206        0.21261        0.13251       -0.15009        0.11441        0.02444        0.03427        0.09411        0.32112        0.35948        0.29257        0.17410       -0.03219        0.00162        0.04653       -0.15585       -0.16755       -0.09037       -0.11804       -0.26242       -0.16399       -0.29591       -0.29474       -0.30196       -0.37184       -0.44822       -0.41123       -0.32568       -0.29026       -0.38460       -0.29102       -0.35484       -0.29119       -0.21939       -0.16778       -0.12935       -0.04522       -0.01970        0.09633        0.13565        0.21616        0.32998        0.39326        0.36688        0.47010        0.56185        0.57478        0.65925        0.61842        0.66408        0.60514        0.63376        0.63362        0.56816        0.57422        0.57639        0.40011        0.33338        0.35701        0.34649        0.18409        0.12976        0.08961        0.06998        0.07024       -0.03001        0.03049       -0.00696       -0.05087        0.07627        0.16096        0.25956        0.34237        0.33183        0.37041        0.48690        0.51741        0.45227        0.65239        0.52657        0.49715        0.56082        0.51250        0.51491        0.46493        0.36904        0.32734        0.24582        0.20201        0.16985        0.16410        0.13632        0.08057        0.13221        0.15201        0.19431        0.17660        0.24691        0.27994        0.33024        0.45113        0.42442        0.42202        0.47395        0.51650        0.50328        0.47069        0.38077        0.40645        0.35404        0.28087        0.22625        0.23387        0.20308        0.17021        0.15294        0.18539        0.17390        0.22784        0.29178        0.33613        0.39232        0.39224        0.45339        0.46952        0.44986        0.43075        0.39826        0.40507        0.39120        0.34840        0.30377        0.28648        0.23712        0.25605        0.25036        0.20225        0.24582        0.24196        0.25338        0.31919        0.35669        0.38468        0.39020        0.40159        0.40347        0.40443        0.40004        0.29265        0.28901        0.25453        0.26774        0.22626        0.19255        0.26023        0.31051        0.29545        0.27386        0.32899        0.27357        0.35789        0.34617        0.35536        0.36516        0.37471        0.31187        0.30788        0.29218        0.27612        0.26362        0.25005        0.26135        0.29187        0.28690        0.30919        0.34869        0.36943        0.34175        0.33367        0.34601        0.31219        0.29512        0.29210        0.26850        0.27603        0.26373        0.29502        0.29701        0.28094        0.29657        0.30561        0.31997        0.32917        0.33037        0.27769        0.25898        0.28320        0.27493        0.26406        0.25756        0.22672        0.24485        0.25654        0.24775        0.26512        0.28249        0.32090        0.31552        0.30062        0.30368        0.23247        0.22186        0.27033        0.23943        0.20334        0.26280        0.31876        0.25663        0.29571        0.29731        0.29688        0.30658        0.28245        0.27307        0.28975        0.26684        0.28594        0.23989        0.26195        0.24986        0.29082        0.28984        0.31406        0.31353        0.31358        0.22088        0.28385        0.28112        0.22658        0.27376        0.25957        0.29282        0.28476        0.30533        0.29724        0.34872        0.29315        0.25724        0.24125        0.21769        0.24183        0.26311        0.29204        0.28824        0.28698        0.29208        0.27756        0.27139        0.26696        0.24096        0.28395        0.24311        0.23070        0.22258        0.30076        0.29841        0.28330        0.28531        0.22121        0.28921        0.25072        0.19937        0.22996        0.26725        0.27741        0.30684        0.21176        0.19405        0.25789        0.24424        0.26150        0.21411        0.21840        0.20720        0.23535        0.25313        0.21144        0.25902        0.23271        0.26393        0.19522        0.26523        0.29713        0.19788        0.15528        0.14594        0.13440        0.22599        0.14975        0.08946        0.31722        0.19216        0.08714        0.08461        0.11887        0.16496        0.21642       -0.05236       -0.74362       -1.06027
3.040926 3.010594 2.980418 2.950399 2.920535 2.890828 2.861277 2.831882 2.802644 2.773561 2.744635 2.715865 2.687251 2.658793 2.630491 2.602346 2.574357 2.546524 2.518847 2.491326 2.463961 2.436753 2.409701 2.382805 2.356065 2.329481 2.303053 2.276782 2.250667 2.224708 2.198905 2.173258 2.147768 2.122433 2.097255 2.072233 2.047368 2.022658 1.998104 1.973707 1.949466 1.925381 1.901452 1.877680 1.854063 1.830603 1.807299 1.784151 1.761159 1.738324 1.715644 2.062004 2.391297 1.747523 1.674639 1.375507 0.833625 1.235511 1.097515 1.126317 0.984182 1.594697 1.502375 1.501871 1.245999 0.914094 0.753472 0.997139 0.752476 0.425416 0.547525 0.661330 0.393802 0.444406 0.278435 0.211007 0.143594 0.143072 -0.120002 -0.049289 0.073179 0.042285 0.004944 0.098018 -0.053111 -0.017767 0.136645 0.210453 0.260934 0.331754 0.367645 0.633617 0.560512 0.667522 0.900690 0.976795 0.894027 1.181837 1.181014 1.258111 1.337989 1.208502 1.402090 1.198471 1.181736 1.347531 1.129578 1.077328 1.180343 0.935495 0.652667 0.689768 0.747993 0.450134 0.356875 0.264526 0.163054 0.154723 0.008250 0.117336 0.041193 -0.087205 0.065728 0.197776 0.308387 0.515270 0.518522 0.489534 0.688434 0.805122 0.558142 0.965456 0.879246 0.651600 0.778944 0.655331 0.729211 0.701756 0.428087 0.413362 0.251279 0.187390 0.128169 0.005914 0.051920 -0.103328 -0.022066 -0.029752 0.093005 -0.036053 0.199343 0.175715 0.174342 0.392180 0.474031 0.382923 0.353292 0.574158 0.571474 0.449983 0.355778 0.338281 0.301616 0.182063 0.049419 0.040019 0.003409 -0.009450 -0.119428 -0.059203 -0.117950 0.045372 0.015022 0.163011 0.226357 0.243901 0.347975 0.342409 0.396869 0.351209 0.410825 0.373903 0.258685 0.317606 0.154046 0.189809 0.063300 0.109025 0.045881 0.051792 -0.045026 0.078627 0.013964 0.117664 0.223726 0.221641 0.283295 0.281062 0.304367 0.289141 0.302662 0.190892 0.076403 0.109013 0.036330 0.025679 -0.054032 -0.047715 0.067405 0.135141 0.076039 0.084038 0.095059 0.138316 0.191496 0.185418 0.175812 0.234882 0.148147 0.095664 0.083524 0.063217 0.053112 -0.028885 0.020039 0.094018 0.005388 0.098351 0.105529 0.196248 0.208383 0.178593 0.155360 0.170223 0.092627 0.088378 0.102460 0.036795 0.019765 0.078485 0.075812 0.094152 0.059960 0.102660 0.098182 0.136110 0.157844 0.105829 0.041468 -0.004734 0.065099 0.010725 0.052829 -0.022326 -0.057773 0.010293 -0.015902 -0.015826 0.037427 0.035920 0.104828 0.115490 0.042313 0.065431 -0.074522 -0.016216 0.035486 -0.068848 -0.078792 0.052876 0.083800 -0.022319 0.052772 0.056882 0.070439 0.076042 -0.009683 0.013883 0.100131 -0.057635 0.050866 -0.037177 0.014222 -0.046958 0.080550 0.022272 0.082698 0.066963 0.070252 -0.093513 0.047887 -0.004045 -0.070763 0.013471 -0.009550 0.015309 0.034706 0.104710 0.049387 0.087946 0.053481 -0.082298 -0.024383 -0.103963 -0.023705 0.013428 0.023927 0.038786 0.011395 0.050873 0.008002 0.009365 0.019519 -0.045636 0.058390 -0.011845 -0.069529 -0.032113 0.072122 0.041147 0.056468 0.063504 -0.021327 0.079779 0.017868 -0.078148 0.005763 0.041489 0.106353 0.099958 -0.036050 -0.045173 0.085041 0.022666 0.004364 0.007098 -0.067600 0.037967 0.040496 0.063657 -0.006697 0.108715 0.017098 0.162607 -0.034564 0.161065 0.202650 -0.003642 -0.058580 -0.051775 -0.164465 0.140025 -0.031831 -0.003343 0.523974 0.277119 0.132072 0.150874 0.279716 0.228289 0.332669 -0.073263 -1.740415
0.072396 0.072835 0.074150 0.076342 0.079411 0.083355 0.088173 0.093865 0.100429 0.107863 0.116165 0.125330 0.135356 0.146239 0.157972 0.170549 0.183963 0.198205 0.213265 0.229130 0.245786 0.263219 0.281411 0.300340 0.319986 0.340321 0.361319 0.382948 0.405172 0.427955 0.451254 0.475023 0.499213 0.523769 0.548633 0.573741 0.599025 0.624413 0.649826 0.675181 0.700391 0.725361 0.749994 0.774184 0.797824 0.820799 0.842991 0.864276 0.884527 0.903612 0.921395 0.937739 0.952502 0.965542 0.976712 0.985869 0.992868 0.997563 0.999815 0.999482 0.996432 0.990533 0.981665 0.969712 0.954569 0.936141 0.914347 0.889119 0.860403 0.828164 0.792385 0.753069 0.710240 0.663948 0.614265 0.561288 0.505145 0.445989 0.384004 0.319403 0.252430 0.183359 0.112496 0.040177 0.033232 0.107337 0.181714 0.255915 0.329465 0.401872 0.472621 0.541184 0.607020 0.669582 0.728320 0.782684 0.832134 0.876143 0.914204 0.945835 0.970586 0.988047 0.997855 0.999697 0.993322 0.978544 0.955248 0.923400 0.883047 0.834324 0.777459 0.712775 0.640692 0.561726 0.476495 0.385710 0.290177 0.190790 0.088526 0.015561 0.120352 0.224673 0.327305 0.426998 0.522492 0.612525 0.695856 0.771280 0.837650 0.893897 0.939045 0.972234 0.992741 0.999992 0.993583 0.973296 0.939108 0.891204 0.829985 0.756071 0.670305 0.573744 0.467659 0.353520 0.232984 0.107868 0.019868 0.148148 0.274817 0.397678 0.514520 0.623172 0.721533 0.807626 0.879636 0.935954 0.975217 0.996349 0.998595 0.981549 0.945178 0.889845 0.816307 0.725728 0.619666 0.500056 0.369183 0.229649 0.084324 0.063704 0.211196 0.354826 0.491263 0.617238 0.729640 0.825588 0.902514 0.958238 0.991044 0.999735 0.983686 0.942888 0.877964 0.790185 0.681454 0.554287 0.411761 0.257453 0.095361 0.070195 0.234681 0.393475 0.541992 0.675823 0.790875 0.883495 0.950607 0.989819 0.999524 0.978978 0.928352 0.848765 0.742272 0.611840 0.461278 0.295144 0.118618 0.062648 0.242707 0.415508 0.575100 0.715843 0.832616 0.921015 0.977533 0.999718 0.986295 0.937253 0.853886 0.738786 0.595790 0.429871 0.246991 0.053889 0.142137 0.333521 0.512704 0.672444 0.806116 0.908003 0.973554 0.999614 0.984592 0.928582 0.833407 0.702593 0.541270 0.355995 0.154510 0.054568 0.262103 0.458838 0.635805 0.784751 0.898535 0.971486 0.999724 0.981382 0.916758 0.808363 0.660863 0.480906 0.276864 0.058459 0.163685 0.378543 0.575240 0.743609 0.874734 0.961442 0.998730 0.984081 0.917669 0.802422 0.643937 0.450248 0.231456 0.000776 0.233819 0.454767 0.651148 0.811644 0.926765 0.989439 0.995487 0.943941 0.837181 0.680883 0.483759 0.257124 0.014264 0.230312 0.461720 0.665642 0.829187 0.941761 0.995779 0.987224 0.915986 0.785969 0.604939 0.384104 0.137465 0.119026 0.368504 0.594281 0.780972 0.915582 0.988434 0.993929 0.931012 0.803370 0.619263 0.391076 0.134504 0.132458 0.390794 0.621781 0.808394 0.936566 0.996310 0.982547 0.895598 0.741279 0.530587 0.278983 0.005300 0.269638 0.524574 0.739475 0.897136 0.984601 0.994282 0.924686 0.780670 0.573184 0.318510 0.037036 0.248317 0.513977 0.737634 0.900183 0.987370 0.991131 0.910399 0.751346 0.527007 0.256281 0.037602 0.329025 0.592222 0.803551 0.943665 0.999349 0.964836 0.842484 0.642733 0.383299 0.087676 0.216930 0.502081 0.740770 0.910012 0.993103 0.981368 0.875139 0.683913 0.425596 0.124924 0.188858 0.484793 0.733281 0.909061
1.000000 1.000000 1.000000 1.000000 1.000000 1.000000 1.000000 1.000000 1.000000 1.000000 1.000000 1.000000 1.000000 1.000000 1.000000 1.000000 1.000000 1.000000 1.000000 1.000000 1.000000 1.000000 1.000000 1.000000 1.000000 1.000000 1.000000 1.000000 1.000000 1.000000 1.000000 1.000000 1.000000 1.000000 1.000000 1.000000 1.000000 1.000000 1.000000 1.000000 1.000000 1.000000 1.000000 1.000000 1.000000 1.000000 1.000000 1.000000 1.000000 1.000000 1.000000 1.000000 0.821307 0.821307 0.821307 0.821307 0.821307 0.821307 0.821307 0.795414 0.795414 0.795414 0.795414 0.795414 0.795414 0.795414 0.795414 0.795414 0.795414 0.795414 0.795414 0.795414 0.795414 0.795414 0.795414 0.795414 0.795414 0.795414 0.795414 0.795414 0.795414 0.795414 0.795414 0.795414 0.795414 0.795414 0.795414 0.795414 0.795414 0.795414 0.795414 0.795414 0.795414 0.795414 0.795414 0.795414 0.795414 0.795414 0.795414 0.795414 0.795414 0.795414 0.795414 0.942780 0.943756 0.944221 0.944884 0.943314 0.943508 0.939415 0.938441 0.940873 0.940698 0.940910 0.941930 0.941522 0.942798 0.944332 0.947398 0.947868 0.956027 0.959748 0.959606 0.958728 0.957646 0.971402 0.971214 0.971040 0.971048 0.971169 0.969643 0.968204 0.968104 0.968723 0.970509 0.970974 0.969178 0.967346 0.966603 0.966008 0.965810 0.965194 0.965539 0.966351 0.966449 0.967026 0.969726 0.968873 0.969516 0.968184 0.967398 0.966356 0.965025 0.965784 0.965603 0.965114 0.963013 0.960938 0.961771 0.960676 0.961134 0.962864 0.963133 0.963407 0.963802 0.963875 0.963794 0.964621 0.961778 0.949967 0.947684 0.945104 0.945691 0.947471 0.949832 0.949081 0.947281 0.945346 0.940524 0.936655 0.924145 0.918021 0.914386 0.919343 0.917579 0.918216 0.917746 0.914696 0.912941 0.913224 0.911992 0.914966 0.914994 0.911050 0.902344 0.900404 0.896423 0.898218 0.900578 0.902622 0.902589 0.898665 0.887609 0.880843 0.883978 0.884458 0.890709 0.880913 0.879797 0.878777 0.871057 0.866938 0.858575 0.857243 0.858449 0.857897 0.860763 0.860581 0.853630 0.827097 0.821618 0.818019 0.814125 0.818301 0.827881 0.829875 0.825107 0.809569 0.799913 0.786720 0.787666 0.790758 0.789279 0.794992 0.775239 0.775225 0.751486 0.751491 0.747047 0.735788 0.732426 0.721950 0.726718 0.732747 0.739149 0.740396 0.723703 0.718678 0.680131 0.687488 0.644287 0.652830 0.651220 0.634391 0.619924 0.605262 0.616757 0.622797 0.627876 0.602356 0.592576 0.571339 0.559775 0.564190 0.548921 0.549652 0.550112 0.545539 0.535879 0.548146 0.559369 0.567039 0.548687 0.548768 0.552195 0.533247 0.515974 0.498496 0.491783 0.506790 0.526946 0.529871 0.532030 0.528405 0.493260 0.468612 0.495409 0.507150 0.521395 0.512011 0.501036 0.493901 0.505151 0.483264 0.507934 0.503335 0.505570 0.476769 0.429093 0.382245 0.326715 0.348706 0.350941 0.354876 0.349186 0.347591 0.328665 0.302291 0.302490 0.302908 0.325350 0.326514 0.290429 0.303524 0.299463 0.300742 0.302543 0.296592 0.304198 0.307779 0.336205 0.339918 0.276602 0.256704 0.210359 0.208411 0.217443 0.241253 0.260248 0.250279 0.223778 0.110237 0.133724 0.161525 0.161525 0.161525 0.161525 0.161525 0.161525 0.161525 0.161525 0.161525 0.161525 0.161525 0.097235 0.097235 0.097235 0.097235 0.097235 0.097235 0.097235 0.097235 0.097235 0.097235 0.097235 0.097235 0.097235 0.097235 0.097235 0.097235 0.097235 0.097235 0.097235
0.000000 0.000000 0.000000 0.000000 0.000000 0.000000 0.000000 0.000000 0.000000 0.000000 0.000000 0.000000 0.000000 0.000000 0.000000 0.000000 0.000000 0.000000 0.000000 0.000000 0.000000 0.000000 0.000000 0.000000 0.000000 0.000000 0.000000 0.000000 0.000000 0.000000 0.000000 0.000000 0.000000 0.000000 0.000000 0.000000 0.000000 0.000000 0.000000 0.000000 0.000000 0.000000 0.000000 0.000000 0.000000 0.000000 0.000000 0.000000 0.000000 0.000000 0.000000 0.000000 0.173422 0.173422 0.173422 0.173422 0.173422 0.173422 0.173422 0.191565 0.191565 0.191565 0.191565 0.191565 0.191565 0.191565 0.191565 0.191565 0.191565 0.191565 0.191565 0.191565 0.191565 0.191565 0.191565 0.191565 0.191565 0.191565 0.191565 0.191565 0.191565 0.191565 0.191565 0.191565 0.191565 0.191565 0.191565 0.191565 0.191565 0.191565 0.191565 0.191565 0.191565 0.191565 0.191565 0.191565 0.191565 0.191565 0.191565 0.191565 0.191565 0.191565 0.191565 0.219529 0.219529 0.219529 0.219529 0.219529 0.219529 0.219529 0.219529 0.219529 0.219529 0.219529 0.219529 0.219529 0.219529 0.219529 0.219529 0.219529 0.219529 0.219529 0.219529 0.219529 0.219529 0.219529 0.219529 0.219529 0.219529 0.219529 0.219529 0.219529 0.219529 0.219529 0.237356 0.237356 0.237356 0.237356 0.237356 0.237356 0.237356 0.237356 0.237356 0.237356 0.237356 0.237356 0.237356 0.237356 0.237356 0.237356 0.237356 0.237356 0.237356 0.237356 0.237356 0.237356 0.237356 0.237356 0.244339 0.244339 0.244339 0.244339 0.244339 0.244339 0.244339 0.244339 0.244339 0.244339 0.244339 0.244339 0.244339 0.244339 0.244339 0.244339 0.244339 0.244339 0.244339 0.244339 0.244339 0.248069 0.248069 0.248069 0.248069 0.248069 0.248069 0.248069 0.248069 0.248069 0.248069 0.248069 0.248069 0.248069 0.248069 0.248069 0.248069 0.248069 0.248069 0.248069 0.248069 0.248069 0.248069 0.248069 0.248069 0.248069 0.248069 0.248069 0.248069 0.248069 0.248069 0.248069 0.248069 0.248069 0.248069 0.248069 0.248069 0.248069 0.256074 0.256074 0.256074 0.256074 0.256074 0.256074 0.256074 0.256074 0.256074 0.256074 0.256074 0.256074 0.256074 0.256074 0.256074 0.256074 0.256074 0.256074 0.256074 0.256074 0.256074 0.256074 0.256074 0.256074 0.256074 0.256074 0.256074 0.256074 0.256074 0.256074 0.256074 0.256074 0.256074 0.256074 0.256074 0.256074 0.256074 0.256074 0.256074 0.256074 0.256074 0.256074 0.256074 0.256074 0.256074 0.260378 0.260378 0.260378 0.260378 0.260378 0.260378 0.260378 0.260378 0.260378 0.260378 0.260378 0.260378 0.260378 0.256074 0.256074 0.256074 0.256074 0.256074 0.256074 0.256074 0.256074 0.256074 0.256074 0.256074 0.256074 0.256074 0.260378 0.260378 0.260378 0.260378 0.260378 0.260378 0.260378 0.260378 0.260378 0.260378 0.260378 0.260378 0.251976 0.251976 0.251976 0.251976 0.251976 0.251976 0.251976 0.251976 0.251976 0.251976 0.251976 0.251976 0.256074 0.256074 0.256074 0.256074 0.256074 0.256074 0.256074 0.256074 0.256074 0.256074 0.256074 0.251976 0.251976 0.251976 0.251976 0.251976 0.251976 0.251976 0.251976 0.251976 0.251976 0.251976 0.248069 0.248069 0.248069 0.248069 0.248069 0.248069 0.248069 0.248069 0.248069 0.248069 0.248069 0.256074 0.256074 0.256074 0.256074 0.256074 0.256074 0.256074 0.256074 0.256074 0.256074 0.256074 0.256074 0.256074 0.256074 0.256074 0.256074 0.256074 0.256074 0.256074
