# Output from CTFFind version 4.1.9, run on 2019-11-03 19:50:10
# Input file: stack11_bm3d_averaged_1_5.25_0_3000_half.mrc ; Number of micrographs: 1
# Pixel size: 3.000 Angstroms ; acceleration voltage: 300.0 keV ; spherical aberration: 0.00 mm ; amplitude contrast: 0.07
# Box size: 512 pixels ; min. res.: 30.0 Angstroms ; max. res.: 5.0 Angstroms ; min. def.: 5000.0 um; max. def. 50000.0 um; num. frames averaged: 1
# 6 lines per micrograph: #1 - spatial frequency (1/Angstroms); #2 - 1D rotational average of spectrum (assuming no astigmatism); #3 - 1D rotational average of spectrum; #4 - CTF fit; #5 - cross-correlation between spectrum and CTF fit; #6 - 2sigma of expected cross correlation of noise
0.000000 0.000651 0.001302 0.001953 0.002604 0.003255 0.003906 0.004557 0.005208 0.005859 0.006510 0.007161 0.007812 0.008464 0.009115 0.009766 0.010417 0.011068 0.011719 0.012370 0.013021 0.013672 0.014323 0.014974 0.015625 0.016276 0.016927 0.017578 0.018229 0.018880 0.019531 0.020182 0.020833 0.021484 0.022135 0.022786 0.023438 0.024089 0.024740 0.025391 0.026042 0.026693 0.027344 0.027995 0.028646 0.029297 0.029948 0.030599 0.031250 0.031901 0.032552 0.033203 0.033854 0.034505 0.035156 0.035807 0.036458 0.037109 0.037760 0.038411 0.039062 0.039714 0.040365 0.041016 0.041667 0.042318 0.042969 0.043620 0.044271 0.044922 0.045573 0.046224 0.046875 0.047526 0.048177 0.048828 0.049479 0.050130 0.050781 0.051432 0.052083 0.052734 0.053385 0.054036 0.054688 0.055339 0.055990 0.056641 0.057292 0.057943 0.058594 0.059245 0.059896 0.060547 0.061198 0.061849 0.062500 0.063151 0.063802 0.064453 0.065104 0.065755 0.066406 0.067057 0.067708 0.068359 0.069010 0.069661 0.070312 0.070964 0.071615 0.072266 0.072917 0.073568 0.074219 0.074870 0.075521 0.076172 0.076823 0.077474 0.078125 0.078776 0.079427 0.080078 0.080729 0.081380 0.082031 0.082682 0.083333 0.083984 0.084635 0.085286 0.085938 0.086589 0.087240 0.087891 0.088542 0.089193 0.089844 0.090495 0.091146 0.091797 0.092448 0.093099 0.093750 0.094401 0.095052 0.095703 0.096354 0.097005 0.097656 0.098307 0.098958 0.099609 0.100260 0.100911 0.101562 0.102214 0.102865 0.103516 0.104167 0.104818 0.105469 0.106120 0.106771 0.107422 0.108073 0.108724 0.109375 0.110026 0.110677 0.111328 0.111979 0.112630 0.113281 0.113932 0.114583 0.115234 0.115885 0.116536 0.117188 0.117839 0.118490 0.119141 0.119792 0.120443 0.121094 0.121745 0.122396 0.123047 0.123698 0.124349 0.125000 0.125651 0.126302 0.126953 0.127604 0.128255 0.128906 0.129557 0.130208 0.130859 0.131510 0.132161 0.132812 0.133464 0.134115 0.134766 0.135417 0.136068 0.136719 0.137370 0.138021 0.138672 0.139323 0.139974 0.140625 0.141276 0.141927 0.142578 0.143229 0.143880 0.144531 0.145182 0.145833 0.146484 0.147135 0.147786 0.148438 0.149089 0.149740 0.150391 0.151042 0.151693 0.152344 0.152995 0.153646 0.154297 0.154948 0.155599 0.156250 0.156901 0.157552 0.158203 0.158854 0.159505 0.160156 0.160807 0.161458 0.162109 0.162760 0.163411 0.164062 0.164714 0.165365 0.166016 0.166667 0.167318 0.167969 0.168620 0.169271 0.169922 0.170573 0.171224 0.171875 0.172526 0.173177 0.173828 0.174479 0.175130 0.175781 0.176432 0.177083 0.177734 0.178385 0.179036 0.179688 0.180339 0.180990 0.181641 0.182292 0.182943 0.183594 0.184245 0.184896 0.185547 0.186198 0.186849 0.187500 0.188151 0.188802 0.189453 0.190104 0.190755 0.191406 0.192057 0.192708 0.193359 0.194010 0.194661 0.195312 0.195964 0.196615 0.197266 0.197917 0.198568 0.199219 0.199870 0.200521 0.201172 0.201823 0.202474 0.203125 0.203776 0.204427 0.205078 0.205729 0.206380 0.207031 0.207682 0.208333 0.208984 0.209635 0.210286 0.210938 0.211589 0.212240 0.212891 0.213542 0.214193 0.214844 0.215495 0.216146 0.216797 0.217448 0.218099 0.218750 0.219401 0.220052 0.220703 0.221354 0.222005 0.222656 0.223307 0.223958 0.224609 0.225260 0.225911 0.226562 0.227214 0.227865 0.228516 0.229167 0.229818 0.230469 0.231120 0.231771 0.232422 0.233073 0.233724 0.234375 0.235026 0.235677
       0.33966        0.33966        0.33966        0.33966        0.33966        0.33966        0.33966        0.33966        0.33966        0.33966        0.33966        0.33966        0.33966        0.33966        0.33966        0.33966        0.33966        0.33966        0.33966        0.33966        0.33966        0.33965        0.33965        0.33966        0.33965        0.33966        0.33965        0.33966        0.33966        0.33966        0.33965        0.33966        0.33966        0.33966        0.33965        0.33966        0.33966        0.33966        0.33966        0.33965        0.33966        0.33965        0.33966        0.33966        0.33966        0.33966        0.33966        0.33965        0.33966        0.33966        0.33965        0.69630        0.85910        0.53476        0.10425       -0.03136       -0.39376       -0.18266       -0.28743       -0.11381       -0.05635       -0.11116       -0.05390       -0.17365       -0.20951       -0.21996       -0.31016       -0.32249       -0.45017       -0.36398       -0.43266       -0.42593       -0.39915       -0.41898       -0.46100       -0.51570       -0.56187       -0.56178       -0.53565       -0.36502       -0.33688       -0.29871       -0.27875       -0.18960       -0.17655        0.05513        0.13338        0.16564        0.25893        0.38071        0.45611        0.52161        0.59207        0.58982        0.57879        0.69709        0.80668        0.70787        0.74105        0.62622        0.56774        0.48251        0.42746        0.51068        0.39442        0.25744        0.11088        0.10227        0.07935       -0.02360        0.02891        0.04109       -0.00123        0.02195        0.01896        0.23718        0.26866        0.29363        0.43044        0.45091        0.41085        0.58779        0.62451        0.64748        0.72966        0.67819        0.64865        0.66452        0.56331        0.46616        0.41906        0.30067        0.25541        0.17634        0.13257        0.05279        0.05593        0.06105        0.09468        0.15185        0.23801        0.28947        0.41096        0.46091        0.48276        0.57316        0.60617        0.63747        0.62126        0.56224        0.45827        0.47163        0.37715        0.26624        0.20589        0.15843        0.16584        0.14828        0.14564        0.17359        0.30927        0.32213        0.39678        0.43564        0.42774        0.48826        0.55881        0.55273        0.49621        0.45503        0.40861        0.36277        0.33306        0.29911        0.24996        0.23974        0.23733        0.24771        0.22036        0.30508        0.36065        0.38715        0.43889        0.45605        0.47187        0.42508        0.40535        0.40270        0.36004        0.32169        0.27203        0.26812        0.26191        0.23403        0.28276        0.28302        0.34608        0.37738        0.42304        0.47665        0.41090        0.42429        0.43209        0.40724        0.34695        0.32398        0.29230        0.31588        0.26952        0.31293        0.30591        0.32462        0.33264        0.35656        0.31823        0.39417        0.41559        0.37842        0.34721        0.37113        0.31333        0.29153        0.29923        0.32061        0.30441        0.31709        0.33559        0.34797        0.33992        0.36783        0.36757        0.40887        0.38310        0.33349        0.34139        0.29583        0.28455        0.32108        0.31561        0.32685        0.33585        0.33312        0.37772        0.32810        0.32831        0.33320        0.33842        0.30216        0.30962        0.27512        0.30042        0.32370        0.30331        0.32389        0.34824        0.35586        0.29101        0.32871        0.29288        0.30010        0.27995        0.24256        0.29852        0.30015        0.34174        0.33595        0.33670        0.32377        0.34823        0.30932        0.34294        0.31498        0.31364        0.28226        0.32878        0.31609        0.35806        0.32296        0.33517        0.34162        0.29431        0.27353        0.30860        0.24623        0.22579        0.33801        0.32007        0.35368        0.33846        0.35553        0.32614        0.33692        0.34384        0.26219        0.25284        0.31068        0.30353        0.30891        0.31945        0.33871        0.33354        0.29649        0.29151        0.34289        0.32011        0.30651        0.28343        0.32231        0.34440        0.39613        0.34495        0.30705        0.27568        0.30258        0.28120        0.29397        0.26918        0.25805        0.31254        0.33328        0.34373        0.35208        0.32168        0.28414        0.29790        0.26474        0.26900        0.24886        0.31263        0.27372        0.23272        0.30699        0.30460        0.26725        0.29052        0.20996        0.21355        0.24820        0.18818        0.26006        0.33047        0.24460        0.22522        0.31506        0.31872        0.32045        0.31821        0.26060        0.23204        0.18871        0.21763        0.19121        0.23106        0.22267        0.27043        0.33031        0.31319        0.22924        0.12476        0.06271       -0.01331       -0.09479       -0.60409
2.747955 2.718799 2.689803 2.660966 2.632288 2.603770 2.575412 2.547213 2.519173 2.491293 2.463573 2.436012 2.408610 2.381368 2.354286 2.327363 2.300599 2.273995 2.247550 2.221265 2.195140 2.169174 2.143367 2.117720 2.092232 2.066904 2.041736 2.016726 1.991877 1.967187 1.942656 1.918285 1.894073 1.870021 1.846129 1.822396 1.798822 1.775408 1.752153 1.729058 1.706122 1.683346 1.660729 1.638272 1.615975 1.593837 1.571858 1.550039 1.528379 1.506879 1.485538 1.702356 2.121101 1.681597 1.175474 1.041689 0.444733 0.843039 0.561947 0.843392 0.805861 0.814227 0.755824 0.743408 0.590746 0.552938 0.498341 0.428288 0.243340 0.369429 0.199022 0.327292 0.222546 0.203049 0.177483 0.038927 0.012989 0.016165 -0.068042 0.129677 0.228370 0.186955 0.174479 0.327594 0.184648 0.513740 0.617860 0.620235 0.637065 0.873541 0.829362 0.939045 0.922026 1.020300 0.987249 1.076460 1.164540 1.039611 1.151347 0.910246 0.925091 0.790419 0.648059 0.798292 0.698295 0.482215 0.329714 0.250504 0.260953 0.146852 0.126739 0.159236 0.105860 0.126297 0.075010 0.252807 0.358532 0.342352 0.471536 0.544794 0.417986 0.585992 0.724138 0.667835 0.728053 0.708399 0.717721 0.655377 0.598506 0.504623 0.376739 0.277783 0.220037 0.084228 0.120057 -0.095269 -0.045372 -0.060136 -0.074399 -0.018524 0.136110 0.070803 0.241888 0.306182 0.338880 0.387929 0.500663 0.472641 0.480544 0.492370 0.306219 0.292449 0.283890 0.086351 0.042115 -0.069978 -0.009537 -0.060713 -0.092136 -0.083282 0.037422 0.086218 0.122996 0.216396 0.227783 0.236670 0.289827 0.441676 0.389476 0.266701 0.240251 0.224905 0.150968 0.147432 0.117203 0.003045 0.020317 0.071162 0.000521 0.059333 0.143164 0.146896 0.231630 0.246687 0.273607 0.196136 0.219083 0.147388 0.162613 0.121505 0.051134 -0.006163 0.014841 -0.000715 -0.039245 0.065201 0.024652 0.123791 0.152991 0.199544 0.187384 0.152677 0.158831 0.177766 0.127530 0.057541 -0.001262 0.050694 0.030850 -0.020739 0.038871 0.038114 0.059583 0.050147 0.063328 0.067773 0.135452 0.144752 0.054809 0.053027 0.053907 0.016666 -0.022875 0.016650 0.020139 0.007207 0.016325 0.049111 0.060574 0.055647 0.083622 0.056006 0.148242 0.061150 0.031665 0.039351 -0.035460 0.004291 0.040813 0.003033 0.034462 0.049717 0.024567 0.116897 0.028426 0.002527 0.056262 0.004199 0.010629 0.003312 -0.025108 0.023208 0.006749 0.002545 0.052758 0.054321 0.056417 0.033099 0.037379 0.028991 0.020136 -0.018955 -0.026316 0.029520 0.051511 0.080170 0.084788 0.062544 0.075350 0.112447 0.054130 0.109664 0.082658 0.043381 0.035503 0.105581 0.070980 0.115697 0.092875 0.064931 0.125362 0.051788 0.013107 0.091916 -0.032109 -0.009940 0.109845 0.053714 0.153078 0.092904 0.102064 0.051611 0.078062 0.093088 -0.017795 -0.029117 0.056713 0.056803 0.043210 0.038288 0.105057 0.059991 -0.007635 0.046177 0.066637 0.054455 0.052307 -0.017103 0.070804 0.072327 0.131680 0.039214 0.013622 -0.027561 -0.001870 -0.017213 -0.000994 -0.050348 -0.032347 0.008636 0.039842 0.016635 0.037290 -0.001871 -0.043785 -0.038235 -0.027829 -0.075061 -0.062351 -0.015109 0.006155 -0.096642 0.000219 -0.037467 -0.069148 0.001177 -0.138969 -0.083594 -0.094061 -0.194408 -0.037814 0.053706 -0.052486 -0.156320 0.043006 0.054490 -0.042140 0.056985 -0.061376 0.253124 0.159697 0.226149 0.249351 0.274478 0.240203 0.306547 0.324929 0.357312 0.207800 0.230455 0.080931 -0.019005 -0.659417
0.072396 0.072899 0.074407 0.076920 0.080438 0.084959 0.090482 0.097006 0.104528 0.113047 0.122557 0.133055 0.144537 0.156994 0.170420 0.184805 0.200139 0.216408 0.233598 0.251690 0.270666 0.290502 0.311172 0.332647 0.354894 0.377874 0.401548 0.425869 0.450786 0.476243 0.502179 0.528527 0.555214 0.582162 0.609284 0.636489 0.663679 0.690748 0.717584 0.744069 0.770077 0.795475 0.820124 0.843879 0.866589 0.888097 0.908240 0.926851 0.943759 0.958791 0.971770 0.982517 0.990854 0.996605 0.999594 0.999650 0.996606 0.990304 0.980593 0.967332 0.950395 0.929669 0.905056 0.876482 0.843888 0.807242 0.766538 0.721794 0.673063 0.620426 0.564000 0.503935 0.440421 0.373684 0.303993 0.231652 0.157009 0.080453 0.002410 0.076653 0.156231 0.235787 0.314747 0.392512 0.468454 0.541926 0.612264 0.678798 0.740850 0.797750 0.848837 0.893472 0.931043 0.960977 0.982747 0.995885 0.999985 0.994720 0.979848 0.955219 0.920786 0.876611 0.822873 0.759871 0.688032 0.607909 0.520185 0.425669 0.325299 0.220128 0.111325 0.000158 0.112013 0.223752 0.333567 0.439925 0.541276 0.636075 0.722807 0.800014 0.866322 0.920465 0.961321 0.987927 0.999518 0.995541 0.975681 0.939879 0.888351 0.821591 0.740385 0.645809 0.539223 0.422260 0.296812 0.165001 0.029153 0.108239 0.244563 0.377129 0.503227 0.620178 0.725404 0.816474 0.891182 0.947594 0.984112 0.999526 0.993058 0.964408 0.913774 0.841880 0.749975 0.639837 0.513740 0.374431 0.225074 0.069192 0.089414 0.246746 0.398717 0.541249 0.670390 0.782428 0.874005 0.942228 0.984773 0.999976 0.986909 0.945440 0.876270 0.780946 0.661852 0.522161 0.365783 0.197253 0.021628 0.155669 0.329003 0.492708 0.641275 0.769543 0.872892 0.947423 0.990115 0.998975 0.973143 0.912966 0.820035 0.697169 0.548359 0.378663 0.194056 0.001230 0.192630 0.380117 0.553875 0.706902 0.832837 0.926245 0.982872 0.999859 0.975915 0.911424 0.808488 0.670895 0.504018 0.314630 0.110653 0.099150 0.305550 0.499245 0.671289 0.813517 0.918950 0.982166 0.999605 0.969805 0.893537 0.773843 0.615959 0.427125 0.216288 0.006297 0.229549 0.442099 0.632883 0.791716 0.909866 0.980565 0.999426 0.964762 0.877754 0.742480 0.565771 0.356913 0.127203 0.110647 0.343185 0.556979 0.739407 0.879421 0.968244 0.999966 0.971985 0.885258 0.744344 0.557233 0.334937 0.090894 0.159820 0.401400 0.618309 0.796292 0.923345 0.990558 0.992803 0.929171 0.803153 0.622527 0.398939 0.147204 0.115623 0.371399 0.602124 0.791223 0.924783 0.992608 0.989067 0.913621 0.771002 0.570993 0.327835 0.059261 0.214741 0.473412 0.696779 0.867246 0.971005 0.999225 0.948877 0.823118 0.631192 0.387847 0.112253 0.173440 0.445868 0.682348 0.862813 0.971541 0.998611 0.940883 0.802432 0.594368 0.334049 0.043688 0.251470 0.525337 0.753274 0.914371 0.993405 0.982374 0.881397 0.698896 0.451002 0.160218 0.146542 0.440416 0.693301 0.880572 0.983536 0.991391 0.902463 0.724574 0.474476 0.176382 0.140288 0.443791 0.703212 0.891658 0.989111 0.984657 0.877816 0.678827 0.407791 0.092763 0.233084 0.534911 0.779937 0.941054 0.999917 0.949141 0.793356 0.548941 0.242448 0.092200 0.417377 0.695985 0.895714 0.992867 0.975294 0.844043 0.613516 0.310028 0.031067 0.369406 0.664391 0.880063 0.989582 0.978682 0.847683 0.611736 0.299239 0.051448 0.396631 0.692698 0.901669 0.996149 0.963069 0.805645 0.543285 0.209350 0.152920
1.000000 1.000000 1.000000 1.000000 1.000000 1.000000 1.000000 1.000000 1.000000 1.000000 1.000000 1.000000 1.000000 1.000000 1.000000 1.000000 1.000000 1.000000 1.000000 1.000000 1.000000 1.000000 1.000000 1.000000 1.000000 1.000000 1.000000 1.000000 1.000000 1.000000 1.000000 1.000000 1.000000 1.000000 1.000000 1.000000 1.000000 1.000000 1.000000 1.000000 1.000000 1.000000 1.000000 1.000000 1.000000 1.000000 1.000000 1.000000 1.000000 1.000000 1.000000 1.000000 0.920327 0.920327 0.920327 0.912320 0.912320 0.912320 0.912320 0.912320 0.912320 0.912320 0.912320 0.912320 0.912320 0.912320 0.912320 0.912320 0.912320 0.912320 0.912320 0.912320 0.912320 0.912320 0.912320 0.912320 0.912320 0.912320 0.912320 0.912320 0.912320 0.912320 0.912320 0.912320 0.912320 0.912320 0.912320 0.912320 0.912320 0.912320 0.912320 0.912320 0.912320 0.912320 0.912320 0.912320 0.941474 0.942909 0.951105 0.950728 0.950132 0.948066 0.946884 0.946530 0.946428 0.946757 0.947464 0.948426 0.954674 0.955903 0.960337 0.962000 0.962754 0.963409 0.964076 0.963670 0.955033 0.954822 0.953446 0.952876 0.955402 0.954449 0.953659 0.954627 0.954511 0.955202 0.955123 0.954429 0.953345 0.952248 0.951306 0.950889 0.950680 0.951410 0.951826 0.953299 0.956596 0.957179 0.957310 0.957464 0.957567 0.958857 0.957827 0.957281 0.945252 0.945015 0.943896 0.943980 0.947170 0.947162 0.947736 0.948338 0.950049 0.950399 0.945959 0.944796 0.936904 0.934429 0.931380 0.925902 0.921251 0.923155 0.924725 0.925471 0.925863 0.921025 0.920905 0.918759 0.915359 0.917899 0.917819 0.919128 0.920511 0.918900 0.918242 0.917187 0.915483 0.907765 0.895633 0.894592 0.893212 0.898010 0.898924 0.897893 0.900893 0.889252 0.873556 0.853791 0.856071 0.859388 0.849944 0.846546 0.846804 0.847553 0.851241 0.843913 0.841379 0.836922 0.826827 0.819925 0.813880 0.805605 0.805601 0.797527 0.788129 0.784697 0.809629 0.803381 0.813032 0.817607 0.817243 0.815197 0.810042 0.802065 0.777909 0.777430 0.763419 0.740569 0.741084 0.739695 0.738633 0.736107 0.742049 0.732385 0.730128 0.713166 0.711746 0.716382 0.719983 0.717952 0.716618 0.721260 0.725977 0.709204 0.698847 0.689025 0.693542 0.697979 0.697434 0.699395 0.675432 0.648965 0.631093 0.644291 0.650812 0.624052 0.641435 0.655068 0.629186 0.625928 0.616370 0.618827 0.609341 0.612528 0.611638 0.611454 0.616441 0.630493 0.619345 0.617071 0.627877 0.630940 0.642931 0.642641 0.645093 0.612106 0.613508 0.634972 0.639274 0.623468 0.639381 0.628060 0.641652 0.678169 0.674362 0.635138 0.628823 0.609698 0.570458 0.557034 0.552290 0.561587 0.593764 0.590149 0.562501 0.535980 0.540210 0.552008 0.558080 0.559144 0.546106 0.552988 0.542670 0.519252 0.526911 0.533440 0.531454 0.518475 0.502198 0.504086 0.508643 0.524732 0.520816 0.482578 0.502920 0.498665 0.487428 0.422819 0.436724 0.423019 0.411186 0.369067 0.379822 0.388422 0.373491 0.293996 0.277675 0.278382 0.278602 0.267189 0.245453 0.221797 0.214702 0.183746 0.188251 0.174460 0.149175 0.147596 0.131854 0.121951 0.126382 0.094811 0.149635 0.212773 0.213660 0.213660 0.213660 0.213660 0.213660 0.213660 0.198005 0.198005 0.198005 0.198005 0.198005 0.198005 0.198005 0.198005 0.198005 0.221778 0.221778 0.221778 0.221778 0.221778 0.221778 0.221778 0.221778 0.221778 0.221778 0.221778 0.221778 0.221778 0.221778
0.000000 0.000000 0.000000 0.000000 0.000000 0.000000 0.000000 0.000000 0.000000 0.000000 0.000000 0.000000 0.000000 0.000000 0.000000 0.000000 0.000000 0.000000 0.000000 0.000000 0.000000 0.000000 0.000000 0.000000 0.000000 7.000000 4.000000 0.000000 0.000000 0.000000 0.000000 0.000000 0.000000 0.000000 0.000000 0.000000 0.000000 0.000000 0.000000 0.000000 0.000000 0.000000 0.000000 0.000000 0.000000 0.000000 0.000000 0.000000 0.000000 0.000000 0.000000 0.000000 0.180334 0.180334 0.180334 0.199007 0.199007 0.199007 0.199007 0.199007 0.199007 0.199007 0.199007 0.199007 0.199007 0.199007 0.199007 0.199007 0.199007 0.199007 0.199007 0.199007 0.199007 0.199007 0.199007 0.199007 0.199007 0.199007 0.199007 0.199007 0.199007 0.199007 0.199007 0.199007 0.199007 0.199007 0.199007 0.199007 0.199007 0.199007 0.199007 0.199007 0.199007 0.199007 0.199007 0.199007 0.225018 0.225018 0.225018 0.225018 0.225018 0.225018 0.225018 0.225018 0.225018 0.225018 0.225018 0.225018 0.225018 0.225018 0.225018 0.225018 0.225018 0.225018 0.225018 0.225018 0.225018 0.225018 0.225018 0.225018 0.225018 0.225018 0.225018 0.225018 0.225018 0.244339 0.244339 0.244339 0.244339 0.244339 0.244339 0.244339 0.244339 0.244339 0.244339 0.244339 0.244339 0.244339 0.244339 0.244339 0.244339 0.244339 0.244339 0.244339 0.244339 0.244339 0.244339 0.244339 0.251976 0.251976 0.251976 0.251976 0.251976 0.251976 0.251976 0.251976 0.251976 0.251976 0.251976 0.251976 0.251976 0.251976 0.251976 0.251976 0.251976 0.251976 0.251976 0.251976 0.264906 0.264906 0.264906 0.264906 0.264906 0.264906 0.264906 0.264906 0.264906 0.264906 0.264906 0.264906 0.264906 0.264906 0.264906 0.264906 0.264906 0.264906 0.264906 0.264906 0.264906 0.264906 0.264906 0.264906 0.264906 0.264906 0.264906 0.264906 0.264906 0.264906 0.264906 0.264906 0.264906 0.264906 0.264906 0.264906 0.264906 0.264906 0.264906 0.264906 0.264906 0.264906 0.264906 0.264906 0.264906 0.264906 0.264906 0.264906 0.264906 0.264906 0.264906 0.264906 0.264906 0.264906 0.264906 0.264906 0.264906 0.264906 0.264906 0.264906 0.264906 0.264906 0.256074 0.256074 0.256074 0.256074 0.256074 0.256074 0.256074 0.256074 0.256074 0.256074 0.256074 0.256074 0.256074 0.256074 0.269680 0.269680 0.269680 0.269680 0.269680 0.269680 0.269680 0.269680 0.269680 0.269680 0.269680 0.269680 0.264906 0.264906 0.264906 0.264906 0.264906 0.264906 0.264906 0.264906 0.264906 0.264906 0.264906 0.264906 0.269680 0.269680 0.269680 0.269680 0.269680 0.269680 0.269680 0.269680 0.269680 0.269680 0.269680 0.264906 0.264906 0.264906 0.264906 0.264906 0.264906 0.264906 0.264906 0.264906 0.264906 0.264906 0.256074 0.256074 0.256074 0.256074 0.256074 0.256074 0.256074 0.256074 0.256074 0.256074 0.256074 0.264906 0.264906 0.264906 0.264906 0.264906 0.264906 0.264906 0.264906 0.264906 0.264906 0.260378 0.260378 0.260378 0.260378 0.260378 0.260378 0.260378 0.260378 0.260378 0.260378 0.256074 0.256074 0.256074 0.256074 0.256074 0.256074 0.256074 0.256074 0.256074 0.256074 0.260378 0.260378 0.260378 0.260378 0.260378 0.260378 0.260378 0.260378 0.260378 0.256074 0.256074 0.256074 0.256074 0.256074 0.256074 0.256074 0.256074 0.256074 0.251976 0.251976 0.251976 0.251976 0.251976 0.251976 0.251976 0.251976 0.251976 0.251976 0.251976 0.251976 0.251976 0.251976
