# Output from CTFFind version 4.1.9, run on 2019-11-02 17:58:43
# Input file: stack6_bm3d_averaged_1_1.75_0_1500_half.mrc ; Number of micrographs: 1
# Pixel size: 3.000 Angstroms ; acceleration voltage: 300.0 keV ; spherical aberration: 0.00 mm ; amplitude contrast: 0.07
# Box size: 512 pixels ; min. res.: 30.0 Angstroms ; max. res.: 5.0 Angstroms ; min. def.: 5000.0 um; max. def. 50000.0 um; num. frames averaged: 1
# 6 lines per micrograph: #1 - spatial frequency (1/Angstroms); #2 - 1D rotational average of spectrum (assuming no astigmatism); #3 - 1D rotational average of spectrum; #4 - CTF fit; #5 - cross-correlation between spectrum and CTF fit; #6 - 2sigma of expected cross correlation of noise
0.000000 0.000651 0.001302 0.001953 0.002604 0.003255 0.003906 0.004557 0.005208 0.005859 0.006510 0.007161 0.007812 0.008464 0.009115 0.009766 0.010417 0.011068 0.011719 0.012370 0.013021 0.013672 0.014323 0.014974 0.015625 0.016276 0.016927 0.017578 0.018229 0.018880 0.019531 0.020182 0.020833 0.021484 0.022135 0.022786 0.023438 0.024089 0.024740 0.025391 0.026042 0.026693 0.027344 0.027995 0.028646 0.029297 0.029948 0.030599 0.031250 0.031901 0.032552 0.033203 0.033854 0.034505 0.035156 0.035807 0.036458 0.037109 0.037760 0.038411 0.039062 0.039714 0.040365 0.041016 0.041667 0.042318 0.042969 0.043620 0.044271 0.044922 0.045573 0.046224 0.046875 0.047526 0.048177 0.048828 0.049479 0.050130 0.050781 0.051432 0.052083 0.052734 0.053385 0.054036 0.054688 0.055339 0.055990 0.056641 0.057292 0.057943 0.058594 0.059245 0.059896 0.060547 0.061198 0.061849 0.062500 0.063151 0.063802 0.064453 0.065104 0.065755 0.066406 0.067057 0.067708 0.068359 0.069010 0.069661 0.070312 0.070964 0.071615 0.072266 0.072917 0.073568 0.074219 0.074870 0.075521 0.076172 0.076823 0.077474 0.078125 0.078776 0.079427 0.080078 0.080729 0.081380 0.082031 0.082682 0.083333 0.083984 0.084635 0.085286 0.085938 0.086589 0.087240 0.087891 0.088542 0.089193 0.089844 0.090495 0.091146 0.091797 0.092448 0.093099 0.093750 0.094401 0.095052 0.095703 0.096354 0.097005 0.097656 0.098307 0.098958 0.099609 0.100260 0.100911 0.101562 0.102214 0.102865 0.103516 0.104167 0.104818 0.105469 0.106120 0.106771 0.107422 0.108073 0.108724 0.109375 0.110026 0.110677 0.111328 0.111979 0.112630 0.113281 0.113932 0.114583 0.115234 0.115885 0.116536 0.117188 0.117839 0.118490 0.119141 0.119792 0.120443 0.121094 0.121745 0.122396 0.123047 0.123698 0.124349 0.125000 0.125651 0.126302 0.126953 0.127604 0.128255 0.128906 0.129557 0.130208 0.130859 0.131510 0.132161 0.132812 0.133464 0.134115 0.134766 0.135417 0.136068 0.136719 0.137370 0.138021 0.138672 0.139323 0.139974 0.140625 0.141276 0.141927 0.142578 0.143229 0.143880 0.144531 0.145182 0.145833 0.146484 0.147135 0.147786 0.148438 0.149089 0.149740 0.150391 0.151042 0.151693 0.152344 0.152995 0.153646 0.154297 0.154948 0.155599 0.156250 0.156901 0.157552 0.158203 0.158854 0.159505 0.160156 0.160807 0.161458 0.162109 0.162760 0.163411 0.164062 0.164714 0.165365 0.166016 0.166667 0.167318 0.167969 0.168620 0.169271 0.169922 0.170573 0.171224 0.171875 0.172526 0.173177 0.173828 0.174479 0.175130 0.175781 0.176432 0.177083 0.177734 0.178385 0.179036 0.179688 0.180339 0.180990 0.181641 0.182292 0.182943 0.183594 0.184245 0.184896 0.185547 0.186198 0.186849 0.187500 0.188151 0.188802 0.189453 0.190104 0.190755 0.191406 0.192057 0.192708 0.193359 0.194010 0.194661 0.195312 0.195964 0.196615 0.197266 0.197917 0.198568 0.199219 0.199870 0.200521 0.201172 0.201823 0.202474 0.203125 0.203776 0.204427 0.205078 0.205729 0.206380 0.207031 0.207682 0.208333 0.208984 0.209635 0.210286 0.210938 0.211589 0.212240 0.212891 0.213542 0.214193 0.214844 0.215495 0.216146 0.216797 0.217448 0.218099 0.218750 0.219401 0.220052 0.220703 0.221354 0.222005 0.222656 0.223307 0.223958 0.224609 0.225260 0.225911 0.226562 0.227214 0.227865 0.228516 0.229167 0.229818 0.230469 0.231120 0.231771 0.232422 0.233073 0.233724 0.234375 0.235026 0.235677
       0.30616        0.30616        0.30616        0.30616        0.30616        0.30616        0.30616        0.30616        0.30616        0.30616        0.30616        0.30616        0.30616        0.30616        0.30616        0.30616        0.30616        0.30616        0.30616        0.30616        0.30616        0.30616        0.30616        0.30616        0.30616        0.30616        0.30616        0.30616        0.30616        0.30616        0.30616        0.30616        0.30616        0.30616        0.30616        0.30616        0.30616        0.30616        0.30616        0.30616        0.30616        0.30616        0.30616        0.30616        0.30616        0.30616        0.30616        0.30616        0.30616        0.30616        0.30616        0.62943        0.80310        0.40642        0.29965        0.18068       -0.11074        0.11110       -0.00142        0.03008        0.11124        0.33634        0.41794        0.39290        0.21818       -0.01754        0.04158        0.06999       -0.17586       -0.18206       -0.08958       -0.11462       -0.30022       -0.19154       -0.30966       -0.26641       -0.28888       -0.41159       -0.47705       -0.47328       -0.42016       -0.34656       -0.43438       -0.36373       -0.41651       -0.35638       -0.27790       -0.20542       -0.19845       -0.13176       -0.08320        0.03904        0.07806        0.24993        0.28903        0.37287        0.39951        0.51211        0.58265        0.60683        0.73133        0.68976        0.73768        0.64723        0.65849        0.68820        0.62917        0.61501        0.60703        0.42859        0.38692        0.34998        0.32767        0.22210        0.12993        0.06123        0.04885       -0.00065       -0.08103       -0.02611       -0.03671       -0.07472        0.06493        0.16140        0.25477        0.31182        0.32875        0.41853        0.53155        0.57731        0.52552        0.67033        0.55694        0.52859        0.60052        0.61953        0.52528        0.46395        0.39804        0.37514        0.24042        0.19809        0.12724        0.11604        0.05742        0.05269        0.09366        0.14612        0.14516        0.17170        0.22136        0.23820        0.32566        0.44197        0.47892        0.48912        0.51674        0.57522        0.57066        0.52284        0.40927        0.38231        0.35962        0.26542        0.23837        0.21205        0.19922        0.19041        0.17344        0.15803        0.12659        0.18538        0.23832        0.33578        0.37518        0.40373        0.46075        0.53118        0.46261        0.48139        0.42682        0.40619        0.37999        0.36297        0.28219        0.24744        0.19801        0.23240        0.21805        0.19665        0.20940        0.21127        0.24031        0.31002        0.39514        0.38377        0.37583        0.39358        0.44854        0.46507        0.43421        0.35412        0.31359        0.27602        0.26742        0.25408        0.21622        0.27867        0.29288        0.29569        0.30908        0.29924        0.32201        0.37368        0.36453        0.36308        0.35146        0.31418        0.32638        0.31979        0.29113        0.28444        0.26431        0.21685        0.26323        0.26969        0.29518        0.31061        0.33484        0.36433        0.32104        0.30486        0.35256        0.35803        0.25653        0.28674        0.30033        0.23527        0.21285        0.26819        0.26584        0.27059        0.29750        0.29653        0.32762        0.33141        0.34762        0.31615        0.32083        0.30536        0.28971        0.26148        0.23581        0.24683        0.25285        0.27455        0.29429        0.28887        0.28205        0.31945        0.33826        0.27318        0.30293        0.26869        0.25422        0.25179        0.24233        0.24846        0.26108        0.31209        0.27543        0.31062        0.29161        0.27095        0.30331        0.28521        0.32165        0.31610        0.29614        0.24860        0.24497        0.25619        0.26060        0.31402        0.30619        0.32799        0.32038        0.30638        0.26715        0.29843        0.22426        0.18487        0.26344        0.27907        0.26165        0.27348        0.30580        0.29107        0.35594        0.29046        0.23830        0.20818        0.23795        0.28905        0.29217        0.29743        0.26915        0.27714        0.26389        0.30453        0.27071        0.24846        0.26615        0.24050        0.28937        0.25278        0.27713        0.32130        0.28913        0.21050        0.25252        0.28810        0.30488        0.23252        0.26140        0.24607        0.28947        0.28289        0.36673        0.28363        0.25447        0.27373        0.24134        0.20470        0.18534        0.23312        0.20025        0.18783        0.16340        0.20396        0.26152        0.21839        0.24422        0.19204        0.22362        0.20200        0.21802        0.18373        0.16954        0.19481        0.23633        0.15414        0.06348        0.21401        0.17440        0.11368        0.21624        0.13009        0.16853        0.18834       -0.11677       -0.49768       -0.82979
2.866646 2.838332 2.810164 2.782142 2.754266 2.726536 2.698952 2.671513 2.644220 2.617074 2.590073 2.563218 2.536509 2.509946 2.483529 2.457258 2.431133 2.405153 2.379320 2.353632 2.328090 2.302694 2.277444 2.252340 2.227382 2.202570 2.177903 2.153383 2.129008 2.104780 2.080697 2.056760 2.032969 2.009324 1.985825 1.962472 1.939264 1.916203 1.893287 1.870518 1.847894 1.825416 1.803084 1.780898 1.758857 1.736963 1.715215 1.693612 1.672156 1.650845 1.629680 1.929256 2.266141 1.696920 1.733977 1.383197 0.939044 1.206863 1.037495 1.083202 1.028224 1.506525 1.516188 1.541749 1.275822 0.947693 0.822762 1.020242 0.718717 0.488108 0.596462 0.679579 0.419118 0.490703 0.327218 0.355980 0.253024 0.161352 -0.040048 0.013631 0.037410 0.074274 0.048927 0.096422 -0.045518 0.025756 0.108032 0.226164 0.279112 0.222958 0.339284 0.565516 0.442178 0.727874 0.820132 0.887049 0.903398 1.125672 1.134902 1.179885 1.324932 1.219686 1.378010 1.191676 1.107580 1.311433 1.124626 1.058940 1.133730 0.884777 0.725697 0.673011 0.668603 0.475122 0.393204 0.273818 0.208712 0.101800 -0.014018 0.102482 0.017939 -0.066359 0.111905 0.259795 0.309367 0.461450 0.475010 0.543837 0.706535 0.801832 0.638427 0.955260 0.790244 0.655306 0.770730 0.771142 0.702326 0.643084 0.439842 0.501955 0.279290 0.172284 0.127789 0.002458 -0.011278 -0.110902 -0.022502 -0.007026 0.077156 -0.053860 0.247086 0.110178 0.194934 0.369754 0.412174 0.519503 0.420150 0.556570 0.667639 0.503038 0.381377 0.321578 0.312216 0.144755 0.119925 0.014716 0.088653 0.000348 0.001319 -0.040403 -0.112003 -0.020083 0.006105 0.098856 0.277842 0.209468 0.342767 0.370693 0.439006 0.378294 0.419584 0.344388 0.224233 0.312925 0.165228 0.159350 -0.001612 0.059936 0.065985 -0.007939 0.001825 0.000439 0.058214 0.084008 0.238602 0.288641 0.235052 0.231271 0.360320 0.360680 0.356551 0.252328 0.163341 0.143730 0.085274 0.080280 0.033779 0.022213 0.133342 0.052195 0.183553 0.086737 0.115546 0.209879 0.217268 0.217387 0.187218 0.194440 0.109315 0.164377 0.118954 0.092092 0.116524 -0.020124 0.030744 0.076920 0.047554 0.140336 0.104142 0.204713 0.188490 0.126493 0.123090 0.214072 0.125891 0.058563 0.097445 0.058244 0.000570 -0.004925 0.070059 0.065013 0.042387 0.117644 0.104403 0.130294 0.151118 0.160350 0.142230 0.100116 0.109605 0.091985 0.019306 0.010872 0.037108 0.011841 0.074914 0.109910 0.082535 0.045282 0.128362 0.126611 0.022600 0.117869 0.028744 0.015728 0.011411 -0.004710 -0.005303 0.074350 0.085992 0.010700 0.108167 0.066463 0.016544 0.105026 0.041996 0.087464 0.106037 0.019775 -0.003779 -0.027262 0.030711 0.001490 0.075604 0.078868 0.087619 0.073767 0.121959 -0.004884 0.077571 -0.101343 -0.053626 0.002955 0.032192 0.015724 -0.003561 0.093962 0.053124 0.107398 -0.054263 -0.061170 -0.109336 -0.085374 0.070550 0.001870 0.029085 -0.025303 -0.023476 -0.027984 0.060554 -0.040378 -0.040662 -0.016271 -0.103969 0.033450 -0.039289 0.008840 0.057453 -0.010725 -0.094180 0.010428 0.043201 0.015961 -0.053924 0.010061 -0.057608 0.101017 0.068310 0.160723 0.036224 -0.006097 0.047367 0.045634 -0.065574 -0.014980 0.051034 -0.015216 -0.047389 -0.053305 -0.001305 0.131931 -0.019980 0.134048 0.003288 0.102634 -0.018151 0.125225 -0.037324 0.017658 -0.007991 0.146319 0.032045 0.004581 0.300050 0.241368 0.164906 0.343004 0.211269 0.202860 0.320385 -0.160317 -1.161330
0.072396 0.072835 0.074150 0.076342 0.079410 0.083353 0.088171 0.093863 0.100426 0.107859 0.116159 0.125323 0.135348 0.146229 0.157961 0.170536 0.183949 0.198189 0.213246 0.229109 0.245764 0.263195 0.281384 0.300311 0.319954 0.340287 0.361282 0.382909 0.405131 0.427911 0.451207 0.474974 0.499161 0.523715 0.548576 0.573682 0.598965 0.624350 0.649762 0.675116 0.700325 0.725294 0.749926 0.774116 0.797756 0.820732 0.842925 0.864211 0.884464 0.903552 0.921339 0.937687 0.952455 0.965499 0.976676 0.985840 0.992846 0.997550 0.999811 0.999489 0.996449 0.990563 0.981708 0.969768 0.954640 0.936228 0.914450 0.889238 0.860540 0.828319 0.792559 0.753262 0.710453 0.664180 0.614516 0.561559 0.505435 0.446298 0.384331 0.319747 0.252790 0.183734 0.112885 0.040578 0.032822 0.106919 0.181291 0.255489 0.329040 0.401450 0.472206 0.540779 0.606629 0.669209 0.727967 0.782356 0.831836 0.875879 0.913977 0.945649 0.970446 0.987956 0.997815 0.999712 0.993394 0.978676 0.955441 0.923656 0.883365 0.834705 0.777902 0.713278 0.641252 0.562341 0.477160 0.386420 0.290926 0.191572 0.089333 0.014737 0.119521 0.223843 0.326486 0.426202 0.521729 0.611806 0.695192 0.770682 0.837129 0.893462 0.938706 0.972000 0.992619 0.999987 0.993701 0.973539 0.939477 0.891699 0.830603 0.756807 0.671151 0.574691 0.468696 0.354634 0.234157 0.109084 0.018627 0.146904 0.273592 0.396492 0.513397 0.622134 0.720601 0.806823 0.878979 0.935460 0.974902 0.996225 0.998671 0.981829 0.945664 0.890532 0.817188 0.726791 0.620894 0.501428 0.370673 0.231228 0.085961 0.062045 0.209551 0.353235 0.489762 0.615867 0.728434 0.824581 0.901736 0.957715 0.990796 0.999776 0.984024 0.943521 0.878885 0.791377 0.682895 0.555944 0.413595 0.259419 0.097408 0.068121 0.232638 0.391522 0.540188 0.674225 0.789532 0.882457 0.949911 0.989495 0.999592 0.979445 0.929215 0.850005 0.743861 0.613734 0.463426 0.297479 0.121071 0.060158 0.240264 0.413194 0.572998 0.714032 0.831165 0.919983 0.976968 0.999650 0.986740 0.938205 0.855323 0.740665 0.598050 0.432437 0.249767 0.056779 0.139245 0.330741 0.510149 0.670221 0.804322 0.906720 0.972846 0.999523 0.985135 0.929750 0.835164 0.704876 0.543993 0.359048 0.157766 0.051248 0.258867 0.455831 0.633171 0.782618 0.897008 0.970652 0.999635 0.982058 0.918181 0.810482 0.663588 0.484117 0.280414 0.062178 0.159981 0.375038 0.572116 0.741033 0.872850 0.960361 0.998524 0.984778 0.919249 0.804818 0.647034 0.453893 0.235459 0.003375 0.229752 0.451012 0.647923 0.809141 0.925139 0.988801 0.995892 0.945385 0.839597 0.684145 0.487691 0.261497 0.018826 0.225836 0.457611 0.662156 0.826553 0.940161 0.995331 0.987976 0.917912 0.788965 0.608828 0.388647 0.142379 0.114063 0.363826 0.590199 0.777777 0.913505 0.987637 0.994488 0.932911 0.806498 0.623423 0.395986 0.139832 0.127091 0.385771 0.617478 0.805133 0.934604 0.995814 0.983579 0.898103 0.745092 0.535445 0.284525 0.011109 0.264002 0.519554 0.735474 0.894487 0.983535 0.994908 0.926981 0.784474 0.578212 0.324366 0.043256 0.242248 0.508561 0.733341 0.897387 0.986334 0.991968 0.913064 0.755640 0.532582 0.262666 0.030957 0.322703 0.586789 0.799504 0.941390 0.999079 0.966623 0.846196 0.648056 0.389762 0.094692 0.210006 0.495903 0.735936 0.906998 0.992227 0.982743 0.878663 0.689274 0.432295 0.132320 0.181488 0.478183 0.728104 0.905856
1.000000 1.000000 1.000000 1.000000 1.000000 1.000000 1.000000 1.000000 1.000000 1.000000 1.000000 1.000000 1.000000 1.000000 1.000000 1.000000 1.000000 1.000000 1.000000 1.000000 1.000000 1.000000 1.000000 1.000000 1.000000 1.000000 1.000000 1.000000 1.000000 1.000000 1.000000 1.000000 1.000000 1.000000 1.000000 1.000000 1.000000 1.000000 1.000000 1.000000 1.000000 1.000000 1.000000 1.000000 1.000000 1.000000 1.000000 1.000000 1.000000 1.000000 1.000000 1.000000 0.838311 0.838311 0.838311 0.838311 0.838311 0.838311 0.838311 0.815114 0.815114 0.815114 0.815114 0.815114 0.815114 0.815114 0.815114 0.815114 0.815114 0.815114 0.815114 0.815114 0.815114 0.815114 0.815114 0.815114 0.815114 0.815114 0.815114 0.815114 0.815114 0.815114 0.815114 0.815114 0.815114 0.815114 0.815114 0.815114 0.815114 0.815114 0.815114 0.815114 0.815114 0.815114 0.815114 0.815114 0.815114 0.815114 0.815114 0.815114 0.815114 0.815114 0.815114 0.955422 0.956091 0.953310 0.952301 0.950729 0.947209 0.943105 0.942627 0.943941 0.944159 0.944791 0.946114 0.947078 0.948642 0.949609 0.950391 0.951168 0.959218 0.962889 0.962618 0.962380 0.961207 0.968011 0.967419 0.965090 0.965570 0.965740 0.966388 0.966361 0.966252 0.965813 0.965116 0.965615 0.965482 0.964913 0.964114 0.962262 0.962310 0.961973 0.962095 0.962945 0.963627 0.964252 0.964659 0.964618 0.964709 0.964717 0.964659 0.960051 0.960033 0.952949 0.953289 0.954414 0.954226 0.953586 0.952399 0.952458 0.952382 0.951287 0.951143 0.950032 0.938870 0.939007 0.939019 0.939812 0.936541 0.927081 0.921486 0.916491 0.917667 0.921083 0.924725 0.924436 0.920197 0.919587 0.903044 0.901088 0.884006 0.880253 0.873376 0.882636 0.883735 0.885125 0.880182 0.878982 0.877462 0.874840 0.860310 0.864596 0.863640 0.860167 0.857213 0.855640 0.852862 0.854716 0.857650 0.851481 0.839564 0.841098 0.829928 0.815872 0.814304 0.817387 0.826685 0.838279 0.837093 0.836372 0.827173 0.822656 0.813245 0.807314 0.808593 0.810948 0.807553 0.811308 0.812252 0.822812 0.811682 0.804309 0.809692 0.821362 0.826355 0.829418 0.829777 0.826724 0.827045 0.797695 0.798471 0.800879 0.770865 0.771104 0.767178 0.767048 0.768562 0.770268 0.767116 0.759995 0.754117 0.735918 0.748531 0.758040 0.735872 0.741525 0.732316 0.721495 0.687499 0.689395 0.694240 0.703687 0.704816 0.713918 0.704101 0.706207 0.715261 0.717618 0.722718 0.719868 0.709692 0.707183 0.714524 0.711383 0.694836 0.690355 0.689914 0.685522 0.679777 0.661582 0.669935 0.646418 0.636083 0.626025 0.587145 0.577074 0.568007 0.556491 0.537963 0.516702 0.529945 0.522187 0.519542 0.508138 0.484002 0.438489 0.422350 0.420474 0.405307 0.409736 0.391718 0.338719 0.352867 0.343876 0.338334 0.313306 0.295407 0.274323 0.210324 0.213843 0.166199 0.188204 0.197873 0.185129 0.165288 0.156279 0.184649 0.200321 0.219069 0.217270 0.243610 0.215780 0.163499 0.187751 0.177533 0.178115 0.163251 0.125039 0.147767 0.138347 0.145211 0.152812 0.109806 0.079791 0.051757 0.054321 0.070916 0.094044 0.111575 0.095772 0.074858 -0.014981 0.018938 0.050040 0.050040 0.050040 0.050040 0.050040 0.050040 0.050040 0.050040 0.050040 0.050040 0.050040 -0.008972 -0.008972 -0.008972 -0.008972 -0.008972 -0.008972 -0.008972 -0.008972 -0.008972 -0.008972 -0.008972 -0.008972 -0.008972 -0.008972 -0.008972 -0.008972 -0.008972 -0.008972 -0.008972
0.000000 0.000000 0.000000 0.000000 0.000000 0.000000 0.000000 0.000000 0.000000 0.000000 0.000000 0.000000 0.000000 0.000000 0.000000 0.000000 0.000000 0.000000 0.000000 0.000000 0.000000 0.000000 0.000000 0.000000 0.000000 0.000000 0.000000 0.000000 0.000000 0.000000 0.000000 0.000000 0.000000 0.000000 0.000000 0.000000 0.000000 0.000000 0.000000 0.000000 0.000000 0.000000 0.000000 0.000000 0.000000 0.000000 0.000000 0.000000 0.000000 0.000000 0.000000 0.000000 0.173422 0.173422 0.173422 0.173422 0.173422 0.173422 0.173422 0.191565 0.191565 0.191565 0.191565 0.191565 0.191565 0.191565 0.191565 0.191565 0.191565 0.191565 0.191565 0.191565 0.191565 0.191565 0.191565 0.191565 0.191565 0.191565 0.191565 0.191565 0.191565 0.191565 0.191565 0.191565 0.191565 0.191565 0.191565 0.191565 0.191565 0.191565 0.191565 0.191565 0.191565 0.191565 0.191565 0.191565 0.191565 0.191565 0.191565 0.191565 0.191565 0.191565 0.191565 0.219529 0.219529 0.219529 0.219529 0.219529 0.219529 0.219529 0.219529 0.219529 0.219529 0.219529 0.219529 0.219529 0.219529 0.219529 0.219529 0.219529 0.219529 0.219529 0.219529 0.219529 0.219529 0.219529 0.219529 0.219529 0.219529 0.219529 0.219529 0.219529 0.219529 0.219529 0.237356 0.237356 0.237356 0.237356 0.237356 0.237356 0.237356 0.237356 0.237356 0.237356 0.237356 0.237356 0.237356 0.237356 0.237356 0.237356 0.237356 0.237356 0.237356 0.237356 0.237356 0.237356 0.237356 0.237356 0.244339 0.244339 0.244339 0.244339 0.244339 0.244339 0.244339 0.244339 0.244339 0.244339 0.244339 0.244339 0.244339 0.244339 0.244339 0.244339 0.244339 0.244339 0.244339 0.244339 0.244339 0.248069 0.248069 0.248069 0.248069 0.248069 0.248069 0.248069 0.248069 0.248069 0.248069 0.248069 0.248069 0.248069 0.248069 0.248069 0.248069 0.248069 0.248069 0.248069 0.248069 0.248069 0.248069 0.248069 0.248069 0.248069 0.248069 0.248069 0.248069 0.248069 0.248069 0.248069 0.248069 0.248069 0.248069 0.248069 0.248069 0.248069 0.256074 0.256074 0.256074 0.256074 0.256074 0.256074 0.256074 0.256074 0.256074 0.256074 0.256074 0.256074 0.256074 0.256074 0.256074 0.256074 0.256074 0.256074 0.256074 0.256074 0.256074 0.256074 0.256074 0.256074 0.256074 0.256074 0.256074 0.256074 0.256074 0.256074 0.256074 0.256074 0.256074 0.256074 0.256074 0.256074 0.256074 0.256074 0.256074 0.256074 0.256074 0.256074 0.256074 0.256074 0.256074 0.260378 0.260378 0.260378 0.260378 0.260378 0.260378 0.260378 0.260378 0.260378 0.260378 0.260378 0.260378 0.260378 0.256074 0.256074 0.256074 0.256074 0.256074 0.256074 0.256074 0.256074 0.256074 0.256074 0.256074 0.256074 0.256074 0.260378 0.260378 0.260378 0.260378 0.260378 0.260378 0.260378 0.260378 0.260378 0.260378 0.260378 0.260378 0.251976 0.251976 0.251976 0.251976 0.251976 0.251976 0.251976 0.251976 0.251976 0.251976 0.251976 0.251976 0.256074 0.256074 0.256074 0.256074 0.256074 0.256074 0.256074 0.256074 0.256074 0.256074 0.256074 0.251976 0.251976 0.251976 0.251976 0.251976 0.251976 0.251976 0.251976 0.251976 0.251976 0.251976 0.248069 0.248069 0.248069 0.248069 0.248069 0.248069 0.248069 0.248069 0.248069 0.248069 0.248069 0.256074 0.256074 0.256074 0.256074 0.256074 0.256074 0.256074 0.256074 0.256074 0.256074 0.256074 0.256074 0.256074 0.256074 0.256074 0.256074 0.256074 0.256074 0.256074
