# Output from CTFFind version 4.1.9, run on 2019-11-02 17:46:01
# Input file: stack11_bm3d_averaged_1_0.75_0_1000_half.mrc ; Number of micrographs: 1
# Pixel size: 3.000 Angstroms ; acceleration voltage: 300.0 keV ; spherical aberration: 0.00 mm ; amplitude contrast: 0.07
# Box size: 512 pixels ; min. res.: 30.0 Angstroms ; max. res.: 5.0 Angstroms ; min. def.: 5000.0 um; max. def. 50000.0 um; num. frames averaged: 1
# 6 lines per micrograph: #1 - spatial frequency (1/Angstroms); #2 - 1D rotational average of spectrum (assuming no astigmatism); #3 - 1D rotational average of spectrum; #4 - CTF fit; #5 - cross-correlation between spectrum and CTF fit; #6 - 2sigma of expected cross correlation of noise
0.000000 0.000651 0.001302 0.001953 0.002604 0.003255 0.003906 0.004557 0.005208 0.005859 0.006510 0.007161 0.007812 0.008464 0.009115 0.009766 0.010417 0.011068 0.011719 0.012370 0.013021 0.013672 0.014323 0.014974 0.015625 0.016276 0.016927 0.017578 0.018229 0.018880 0.019531 0.020182 0.020833 0.021484 0.022135 0.022786 0.023438 0.024089 0.024740 0.025391 0.026042 0.026693 0.027344 0.027995 0.028646 0.029297 0.029948 0.030599 0.031250 0.031901 0.032552 0.033203 0.033854 0.034505 0.035156 0.035807 0.036458 0.037109 0.037760 0.038411 0.039062 0.039714 0.040365 0.041016 0.041667 0.042318 0.042969 0.043620 0.044271 0.044922 0.045573 0.046224 0.046875 0.047526 0.048177 0.048828 0.049479 0.050130 0.050781 0.051432 0.052083 0.052734 0.053385 0.054036 0.054688 0.055339 0.055990 0.056641 0.057292 0.057943 0.058594 0.059245 0.059896 0.060547 0.061198 0.061849 0.062500 0.063151 0.063802 0.064453 0.065104 0.065755 0.066406 0.067057 0.067708 0.068359 0.069010 0.069661 0.070312 0.070964 0.071615 0.072266 0.072917 0.073568 0.074219 0.074870 0.075521 0.076172 0.076823 0.077474 0.078125 0.078776 0.079427 0.080078 0.080729 0.081380 0.082031 0.082682 0.083333 0.083984 0.084635 0.085286 0.085938 0.086589 0.087240 0.087891 0.088542 0.089193 0.089844 0.090495 0.091146 0.091797 0.092448 0.093099 0.093750 0.094401 0.095052 0.095703 0.096354 0.097005 0.097656 0.098307 0.098958 0.099609 0.100260 0.100911 0.101562 0.102214 0.102865 0.103516 0.104167 0.104818 0.105469 0.106120 0.106771 0.107422 0.108073 0.108724 0.109375 0.110026 0.110677 0.111328 0.111979 0.112630 0.113281 0.113932 0.114583 0.115234 0.115885 0.116536 0.117188 0.117839 0.118490 0.119141 0.119792 0.120443 0.121094 0.121745 0.122396 0.123047 0.123698 0.124349 0.125000 0.125651 0.126302 0.126953 0.127604 0.128255 0.128906 0.129557 0.130208 0.130859 0.131510 0.132161 0.132812 0.133464 0.134115 0.134766 0.135417 0.136068 0.136719 0.137370 0.138021 0.138672 0.139323 0.139974 0.140625 0.141276 0.141927 0.142578 0.143229 0.143880 0.144531 0.145182 0.145833 0.146484 0.147135 0.147786 0.148438 0.149089 0.149740 0.150391 0.151042 0.151693 0.152344 0.152995 0.153646 0.154297 0.154948 0.155599 0.156250 0.156901 0.157552 0.158203 0.158854 0.159505 0.160156 0.160807 0.161458 0.162109 0.162760 0.163411 0.164062 0.164714 0.165365 0.166016 0.166667 0.167318 0.167969 0.168620 0.169271 0.169922 0.170573 0.171224 0.171875 0.172526 0.173177 0.173828 0.174479 0.175130 0.175781 0.176432 0.177083 0.177734 0.178385 0.179036 0.179688 0.180339 0.180990 0.181641 0.182292 0.182943 0.183594 0.184245 0.184896 0.185547 0.186198 0.186849 0.187500 0.188151 0.188802 0.189453 0.190104 0.190755 0.191406 0.192057 0.192708 0.193359 0.194010 0.194661 0.195312 0.195964 0.196615 0.197266 0.197917 0.198568 0.199219 0.199870 0.200521 0.201172 0.201823 0.202474 0.203125 0.203776 0.204427 0.205078 0.205729 0.206380 0.207031 0.207682 0.208333 0.208984 0.209635 0.210286 0.210938 0.211589 0.212240 0.212891 0.213542 0.214193 0.214844 0.215495 0.216146 0.216797 0.217448 0.218099 0.218750 0.219401 0.220052 0.220703 0.221354 0.222005 0.222656 0.223307 0.223958 0.224609 0.225260 0.225911 0.226562 0.227214 0.227865 0.228516 0.229167 0.229818 0.230469 0.231120 0.231771 0.232422 0.233073 0.233724 0.234375 0.235026 0.235677
       0.31705        0.31705        0.31705        0.31705        0.31705        0.31705        0.31705        0.31705        0.31705        0.31705        0.31705        0.31705        0.31705        0.31705        0.31705        0.31705        0.31705        0.31705        0.31705        0.31705        0.31705        0.31705        0.31705        0.31705        0.31705        0.31705        0.31705        0.31705        0.31705        0.31705        0.31705        0.31705        0.31705        0.31705        0.31705        0.31705        0.31705        0.31705        0.31705        0.31705        0.31705        0.31705        0.31705        0.31705        0.31705        0.31705        0.31705        0.31705        0.31705        0.31705        0.31705        0.68478        0.87207        0.52297        0.08735       -0.06601       -0.42472       -0.20831       -0.29642       -0.11690       -0.07752       -0.11844       -0.06815       -0.20928       -0.23664       -0.25990       -0.32910       -0.33646       -0.49067       -0.38338       -0.46749       -0.44959       -0.42137       -0.47136       -0.54821       -0.56357       -0.58934       -0.62854       -0.57978       -0.41767       -0.37914       -0.32974       -0.31559       -0.21423       -0.20116        0.01788        0.06929        0.10307        0.22444        0.37244        0.44216        0.51625        0.55922        0.55449        0.57111        0.69952        0.81440        0.74453        0.73449        0.67356        0.58386        0.48654        0.40818        0.49304        0.37443        0.20316        0.07711        0.04675        0.00926       -0.06089       -0.04033       -0.02691       -0.07454       -0.00715       -0.02088        0.21002        0.24871        0.29187        0.43158        0.46724        0.40466        0.53495        0.63134        0.70408        0.76718        0.69138        0.65889        0.70124        0.58824        0.50692        0.41895        0.28901        0.18379        0.15684        0.10634        0.03871        0.01297       -0.00243        0.07561        0.13218        0.20362        0.28430        0.40266        0.41713        0.51404        0.60433        0.63662        0.61527        0.63103        0.55419        0.44664        0.44374        0.35101        0.22993        0.18397        0.14870        0.10626        0.11919        0.06425        0.09768        0.22209        0.26235        0.34050        0.34783        0.45363        0.51339        0.53670        0.55132        0.46968        0.42852        0.39327        0.37345        0.30728        0.25088        0.20015        0.18549        0.16033        0.18999        0.17781        0.26888        0.33232        0.36372        0.42312        0.46198        0.47933        0.44700        0.39422        0.41658        0.37512        0.28983        0.27355        0.22708        0.21318        0.19501        0.21258        0.23037        0.32936        0.37299        0.36466        0.45890        0.44057        0.43917        0.43116        0.39572        0.34466        0.32888        0.27641        0.23544        0.23628        0.26946        0.26947        0.30084        0.30055        0.34082        0.32917        0.41068        0.41824        0.37440        0.34357        0.36407        0.27999        0.28102        0.26215        0.27678        0.25956        0.27961        0.29207        0.31468        0.35312        0.35956        0.35962        0.33167        0.35111        0.28483        0.32121        0.26807        0.24981        0.28393        0.28022        0.30676        0.31428        0.33358        0.32709        0.31331        0.31646        0.28745        0.28796        0.26084        0.28107        0.26690        0.31079        0.28331        0.26355        0.30836        0.31208        0.31798        0.29086        0.30021        0.29278        0.24509        0.23817        0.22153        0.27941        0.27240        0.30952        0.31720        0.32005        0.31592        0.30388        0.27629        0.28323        0.33066        0.27318        0.26658        0.29565        0.29601        0.34022        0.33695        0.36245        0.33212        0.31383        0.28001        0.26492        0.26413        0.22764        0.26814        0.29949        0.29501        0.27740        0.29463        0.27122        0.32278        0.32705        0.24973        0.21702        0.27295        0.33809        0.27788        0.31448        0.32566        0.32753        0.30019        0.32271        0.34248        0.29839        0.29495        0.26457        0.27798        0.35381        0.35148        0.25762        0.26829        0.25436        0.28225        0.22587        0.29040        0.21966        0.25258        0.32938        0.31927        0.34381        0.29618        0.24248        0.24198        0.24314        0.24296        0.18476        0.22206        0.25809        0.29581        0.28011        0.30112        0.29422        0.28195        0.28108        0.21029        0.17750        0.18797        0.23580        0.20356        0.21734        0.23037        0.21015        0.24674        0.33196        0.29401        0.30507        0.22102        0.25593        0.23793        0.28602        0.30526        0.14812        0.21250        0.22167        0.12808        0.22871        0.10702        0.16362        0.17758        0.11604       -0.10959       -0.59386
2.588918 2.561879 2.534987 2.508242 2.481643 2.455190 2.428885 2.402726 2.376713 2.350848 2.325129 2.299556 2.274130 2.248851 2.223718 2.198732 2.173893 2.149200 2.124653 2.100254 2.076001 2.051895 2.027935 2.004122 1.980455 1.956935 1.933562 1.910335 1.887255 1.864322 1.841535 1.818895 1.796402 1.774055 1.751854 1.729801 1.707893 1.686133 1.664519 1.643052 1.621731 1.600557 1.579530 1.558649 1.537915 1.517328 1.496887 1.476593 1.456445 1.436444 1.416589 1.638212 2.044232 1.617079 1.130506 0.987409 0.426030 0.811124 0.564276 0.836119 0.774168 0.787671 0.754234 0.710334 0.562875 0.512970 0.487883 0.447501 0.206535 0.381733 0.204345 0.306093 0.240369 0.180625 0.129423 0.005131 0.043395 -0.016268 -0.054952 0.104044 0.206905 0.197996 0.154938 0.330310 0.197638 0.496115 0.574577 0.547310 0.591959 0.877607 0.807599 0.945612 0.888348 0.972883 0.940443 1.079535 1.140878 1.077300 1.124677 0.953469 0.944911 0.784635 0.652778 0.768835 0.703482 0.463280 0.306649 0.253756 0.213086 0.148139 0.088960 0.124892 0.065867 0.152231 0.051635 0.260693 0.376961 0.357993 0.479748 0.584044 0.468625 0.543469 0.698951 0.747508 0.781239 0.733268 0.730626 0.716790 0.626912 0.572046 0.428954 0.285239 0.203947 0.076041 0.130133 -0.044281 -0.027658 -0.083177 -0.038347 0.005282 0.142238 0.092291 0.302132 0.276915 0.365938 0.457197 0.522462 0.507672 0.518454 0.505646 0.331909 0.307218 0.274283 0.101095 0.045973 -0.003090 -0.036778 -0.042447 -0.094410 -0.106573 -0.018109 0.055661 0.132984 0.135771 0.226648 0.332684 0.305272 0.419524 0.390827 0.281762 0.231488 0.247956 0.206439 0.100724 0.071107 0.015658 0.002507 0.001804 -0.018758 0.057588 0.145985 0.141966 0.222891 0.252428 0.303970 0.262276 0.220439 0.190536 0.209674 0.150059 0.044163 0.045479 -0.009592 -0.010233 -0.031249 0.016709 0.014896 0.173090 0.122337 0.180715 0.237386 0.200822 0.191447 0.198631 0.136476 0.104326 0.064328 0.043291 -0.039017 0.006412 0.022006 0.052263 0.048379 0.079893 0.097397 0.118962 0.140806 0.186732 0.076037 0.097133 0.070166 0.000575 0.006093 0.008357 -0.011173 0.019168 0.002086 0.030113 0.070550 0.083261 0.116515 0.048928 0.097077 0.053998 0.009415 0.061473 -0.035415 -0.012507 0.021799 -0.002208 0.051528 0.053884 0.051511 0.053466 0.050685 0.046100 0.019054 0.000563 0.004948 0.012979 -0.014693 0.069088 -0.016376 0.007043 0.054253 0.047502 0.033090 0.043310 0.036308 0.015245 -0.025617 -0.048107 -0.016260 0.014674 0.017888 0.058112 0.059139 0.055023 0.077780 0.060058 0.018576 0.059443 0.083252 0.018429 0.020395 0.057051 0.052121 0.099236 0.107618 0.111980 0.110102 0.062605 0.038024 0.028345 0.005719 -0.005745 0.044561 0.073349 0.039928 0.028659 0.030889 0.020629 0.084854 0.057388 -0.049518 -0.054016 0.030247 0.093289 0.006834 0.031719 0.055961 0.087954 0.023856 0.055507 0.081286 0.032494 0.040371 -0.034821 0.014519 0.112057 0.066028 -0.058416 -0.020044 -0.051246 0.020939 -0.106197 0.033743 -0.111271 -0.031191 0.052426 0.027223 0.027941 -0.044605 -0.060020 -0.086026 -0.079646 -0.066655 -0.126167 -0.097769 -0.039744 0.017118 -0.025869 0.032881 -0.016819 -0.038672 0.051576 -0.109223 -0.094294 -0.096355 -0.005123 -0.049957 -0.041225 0.000737 0.014491 0.011551 0.174492 -0.010418 0.141868 0.006693 0.262838 0.255945 0.325367 0.282635 0.113929 0.215458 0.264448 0.053178 0.252112 0.113826 0.136375 0.234328 0.117969 -0.612814
0.072396 0.072899 0.074406 0.076917 0.080433 0.084951 0.090471 0.096991 0.104510 0.113023 0.122528 0.133020 0.144495 0.156945 0.170363 0.184740 0.200065 0.216325 0.233505 0.251587 0.270553 0.290378 0.311037 0.332500 0.354735 0.377704 0.401365 0.425674 0.450579 0.476025 0.501949 0.528287 0.554963 0.581900 0.609013 0.636210 0.663393 0.690456 0.717287 0.743769 0.769776 0.795174 0.819826 0.843587 0.866304 0.887822 0.907978 0.926606 0.943534 0.958590 0.971595 0.982374 0.990746 0.996537 0.999569 0.999673 0.996682 0.990437 0.980787 0.967592 0.950725 0.930072 0.905538 0.877045 0.844535 0.807977 0.767362 0.722710 0.674071 0.621527 0.565193 0.505219 0.441793 0.375142 0.305531 0.233265 0.158692 0.082196 0.004205 0.074817 0.154366 0.233906 0.312864 0.390642 0.466614 0.540133 0.610538 0.677157 0.739314 0.796339 0.847572 0.892372 0.930129 0.960268 0.982262 0.995640 0.999996 0.995001 0.980410 0.956070 0.921932 0.878055 0.824613 0.761902 0.690344 0.610488 0.523012 0.428723 0.328551 0.223546 0.114871 0.003793 0.108335 0.220079 0.329951 0.436419 0.537935 0.632954 0.719963 0.797501 0.864192 0.918769 0.960102 0.987226 0.999367 0.995965 0.976696 0.941494 0.890559 0.824379 0.743727 0.649666 0.543544 0.426985 0.301866 0.170301 0.034607 0.102733 0.239112 0.371845 0.498222 0.615568 0.721297 0.812977 0.888391 0.945594 0.982976 0.999309 0.993798 0.966119 0.916450 0.845490 0.754466 0.645128 0.519729 0.380993 0.232062 0.076443 0.082076 0.239512 0.391781 0.534804 0.664626 0.777523 0.870122 0.939508 0.983328 0.999886 0.988218 0.948151 0.880345 0.786305 0.668368 0.529671 0.374080 0.206102 0.030762 0.146534 0.320163 0.484462 0.633912 0.763335 0.868084 0.944215 0.988665 0.999381 0.975442 0.917126 0.825957 0.704683 0.557232 0.388601 0.204712 0.012218 0.181724 0.369718 0.544405 0.698759 0.826380 0.921780 0.980629 0.999988 0.978470 0.916358 0.815651 0.680037 0.514790 0.326603 0.123328 0.086321 0.293138 0.487824 0.661403 0.805661 0.913538 0.979511 0.999897 0.973099 0.899744 0.782726 0.627144 0.440107 0.230459 0.008371 0.215118 0.428657 0.621147 0.782339 0.903397 0.977412 0.999833 0.968784 0.885250 0.753112 0.579014 0.372083 0.143479 0.094167 0.327444 0.542907 0.727862 0.871137 0.963781 0.999671 0.975963 0.893354 0.756146 0.572085 0.351975 0.109089 0.141595 0.384310 0.603478 0.784730 0.915870 0.987746 0.994932 0.936195 0.814695 0.637889 0.417143 0.167050 0.095488 0.352381 0.585582 0.778387 0.916641 0.989837 0.991969 0.922091 0.784519 0.588643 0.348373 0.081190 0.193063 0.453646 0.680488 0.855757 0.965303 0.999865 0.955922 0.836118 0.649213 0.409512 0.135861 0.149796 0.424140 0.664388 0.850187 0.965411 0.999611 0.949050 0.817185 0.614542 0.357967 0.069316 0.226375 0.503021 0.735789 0.903378 0.990012 0.987018 0.893786 0.718006 0.475162 0.187243 0.119166 0.415289 0.672868 0.866878 0.978019 0.994723 0.914459 0.744184 0.499872 0.205114 0.111069 0.417039 0.681696 0.877669 0.984215 0.989505 0.892053 0.701098 0.435864 0.123737 0.202488 0.508001 0.759686 0.929776 0.998987 0.958819 0.812725 0.575984 0.274235 0.059193 0.386889 0.671546 0.880225 0.988256 0.982258 0.861938 0.640390 0.342827 0.003836 0.336558 0.637590 0.862645 0.983808 0.985427 0.866294 0.640073 0.333905 0.014712 0.362431 0.665415 0.884877 0.992150 0.972557 0.827579 0.574970 0.246779 0.114620
1.000000 1.000000 1.000000 1.000000 1.000000 1.000000 1.000000 1.000000 1.000000 1.000000 1.000000 1.000000 1.000000 1.000000 1.000000 1.000000 1.000000 1.000000 1.000000 1.000000 1.000000 1.000000 1.000000 1.000000 1.000000 1.000000 1.000000 1.000000 1.000000 1.000000 1.000000 1.000000 1.000000 1.000000 1.000000 1.000000 1.000000 1.000000 1.000000 1.000000 1.000000 1.000000 1.000000 1.000000 1.000000 1.000000 1.000000 1.000000 1.000000 1.000000 1.000000 1.000000 0.933238 0.933238 0.933238 0.924038 0.924038 0.924038 0.924038 0.924038 0.924038 0.924038 0.924038 0.924038 0.924038 0.924038 0.924038 0.924038 0.924038 0.924038 0.924038 0.924038 0.924038 0.924038 0.924038 0.924038 0.924038 0.924038 0.924038 0.924038 0.924038 0.924038 0.924038 0.924038 0.924038 0.924038 0.924038 0.924038 0.924038 0.924038 0.924038 0.924038 0.924038 0.924038 0.924038 0.924038 0.949885 0.951094 0.958949 0.958781 0.958276 0.956177 0.955262 0.954141 0.953689 0.953963 0.954571 0.955406 0.967151 0.968170 0.969703 0.970507 0.971216 0.971872 0.971728 0.972520 0.971773 0.971243 0.970746 0.966814 0.967430 0.968019 0.968194 0.969240 0.969127 0.971341 0.971457 0.970887 0.970056 0.969367 0.968702 0.968311 0.968041 0.968530 0.968797 0.970059 0.973196 0.972620 0.972303 0.972462 0.972566 0.972737 0.973134 0.973907 0.970037 0.968520 0.966860 0.964689 0.968865 0.966026 0.965802 0.967164 0.967550 0.967951 0.966974 0.963096 0.957913 0.957245 0.954820 0.945556 0.944274 0.944952 0.947178 0.947546 0.946126 0.938595 0.939171 0.932186 0.934141 0.937377 0.931440 0.931244 0.932395 0.931804 0.930612 0.930033 0.927179 0.924562 0.922994 0.922779 0.925765 0.925906 0.927055 0.926879 0.921224 0.913304 0.901011 0.899031 0.894604 0.897629 0.886377 0.886188 0.886099 0.882277 0.885630 0.885187 0.886069 0.882955 0.866460 0.849196 0.842742 0.846898 0.851814 0.847548 0.846175 0.839231 0.850376 0.830272 0.842748 0.853406 0.850348 0.850349 0.849719 0.847929 0.842550 0.843430 0.845248 0.846746 0.844979 0.844246 0.843717 0.826842 0.828700 0.765005 0.747575 0.739438 0.745175 0.751861 0.754282 0.753128 0.758794 0.763609 0.752497 0.734454 0.726815 0.719997 0.724291 0.723094 0.725322 0.709631 0.677417 0.672634 0.643203 0.661215 0.672197 0.633965 0.658584 0.669969 0.668660 0.666814 0.660697 0.658201 0.653716 0.656422 0.663455 0.675935 0.693295 0.716194 0.712699 0.703354 0.700638 0.681533 0.675091 0.668501 0.681624 0.661848 0.658654 0.676584 0.676288 0.661549 0.640230 0.629874 0.622287 0.615046 0.624265 0.612902 0.607775 0.597357 0.572896 0.567004 0.600673 0.616763 0.637974 0.607440 0.593442 0.580445 0.559061 0.572137 0.518055 0.517871 0.539715 0.547595 0.525689 0.518284 0.530443 0.536606 0.537741 0.527424 0.513538 0.502794 0.519161 0.554620 0.544215 0.526068 0.528458 0.526806 0.517509 0.427355 0.420942 0.393442 0.359159 0.305171 0.283268 0.276082 0.259689 0.248701 0.213367 0.209317 0.220515 0.226842 0.238056 0.240423 0.222738 0.231935 0.227590 0.213884 0.151295 0.141073 0.133339 0.122911 0.121572 0.100394 0.125637 0.191353 0.193471 0.193471 0.193471 0.193471 0.193471 0.193471 0.202615 0.202615 0.202615 0.202615 0.202615 0.202615 0.202615 0.202615 0.202615 0.211512 0.211512 0.211512 0.211512 0.211512 0.211512 0.211512 0.211512 0.211512 0.211512 0.211512 0.211512 0.211512 0.211512
0.000000 0.000000 0.000000 0.000000 0.000000 0.000000 0.000000 0.000000 0.000000 0.000000 0.000000 0.000000 0.000000 0.000000 0.000000 0.000000 0.000000 0.000000 0.000000 0.000000 0.000000 0.000000 0.000000 0.000000 0.000000 7.000000 4.000000 0.000000 0.000000 0.000000 0.000000 0.000000 0.000000 0.000000 0.000000 0.000000 0.000000 0.000000 0.000000 0.000000 0.000000 0.000000 0.000000 0.000000 0.000000 0.000000 0.000000 0.000000 0.000000 0.000000 0.000000 0.000000 0.180334 0.180334 0.180334 0.199007 0.199007 0.199007 0.199007 0.199007 0.199007 0.199007 0.199007 0.199007 0.199007 0.199007 0.199007 0.199007 0.199007 0.199007 0.199007 0.199007 0.199007 0.199007 0.199007 0.199007 0.199007 0.199007 0.199007 0.199007 0.199007 0.199007 0.199007 0.199007 0.199007 0.199007 0.199007 0.199007 0.199007 0.199007 0.199007 0.199007 0.199007 0.199007 0.199007 0.199007 0.225018 0.225018 0.225018 0.225018 0.225018 0.225018 0.225018 0.225018 0.225018 0.225018 0.225018 0.225018 0.225018 0.225018 0.225018 0.225018 0.225018 0.225018 0.225018 0.225018 0.225018 0.225018 0.225018 0.225018 0.225018 0.225018 0.225018 0.225018 0.225018 0.244339 0.244339 0.244339 0.244339 0.244339 0.244339 0.244339 0.244339 0.244339 0.244339 0.244339 0.244339 0.244339 0.244339 0.244339 0.244339 0.244339 0.244339 0.244339 0.244339 0.244339 0.244339 0.244339 0.251976 0.251976 0.251976 0.251976 0.251976 0.251976 0.251976 0.251976 0.251976 0.251976 0.251976 0.251976 0.251976 0.251976 0.251976 0.251976 0.251976 0.251976 0.251976 0.251976 0.264906 0.264906 0.264906 0.264906 0.264906 0.264906 0.264906 0.264906 0.264906 0.264906 0.264906 0.264906 0.264906 0.264906 0.264906 0.264906 0.264906 0.264906 0.264906 0.264906 0.264906 0.264906 0.264906 0.264906 0.264906 0.264906 0.264906 0.264906 0.264906 0.264906 0.264906 0.264906 0.264906 0.264906 0.264906 0.264906 0.264906 0.264906 0.264906 0.264906 0.264906 0.264906 0.264906 0.264906 0.264906 0.264906 0.264906 0.264906 0.264906 0.264906 0.264906 0.264906 0.264906 0.264906 0.264906 0.264906 0.264906 0.264906 0.264906 0.264906 0.264906 0.264906 0.256074 0.256074 0.256074 0.256074 0.256074 0.256074 0.256074 0.256074 0.256074 0.256074 0.256074 0.256074 0.256074 0.256074 0.269680 0.269680 0.269680 0.269680 0.269680 0.269680 0.269680 0.269680 0.269680 0.269680 0.269680 0.269680 0.264906 0.264906 0.264906 0.264906 0.264906 0.264906 0.264906 0.264906 0.264906 0.264906 0.264906 0.264906 0.269680 0.269680 0.269680 0.269680 0.269680 0.269680 0.269680 0.269680 0.269680 0.269680 0.269680 0.264906 0.264906 0.264906 0.264906 0.264906 0.264906 0.264906 0.264906 0.264906 0.264906 0.264906 0.256074 0.256074 0.256074 0.256074 0.256074 0.256074 0.256074 0.256074 0.256074 0.256074 0.256074 0.264906 0.264906 0.264906 0.264906 0.264906 0.264906 0.264906 0.264906 0.264906 0.264906 0.260378 0.260378 0.260378 0.260378 0.260378 0.260378 0.260378 0.260378 0.260378 0.260378 0.256074 0.256074 0.256074 0.256074 0.256074 0.256074 0.256074 0.256074 0.256074 0.256074 0.260378 0.260378 0.260378 0.260378 0.260378 0.260378 0.260378 0.260378 0.260378 0.256074 0.256074 0.256074 0.256074 0.256074 0.256074 0.256074 0.256074 0.256074 0.251976 0.251976 0.251976 0.251976 0.251976 0.251976 0.251976 0.251976 0.251976 0.251976 0.251976 0.251976 0.251976 0.251976
