# Output from CTFFind version 4.1.9, run on 2019-11-03 20:09:47
# Input file: stack11_bm3d_averaged_1_7.0_0_2500_half.mrc ; Number of micrographs: 1
# Pixel size: 3.000 Angstroms ; acceleration voltage: 300.0 keV ; spherical aberration: 0.00 mm ; amplitude contrast: 0.07
# Box size: 512 pixels ; min. res.: 30.0 Angstroms ; max. res.: 5.0 Angstroms ; min. def.: 5000.0 um; max. def. 50000.0 um; num. frames averaged: 1
# 6 lines per micrograph: #1 - spatial frequency (1/Angstroms); #2 - 1D rotational average of spectrum (assuming no astigmatism); #3 - 1D rotational average of spectrum; #4 - CTF fit; #5 - cross-correlation between spectrum and CTF fit; #6 - 2sigma of expected cross correlation of noise
0.000000 0.000651 0.001302 0.001953 0.002604 0.003255 0.003906 0.004557 0.005208 0.005859 0.006510 0.007161 0.007812 0.008464 0.009115 0.009766 0.010417 0.011068 0.011719 0.012370 0.013021 0.013672 0.014323 0.014974 0.015625 0.016276 0.016927 0.017578 0.018229 0.018880 0.019531 0.020182 0.020833 0.021484 0.022135 0.022786 0.023438 0.024089 0.024740 0.025391 0.026042 0.026693 0.027344 0.027995 0.028646 0.029297 0.029948 0.030599 0.031250 0.031901 0.032552 0.033203 0.033854 0.034505 0.035156 0.035807 0.036458 0.037109 0.037760 0.038411 0.039062 0.039714 0.040365 0.041016 0.041667 0.042318 0.042969 0.043620 0.044271 0.044922 0.045573 0.046224 0.046875 0.047526 0.048177 0.048828 0.049479 0.050130 0.050781 0.051432 0.052083 0.052734 0.053385 0.054036 0.054688 0.055339 0.055990 0.056641 0.057292 0.057943 0.058594 0.059245 0.059896 0.060547 0.061198 0.061849 0.062500 0.063151 0.063802 0.064453 0.065104 0.065755 0.066406 0.067057 0.067708 0.068359 0.069010 0.069661 0.070312 0.070964 0.071615 0.072266 0.072917 0.073568 0.074219 0.074870 0.075521 0.076172 0.076823 0.077474 0.078125 0.078776 0.079427 0.080078 0.080729 0.081380 0.082031 0.082682 0.083333 0.083984 0.084635 0.085286 0.085938 0.086589 0.087240 0.087891 0.088542 0.089193 0.089844 0.090495 0.091146 0.091797 0.092448 0.093099 0.093750 0.094401 0.095052 0.095703 0.096354 0.097005 0.097656 0.098307 0.098958 0.099609 0.100260 0.100911 0.101562 0.102214 0.102865 0.103516 0.104167 0.104818 0.105469 0.106120 0.106771 0.107422 0.108073 0.108724 0.109375 0.110026 0.110677 0.111328 0.111979 0.112630 0.113281 0.113932 0.114583 0.115234 0.115885 0.116536 0.117188 0.117839 0.118490 0.119141 0.119792 0.120443 0.121094 0.121745 0.122396 0.123047 0.123698 0.124349 0.125000 0.125651 0.126302 0.126953 0.127604 0.128255 0.128906 0.129557 0.130208 0.130859 0.131510 0.132161 0.132812 0.133464 0.134115 0.134766 0.135417 0.136068 0.136719 0.137370 0.138021 0.138672 0.139323 0.139974 0.140625 0.141276 0.141927 0.142578 0.143229 0.143880 0.144531 0.145182 0.145833 0.146484 0.147135 0.147786 0.148438 0.149089 0.149740 0.150391 0.151042 0.151693 0.152344 0.152995 0.153646 0.154297 0.154948 0.155599 0.156250 0.156901 0.157552 0.158203 0.158854 0.159505 0.160156 0.160807 0.161458 0.162109 0.162760 0.163411 0.164062 0.164714 0.165365 0.166016 0.166667 0.167318 0.167969 0.168620 0.169271 0.169922 0.170573 0.171224 0.171875 0.172526 0.173177 0.173828 0.174479 0.175130 0.175781 0.176432 0.177083 0.177734 0.178385 0.179036 0.179688 0.180339 0.180990 0.181641 0.182292 0.182943 0.183594 0.184245 0.184896 0.185547 0.186198 0.186849 0.187500 0.188151 0.188802 0.189453 0.190104 0.190755 0.191406 0.192057 0.192708 0.193359 0.194010 0.194661 0.195312 0.195964 0.196615 0.197266 0.197917 0.198568 0.199219 0.199870 0.200521 0.201172 0.201823 0.202474 0.203125 0.203776 0.204427 0.205078 0.205729 0.206380 0.207031 0.207682 0.208333 0.208984 0.209635 0.210286 0.210938 0.211589 0.212240 0.212891 0.213542 0.214193 0.214844 0.215495 0.216146 0.216797 0.217448 0.218099 0.218750 0.219401 0.220052 0.220703 0.221354 0.222005 0.222656 0.223307 0.223958 0.224609 0.225260 0.225911 0.226562 0.227214 0.227865 0.228516 0.229167 0.229818 0.230469 0.231120 0.231771 0.232422 0.233073 0.233724 0.234375 0.235026 0.235677
       0.34500        0.34500        0.34500        0.34500        0.34500        0.34500        0.34500        0.34500        0.34500        0.34500        0.34500        0.34500        0.34500        0.34500        0.34500        0.34500        0.34500        0.34500        0.34500        0.34500        0.34500        0.34500        0.34500        0.34500        0.34500        0.34500        0.34500        0.34500        0.34500        0.34500        0.34500        0.34500        0.34500        0.34500        0.34500        0.34500        0.34500        0.34500        0.34500        0.34500        0.34500        0.34500        0.34500        0.34500        0.34500        0.34500        0.34500        0.34500        0.34500        0.34500        0.34500        0.69902        0.85736        0.53795        0.10525       -0.02911       -0.38554       -0.17999       -0.28834       -0.11621       -0.05523       -0.11293       -0.05343       -0.16629       -0.20558       -0.21360       -0.30692       -0.31837       -0.44364       -0.36192       -0.42580       -0.42079       -0.39342       -0.40629       -0.44620       -0.50705       -0.55839       -0.54924       -0.52333       -0.35616       -0.32549       -0.29068       -0.27066       -0.18584       -0.16965        0.06169        0.14250        0.17594        0.26664        0.38148        0.45776        0.52312        0.60122        0.59827        0.58455        0.70036        0.80333        0.70267        0.74409        0.61919        0.56842        0.48350        0.43285        0.51236        0.39795        0.27211        0.11710        0.11390        0.09432       -0.01293        0.04555        0.05319        0.01238        0.02806        0.03152        0.23695        0.27158        0.29644        0.43554        0.45375        0.41486        0.60039        0.61834        0.63492        0.72378        0.67576        0.64723        0.65610        0.56010        0.46039        0.41897        0.30394        0.27067        0.18516        0.13682        0.05256        0.06665        0.07651        0.10028        0.16064        0.24598        0.29879        0.42289        0.46567        0.48152        0.56413        0.60184        0.63652        0.61517        0.55829        0.46240        0.47346        0.37885        0.27806        0.21256        0.15655        0.17334        0.15392        0.16179        0.19133        0.32389        0.33859        0.40827        0.44719        0.42576        0.48005        0.56332        0.55542        0.50333        0.45750        0.41413        0.37362        0.34262        0.31007        0.26536        0.24727        0.25559        0.25709        0.22671        0.31067        0.36508        0.38488        0.43917        0.45617        0.46768        0.42793        0.41293        0.40217        0.36351        0.33830        0.27508        0.28204        0.26931        0.24761        0.29647        0.29399        0.35270        0.38325        0.43560        0.47678        0.40701        0.42254        0.43275        0.41212        0.35083        0.32948        0.29317        0.32714        0.27643        0.32423        0.31628        0.33386        0.34207        0.36529        0.31393        0.38835        0.41211        0.38121        0.35246        0.36966        0.31944        0.29588        0.30864        0.32028        0.30856        0.32084        0.34561        0.35805        0.34114        0.36449        0.36298        0.42385        0.39079        0.34044        0.34961        0.30037        0.29491        0.32700        0.32046        0.33111        0.34386        0.34377        0.38817        0.33128        0.33026        0.33916        0.34964        0.30522        0.31337        0.28287        0.30352        0.33190        0.30466        0.33242        0.35921        0.37122        0.29976        0.34385        0.30017        0.29331        0.27971        0.24745        0.30819        0.30783        0.34337        0.34032        0.34532        0.32824        0.34999        0.31546        0.34641        0.30646        0.32627        0.29298        0.33742        0.33133        0.37323        0.33181        0.33717        0.33769        0.29359        0.27646        0.31308        0.25080        0.22979        0.34151        0.32390        0.36807        0.34789        0.36381        0.33616        0.33434        0.35200        0.26662        0.26974        0.31970        0.30197        0.31143        0.31491        0.33951        0.32950        0.28902        0.29125        0.34618        0.32242        0.32267        0.29923        0.32216        0.33826        0.39337        0.36355        0.32035        0.28320        0.30358        0.29003        0.30790        0.27906        0.27192        0.31328        0.33007        0.34584        0.35657        0.33226        0.29583        0.30167        0.27162        0.27858        0.25696        0.30667        0.26105        0.24906        0.28971        0.28499        0.26324        0.29422        0.21999        0.21619        0.23891        0.19418        0.27395        0.34922        0.25390        0.24447        0.31904        0.30200        0.30951        0.31441        0.27399        0.25155        0.19466        0.21161        0.20798        0.28241        0.23716        0.28449        0.36420        0.37080        0.25521        0.17825        0.12575       -0.01561       -0.13050       -0.62531
2.808321 2.778515 2.748872 2.719391 2.690072 2.660916 2.631922 2.603091 2.574422 2.545915 2.517570 2.489388 2.461368 2.433510 2.405815 2.378282 2.350912 2.323704 2.296658 2.269774 2.243053 2.216494 2.190097 2.163863 2.137791 2.111882 2.086135 2.060550 2.035127 2.009867 1.984769 1.959834 1.935061 1.910450 1.886001 1.861715 1.837591 1.813630 1.789831 1.766194 1.742719 1.719407 1.696257 1.673270 1.650445 1.627782 1.605281 1.582943 1.560767 1.538754 1.516903 1.735402 2.162103 1.716681 1.194504 1.057303 0.455808 0.853137 0.563064 0.848375 0.818231 0.821431 0.760206 0.758581 0.599114 0.563103 0.503289 0.428675 0.250201 0.365711 0.199428 0.331269 0.219364 0.211372 0.185926 0.041694 0.001751 0.018864 -0.070208 0.133639 0.234022 0.189231 0.180170 0.325162 0.184434 0.524042 0.627907 0.637602 0.654709 0.881238 0.839638 0.948307 0.944856 1.041580 1.011477 1.094130 1.177343 1.049533 1.172324 0.914397 0.934260 0.800265 0.657198 0.813042 0.698636 0.499458 0.334937 0.252685 0.271155 0.149772 0.138269 0.166995 0.109770 0.119772 0.083173 0.249495 0.352092 0.342806 0.479103 0.547353 0.418673 0.597331 0.735025 0.648665 0.722932 0.713186 0.722118 0.648800 0.598504 0.492322 0.368858 0.277802 0.220641 0.092182 0.116818 -0.116976 -0.049359 -0.063522 -0.084695 -0.017997 0.128957 0.071645 0.243100 0.308612 0.337640 0.374511 0.497742 0.467096 0.480773 0.492135 0.306301 0.294534 0.287796 0.086758 0.046073 -0.082295 -0.015598 -0.063004 -0.097178 -0.071055 0.040436 0.095402 0.126988 0.226364 0.223913 0.221195 0.316348 0.342710 0.446972 0.257158 0.232966 0.227669 0.144054 0.145759 0.119739 -0.004542 0.015003 0.076996 -0.010445 0.045280 0.134215 0.135843 0.214197 0.233935 0.259113 0.161923 0.212064 0.128880 0.127531 0.114587 0.027535 -0.026311 -0.001191 -0.020438 -0.052195 0.055678 0.004539 0.106729 0.138592 0.194268 0.164730 0.118493 0.140830 0.160138 0.110420 0.036146 -0.025631 0.028867 0.028738 -0.043834 0.037945 0.020461 0.048155 0.039607 0.055691 0.020554 0.140015 0.119276 0.046922 0.037604 0.042384 0.005530 -0.030800 0.008802 0.004611 -0.004033 0.003348 0.057124 0.053876 0.039011 0.074179 0.061214 0.164124 0.063920 0.041623 0.043466 -0.034717 0.012137 0.047317 0.007774 0.032857 0.056053 0.081117 0.049987 0.041623 0.008074 0.079693 0.026862 0.020899 0.024447 -0.006428 0.032486 0.026489 0.020589 0.069369 0.075612 0.077714 0.041966 0.052804 0.023043 0.015462 -0.023983 -0.024911 0.036854 0.052735 0.080897 0.081607 0.066760 0.070412 0.097403 0.042461 0.090423 0.057219 0.044409 0.018217 0.104085 0.062544 0.124848 0.069741 0.062337 0.098379 0.031562 0.003228 0.086151 -0.039699 -0.028205 0.094713 0.043921 0.160039 0.092793 0.089781 0.066671 0.033341 0.091621 -0.025874 -0.023704 0.049154 0.034888 0.034127 0.019669 0.103346 0.032583 -0.012063 0.050857 0.042633 0.051256 0.061486 -0.008532 0.058793 0.051740 0.118601 0.057729 0.028533 -0.028464 -0.026393 -0.003907 0.009106 -0.056156 -0.020608 0.001920 0.017565 0.035790 0.059485 0.005549 -0.032345 -0.029245 -0.018333 -0.067109 -0.045981 -0.033842 -0.131383 -0.095924 -0.059133 -0.094508 -0.105675 -0.027138 -0.154303 -0.105585 -0.115545 -0.189269 -0.069891 0.061164 -0.074065 -0.136918 0.051342 0.029587 -0.027432 0.073174 -0.023606 -0.004246 -0.084673 -0.038535 0.047041 0.129091 0.054235 0.139181 0.169393 0.435971 0.238685 0.322418 0.160866 -0.021355 -0.699963
0.072396 0.072899 0.074408 0.076923 0.080442 0.084966 0.090493 0.097021 0.104547 0.113071 0.122587 0.133092 0.144580 0.157044 0.170478 0.184872 0.200214 0.216493 0.233692 0.251796 0.270782 0.290629 0.311311 0.332797 0.355055 0.378048 0.401734 0.426067 0.450996 0.476465 0.502413 0.528773 0.555471 0.582428 0.609559 0.636773 0.663970 0.691045 0.717887 0.744375 0.770384 0.795781 0.820427 0.844178 0.866880 0.888377 0.908506 0.927100 0.943988 0.958996 0.971947 0.982662 0.990964 0.996674 0.999619 0.999626 0.996528 0.990168 0.980394 0.967066 0.950058 0.929256 0.904564 0.875906 0.843226 0.806491 0.765695 0.720859 0.672034 0.619303 0.562782 0.502625 0.439021 0.372197 0.302423 0.230006 0.155293 0.078675 0.000580 0.078524 0.158132 0.237704 0.316666 0.394417 0.470328 0.543750 0.614022 0.680468 0.742413 0.799184 0.850123 0.894588 0.931969 0.961694 0.983236 0.996127 0.999966 0.994426 0.979267 0.954342 0.919608 0.875130 0.821090 0.757793 0.685668 0.605273 0.517295 0.422551 0.321980 0.216641 0.107707 0.003548 0.115761 0.227494 0.337250 0.443494 0.544675 0.639247 0.725695 0.802563 0.868477 0.922178 0.962544 0.988622 0.999651 0.995087 0.974623 0.938211 0.886077 0.818727 0.736959 0.641860 0.534802 0.417431 0.291650 0.159592 0.023593 0.113849 0.250113 0.382505 0.508312 0.624858 0.729565 0.820010 0.893994 0.949595 0.985230 0.999705 0.992262 0.962621 0.911004 0.838159 0.745361 0.634410 0.507607 0.367721 0.217936 0.061794 0.096889 0.254108 0.405767 0.547788 0.676226 0.787379 0.877907 0.944939 0.986180 0.999999 0.985505 0.942607 0.872049 0.775423 0.655155 0.514463 0.357292 0.188215 0.012312 0.164971 0.337987 0.501071 0.648721 0.775798 0.877710 0.950598 0.991492 0.998456 0.970695 0.908624 0.813905 0.689426 0.539246 0.368485 0.183168 0.009973 0.203726 0.390670 0.563458 0.715110 0.839306 0.930669 0.985018 0.999581 0.973164 0.906254 0.801058 0.661468 0.492955 0.302371 0.097712 0.112214 0.318154 0.510802 0.681246 0.821376 0.924295 0.984684 0.999112 0.966254 0.887029 0.764627 0.604426 0.413796 0.201792 0.021253 0.244212 0.455707 0.644703 0.801088 0.916242 0.983537 0.998760 0.960415 0.869883 0.731443 0.552114 0.341348 0.110569 0.127422 0.359136 0.571164 0.750960 0.887602 0.972497 0.999954 0.967621 0.876718 0.732068 0.541902 0.317451 0.072308 0.178348 0.418681 0.633207 0.807790 0.930622 0.993050 0.990249 0.921644 0.791066 0.606612 0.380214 0.126909 0.136107 0.390634 0.618727 0.803962 0.932671 0.994982 0.985650 0.904557 0.756856 0.552723 0.306731 0.036872 0.236741 0.493321 0.713028 0.878505 0.976299 0.998030 0.941170 0.809400 0.612462 0.365533 0.088118 0.197445 0.467752 0.700249 0.875155 0.977185 0.996959 0.931951 0.786866 0.573407 0.309432 0.017525 0.276889 0.547725 0.770571 0.924927 0.996145 0.976915 0.868109 0.678882 0.426021 0.132543 0.174337 0.465686 0.713579 0.893817 0.988347 0.987163 0.889466 0.703952 0.448166 0.146933 0.169960 0.470669 0.724510 0.905094 0.993174 0.978777 0.862454 0.655454 0.378763 0.061090 0.264046 0.561803 0.799778 0.951567 0.999803 0.938251 0.772741 0.520763 0.209764 0.125750 0.447987 0.720103 0.910461 0.996394 0.967025 0.824776 0.585359 0.276195 0.066614 0.402431 0.690865 0.896680 0.994168 0.970502 0.827565 0.582010 0.263481 0.088833 0.430939 0.719533 0.917493 0.998777 0.951978 0.782081 0.510149 0.170876 0.191749
1.000000 1.000000 1.000000 1.000000 1.000000 1.000000 1.000000 1.000000 1.000000 1.000000 1.000000 1.000000 1.000000 1.000000 1.000000 1.000000 1.000000 1.000000 1.000000 1.000000 1.000000 1.000000 1.000000 1.000000 1.000000 1.000000 1.000000 1.000000 1.000000 1.000000 1.000000 1.000000 1.000000 1.000000 1.000000 1.000000 1.000000 1.000000 1.000000 1.000000 1.000000 1.000000 1.000000 1.000000 1.000000 1.000000 1.000000 1.000000 1.000000 1.000000 1.000000 1.000000 0.915566 0.915566 0.915566 0.911168 0.911168 0.911168 0.911168 0.911168 0.911168 0.911168 0.911168 0.911168 0.911168 0.911168 0.911168 0.911168 0.911168 0.911168 0.911168 0.911168 0.911168 0.911168 0.911168 0.911168 0.911168 0.911168 0.911168 0.911168 0.911168 0.911168 0.911168 0.911168 0.911168 0.911168 0.911168 0.911168 0.911168 0.911168 0.911168 0.911168 0.911168 0.911168 0.911168 0.911168 0.939635 0.941073 0.949414 0.948952 0.948407 0.946414 0.945154 0.944939 0.944852 0.945204 0.945940 0.946936 0.953160 0.954098 0.958512 0.961229 0.961200 0.962935 0.964898 0.964535 0.956208 0.955966 0.954535 0.953804 0.955913 0.954540 0.953298 0.953768 0.953383 0.955819 0.955376 0.954155 0.952500 0.950892 0.949586 0.949031 0.948797 0.949602 0.949681 0.951257 0.954287 0.954446 0.954179 0.951414 0.951033 0.952238 0.951669 0.953496 0.941313 0.940667 0.939204 0.939201 0.941791 0.941691 0.941591 0.942491 0.942191 0.942112 0.942258 0.935609 0.935342 0.927787 0.924188 0.922703 0.917287 0.913234 0.915883 0.918504 0.919731 0.920187 0.911011 0.908066 0.909007 0.907834 0.909304 0.909232 0.910322 0.910737 0.910659 0.905495 0.895748 0.894110 0.886275 0.888995 0.885709 0.883066 0.880084 0.871226 0.862708 0.874851 0.861909 0.820866 0.824565 0.829032 0.821127 0.817284 0.818196 0.819718 0.824678 0.818633 0.817259 0.811391 0.798288 0.793469 0.785962 0.772240 0.770222 0.761270 0.750873 0.745009 0.768883 0.762478 0.774172 0.778589 0.778208 0.774766 0.765788 0.755068 0.755232 0.750661 0.746505 0.723256 0.715397 0.715546 0.712772 0.700512 0.703702 0.691803 0.691905 0.679263 0.684003 0.689620 0.692809 0.688886 0.682465 0.674012 0.670072 0.683266 0.697346 0.689462 0.685341 0.690934 0.681272 0.676385 0.669054 0.673207 0.665589 0.656949 0.659534 0.693158 0.665229 0.654787 0.662062 0.664937 0.659597 0.660329 0.639956 0.633791 0.611035 0.628326 0.633702 0.650385 0.651257 0.653523 0.664445 0.670221 0.680978 0.685557 0.684295 0.644426 0.648420 0.667096 0.674765 0.663342 0.653194 0.653151 0.646918 0.683422 0.668245 0.625955 0.622043 0.621041 0.580652 0.556420 0.554785 0.557137 0.584228 0.580458 0.562210 0.536049 0.537781 0.539236 0.537711 0.536242 0.521394 0.529111 0.514013 0.490262 0.502232 0.509983 0.508261 0.492344 0.485826 0.499380 0.477696 0.505764 0.481728 0.463150 0.480061 0.478601 0.466280 0.393234 0.403555 0.392739 0.378599 0.334134 0.343673 0.353455 0.335752 0.260772 0.254861 0.255578 0.252141 0.232533 0.209817 0.196508 0.185920 0.163538 0.102697 0.053969 0.055416 0.059212 0.085992 0.045561 0.099398 0.167321 0.165407 0.165407 0.165407 0.165407 0.165407 0.165407 0.165407 0.165407 0.141288 0.141288 0.141288 0.141288 0.141288 0.141288 0.141288 0.141288 0.141288 0.165407 0.165407 0.165407 0.165407 0.165407 0.165407 0.165407 0.165407 0.165407 0.165407 0.165407 0.165407 0.165407 0.165407
0.000000 0.000000 0.000000 0.000000 0.000000 0.000000 0.000000 0.000000 0.000000 0.000000 0.000000 0.000000 0.000000 0.000000 0.000000 0.000000 0.000000 0.000000 0.000000 0.000000 0.000000 0.000000 0.000000 0.000000 0.000000 0.000000 0.000000 0.000000 0.000000 0.000000 0.000000 0.000000 0.000000 0.000000 0.000000 0.000000 0.000000 0.000000 0.000000 0.000000 0.000000 0.000000 0.000000 0.000000 0.000000 0.000000 0.000000 0.000000 0.000000 0.000000 0.000000 0.000000 0.180334 0.180334 0.180334 0.199007 0.199007 0.199007 0.199007 0.199007 0.199007 0.199007 0.199007 0.199007 0.199007 0.199007 0.199007 0.199007 0.199007 0.199007 0.199007 0.199007 0.199007 0.199007 0.199007 0.199007 0.199007 0.199007 0.199007 0.199007 0.199007 0.199007 0.199007 0.199007 0.199007 0.199007 0.199007 0.199007 0.199007 0.199007 0.199007 0.199007 0.199007 0.199007 0.199007 0.199007 0.225018 0.225018 0.225018 0.225018 0.225018 0.225018 0.225018 0.225018 0.225018 0.225018 0.225018 0.225018 0.225018 0.225018 0.225018 0.225018 0.225018 0.225018 0.225018 0.225018 0.225018 0.225018 0.225018 0.225018 0.225018 0.225018 0.225018 0.225018 0.225018 0.244339 0.244339 0.244339 0.244339 0.244339 0.244339 0.244339 0.244339 0.244339 0.244339 0.244339 0.244339 0.244339 0.244339 0.244339 0.244339 0.244339 0.244339 0.244339 0.244339 0.244339 0.244339 0.244339 0.256074 0.256074 0.256074 0.256074 0.256074 0.256074 0.256074 0.256074 0.256074 0.256074 0.256074 0.256074 0.256074 0.256074 0.256074 0.256074 0.256074 0.256074 0.256074 0.256074 0.256074 0.256074 0.256074 0.256074 0.256074 0.256074 0.256074 0.256074 0.256074 0.256074 0.256074 0.256074 0.256074 0.256074 0.256074 0.256074 0.256074 0.264906 0.264906 0.264906 0.264906 0.264906 0.264906 0.264906 0.264906 0.264906 0.264906 0.264906 0.264906 0.264906 0.264906 0.264906 0.264906 0.264906 0.264906 0.264906 0.264906 0.264906 0.264906 0.264906 0.264906 0.264906 0.264906 0.264906 0.264906 0.264906 0.264906 0.264906 0.264906 0.264906 0.264906 0.264906 0.264906 0.264906 0.264906 0.264906 0.264906 0.264906 0.264906 0.264906 0.264906 0.264906 0.264906 0.264906 0.264906 0.264906 0.264906 0.264906 0.264906 0.264906 0.264906 0.264906 0.264906 0.264906 0.264906 0.260378 0.260378 0.260378 0.260378 0.260378 0.260378 0.260378 0.260378 0.260378 0.260378 0.260378 0.260378 0.260378 0.264906 0.264906 0.264906 0.264906 0.264906 0.264906 0.264906 0.264906 0.264906 0.264906 0.264906 0.264906 0.269680 0.269680 0.269680 0.269680 0.269680 0.269680 0.269680 0.269680 0.269680 0.269680 0.269680 0.264906 0.264906 0.264906 0.264906 0.264906 0.264906 0.264906 0.264906 0.264906 0.264906 0.264906 0.256074 0.256074 0.256074 0.256074 0.256074 0.256074 0.256074 0.256074 0.256074 0.256074 0.256074 0.264906 0.264906 0.264906 0.264906 0.264906 0.264906 0.264906 0.264906 0.264906 0.264906 0.260378 0.260378 0.260378 0.260378 0.260378 0.260378 0.260378 0.260378 0.260378 0.260378 0.264906 0.264906 0.264906 0.264906 0.264906 0.264906 0.264906 0.264906 0.264906 0.251976 0.251976 0.251976 0.251976 0.251976 0.251976 0.251976 0.251976 0.251976 0.251976 0.256074 0.256074 0.256074 0.256074 0.256074 0.256074 0.256074 0.256074 0.256074 0.251976 0.251976 0.251976 0.251976 0.251976 0.251976 0.251976 0.251976 0.251976 0.251976 0.251976 0.251976 0.251976 0.251976
