# Output from CTFFind version 4.1.9, run on 2019-11-03 20:04:51
# Input file: stack1_bm3d_averaged_1_5.5_0_750_half.mrc ; Number of micrographs: 1
# Pixel size: 3.000 Angstroms ; acceleration voltage: 300.0 keV ; spherical aberration: 0.00 mm ; amplitude contrast: 0.07
# Box size: 512 pixels ; min. res.: 30.0 Angstroms ; max. res.: 5.0 Angstroms ; min. def.: 5000.0 um; max. def. 50000.0 um; num. frames averaged: 1
# 6 lines per micrograph: #1 - spatial frequency (1/Angstroms); #2 - 1D rotational average of spectrum (assuming no astigmatism); #3 - 1D rotational average of spectrum; #4 - CTF fit; #5 - cross-correlation between spectrum and CTF fit; #6 - 2sigma of expected cross correlation of noise
0.000000 0.000651 0.001302 0.001953 0.002604 0.003255 0.003906 0.004557 0.005208 0.005859 0.006510 0.007161 0.007812 0.008464 0.009115 0.009766 0.010417 0.011068 0.011719 0.012370 0.013021 0.013672 0.014323 0.014974 0.015625 0.016276 0.016927 0.017578 0.018229 0.018880 0.019531 0.020182 0.020833 0.021484 0.022135 0.022786 0.023438 0.024089 0.024740 0.025391 0.026042 0.026693 0.027344 0.027995 0.028646 0.029297 0.029948 0.030599 0.031250 0.031901 0.032552 0.033203 0.033854 0.034505 0.035156 0.035807 0.036458 0.037109 0.037760 0.038411 0.039062 0.039714 0.040365 0.041016 0.041667 0.042318 0.042969 0.043620 0.044271 0.044922 0.045573 0.046224 0.046875 0.047526 0.048177 0.048828 0.049479 0.050130 0.050781 0.051432 0.052083 0.052734 0.053385 0.054036 0.054688 0.055339 0.055990 0.056641 0.057292 0.057943 0.058594 0.059245 0.059896 0.060547 0.061198 0.061849 0.062500 0.063151 0.063802 0.064453 0.065104 0.065755 0.066406 0.067057 0.067708 0.068359 0.069010 0.069661 0.070312 0.070964 0.071615 0.072266 0.072917 0.073568 0.074219 0.074870 0.075521 0.076172 0.076823 0.077474 0.078125 0.078776 0.079427 0.080078 0.080729 0.081380 0.082031 0.082682 0.083333 0.083984 0.084635 0.085286 0.085938 0.086589 0.087240 0.087891 0.088542 0.089193 0.089844 0.090495 0.091146 0.091797 0.092448 0.093099 0.093750 0.094401 0.095052 0.095703 0.096354 0.097005 0.097656 0.098307 0.098958 0.099609 0.100260 0.100911 0.101562 0.102214 0.102865 0.103516 0.104167 0.104818 0.105469 0.106120 0.106771 0.107422 0.108073 0.108724 0.109375 0.110026 0.110677 0.111328 0.111979 0.112630 0.113281 0.113932 0.114583 0.115234 0.115885 0.116536 0.117188 0.117839 0.118490 0.119141 0.119792 0.120443 0.121094 0.121745 0.122396 0.123047 0.123698 0.124349 0.125000 0.125651 0.126302 0.126953 0.127604 0.128255 0.128906 0.129557 0.130208 0.130859 0.131510 0.132161 0.132812 0.133464 0.134115 0.134766 0.135417 0.136068 0.136719 0.137370 0.138021 0.138672 0.139323 0.139974 0.140625 0.141276 0.141927 0.142578 0.143229 0.143880 0.144531 0.145182 0.145833 0.146484 0.147135 0.147786 0.148438 0.149089 0.149740 0.150391 0.151042 0.151693 0.152344 0.152995 0.153646 0.154297 0.154948 0.155599 0.156250 0.156901 0.157552 0.158203 0.158854 0.159505 0.160156 0.160807 0.161458 0.162109 0.162760 0.163411 0.164062 0.164714 0.165365 0.166016 0.166667 0.167318 0.167969 0.168620 0.169271 0.169922 0.170573 0.171224 0.171875 0.172526 0.173177 0.173828 0.174479 0.175130 0.175781 0.176432 0.177083 0.177734 0.178385 0.179036 0.179688 0.180339 0.180990 0.181641 0.182292 0.182943 0.183594 0.184245 0.184896 0.185547 0.186198 0.186849 0.187500 0.188151 0.188802 0.189453 0.190104 0.190755 0.191406 0.192057 0.192708 0.193359 0.194010 0.194661 0.195312 0.195964 0.196615 0.197266 0.197917 0.198568 0.199219 0.199870 0.200521 0.201172 0.201823 0.202474 0.203125 0.203776 0.204427 0.205078 0.205729 0.206380 0.207031 0.207682 0.208333 0.208984 0.209635 0.210286 0.210938 0.211589 0.212240 0.212891 0.213542 0.214193 0.214844 0.215495 0.216146 0.216797 0.217448 0.218099 0.218750 0.219401 0.220052 0.220703 0.221354 0.222005 0.222656 0.223307 0.223958 0.224609 0.225260 0.225911 0.226562 0.227214 0.227865 0.228516 0.229167 0.229818 0.230469 0.231120 0.231771 0.232422 0.233073 0.233724 0.234375 0.235026 0.235677
       0.34860        0.34860        0.34860        0.34860        0.34860        0.34860        0.34860        0.34860        0.34860        0.34860        0.34860        0.34860        0.34860        0.34860        0.34860        0.34860        0.34860        0.34860        0.34860        0.34860        0.34860        0.34860        0.34860        0.34860        0.34860        0.34860        0.34860        0.34860        0.34860        0.34860        0.34860        0.34860        0.34860        0.34860        0.34860        0.34860        0.34860        0.34860        0.34860        0.34860        0.34860        0.34860        0.34860        0.34860        0.34860        0.34860        0.34860        0.34860        0.34860        0.34860        0.34860        0.39150        0.57135        0.26470        0.11194       -0.01413       -0.27308       -0.10370       -0.17710       -0.21475        0.01464       -0.13686       -0.10678       -0.05956       -0.04136       -0.13146       -0.15904       -0.29055       -0.38283       -0.49284       -0.43058       -0.33013       -0.26444       -0.37780       -0.29089       -0.38193       -0.32638       -0.36849       -0.18908       -0.18704       -0.24722       -0.07814       -0.02857       -0.04541        0.08079        0.02806        0.20527        0.22716        0.33659        0.36246        0.43571        0.47103        0.53119        0.59575        0.64812        0.55425        0.51502        0.50599        0.47574        0.56098        0.47316        0.41732        0.40560        0.33383        0.28779        0.30950        0.32892        0.22607        0.19453        0.09999        0.13228        0.13857        0.16723        0.13236        0.20155        0.24908        0.30325        0.29837        0.33916        0.46178        0.41002        0.48273        0.62828        0.61343        0.54621        0.54866        0.58088        0.42271        0.48310        0.37144        0.31320        0.29065        0.25459        0.25383        0.18669        0.17347        0.14325        0.21735        0.25290        0.27921        0.34606        0.31942        0.41114        0.46830        0.46712        0.45257        0.48622        0.54372        0.48915        0.46700        0.41923        0.34537        0.33766        0.27633        0.30336        0.23771        0.22247        0.28307        0.23892        0.26216        0.32460        0.42166        0.41747        0.43880        0.41773        0.49786        0.49446        0.46879        0.44427        0.38675        0.38165        0.40186        0.39756        0.32868        0.28121        0.31615        0.29277        0.29597        0.29581        0.33635        0.36718        0.39015        0.45284        0.48607        0.39502        0.43363        0.42699        0.38493        0.31736        0.36569        0.32133        0.31397        0.33504        0.27715        0.25378        0.31746        0.33606        0.42822        0.42060        0.40255        0.39697        0.40087        0.36666        0.36749        0.31990        0.32107        0.33569        0.30819        0.30487        0.33894        0.35246        0.34557        0.35243        0.39387        0.38902        0.45602        0.40111        0.34257        0.35960        0.35111        0.33378        0.32765        0.33781        0.37960        0.33986        0.35644        0.34787        0.42078        0.37734        0.35533        0.36571        0.37573        0.36518        0.33667        0.33087        0.30813        0.33919        0.33115        0.30908        0.32245        0.35351        0.35484        0.33992        0.33597        0.30407        0.30189        0.28283        0.32052        0.32386        0.35287        0.33116        0.33406        0.37087        0.33264        0.33475        0.32386        0.29149        0.34048        0.31290        0.32097        0.32981        0.32227        0.31749        0.30095        0.34081        0.36756        0.33540        0.32399        0.31150        0.32873        0.29821        0.34824        0.32222        0.27401        0.32764        0.30081        0.34496        0.34104        0.38592        0.32543        0.31679        0.26621        0.33076        0.37142        0.34626        0.31267        0.32299        0.32270        0.32322        0.30065        0.31665        0.30894        0.30878        0.28532        0.29203        0.31314        0.29539        0.29889        0.31235        0.25894        0.31608        0.34695        0.36375        0.34455        0.31199        0.31923        0.27769        0.30520        0.29655        0.31908        0.33669        0.28018        0.27195        0.32264        0.34913        0.33781        0.28112        0.27601        0.32154        0.28825        0.30742        0.34824        0.34739        0.28672        0.25775        0.31016        0.33373        0.28367        0.24129        0.26398        0.26382        0.30740        0.34548        0.29722        0.34501        0.28401        0.26942        0.30440        0.29130        0.21944        0.26366        0.30625        0.25459        0.21604        0.23699        0.29645        0.41602        0.30366        0.24720        0.17603        0.24040        0.25885        0.26160        0.37567        0.21342        0.14333        0.27806        0.32353        0.29137        0.18460        0.03813       -0.59174       -1.08211
2.548828 2.523768 2.498836 2.474030 2.449353 2.424802 2.400379 2.376084 2.351915 2.327874 2.303961 2.280175 2.256516 2.232985 2.209581 2.186304 2.163155 2.140133 2.117239 2.094472 2.071833 2.049320 2.026935 2.004678 1.982548 1.960545 1.938670 1.916922 1.895301 1.873808 1.852442 1.831204 1.810093 1.789110 1.768253 1.747525 1.726923 1.706449 1.686102 1.665883 1.645791 1.625827 1.605989 1.586280 1.566697 1.547242 1.527915 1.508715 1.489642 1.470696 1.451878 1.402278 1.890742 1.429634 0.932321 0.773263 -0.024789 0.616434 0.140929 0.321751 0.647524 0.388840 0.279177 0.508459 0.435345 0.353716 0.225575 0.001748 -0.245722 -0.431143 -0.412273 -0.347739 0.136340 -0.404576 -0.172942 -0.323428 -0.231549 -0.401753 -0.033612 -0.069817 -0.182349 0.068722 0.245671 0.089996 0.347217 0.248056 0.635241 0.508926 0.826322 0.777310 0.888075 1.117395 0.994453 1.267594 1.318099 1.104538 1.058205 1.025819 0.986203 1.011153 0.987066 0.820775 0.709907 0.655438 0.567406 0.502258 0.576535 0.406026 0.328614 0.142679 0.094773 0.152069 0.200170 0.113994 0.161877 0.302260 0.386475 0.398147 0.485743 0.518957 0.664143 0.471698 0.902211 1.001740 0.826213 0.731515 0.870180 0.589961 0.560491 0.536069 0.271073 0.297334 0.114733 0.243397 0.009589 0.029712 -0.066850 -0.050124 0.190835 0.085716 0.208201 0.267893 0.310595 0.440263 0.500435 0.462589 0.434689 0.574516 0.517460 0.404913 0.381724 0.241953 0.205610 0.102533 0.031211 0.045860 -0.108074 0.029347 0.039933 -0.072018 -0.016068 0.198276 0.363840 0.248235 0.346400 0.193328 0.549113 0.375998 0.336161 0.325428 0.188911 0.136919 0.368967 0.054904 0.069176 -0.004045 0.084480 -0.016697 0.087753 -0.010861 0.177945 0.027976 0.255077 0.357904 0.269773 0.199131 0.223054 0.183303 0.074707 0.088958 0.087926 -0.019789 0.008762 0.055564 -0.142781 -0.098035 0.000301 0.101614 0.290584 0.152150 0.182918 0.132194 0.178867 0.088660 0.093554 -0.030481 0.045434 0.026720 -0.030318 0.024106 0.060189 0.085296 0.029714 0.096949 0.118852 0.183983 0.310290 0.044458 0.061607 0.076805 0.011606 0.033353 -0.000380 0.074207 0.126421 -0.001369 0.054438 0.078506 0.148970 0.078158 0.062003 0.102941 0.057384 0.085138 -0.008092 0.029081 -0.032614 0.022505 -0.000308 -0.011413 -0.013518 0.055226 0.025217 0.011740 -0.020196 -0.087580 -0.039969 -0.107628 -0.018173 -0.011596 0.042335 -0.032419 0.000781 0.092617 -0.067630 0.012051 -0.073258 -0.096752 0.004645 -0.081601 -0.020022 -0.016142 -0.035224 -0.050259 -0.086363 0.040387 0.024381 0.004182 -0.038501 -0.026184 -0.063246 -0.043634 0.025457 -0.032007 -0.097206 -0.002971 -0.086297 0.055893 0.006218 0.119162 -0.000068 -0.055530 -0.127900 0.036806 0.121384 -0.039525 -0.018847 -0.015842 0.033453 -0.026481 -0.088631 0.002882 -0.019494 -0.039244 -0.079070 -0.083048 0.002709 -0.054505 -0.003529 -0.141778 -0.131353 0.061913 0.065726 0.111024 0.024690 0.045099 -0.041844 -0.057144 -0.020296 -0.059207 0.025661 0.070138 -0.094861 -0.082047 0.046981 0.067668 0.058503 -0.080873 -0.046101 -0.049892 -0.049262 -0.084512 0.085149 0.006060 -0.068987 -0.127180 -0.058845 0.023193 -0.069177 -0.158099 -0.129639 -0.023591 -0.018158 0.014112 -0.086490 0.065905 0.021555 -0.084887 0.018205 -0.057312 -0.199563 -0.047940 0.049703 -0.089914 -0.087498 -0.071516 0.116500 0.240129 -0.006561 0.050073 -0.275634 0.008866 0.047235 -0.000464 0.298989 -0.031235 0.276181 0.610151 0.609520 0.531500 0.287714 0.081253 -2.033033
0.072396 0.072904 0.074427 0.076964 0.080516 0.085082 0.090659 0.097247 0.104843 0.113444 0.123047 0.133648 0.145241 0.157819 0.171374 0.185898 0.201378 0.217802 0.235154 0.253417 0.272569 0.292587 0.313444 0.335111 0.357553 0.380732 0.404605 0.429126 0.454241 0.479893 0.506020 0.532553 0.559416 0.586529 0.613804 0.641146 0.668456 0.695624 0.722536 0.749070 0.775097 0.800481 0.825081 0.848747 0.871324 0.892652 0.912566 0.930894 0.947463 0.962095 0.974610 0.984828 0.992569 0.997652 0.999901 0.999143 0.995211 0.987946 0.977198 0.962829 0.944712 0.922738 0.896815 0.866871 0.832856 0.794744 0.752537 0.706265 0.655989 0.601805 0.543841 0.482264 0.417279 0.349131 0.278104 0.204525 0.128760 0.051218 0.027652 0.107362 0.187387 0.267166 0.346107 0.423590 0.498969 0.571580 0.640747 0.705783 0.766006 0.820736 0.869313 0.911098 0.945487 0.971919 0.989884 0.998935 0.998697 0.988875 0.969268 0.939773 0.900393 0.851250 0.792583 0.724762 0.648281 0.563769 0.471986 0.373820 0.270284 0.162510 0.051738 0.060692 0.173357 0.284767 0.393382 0.497635 0.595951 0.686779 0.768609 0.840008 0.899643 0.946309 0.978962 0.996739 0.998990 0.985298 0.955500 0.909704 0.848305 0.771987 0.681732 0.578818 0.464801 0.341510 0.211020 0.075624 0.062204 0.199848 0.334598 0.463706 0.584437 0.694134 0.790280 0.870556 0.932912 0.975618 0.997325 0.997115 0.974540 0.929658 0.863057 0.775862 0.669735 0.546857 0.409896 0.261965 0.106554 0.052537 0.211294 0.365577 0.511239 0.644230 0.760722 0.857222 0.930691 0.978644 0.999257 0.991439 0.954904 0.890208 0.798771 0.682866 0.545587 0.390784 0.222968 0.047197 0.131067 0.306128 0.472233 0.623754 0.755403 0.862415 0.940734 0.987192 0.999647 0.977102 0.919791 0.829207 0.708106 0.560440 0.391264 0.206574 0.013124 0.181827 0.370762 0.546209 0.701039 0.828762 0.923822 0.981858 0.999924 0.976670 0.912451 0.809375 0.671271 0.503581 0.313180 0.108107 0.102736 0.309981 0.504192 0.676307 0.818070 0.922449 0.984008 0.999228 0.966732 0.887425 0.764531 0.603494 0.411795 0.198623 0.025535 0.249385 0.461399 0.650402 0.806184 0.920068 0.985424 0.998099 0.956713 0.862829 0.720950 0.538355 0.324779 0.091924 0.147150 0.378751 0.589326 0.766273 0.898716 0.978211 0.999326 0.960058 0.862062 0.710650 0.514564 0.285531 0.037593 0.213712 0.452322 0.662670 0.830725 0.944954 0.997168 0.983155 0.903079 0.761592 0.567633 0.333934 0.076225 0.187770 0.439555 0.661135 0.836342 0.952042 0.999173 0.973524 0.876167 0.713526 0.497023 0.242355 0.031592 0.304112 0.554226 0.762310 0.911674 0.989938 0.990143 0.911436 0.759294 0.545239 0.286054 0.002516 0.282202 0.544435 0.761975 0.916010 0.992796 0.984970 0.892333 0.722047 0.488183 0.210650 0.086439 0.376811 0.634356 0.835484 0.961352 0.999689 0.946093 0.804622 0.587616 0.314718 0.011192 0.294364 0.572699 0.796699 0.944099 0.999760 0.957328 0.820060 0.600725 0.320519 0.007132 0.307944 0.592544 0.817130 0.957911 0.999453 0.936485 0.774673 0.530260 0.228561 0.098567 0.416027 0.689237 0.887927 0.989566 0.982036 0.865190 0.651133 0.363111 0.033109 0.301621 0.602728 0.835178 0.971391 0.994617 0.901142 0.700990 0.417008 0.082405 0.263036 0.577656 0.822935 0.968287 0.994982 0.898706 0.690393 0.395158 0.049408 0.303540 0.618832 0.855811 0.983340 0.984003 0.856663 0.616925 0.295395 0.066057 0.419688 0.718126
1.000000 1.000000 1.000000 1.000000 1.000000 1.000000 1.000000 1.000000 1.000000 1.000000 1.000000 1.000000 1.000000 1.000000 1.000000 1.000000 1.000000 1.000000 1.000000 1.000000 1.000000 1.000000 1.000000 1.000000 1.000000 1.000000 1.000000 1.000000 1.000000 1.000000 1.000000 1.000000 1.000000 1.000000 1.000000 1.000000 1.000000 1.000000 1.000000 1.000000 1.000000 1.000000 1.000000 1.000000 1.000000 1.000000 1.000000 1.000000 1.000000 1.000000 1.000000 1.000000 0.824172 0.824172 0.824172 0.816397 0.816397 0.816397 0.816397 0.816397 0.816397 0.816397 0.816397 0.816397 0.816397 0.816397 0.816397 0.816397 0.816397 0.816397 0.816397 0.816397 0.816397 0.816397 0.816397 0.816397 0.816397 0.816397 0.816397 0.816397 0.816397 0.816397 0.816397 0.816397 0.816397 0.816397 0.816397 0.816397 0.816397 0.816397 0.816397 0.816397 0.816397 0.816397 0.816397 0.816397 0.828225 0.835332 0.836057 0.841682 0.845130 0.843430 0.841390 0.840612 0.840262 0.841264 0.850371 0.875743 0.893176 0.900096 0.913910 0.918261 0.922647 0.924715 0.931603 0.931445 0.963526 0.958414 0.955800 0.956622 0.954409 0.948910 0.948019 0.946525 0.955720 0.949757 0.947435 0.944823 0.943677 0.939161 0.938360 0.938276 0.935319 0.935718 0.935895 0.935841 0.935112 0.933638 0.932797 0.920002 0.919080 0.918607 0.921239 0.895769 0.891476 0.880465 0.880638 0.881967 0.877865 0.876723 0.868939 0.870377 0.871528 0.869691 0.861685 0.857512 0.853129 0.845366 0.842399 0.840486 0.843146 0.840407 0.839283 0.833724 0.821630 0.812782 0.802626 0.794379 0.783037 0.777460 0.781011 0.784651 0.787605 0.783660 0.782255 0.774845 0.769051 0.752206 0.749705 0.750062 0.760995 0.764048 0.764464 0.764655 0.749993 0.735072 0.705881 0.705764 0.706164 0.668727 0.653085 0.654910 0.656680 0.663022 0.677353 0.672604 0.663382 0.637695 0.614765 0.593636 0.606692 0.626468 0.617378 0.621684 0.601308 0.637953 0.639588 0.656238 0.671211 0.677664 0.674877 0.653056 0.616422 0.613082 0.610422 0.605152 0.598410 0.586511 0.588808 0.606528 0.581796 0.576791 0.569066 0.560845 0.563205 0.574870 0.551304 0.554043 0.523160 0.487952 0.461317 0.458208 0.417268 0.388824 0.384251 0.385653 0.362804 0.358609 0.379381 0.397628 0.399833 0.404005 0.398115 0.303519 0.302644 0.296243 0.276203 0.270451 0.295632 0.300085 0.307430 0.289818 0.254216 0.266889 0.230687 0.246079 0.215237 0.189361 0.182856 0.180415 0.200909 0.201900 0.178085 0.165215 0.153220 0.119392 0.151557 0.160178 0.199994 0.186743 0.167031 0.170242 0.135237 0.114131 0.120380 0.088233 0.051183 0.031044 0.018338 0.020891 0.018971 -0.000004 -0.013576 0.018849 0.002337 0.039664 0.012817 -0.009716 -0.030338 -0.020639 -0.036501 -0.050162 -0.043141 -0.076843 -0.117572 -0.148137 -0.156143 -0.133772 -0.118768 -0.141165 -0.141985 -0.150081 -0.177430 -0.168280 -0.128110 -0.117989 -0.123155 -0.097373 -0.075324 -0.093525 -0.203291 -0.153050 -0.115955 -0.120492 -0.124375 -0.165678 -0.192447 -0.195437 -0.180494 -0.133486 -0.113565 -0.091976 -0.098067 -0.097024 -0.087373 -0.148604 -0.191924 -0.196706 -0.188418 -0.171330 -0.134236 -0.106456 -0.088796 -0.076059 -0.096785 -0.096785 -0.096785 -0.096785 -0.087608 -0.087608 -0.087608 -0.087608 -0.087608 -0.087608 -0.087608 -0.087608 -0.087608 -0.125818 -0.125818 -0.125818 -0.125818 -0.125818 -0.125818 -0.125818 -0.125818 -0.125818 -0.125818 -0.125818 -0.125818 -0.125818 -0.125818 -0.125818 -0.125818
0.000000 0.000000 0.000000 0.000000 0.000000 0.000000 0.000000 0.000000 0.000000 0.000000 0.000000 0.000000 0.000000 0.000000 0.000000 0.000000 0.000000 0.000000 0.000000 0.000000 0.000000 0.000000 0.000000 0.000000 0.000000 0.000000 0.000000 0.000000 0.000000 0.000000 0.000000 0.000000 0.000000 0.000000 0.000000 0.000000 0.000000 0.000000 0.000000 0.000000 0.000000 0.000000 0.000000 0.000000 0.000000 0.000000 0.000000 0.000000 0.000000 0.000000 0.000000 0.000000 0.180334 0.180334 0.180334 0.199007 0.199007 0.199007 0.199007 0.199007 0.199007 0.199007 0.199007 0.199007 0.199007 0.199007 0.199007 0.199007 0.199007 0.199007 0.199007 0.199007 0.199007 0.199007 0.199007 0.199007 0.199007 0.199007 0.199007 0.199007 0.199007 0.199007 0.199007 0.199007 0.199007 0.199007 0.199007 0.199007 0.199007 0.199007 0.199007 0.199007 0.199007 0.199007 0.199007 0.199007 0.230940 0.230940 0.230940 0.230940 0.230940 0.230940 0.230940 0.230940 0.230940 0.230940 0.230940 0.230940 0.230940 0.230940 0.230940 0.230940 0.230940 0.230940 0.230940 0.230940 0.230940 0.230940 0.230940 0.230940 0.230940 0.230940 0.230940 0.230940 0.244339 0.244339 0.244339 0.244339 0.244339 0.244339 0.244339 0.244339 0.244339 0.244339 0.244339 0.244339 0.244339 0.244339 0.244339 0.244339 0.244339 0.244339 0.244339 0.244339 0.244339 0.244339 0.244339 0.251976 0.251976 0.251976 0.251976 0.251976 0.251976 0.251976 0.251976 0.251976 0.251976 0.251976 0.251976 0.251976 0.251976 0.251976 0.251976 0.251976 0.251976 0.251976 0.251976 0.264906 0.264906 0.264906 0.264906 0.264906 0.264906 0.264906 0.264906 0.264906 0.264906 0.264906 0.264906 0.264906 0.264906 0.264906 0.264906 0.264906 0.264906 0.264906 0.264906 0.264906 0.264906 0.264906 0.264906 0.264906 0.264906 0.264906 0.264906 0.264906 0.264906 0.264906 0.264906 0.264906 0.264906 0.264906 0.264906 0.264906 0.264906 0.264906 0.264906 0.264906 0.264906 0.264906 0.264906 0.264906 0.264906 0.264906 0.264906 0.264906 0.264906 0.264906 0.264906 0.264906 0.264906 0.264906 0.264906 0.264906 0.264906 0.264906 0.264906 0.264906 0.264906 0.264906 0.264906 0.264906 0.264906 0.264906 0.264906 0.264906 0.264906 0.264906 0.264906 0.264906 0.264906 0.264906 0.260378 0.260378 0.260378 0.260378 0.260378 0.260378 0.260378 0.260378 0.260378 0.260378 0.260378 0.260378 0.260378 0.264906 0.264906 0.264906 0.264906 0.264906 0.264906 0.264906 0.264906 0.264906 0.264906 0.264906 0.264906 0.269680 0.269680 0.269680 0.269680 0.269680 0.269680 0.269680 0.269680 0.269680 0.269680 0.269680 0.264906 0.264906 0.264906 0.264906 0.264906 0.264906 0.264906 0.264906 0.264906 0.264906 0.264906 0.269680 0.269680 0.269680 0.269680 0.269680 0.269680 0.269680 0.269680 0.269680 0.269680 0.251976 0.251976 0.251976 0.251976 0.251976 0.251976 0.251976 0.251976 0.251976 0.251976 0.251976 0.269680 0.269680 0.269680 0.269680 0.269680 0.269680 0.269680 0.269680 0.269680 0.256074 0.256074 0.256074 0.256074 0.256074 0.256074 0.256074 0.256074 0.256074 0.256074 0.260378 0.260378 0.260378 0.260378 0.260378 0.260378 0.260378 0.260378 0.260378 0.256074 0.256074 0.256074 0.256074 0.256074 0.256074 0.256074 0.256074 0.256074 0.251976 0.251976 0.251976 0.251976 0.251976 0.251976 0.251976 0.251976 0.251976 0.251976 0.251976 0.251976 0.251976 0.251976 0.251976 0.251976
