# Output from CTFFind version 4.1.9, run on 2019-11-03 19:33:02
# Input file: stack6_bm3d_averaged_1_4.25_0_750_half.mrc ; Number of micrographs: 1
# Pixel size: 3.000 Angstroms ; acceleration voltage: 300.0 keV ; spherical aberration: 0.00 mm ; amplitude contrast: 0.07
# Box size: 512 pixels ; min. res.: 30.0 Angstroms ; max. res.: 5.0 Angstroms ; min. def.: 5000.0 um; max. def. 50000.0 um; num. frames averaged: 1
# 6 lines per micrograph: #1 - spatial frequency (1/Angstroms); #2 - 1D rotational average of spectrum (assuming no astigmatism); #3 - 1D rotational average of spectrum; #4 - CTF fit; #5 - cross-correlation between spectrum and CTF fit; #6 - 2sigma of expected cross correlation of noise
0.000000 0.000651 0.001302 0.001953 0.002604 0.003255 0.003906 0.004557 0.005208 0.005859 0.006510 0.007161 0.007812 0.008464 0.009115 0.009766 0.010417 0.011068 0.011719 0.012370 0.013021 0.013672 0.014323 0.014974 0.015625 0.016276 0.016927 0.017578 0.018229 0.018880 0.019531 0.020182 0.020833 0.021484 0.022135 0.022786 0.023438 0.024089 0.024740 0.025391 0.026042 0.026693 0.027344 0.027995 0.028646 0.029297 0.029948 0.030599 0.031250 0.031901 0.032552 0.033203 0.033854 0.034505 0.035156 0.035807 0.036458 0.037109 0.037760 0.038411 0.039062 0.039714 0.040365 0.041016 0.041667 0.042318 0.042969 0.043620 0.044271 0.044922 0.045573 0.046224 0.046875 0.047526 0.048177 0.048828 0.049479 0.050130 0.050781 0.051432 0.052083 0.052734 0.053385 0.054036 0.054688 0.055339 0.055990 0.056641 0.057292 0.057943 0.058594 0.059245 0.059896 0.060547 0.061198 0.061849 0.062500 0.063151 0.063802 0.064453 0.065104 0.065755 0.066406 0.067057 0.067708 0.068359 0.069010 0.069661 0.070312 0.070964 0.071615 0.072266 0.072917 0.073568 0.074219 0.074870 0.075521 0.076172 0.076823 0.077474 0.078125 0.078776 0.079427 0.080078 0.080729 0.081380 0.082031 0.082682 0.083333 0.083984 0.084635 0.085286 0.085938 0.086589 0.087240 0.087891 0.088542 0.089193 0.089844 0.090495 0.091146 0.091797 0.092448 0.093099 0.093750 0.094401 0.095052 0.095703 0.096354 0.097005 0.097656 0.098307 0.098958 0.099609 0.100260 0.100911 0.101562 0.102214 0.102865 0.103516 0.104167 0.104818 0.105469 0.106120 0.106771 0.107422 0.108073 0.108724 0.109375 0.110026 0.110677 0.111328 0.111979 0.112630 0.113281 0.113932 0.114583 0.115234 0.115885 0.116536 0.117188 0.117839 0.118490 0.119141 0.119792 0.120443 0.121094 0.121745 0.122396 0.123047 0.123698 0.124349 0.125000 0.125651 0.126302 0.126953 0.127604 0.128255 0.128906 0.129557 0.130208 0.130859 0.131510 0.132161 0.132812 0.133464 0.134115 0.134766 0.135417 0.136068 0.136719 0.137370 0.138021 0.138672 0.139323 0.139974 0.140625 0.141276 0.141927 0.142578 0.143229 0.143880 0.144531 0.145182 0.145833 0.146484 0.147135 0.147786 0.148438 0.149089 0.149740 0.150391 0.151042 0.151693 0.152344 0.152995 0.153646 0.154297 0.154948 0.155599 0.156250 0.156901 0.157552 0.158203 0.158854 0.159505 0.160156 0.160807 0.161458 0.162109 0.162760 0.163411 0.164062 0.164714 0.165365 0.166016 0.166667 0.167318 0.167969 0.168620 0.169271 0.169922 0.170573 0.171224 0.171875 0.172526 0.173177 0.173828 0.174479 0.175130 0.175781 0.176432 0.177083 0.177734 0.178385 0.179036 0.179688 0.180339 0.180990 0.181641 0.182292 0.182943 0.183594 0.184245 0.184896 0.185547 0.186198 0.186849 0.187500 0.188151 0.188802 0.189453 0.190104 0.190755 0.191406 0.192057 0.192708 0.193359 0.194010 0.194661 0.195312 0.195964 0.196615 0.197266 0.197917 0.198568 0.199219 0.199870 0.200521 0.201172 0.201823 0.202474 0.203125 0.203776 0.204427 0.205078 0.205729 0.206380 0.207031 0.207682 0.208333 0.208984 0.209635 0.210286 0.210938 0.211589 0.212240 0.212891 0.213542 0.214193 0.214844 0.215495 0.216146 0.216797 0.217448 0.218099 0.218750 0.219401 0.220052 0.220703 0.221354 0.222005 0.222656 0.223307 0.223958 0.224609 0.225260 0.225911 0.226562 0.227214 0.227865 0.228516 0.229167 0.229818 0.230469 0.231120 0.231771 0.232422 0.233073 0.233724 0.234375 0.235026 0.235677
       0.30202        0.30202        0.30202        0.30202        0.30202        0.30202        0.30202        0.30202        0.30202        0.30202        0.30202        0.30202        0.30202        0.30202        0.30202        0.30202        0.30202        0.30202        0.30202        0.30202        0.30202        0.30202        0.30202        0.30202        0.30202        0.30202        0.30202        0.30202        0.30202        0.30202        0.30202        0.30202        0.30202        0.30202        0.30202        0.30202        0.30202        0.30202        0.30202        0.30202        0.30202        0.30202        0.30202        0.30202        0.30202        0.30202        0.30202        0.30202        0.30202        0.30202        0.30202        0.60732        0.74788        0.36168        0.20963        0.13144       -0.15046        0.11352        0.02480        0.03451        0.09372        0.31924        0.35723        0.28999        0.17210       -0.03303        0.00014        0.04529       -0.15539       -0.16683       -0.09046       -0.11850       -0.26081       -0.16305       -0.29254       -0.29376       -0.30294       -0.37230       -0.44824       -0.41012       -0.32390       -0.28723       -0.38228       -0.28963       -0.35276       -0.28913       -0.21655       -0.16613       -0.12702       -0.04479       -0.01952        0.09723        0.13663        0.21555        0.32925        0.39259        0.36517        0.46941        0.56195        0.57405        0.65684        0.61586        0.66098        0.60590        0.63253        0.63190        0.56821        0.57227        0.57390        0.40031        0.33205        0.35592        0.34490        0.18456        0.13066        0.09044        0.07097        0.07051       -0.03052        0.03125       -0.00657       -0.04928        0.07763        0.15929        0.25943        0.34276        0.33303        0.37116        0.48407        0.51523        0.45082        0.65325        0.52888        0.49481        0.56088        0.51324        0.51670        0.46630        0.36971        0.32410        0.24308        0.20255        0.17177        0.16612        0.13819        0.07920        0.13419        0.15400        0.19536        0.17578        0.24736        0.27845        0.32705        0.45179        0.42222        0.42064        0.46831        0.51185        0.49977        0.46906        0.38165        0.40429        0.35238        0.27919        0.22480        0.23284        0.20454        0.17030        0.15165        0.18451        0.17675        0.23128        0.29678        0.33822        0.39402        0.39358        0.45253        0.46493        0.45028        0.43013        0.39644        0.40306        0.38681        0.34673        0.30560        0.28807        0.23825        0.25695        0.25091        0.20281        0.24929        0.24334        0.25481        0.32106        0.35798        0.38663        0.38941        0.40137        0.40194        0.40239        0.40011        0.29389        0.28690        0.25158        0.26606        0.22532        0.19350        0.26131        0.30879        0.29423        0.27223        0.32560        0.26841        0.35479        0.34796        0.35431        0.36571        0.37468        0.31131        0.30683        0.29221        0.27649        0.26434        0.24984        0.25983        0.28972        0.28702        0.30970        0.35092        0.36924        0.34454        0.33590        0.34887        0.31325        0.29622        0.29239        0.26944        0.27668        0.26197        0.29562        0.30009        0.28240        0.29577        0.30574        0.32042        0.32951        0.32944        0.27828        0.25921        0.28602        0.27448        0.26382        0.25464        0.22626        0.24549        0.25597        0.24631        0.26317        0.27908        0.32014        0.31201        0.29932        0.30333        0.23126        0.21960        0.27064        0.24060        0.20442        0.26091        0.31756        0.25915        0.29576        0.29502        0.29575        0.30905        0.28349        0.26979        0.29041        0.26579        0.28826        0.24323        0.26130        0.24940        0.29103        0.29093        0.31759        0.31584        0.31365        0.21825        0.28208        0.27967        0.22506        0.26730        0.25616        0.29368        0.28196        0.30459        0.29900        0.34936        0.29358        0.25982        0.24141        0.21849        0.23736        0.26070        0.29015        0.28788        0.28936        0.29619        0.27708        0.27381        0.26743        0.24110        0.27978        0.23907        0.22700        0.22330        0.30077        0.29677        0.28461        0.28460        0.21923        0.28631        0.25583        0.20142        0.23029        0.26842        0.27643        0.30326        0.21074        0.19023        0.25148        0.24256        0.26380        0.22473        0.22039        0.20603        0.22934        0.25354        0.22040        0.25807        0.23323        0.25527        0.18898        0.27247        0.30455        0.19244        0.15528        0.14164        0.12889        0.22563        0.14897        0.09525        0.31831        0.19410        0.09834        0.08934        0.11113        0.16581        0.21513       -0.05819       -0.73828       -1.08153
2.842840 2.814751 2.786804 2.759002 2.731343 2.703829 2.676458 2.649230 2.622147 2.595207 2.568411 2.541759 2.515251 2.488886 2.462665 2.436588 2.410655 2.384865 2.359219 2.333717 2.308359 2.283144 2.258074 2.233147 2.208364 2.183724 2.159229 2.134877 2.110669 2.086604 2.062684 2.038907 2.015274 1.991785 1.968439 1.945238 1.922180 1.899266 1.876495 1.853869 1.831386 1.809047 1.786851 1.764800 1.742892 1.721128 1.699508 1.678031 1.656699 1.635510 1.614465 1.944740 2.258428 1.647085 1.572423 1.291373 0.773520 1.160242 1.028982 1.056721 0.920890 1.503262 1.414840 1.413029 1.173134 0.853720 0.702424 0.936317 0.703059 0.394803 0.508579 0.618265 0.365866 0.412629 0.259758 0.193075 0.125883 0.123791 -0.122638 -0.055391 0.062611 0.037536 -0.000858 0.089252 -0.055475 -0.021456 0.130449 0.196762 0.247891 0.313117 0.347744 0.603079 0.534410 0.634971 0.854219 0.933721 0.845947 1.128933 1.133071 1.196290 1.273183 1.166236 1.318214 1.162529 1.127349 1.285111 1.083430 1.029272 1.126008 0.896540 0.624866 0.660596 0.716660 0.433602 0.345735 0.258486 0.161804 0.153925 0.011200 0.117796 0.045851 -0.075079 0.070513 0.194371 0.297750 0.501641 0.503325 0.477673 0.660606 0.780706 0.539147 0.930203 0.771356 0.714694 0.763798 0.635874 0.709517 0.680346 0.428588 0.392209 0.247507 0.185275 0.133873 0.021018 0.062177 -0.092306 -0.009711 -0.011832 0.098930 -0.021497 0.196692 0.177994 0.172345 0.386880 0.460860 0.373884 0.337459 0.535460 0.592267 0.443929 0.362355 0.340019 0.298614 0.195422 0.060577 0.054850 0.019666 0.012540 -0.096429 -0.042718 -0.094005 0.070355 0.030701 0.185339 0.231793 0.254653 0.349559 0.338587 0.462866 0.350907 0.406318 0.372859 0.259727 0.314623 0.166113 0.201109 0.079001 0.122353 0.064678 0.063162 -0.019394 0.095378 0.028943 0.133037 0.230351 0.229624 0.287301 0.284408 0.300493 0.281425 0.294542 0.195764 0.086993 0.105888 0.042259 0.030365 -0.041114 -0.033785 0.068601 0.141109 0.078060 0.086006 0.091406 0.131847 0.190766 0.161029 0.170825 0.224606 0.138167 0.080665 0.078744 0.056806 0.043622 -0.030620 0.012047 0.077911 0.001666 0.086639 0.098481 0.184809 0.203178 0.153536 0.161253 0.174842 0.081199 0.092220 0.096144 0.039899 0.020254 0.072419 0.077484 0.093532 0.061942 0.098020 0.093681 0.139486 0.145186 0.071281 0.030247 -0.008013 0.059555 0.002867 0.044961 -0.030926 -0.059332 0.009260 -0.017280 -0.020647 0.022154 0.039022 0.112299 0.107698 0.039619 0.067464 -0.076458 -0.007250 0.042322 -0.055598 -0.065503 0.057219 0.088944 0.000512 0.064066 0.046052 0.094944 0.099794 0.008677 0.032103 0.120291 -0.031537 0.075703 -0.007530 0.038684 -0.021775 0.106391 0.039745 0.109680 0.110477 0.097593 -0.055813 0.070723 0.034678 -0.027217 0.037305 0.025781 0.051634 0.063154 0.167158 -0.002836 0.186734 0.081887 -0.036473 0.019614 -0.060622 0.009535 0.053006 0.056969 0.076106 0.053657 0.106062 0.078291 0.024645 0.055619 -0.004878 0.082851 0.017848 -0.047867 0.014544 0.098528 0.068040 0.092753 0.107580 -0.032990 0.087464 0.025746 -0.078606 0.027100 0.041149 0.101497 0.093381 -0.035497 -0.048114 0.051772 0.052621 0.006780 0.039048 -0.047244 0.037794 0.034843 0.067627 0.015418 0.101107 0.033007 0.097758 -0.040943 0.170284 0.211219 -0.017823 -0.034107 -0.055983 -0.173701 0.155029 -0.028163 0.014388 0.501446 0.263849 0.145006 0.144268 0.252545 0.217571 0.319632 -0.079967 -1.697485
0.072396 0.072835 0.074152 0.076347 0.079418 0.083367 0.088191 0.093889 0.100460 0.107902 0.116213 0.125389 0.135426 0.146320 0.158066 0.170657 0.184086 0.198343 0.213419 0.229300 0.245975 0.263426 0.281636 0.300586 0.320251 0.340607 0.361625 0.383275 0.405521 0.428325 0.451644 0.475434 0.499644 0.524220 0.549102 0.574228 0.599529 0.624932 0.650359 0.675726 0.700946 0.725923 0.750560 0.774753 0.798391 0.821361 0.843544 0.864816 0.885049 0.904111 0.921867 0.938178 0.952902 0.965896 0.977015 0.986115 0.993048 0.997672 0.999845 0.999426 0.996282 0.990283 0.981307 0.969239 0.953974 0.935417 0.913488 0.888118 0.859255 0.826865 0.790930 0.751454 0.708465 0.662009 0.612162 0.559024 0.502720 0.443408 0.381272 0.316527 0.249419 0.180224 0.109248 0.036831 0.036659 0.110827 0.185248 0.259469 0.333017 0.405394 0.476087 0.544564 0.610284 0.672698 0.731255 0.785406 0.834609 0.878338 0.916086 0.947370 0.971744 0.988799 0.998173 0.999557 0.992702 0.977426 0.953619 0.921250 0.880372 0.831127 0.773747 0.708562 0.635999 0.556581 0.470933 0.379772 0.283913 0.184255 0.081784 0.022442 0.127297 0.231601 0.334131 0.433635 0.528849 0.618510 0.701376 0.776245 0.841973 0.897493 0.941837 0.974152 0.993724 0.999990 0.992558 0.971225 0.935981 0.887029 0.824787 0.749892 0.663206 0.565804 0.458975 0.344208 0.223172 0.097703 0.030224 0.158525 0.285037 0.407554 0.523866 0.631800 0.729262 0.814283 0.885060 0.940001 0.977765 0.997300 0.997878 0.979125 0.941043 0.884026 0.808873 0.716784 0.609355 0.488554 0.356704 0.216437 0.070649 0.077550 0.224903 0.368076 0.503734 0.628616 0.739623 0.833895 0.908894 0.962481 0.992983 0.999255 0.980732 0.937465 0.870144 0.780105 0.669320 0.540366 0.396381 0.240994 0.078249 0.087501 0.251699 0.409713 0.556961 0.689055 0.801935 0.892001 0.956236 0.992327 0.998755 0.974871 0.920951 0.838219 0.728838 0.595877 0.443240 0.275570 0.098116 0.083416 0.263050 0.434722 0.592500 0.730783 0.844514 0.929379 0.981982 0.999999 0.982301 0.929030 0.841638 0.722879 0.576734 0.408320 0.223712 0.029743 0.166230 0.356614 0.533855 0.690766 0.820808 0.918384 0.979105 0.999998 0.979681 0.918468 0.818407 0.683244 0.518315 0.330356 0.127257 0.082263 0.289012 0.483732 0.657513 0.802213 0.910856 0.977989 0.999982 0.975256 0.904410 0.790260 0.637764 0.453839 0.247080 0.027380 0.194532 0.407599 0.600996 0.764685 0.889951 0.969896 0.999846 0.977659 0.903905 0.781912 0.617657 0.419517 0.197872 0.035413 0.267608 0.485800 0.677624 0.831974 0.939671 0.994039 0.991363 0.931173 0.816364 0.653103 0.450554 0.220391 0.023835 0.267473 0.495651 0.694177 0.850454 0.954298 0.998640 0.980056 0.899072 0.760232 0.571898 0.345790 0.096316 0.160335 0.407219 0.627755 0.806850 0.931974 0.994057 0.988212 0.914163 0.776379 0.583864 0.349634 0.089881 0.177121 0.432262 0.656991 0.834665 0.951816 0.999231 0.972721 0.873557 0.708492 0.489378 0.232370 0.043217 0.316328 0.565764 0.771848 0.918000 0.992118 0.987641 0.904201 0.747784 0.530382 0.269146 0.014923 0.298605 0.558369 0.772320 0.922085 0.994437 0.982534 0.886640 0.714257 0.479608 0.202567 0.092999 0.381226 0.636534 0.835887 0.960940 0.999777 0.948132 0.809929 0.597098 0.328625 0.028928 0.274300 0.552649 0.779643 0.933312 0.998379 0.967853 0.843880 0.637706 0.368766 0.062920 0.249957 0.538887 0.774846 0.933736
1.000000 1.000000 1.000000 1.000000 1.000000 1.000000 1.000000 1.000000 1.000000 1.000000 1.000000 1.000000 1.000000 1.000000 1.000000 1.000000 1.000000 1.000000 1.000000 1.000000 1.000000 1.000000 1.000000 1.000000 1.000000 1.000000 1.000000 1.000000 1.000000 1.000000 1.000000 1.000000 1.000000 1.000000 1.000000 1.000000 1.000000 1.000000 1.000000 1.000000 1.000000 1.000000 1.000000 1.000000 1.000000 1.000000 1.000000 1.000000 1.000000 1.000000 1.000000 1.000000 0.815678 0.815678 0.815678 0.815678 0.815678 0.815678 0.815678 0.793819 0.793819 0.793819 0.793819 0.793819 0.793819 0.793819 0.793819 0.793819 0.793819 0.793819 0.793819 0.793819 0.793819 0.793819 0.793819 0.793819 0.793819 0.793819 0.793819 0.793819 0.793819 0.793819 0.793819 0.793819 0.793819 0.793819 0.793819 0.793819 0.793819 0.793819 0.793819 0.793819 0.793819 0.793819 0.793819 0.793819 0.793819 0.793819 0.793819 0.793819 0.793819 0.793819 0.793819 0.940507 0.939678 0.940944 0.941910 0.943907 0.942802 0.941787 0.940978 0.940308 0.940032 0.939543 0.939953 0.940849 0.940859 0.944194 0.945099 0.953656 0.957594 0.957632 0.956656 0.955132 0.968680 0.967603 0.966371 0.966079 0.966953 0.963581 0.964121 0.960924 0.961576 0.964335 0.964914 0.961243 0.960772 0.959658 0.958715 0.957969 0.957495 0.957740 0.957800 0.957273 0.958022 0.958775 0.956951 0.959058 0.955951 0.956549 0.953627 0.953804 0.955231 0.944116 0.944356 0.938631 0.933135 0.931842 0.932650 0.930956 0.931580 0.932490 0.933129 0.933717 0.933903 0.934047 0.933782 0.934145 0.931537 0.922490 0.919763 0.917542 0.918915 0.922374 0.925715 0.925793 0.923999 0.921186 0.914928 0.908039 0.892815 0.884813 0.881336 0.883912 0.883010 0.884040 0.884324 0.880112 0.878224 0.878569 0.877349 0.881582 0.882236 0.879384 0.869821 0.867056 0.862875 0.865154 0.867879 0.868212 0.867027 0.860839 0.852997 0.846441 0.853180 0.855691 0.864758 0.859680 0.858709 0.857390 0.849135 0.843561 0.833633 0.833424 0.834879 0.831000 0.836634 0.833090 0.821712 0.795814 0.815207 0.811639 0.810930 0.816189 0.825974 0.828244 0.822555 0.804391 0.790510 0.778557 0.779023 0.782559 0.779602 0.782809 0.779543 0.766939 0.735896 0.737716 0.715323 0.726104 0.736406 0.729717 0.723944 0.712852 0.712928 0.702250 0.679274 0.686664 0.640652 0.642287 0.635170 0.615051 0.621351 0.612419 0.616352 0.618551 0.602032 0.569139 0.568919 0.568437 0.582518 0.541290 0.529081 0.534004 0.534024 0.535795 0.536638 0.528812 0.518699 0.492197 0.506279 0.508191 0.493169 0.493806 0.510476 0.504634 0.491186 0.474122 0.467177 0.478156 0.505150 0.505704 0.508927 0.514809 0.474705 0.446678 0.472894 0.486004 0.493833 0.483199 0.469585 0.465459 0.480740 0.454892 0.475688 0.473237 0.488100 0.454422 0.404346 0.360600 0.311972 0.331484 0.343636 0.344035 0.338673 0.347877 0.323184 0.299376 0.296615 0.296364 0.325241 0.327974 0.310134 0.316012 0.315660 0.314056 0.314203 0.312129 0.314162 0.320143 0.340407 0.345136 0.284795 0.264939 0.221221 0.213623 0.224472 0.249934 0.267778 0.254098 0.254570 0.130674 0.153056 0.120262 0.136761 0.136761 0.136761 0.136761 0.136761 0.136761 0.136761 0.136761 0.136761 0.157059 0.157059 0.157059 0.157059 0.157059 0.157059 0.157059 0.157059 0.157059 0.157059 0.157059 0.157059 0.157059 0.157059 0.157059 0.157059 0.157059 0.157059 0.157059 0.157059
0.000000 0.000000 0.000000 0.000000 0.000000 0.000000 0.000000 0.000000 0.000000 0.000000 0.000000 0.000000 0.000000 0.000000 0.000000 0.000000 0.000000 0.000000 0.000000 0.000000 0.000000 0.000000 0.000000 0.000000 0.000000 0.000000 0.000000 0.000000 0.000000 0.000000 0.000000 0.000000 0.000000 0.000000 0.000000 0.000000 0.000000 0.000000 0.000000 0.000000 0.000000 0.000000 0.000000 0.000000 0.000000 0.000000 0.000000 0.000000 0.000000 0.000000 0.000000 0.000000 0.173422 0.173422 0.173422 0.173422 0.173422 0.173422 0.173422 0.191565 0.191565 0.191565 0.191565 0.191565 0.191565 0.191565 0.191565 0.191565 0.191565 0.191565 0.191565 0.191565 0.191565 0.191565 0.191565 0.191565 0.191565 0.191565 0.191565 0.191565 0.191565 0.191565 0.191565 0.191565 0.191565 0.191565 0.191565 0.191565 0.191565 0.191565 0.191565 0.191565 0.191565 0.191565 0.191565 0.191565 0.191565 0.191565 0.191565 0.191565 0.191565 0.191565 0.191565 0.222222 0.222222 0.222222 0.222222 0.222222 0.222222 0.222222 0.222222 0.222222 0.222222 0.222222 0.222222 0.222222 0.222222 0.222222 0.222222 0.222222 0.222222 0.222222 0.222222 0.222222 0.222222 0.222222 0.222222 0.222222 0.222222 0.222222 0.222222 0.222222 0.222222 0.234082 0.234082 0.234082 0.234082 0.234082 0.234082 0.234082 0.234082 0.234082 0.234082 0.234082 0.234082 0.234082 0.234082 0.234082 0.234082 0.234082 0.234082 0.234082 0.234082 0.234082 0.234082 0.234082 0.234082 0.234082 0.244339 0.244339 0.244339 0.244339 0.244339 0.244339 0.244339 0.244339 0.244339 0.244339 0.244339 0.244339 0.244339 0.244339 0.244339 0.244339 0.244339 0.244339 0.244339 0.244339 0.244339 0.248069 0.248069 0.248069 0.248069 0.248069 0.248069 0.248069 0.248069 0.248069 0.248069 0.248069 0.248069 0.248069 0.248069 0.248069 0.248069 0.248069 0.248069 0.248069 0.248069 0.248069 0.248069 0.248069 0.248069 0.248069 0.248069 0.248069 0.248069 0.248069 0.248069 0.248069 0.248069 0.248069 0.248069 0.248069 0.248069 0.248069 0.256074 0.256074 0.256074 0.256074 0.256074 0.256074 0.256074 0.256074 0.256074 0.256074 0.256074 0.256074 0.256074 0.256074 0.256074 0.256074 0.264906 0.264906 0.264906 0.264906 0.264906 0.264906 0.264906 0.264906 0.264906 0.264906 0.264906 0.264906 0.264906 0.264906 0.248069 0.248069 0.248069 0.248069 0.248069 0.248069 0.248069 0.248069 0.248069 0.248069 0.248069 0.248069 0.248069 0.248069 0.248069 0.260378 0.260378 0.260378 0.260378 0.260378 0.260378 0.260378 0.260378 0.260378 0.260378 0.260378 0.260378 0.260378 0.256074 0.256074 0.256074 0.256074 0.256074 0.256074 0.256074 0.256074 0.256074 0.256074 0.256074 0.256074 0.256074 0.260378 0.260378 0.260378 0.260378 0.260378 0.260378 0.260378 0.260378 0.260378 0.260378 0.260378 0.260378 0.251976 0.251976 0.251976 0.251976 0.251976 0.251976 0.251976 0.251976 0.251976 0.251976 0.251976 0.251976 0.256074 0.256074 0.256074 0.256074 0.256074 0.256074 0.256074 0.256074 0.256074 0.256074 0.256074 0.251976 0.251976 0.251976 0.251976 0.251976 0.251976 0.251976 0.251976 0.251976 0.251976 0.251976 0.260378 0.260378 0.260378 0.260378 0.260378 0.260378 0.260378 0.260378 0.260378 0.260378 0.244339 0.244339 0.244339 0.244339 0.244339 0.244339 0.244339 0.244339 0.244339 0.244339 0.244339 0.244339 0.244339 0.244339 0.244339 0.244339 0.244339 0.244339 0.244339 0.244339
