# Output from CTFFind version 4.1.9, run on 2019-11-02 17:44:20
# Input file: stack11_bm3d_averaged_1_0.75_0_250_half.mrc ; Number of micrographs: 1
# Pixel size: 3.000 Angstroms ; acceleration voltage: 300.0 keV ; spherical aberration: 0.00 mm ; amplitude contrast: 0.07
# Box size: 512 pixels ; min. res.: 30.0 Angstroms ; max. res.: 5.0 Angstroms ; min. def.: 5000.0 um; max. def. 50000.0 um; num. frames averaged: 1
# 6 lines per micrograph: #1 - spatial frequency (1/Angstroms); #2 - 1D rotational average of spectrum (assuming no astigmatism); #3 - 1D rotational average of spectrum; #4 - CTF fit; #5 - cross-correlation between spectrum and CTF fit; #6 - 2sigma of expected cross correlation of noise
0.000000 0.000651 0.001302 0.001953 0.002604 0.003255 0.003906 0.004557 0.005208 0.005859 0.006510 0.007161 0.007812 0.008464 0.009115 0.009766 0.010417 0.011068 0.011719 0.012370 0.013021 0.013672 0.014323 0.014974 0.015625 0.016276 0.016927 0.017578 0.018229 0.018880 0.019531 0.020182 0.020833 0.021484 0.022135 0.022786 0.023438 0.024089 0.024740 0.025391 0.026042 0.026693 0.027344 0.027995 0.028646 0.029297 0.029948 0.030599 0.031250 0.031901 0.032552 0.033203 0.033854 0.034505 0.035156 0.035807 0.036458 0.037109 0.037760 0.038411 0.039062 0.039714 0.040365 0.041016 0.041667 0.042318 0.042969 0.043620 0.044271 0.044922 0.045573 0.046224 0.046875 0.047526 0.048177 0.048828 0.049479 0.050130 0.050781 0.051432 0.052083 0.052734 0.053385 0.054036 0.054688 0.055339 0.055990 0.056641 0.057292 0.057943 0.058594 0.059245 0.059896 0.060547 0.061198 0.061849 0.062500 0.063151 0.063802 0.064453 0.065104 0.065755 0.066406 0.067057 0.067708 0.068359 0.069010 0.069661 0.070312 0.070964 0.071615 0.072266 0.072917 0.073568 0.074219 0.074870 0.075521 0.076172 0.076823 0.077474 0.078125 0.078776 0.079427 0.080078 0.080729 0.081380 0.082031 0.082682 0.083333 0.083984 0.084635 0.085286 0.085938 0.086589 0.087240 0.087891 0.088542 0.089193 0.089844 0.090495 0.091146 0.091797 0.092448 0.093099 0.093750 0.094401 0.095052 0.095703 0.096354 0.097005 0.097656 0.098307 0.098958 0.099609 0.100260 0.100911 0.101562 0.102214 0.102865 0.103516 0.104167 0.104818 0.105469 0.106120 0.106771 0.107422 0.108073 0.108724 0.109375 0.110026 0.110677 0.111328 0.111979 0.112630 0.113281 0.113932 0.114583 0.115234 0.115885 0.116536 0.117188 0.117839 0.118490 0.119141 0.119792 0.120443 0.121094 0.121745 0.122396 0.123047 0.123698 0.124349 0.125000 0.125651 0.126302 0.126953 0.127604 0.128255 0.128906 0.129557 0.130208 0.130859 0.131510 0.132161 0.132812 0.133464 0.134115 0.134766 0.135417 0.136068 0.136719 0.137370 0.138021 0.138672 0.139323 0.139974 0.140625 0.141276 0.141927 0.142578 0.143229 0.143880 0.144531 0.145182 0.145833 0.146484 0.147135 0.147786 0.148438 0.149089 0.149740 0.150391 0.151042 0.151693 0.152344 0.152995 0.153646 0.154297 0.154948 0.155599 0.156250 0.156901 0.157552 0.158203 0.158854 0.159505 0.160156 0.160807 0.161458 0.162109 0.162760 0.163411 0.164062 0.164714 0.165365 0.166016 0.166667 0.167318 0.167969 0.168620 0.169271 0.169922 0.170573 0.171224 0.171875 0.172526 0.173177 0.173828 0.174479 0.175130 0.175781 0.176432 0.177083 0.177734 0.178385 0.179036 0.179688 0.180339 0.180990 0.181641 0.182292 0.182943 0.183594 0.184245 0.184896 0.185547 0.186198 0.186849 0.187500 0.188151 0.188802 0.189453 0.190104 0.190755 0.191406 0.192057 0.192708 0.193359 0.194010 0.194661 0.195312 0.195964 0.196615 0.197266 0.197917 0.198568 0.199219 0.199870 0.200521 0.201172 0.201823 0.202474 0.203125 0.203776 0.204427 0.205078 0.205729 0.206380 0.207031 0.207682 0.208333 0.208984 0.209635 0.210286 0.210938 0.211589 0.212240 0.212891 0.213542 0.214193 0.214844 0.215495 0.216146 0.216797 0.217448 0.218099 0.218750 0.219401 0.220052 0.220703 0.221354 0.222005 0.222656 0.223307 0.223958 0.224609 0.225260 0.225911 0.226562 0.227214 0.227865 0.228516 0.229167 0.229818 0.230469 0.231120 0.231771 0.232422 0.233073 0.233724 0.234375 0.235026 0.235677
       0.31844        0.31844        0.31844        0.31844        0.31844        0.31844        0.31844        0.31844        0.31844        0.31844        0.31844        0.31844        0.31844        0.31844        0.31844        0.31844        0.31844        0.31844        0.31844        0.31844        0.31844        0.31844        0.31844        0.31844        0.31844        0.31844        0.31844        0.31844        0.31844        0.31844        0.31844        0.31844        0.31844        0.31844        0.31844        0.31844        0.31844        0.31844        0.31844        0.31844        0.31844        0.31844        0.31844        0.31844        0.31844        0.31844        0.31844        0.31844        0.31844        0.31844        0.31844        0.68528        0.87021        0.52390        0.09000       -0.06047       -0.41999       -0.20508       -0.29418       -0.11513       -0.07282       -0.11722       -0.06523       -0.20476       -0.23139       -0.25528       -0.32553       -0.33567       -0.48427       -0.37979       -0.46391       -0.44690       -0.41792       -0.46687       -0.53908       -0.55776       -0.58516       -0.62282       -0.57511       -0.41373       -0.37705       -0.32569       -0.31032       -0.21384       -0.20076        0.01842        0.07655        0.11060        0.22820        0.37306        0.44303        0.51266        0.55957        0.55670        0.56788        0.69890        0.81311        0.73799        0.73368        0.66701        0.58120        0.48389        0.41044        0.49489        0.37867        0.21084        0.07768        0.05340        0.01721       -0.05949       -0.03436       -0.01975       -0.06915       -0.00870       -0.01600        0.21237        0.24990        0.28873        0.42984        0.46150        0.40685        0.54245        0.62991        0.70049        0.76188        0.68861        0.65202        0.69826        0.58709        0.50378        0.42039        0.28794        0.18741        0.15674        0.10432        0.04233        0.01579        0.00131        0.07637        0.13180        0.20805        0.28545        0.39898        0.42292        0.51237        0.60618        0.63306        0.62350        0.63118        0.55799        0.44859        0.45003        0.35382        0.23111        0.17735        0.14826        0.11504        0.12080        0.07084        0.10210        0.23305        0.26475        0.34806        0.35651        0.44937        0.51272        0.53965        0.55244        0.47291        0.43525        0.39325        0.36543        0.30362        0.25237        0.20143        0.18970        0.16368        0.19086        0.18067        0.27333        0.33525        0.37173        0.42887        0.46005        0.48061        0.44292        0.39445        0.41919        0.37115        0.28959        0.26973        0.22415        0.21574        0.19504        0.21819        0.23192        0.32928        0.37432        0.36816        0.46000        0.43995        0.43798        0.43096        0.39765        0.34523        0.32543        0.27552        0.24439        0.23905        0.27537        0.27241        0.30259        0.30828        0.33998        0.32832        0.41042        0.42243        0.37749        0.34643        0.37013        0.28334        0.28397        0.26103        0.28355        0.26269        0.27767        0.28796        0.30983        0.35230        0.36442        0.36253        0.33871        0.35511        0.28463        0.31884        0.26735        0.24534        0.28989        0.28384        0.31094        0.31243        0.33031        0.33313        0.31530        0.31519        0.28566        0.29351        0.26667        0.28001        0.25952        0.30747        0.28555        0.27149        0.30796        0.31490        0.32459        0.28589        0.30416        0.28871        0.25265        0.24537        0.22257        0.28284        0.27644        0.32144        0.31412        0.31850        0.31960        0.31093        0.27600        0.28858        0.32888        0.27155        0.26270        0.29782        0.29320        0.33607        0.33338        0.35338        0.33244        0.30945        0.28055        0.27042        0.25812        0.22955        0.27696        0.30526        0.29493        0.28151        0.29518        0.27590        0.32682        0.31889        0.24804        0.21825        0.28079        0.32996        0.27511        0.31411        0.32616        0.32749        0.30835        0.32200        0.34066        0.30608        0.29682        0.26333        0.28626        0.35998        0.35615        0.26107        0.26520        0.25850        0.29557        0.22293        0.29029        0.22398        0.25000        0.33207        0.32124        0.34194        0.29557        0.24909        0.24217        0.24440        0.23451        0.19849        0.23255        0.26515        0.30938        0.26660        0.30875        0.31080        0.27898        0.27152        0.21163        0.17054        0.19486        0.23425        0.20890        0.21221        0.22943        0.20011        0.24145        0.33977        0.30727        0.32094        0.23540        0.22862        0.22502        0.29168        0.29839        0.13461        0.20996        0.22457        0.11556        0.20260        0.10857        0.15169        0.16786        0.08965       -0.11636       -0.56917
2.609534 2.582219 2.555052 2.528033 2.501163 2.474441 2.447867 2.421442 2.395165 2.369036 2.343056 2.317225 2.291541 2.266007 2.240620 2.215382 2.190292 2.165351 2.140558 2.115913 2.091417 2.067069 2.042870 2.018819 1.994916 1.971162 1.947556 1.924099 1.900790 1.877629 1.854617 1.831753 1.809037 1.786470 1.764052 1.741781 1.719659 1.697686 1.675861 1.654184 1.632655 1.611275 1.590044 1.568960 1.548025 1.527239 1.506601 1.486111 1.465770 1.445577 1.425532 1.646665 2.055991 1.627061 1.139122 0.995439 0.431015 0.816491 0.568029 0.839269 0.782295 0.793258 0.757628 0.714963 0.569963 0.519563 0.491884 0.446104 0.212029 0.384375 0.204488 0.308347 0.242292 0.182545 0.133773 0.010404 0.042678 -0.014958 -0.056174 0.105878 0.208565 0.197479 0.159489 0.328195 0.196064 0.494185 0.582438 0.556043 0.598473 0.878509 0.812536 0.943935 0.889699 0.977122 0.945696 1.080616 1.143746 1.077978 1.123009 0.948854 0.946309 0.782711 0.654837 0.772567 0.708720 0.468740 0.308493 0.252355 0.221235 0.147487 0.090474 0.127821 0.071362 0.143424 0.055641 0.260331 0.377177 0.352567 0.479248 0.577099 0.464359 0.554290 0.700876 0.745332 0.771359 0.736531 0.723141 0.712519 0.628766 0.569754 0.425112 0.286204 0.201424 0.075639 0.125676 -0.049410 -0.028576 -0.081289 -0.043191 -0.000164 0.144324 0.091186 0.294243 0.280813 0.364256 0.459046 0.522651 0.514044 0.516447 0.511822 0.332490 0.308331 0.277818 0.102061 0.042085 -0.016077 -0.028135 -0.044709 -0.093793 -0.108817 -0.007903 0.059976 0.130242 0.147532 0.225766 0.325912 0.311043 0.426560 0.393250 0.281475 0.234922 0.241799 0.193905 0.104717 0.072882 0.012501 0.003868 0.002995 -0.020917 0.062003 0.146475 0.146665 0.233290 0.252348 0.309945 0.249279 0.221952 0.189048 0.211261 0.142498 0.045312 0.034305 -0.008664 -0.010274 -0.034064 0.021534 0.014611 0.171094 0.129895 0.177694 0.239736 0.197378 0.186453 0.199301 0.141147 0.097070 0.058456 0.046972 -0.032698 0.006744 0.026996 0.052622 0.053683 0.083122 0.092635 0.118970 0.144248 0.196414 0.082051 0.100691 0.076019 0.008091 0.009484 0.008223 0.000289 0.021294 0.000673 0.025992 0.068517 0.086394 0.126742 0.053589 0.111182 0.056352 0.011943 0.061111 -0.034821 -0.010789 0.032585 0.001179 0.062270 0.051623 0.053737 0.070913 0.053716 0.042438 0.024123 0.009951 0.015587 0.007587 -0.014555 0.073257 -0.010616 0.017125 0.058399 0.053156 0.047091 0.045118 0.041723 0.019766 -0.011684 -0.039423 -0.010796 0.023801 0.029413 0.074241 0.058434 0.063644 0.082241 0.066271 0.029637 0.068922 0.086957 0.018374 0.020583 0.066494 0.050736 0.098026 0.106201 0.103478 0.117648 0.066064 0.035654 0.034662 -0.001114 0.002918 0.053343 0.076935 0.040935 0.035221 0.030342 0.023800 0.093345 0.047408 -0.049376 -0.049091 0.033596 0.087744 0.004832 0.029081 0.069330 0.079536 0.035486 0.053782 0.079742 0.039393 0.042947 -0.038058 0.024179 0.118196 0.068846 -0.047440 -0.025439 -0.045165 0.042541 -0.111469 0.031154 -0.099286 -0.034690 0.052484 0.040452 0.019354 -0.039351 -0.052642 -0.074706 -0.080175 -0.065318 -0.096997 -0.092615 -0.028344 0.048765 -0.032503 0.052268 0.004243 -0.036401 0.048325 -0.099909 -0.094342 -0.080045 0.006216 -0.034007 -0.044837 0.016157 0.002535 0.016234 0.201612 0.004183 0.174455 0.045760 0.233942 0.250616 0.330777 0.283940 0.099092 0.213391 0.268894 0.044586 0.225837 0.115815 0.132511 0.228585 0.091552 -0.591793
0.072396 0.072899 0.074406 0.076918 0.080434 0.084953 0.090474 0.096995 0.104514 0.113028 0.122534 0.133028 0.144504 0.156956 0.170376 0.184754 0.200081 0.216343 0.233525 0.251610 0.270577 0.290405 0.311066 0.332532 0.354769 0.377741 0.401405 0.425717 0.450624 0.476072 0.502000 0.528339 0.555018 0.581957 0.609072 0.636271 0.663455 0.690519 0.717352 0.743835 0.769841 0.795240 0.819891 0.843651 0.866366 0.887882 0.908035 0.926659 0.943584 0.958634 0.971633 0.982405 0.990770 0.996552 0.999575 0.999668 0.996666 0.990408 0.980745 0.967536 0.950653 0.929985 0.905433 0.876922 0.844394 0.807817 0.767182 0.722511 0.673852 0.621287 0.564933 0.504939 0.441494 0.374824 0.305196 0.232914 0.158325 0.081816 0.003813 0.075217 0.154773 0.234316 0.313275 0.391050 0.467015 0.540524 0.610915 0.677515 0.739649 0.796647 0.847848 0.892613 0.930329 0.960423 0.982368 0.995694 0.999994 0.994941 0.980288 0.955885 0.921683 0.877741 0.824234 0.761460 0.689841 0.609926 0.522397 0.428058 0.327842 0.222801 0.114098 0.003000 0.109137 0.220880 0.330739 0.437184 0.538664 0.633635 0.720584 0.798050 0.864658 0.919140 0.960369 0.987381 0.999402 0.995874 0.976477 0.941143 0.890080 0.823773 0.743000 0.648827 0.542603 0.425955 0.300765 0.169146 0.033418 0.103934 0.240301 0.372997 0.499314 0.616574 0.722194 0.813742 0.889002 0.946034 0.983227 0.999360 0.993640 0.965749 0.915870 0.844706 0.753490 0.643977 0.518426 0.379564 0.230540 0.074863 0.083676 0.241091 0.393295 0.536211 0.665886 0.778596 0.870973 0.940106 0.983649 0.999911 0.987938 0.947566 0.879463 0.785142 0.666952 0.528038 0.372274 0.204174 0.028771 0.148527 0.322092 0.486263 0.635521 0.764695 0.869139 0.944922 0.988989 0.999301 0.974949 0.916228 0.824674 0.703052 0.555304 0.386438 0.202390 0.009823 0.184104 0.371989 0.546475 0.700541 0.827797 0.922764 0.981130 0.999972 0.977925 0.915294 0.814100 0.678053 0.512450 0.323997 0.120568 0.089118 0.295849 0.490319 0.663568 0.807386 0.914732 0.980105 0.999850 0.972397 0.898405 0.780803 0.624716 0.437284 0.227373 0.005174 0.218269 0.431596 0.623717 0.784399 0.904825 0.978120 0.999765 0.967927 0.883635 0.750811 0.576140 0.368784 0.139933 0.097761 0.330882 0.545987 0.730397 0.872964 0.964778 0.999762 0.975122 0.891613 0.753594 0.568864 0.348272 0.105126 0.145572 0.388047 0.606730 0.787275 0.917527 0.988391 0.994500 0.934695 0.812206 0.634564 0.413190 0.162730 0.099880 0.356540 0.589209 0.781215 0.918451 0.990478 0.991374 0.920280 0.781603 0.584819 0.343910 0.076414 0.197795 0.457971 0.684069 0.858298 0.966589 0.999771 0.954429 0.833322 0.645314 0.404809 0.130719 0.154957 0.428898 0.668336 0.852982 0.966798 0.999445 0.947319 0.814011 0.610178 0.352772 0.063732 0.231859 0.507916 0.739644 0.905828 0.990811 0.986066 0.891139 0.713886 0.469924 0.181364 0.125140 0.420792 0.677368 0.869921 0.979288 0.994066 0.911908 0.739962 0.494371 0.198867 0.117447 0.422903 0.686437 0.880786 0.985359 0.988526 0.889020 0.696301 0.429780 0.116993 0.209178 0.513910 0.764165 0.932317 0.999278 0.956794 0.808575 0.570141 0.267331 0.066396 0.393572 0.676939 0.883688 0.989358 0.980837 0.858123 0.634594 0.335711 0.003774 0.343758 0.643501 0.866536 0.985173 0.984065 0.862332 0.633968 0.326387 0.022725 0.369932 0.671441 0.888643 0.993141 0.970607 0.822899 0.568134 0.238645 0.122983
1.000000 1.000000 1.000000 1.000000 1.000000 1.000000 1.000000 1.000000 1.000000 1.000000 1.000000 1.000000 1.000000 1.000000 1.000000 1.000000 1.000000 1.000000 1.000000 1.000000 1.000000 1.000000 1.000000 1.000000 1.000000 1.000000 1.000000 1.000000 1.000000 1.000000 1.000000 1.000000 1.000000 1.000000 1.000000 1.000000 1.000000 1.000000 1.000000 1.000000 1.000000 1.000000 1.000000 1.000000 1.000000 1.000000 1.000000 1.000000 1.000000 1.000000 1.000000 1.000000 0.931875 0.931875 0.931875 0.922235 0.922235 0.922235 0.922235 0.922235 0.922235 0.922235 0.922235 0.922235 0.922235 0.922235 0.922235 0.922235 0.922235 0.922235 0.922235 0.922235 0.922235 0.922235 0.922235 0.922235 0.922235 0.922235 0.922235 0.922235 0.922235 0.922235 0.922235 0.922235 0.922235 0.922235 0.922235 0.922235 0.922235 0.922235 0.922235 0.922235 0.922235 0.922235 0.922235 0.922235 0.947506 0.948771 0.956683 0.956518 0.955997 0.953885 0.952924 0.951801 0.951334 0.951625 0.952264 0.953141 0.964896 0.965931 0.967477 0.968307 0.969031 0.969690 0.969535 0.970269 0.969501 0.968963 0.968470 0.964557 0.965147 0.965719 0.965864 0.966898 0.966786 0.968787 0.968923 0.968340 0.967474 0.966747 0.966042 0.965626 0.965355 0.965854 0.966145 0.967438 0.970597 0.970047 0.969730 0.969888 0.969993 0.970178 0.970615 0.972298 0.968644 0.969266 0.967655 0.968114 0.969677 0.969576 0.969362 0.970716 0.971073 0.971444 0.969198 0.965176 0.959554 0.958395 0.955314 0.946539 0.944585 0.945455 0.947488 0.947765 0.946702 0.939185 0.939797 0.933560 0.934840 0.938123 0.932975 0.932202 0.933314 0.932341 0.930628 0.930059 0.927408 0.923998 0.922104 0.921911 0.924970 0.925771 0.926909 0.926550 0.920972 0.912913 0.898792 0.894677 0.889247 0.892406 0.880297 0.879530 0.879295 0.875374 0.879149 0.881002 0.881987 0.877977 0.857471 0.834941 0.825266 0.829753 0.835512 0.832225 0.830575 0.823632 0.835945 0.818330 0.831368 0.836457 0.834015 0.834302 0.833242 0.830106 0.823744 0.823364 0.825501 0.826637 0.825816 0.826471 0.822393 0.812016 0.815360 0.752509 0.738767 0.734804 0.740386 0.746641 0.749270 0.748238 0.755694 0.760490 0.751994 0.735562 0.728083 0.720356 0.725672 0.729186 0.733540 0.722145 0.700453 0.693086 0.656686 0.673937 0.697055 0.652682 0.677459 0.688656 0.683032 0.681515 0.674432 0.667884 0.662114 0.665336 0.677558 0.695765 0.715359 0.741310 0.737460 0.728562 0.725613 0.708948 0.701989 0.696246 0.704070 0.686382 0.682220 0.701043 0.701175 0.687401 0.669516 0.654315 0.645771 0.644076 0.649195 0.640771 0.638067 0.621718 0.593197 0.585347 0.621507 0.637323 0.655291 0.630143 0.616523 0.605444 0.577736 0.592229 0.540926 0.540651 0.564035 0.571213 0.548050 0.535744 0.545986 0.560917 0.568200 0.558996 0.531661 0.518623 0.532797 0.562753 0.554352 0.531016 0.537957 0.535609 0.529997 0.462577 0.458686 0.428310 0.396941 0.347445 0.323287 0.317901 0.301550 0.296202 0.263537 0.259174 0.271358 0.280702 0.286630 0.286543 0.267461 0.276505 0.271916 0.258611 0.199093 0.189561 0.181740 0.171744 0.171311 0.151996 0.173612 0.231410 0.233162 0.233162 0.233162 0.233162 0.233162 0.233162 0.241565 0.241565 0.241565 0.241565 0.241565 0.241565 0.241565 0.241565 0.241565 0.252132 0.252132 0.252132 0.252132 0.252132 0.252132 0.252132 0.252132 0.252132 0.252132 0.252132 0.252132 0.252132 0.252132
0.000000 0.000000 0.000000 0.000000 0.000000 0.000000 0.000000 0.000000 0.000000 0.000000 0.000000 0.000000 0.000000 0.000000 0.000000 0.000000 0.000000 0.000000 0.000000 0.000000 0.000000 0.000000 0.000000 0.000000 0.000000 0.000000 0.000000 0.000000 0.000000 0.000000 0.000000 0.000000 0.000000 0.000000 0.000000 0.000000 0.000000 0.000000 0.000000 0.000000 0.000000 0.000000 0.000000 0.000000 0.000000 0.000000 0.000000 0.000000 0.000000 0.000000 0.000000 0.000000 0.180334 0.180334 0.180334 0.199007 0.199007 0.199007 0.199007 0.199007 0.199007 0.199007 0.199007 0.199007 0.199007 0.199007 0.199007 0.199007 0.199007 0.199007 0.199007 0.199007 0.199007 0.199007 0.199007 0.199007 0.199007 0.199007 0.199007 0.199007 0.199007 0.199007 0.199007 0.199007 0.199007 0.199007 0.199007 0.199007 0.199007 0.199007 0.199007 0.199007 0.199007 0.199007 0.199007 0.199007 0.225018 0.225018 0.225018 0.225018 0.225018 0.225018 0.225018 0.225018 0.225018 0.225018 0.225018 0.225018 0.225018 0.225018 0.225018 0.225018 0.225018 0.225018 0.225018 0.225018 0.225018 0.225018 0.225018 0.225018 0.225018 0.225018 0.225018 0.225018 0.225018 0.244339 0.244339 0.244339 0.244339 0.244339 0.244339 0.244339 0.244339 0.244339 0.244339 0.244339 0.244339 0.244339 0.244339 0.244339 0.244339 0.244339 0.244339 0.244339 0.244339 0.244339 0.244339 0.244339 0.251976 0.251976 0.251976 0.251976 0.251976 0.251976 0.251976 0.251976 0.251976 0.251976 0.251976 0.251976 0.251976 0.251976 0.251976 0.251976 0.251976 0.251976 0.251976 0.251976 0.264906 0.264906 0.264906 0.264906 0.264906 0.264906 0.264906 0.264906 0.264906 0.264906 0.264906 0.264906 0.264906 0.264906 0.264906 0.264906 0.264906 0.264906 0.264906 0.264906 0.264906 0.264906 0.264906 0.264906 0.264906 0.264906 0.264906 0.264906 0.264906 0.264906 0.264906 0.264906 0.264906 0.264906 0.264906 0.264906 0.264906 0.264906 0.264906 0.264906 0.264906 0.264906 0.264906 0.264906 0.264906 0.264906 0.264906 0.264906 0.264906 0.264906 0.264906 0.264906 0.264906 0.264906 0.264906 0.264906 0.264906 0.264906 0.264906 0.264906 0.264906 0.264906 0.256074 0.256074 0.256074 0.256074 0.256074 0.256074 0.256074 0.256074 0.256074 0.256074 0.256074 0.256074 0.256074 0.256074 0.269680 0.269680 0.269680 0.269680 0.269680 0.269680 0.269680 0.269680 0.269680 0.269680 0.269680 0.269680 0.264906 0.264906 0.264906 0.264906 0.264906 0.264906 0.264906 0.264906 0.264906 0.264906 0.264906 0.264906 0.269680 0.269680 0.269680 0.269680 0.269680 0.269680 0.269680 0.269680 0.269680 0.269680 0.269680 0.264906 0.264906 0.264906 0.264906 0.264906 0.264906 0.264906 0.264906 0.264906 0.264906 0.264906 0.256074 0.256074 0.256074 0.256074 0.256074 0.256074 0.256074 0.256074 0.256074 0.256074 0.256074 0.264906 0.264906 0.264906 0.264906 0.264906 0.264906 0.264906 0.264906 0.264906 0.264906 0.260378 0.260378 0.260378 0.260378 0.260378 0.260378 0.260378 0.260378 0.260378 0.260378 0.256074 0.256074 0.256074 0.256074 0.256074 0.256074 0.256074 0.256074 0.256074 0.256074 0.260378 0.260378 0.260378 0.260378 0.260378 0.260378 0.260378 0.260378 0.260378 0.256074 0.256074 0.256074 0.256074 0.256074 0.256074 0.256074 0.256074 0.256074 0.251976 0.251976 0.251976 0.251976 0.251976 0.251976 0.251976 0.251976 0.251976 0.251976 0.251976 0.251976 0.251976 0.251976
