# Output from CTFFind version 4.1.9, run on 2019-11-03 19:01:34
# Input file: stack11_bm3d_averaged_1_3.25_0_1500_half.mrc ; Number of micrographs: 1
# Pixel size: 3.000 Angstroms ; acceleration voltage: 300.0 keV ; spherical aberration: 0.00 mm ; amplitude contrast: 0.07
# Box size: 512 pixels ; min. res.: 30.0 Angstroms ; max. res.: 5.0 Angstroms ; min. def.: 5000.0 um; max. def. 50000.0 um; num. frames averaged: 1
# 6 lines per micrograph: #1 - spatial frequency (1/Angstroms); #2 - 1D rotational average of spectrum (assuming no astigmatism); #3 - 1D rotational average of spectrum; #4 - CTF fit; #5 - cross-correlation between spectrum and CTF fit; #6 - 2sigma of expected cross correlation of noise
0.000000 0.000651 0.001302 0.001953 0.002604 0.003255 0.003906 0.004557 0.005208 0.005859 0.006510 0.007161 0.007812 0.008464 0.009115 0.009766 0.010417 0.011068 0.011719 0.012370 0.013021 0.013672 0.014323 0.014974 0.015625 0.016276 0.016927 0.017578 0.018229 0.018880 0.019531 0.020182 0.020833 0.021484 0.022135 0.022786 0.023438 0.024089 0.024740 0.025391 0.026042 0.026693 0.027344 0.027995 0.028646 0.029297 0.029948 0.030599 0.031250 0.031901 0.032552 0.033203 0.033854 0.034505 0.035156 0.035807 0.036458 0.037109 0.037760 0.038411 0.039062 0.039714 0.040365 0.041016 0.041667 0.042318 0.042969 0.043620 0.044271 0.044922 0.045573 0.046224 0.046875 0.047526 0.048177 0.048828 0.049479 0.050130 0.050781 0.051432 0.052083 0.052734 0.053385 0.054036 0.054688 0.055339 0.055990 0.056641 0.057292 0.057943 0.058594 0.059245 0.059896 0.060547 0.061198 0.061849 0.062500 0.063151 0.063802 0.064453 0.065104 0.065755 0.066406 0.067057 0.067708 0.068359 0.069010 0.069661 0.070312 0.070964 0.071615 0.072266 0.072917 0.073568 0.074219 0.074870 0.075521 0.076172 0.076823 0.077474 0.078125 0.078776 0.079427 0.080078 0.080729 0.081380 0.082031 0.082682 0.083333 0.083984 0.084635 0.085286 0.085938 0.086589 0.087240 0.087891 0.088542 0.089193 0.089844 0.090495 0.091146 0.091797 0.092448 0.093099 0.093750 0.094401 0.095052 0.095703 0.096354 0.097005 0.097656 0.098307 0.098958 0.099609 0.100260 0.100911 0.101562 0.102214 0.102865 0.103516 0.104167 0.104818 0.105469 0.106120 0.106771 0.107422 0.108073 0.108724 0.109375 0.110026 0.110677 0.111328 0.111979 0.112630 0.113281 0.113932 0.114583 0.115234 0.115885 0.116536 0.117188 0.117839 0.118490 0.119141 0.119792 0.120443 0.121094 0.121745 0.122396 0.123047 0.123698 0.124349 0.125000 0.125651 0.126302 0.126953 0.127604 0.128255 0.128906 0.129557 0.130208 0.130859 0.131510 0.132161 0.132812 0.133464 0.134115 0.134766 0.135417 0.136068 0.136719 0.137370 0.138021 0.138672 0.139323 0.139974 0.140625 0.141276 0.141927 0.142578 0.143229 0.143880 0.144531 0.145182 0.145833 0.146484 0.147135 0.147786 0.148438 0.149089 0.149740 0.150391 0.151042 0.151693 0.152344 0.152995 0.153646 0.154297 0.154948 0.155599 0.156250 0.156901 0.157552 0.158203 0.158854 0.159505 0.160156 0.160807 0.161458 0.162109 0.162760 0.163411 0.164062 0.164714 0.165365 0.166016 0.166667 0.167318 0.167969 0.168620 0.169271 0.169922 0.170573 0.171224 0.171875 0.172526 0.173177 0.173828 0.174479 0.175130 0.175781 0.176432 0.177083 0.177734 0.178385 0.179036 0.179688 0.180339 0.180990 0.181641 0.182292 0.182943 0.183594 0.184245 0.184896 0.185547 0.186198 0.186849 0.187500 0.188151 0.188802 0.189453 0.190104 0.190755 0.191406 0.192057 0.192708 0.193359 0.194010 0.194661 0.195312 0.195964 0.196615 0.197266 0.197917 0.198568 0.199219 0.199870 0.200521 0.201172 0.201823 0.202474 0.203125 0.203776 0.204427 0.205078 0.205729 0.206380 0.207031 0.207682 0.208333 0.208984 0.209635 0.210286 0.210938 0.211589 0.212240 0.212891 0.213542 0.214193 0.214844 0.215495 0.216146 0.216797 0.217448 0.218099 0.218750 0.219401 0.220052 0.220703 0.221354 0.222005 0.222656 0.223307 0.223958 0.224609 0.225260 0.225911 0.226562 0.227214 0.227865 0.228516 0.229167 0.229818 0.230469 0.231120 0.231771 0.232422 0.233073 0.233724 0.234375 0.235026 0.235677
       0.32401        0.32401        0.32401        0.32401        0.32401        0.32401        0.32401        0.32401        0.32401        0.32401        0.32401        0.32401        0.32401        0.32401        0.32401        0.32401        0.32401        0.32401        0.32401        0.32401        0.32401        0.32401        0.32401        0.32401        0.32401        0.32401        0.32401        0.32401        0.32401        0.32401        0.32401        0.32401        0.32401        0.32401        0.32401        0.32401        0.32401        0.32401        0.32401        0.32401        0.32401        0.32401        0.32401        0.32401        0.32401        0.32401        0.32401        0.32401        0.32401        0.32401        0.32401        0.68563        0.86192        0.52642        0.09651       -0.04811       -0.41647       -0.19515       -0.29549       -0.11515       -0.06656       -0.11444       -0.06273       -0.19564       -0.22336       -0.24199       -0.32470       -0.33400       -0.47052       -0.37566       -0.45029       -0.44275       -0.41411       -0.44878       -0.50464       -0.54222       -0.57618       -0.59719       -0.56194       -0.39343       -0.36644       -0.32209       -0.30224       -0.20215       -0.19393        0.03203        0.10084        0.13327        0.23953        0.37391        0.44723        0.51129        0.56734        0.56551        0.56802        0.69124        0.80601        0.72257        0.73362        0.64486        0.56833        0.48298        0.41329        0.50075        0.38547        0.22547        0.08754        0.06673        0.04030       -0.05026       -0.01095        0.01010       -0.04177       -0.00094       -0.01027        0.22683        0.25812        0.28709        0.42127        0.44666        0.40506        0.55869        0.62571        0.67202        0.74457        0.68420        0.65016        0.67960        0.56950        0.47925        0.41628        0.29124        0.21925        0.16135        0.11743        0.04754        0.02432        0.02314        0.07961        0.13333        0.21706        0.27225        0.39650        0.43745        0.49051        0.59234        0.62131        0.63078        0.62132        0.55705        0.44965        0.45962        0.36141        0.23845        0.18884        0.14937        0.13667        0.13573        0.10754        0.13489        0.26500        0.28110        0.36214        0.39006        0.43629        0.50626        0.54310        0.54740        0.47750        0.44373        0.39095        0.34743        0.30913        0.26953        0.21937        0.21171        0.19166        0.21565        0.19728        0.28863        0.34595        0.37700        0.43321        0.45531        0.47616        0.41995        0.38926        0.40734        0.36327        0.28307        0.26244        0.22939        0.23281        0.20511        0.24335        0.24685        0.33096        0.37040        0.38737        0.47194        0.42630        0.43236        0.43159        0.40019        0.34329        0.31853        0.28533        0.27888        0.25306        0.28449        0.28576        0.31159        0.31492        0.33273        0.31947        0.40401        0.41782        0.37999        0.34614        0.36853        0.28889        0.28313        0.26977        0.29612        0.27640        0.28979        0.30314        0.31913        0.34115        0.36444        0.37124        0.36731        0.36191        0.30581        0.32660        0.27954        0.25231        0.30484        0.29917        0.31456        0.31243        0.31948        0.34448        0.32170        0.32083        0.29827        0.30966        0.27997        0.29260        0.26374        0.29248        0.29614        0.28640        0.30777        0.32198        0.32935        0.27228        0.30652        0.27730        0.28482        0.26724        0.22513        0.28248        0.28590        0.34077        0.31542        0.31865        0.31670        0.32221        0.28360        0.31819        0.32755        0.27602        0.26520        0.30754        0.29290        0.34183        0.33018        0.33384        0.33245        0.29177        0.27424        0.29418        0.24566        0.22129        0.29836        0.31444        0.30934        0.29678        0.31211        0.28728        0.33966        0.33368        0.26042        0.23505        0.29013        0.30942        0.28712        0.31376        0.33187        0.33137        0.30757        0.29996        0.33551        0.30883        0.27537        0.25670        0.30865        0.35082        0.38145        0.29195        0.26861        0.26751        0.29940        0.23848        0.28778        0.25985        0.25009        0.32217        0.33161        0.34383        0.31633        0.26446        0.25587        0.26337        0.24949        0.23062        0.23655        0.31179        0.29447        0.21884        0.32557        0.32325        0.25634        0.26179        0.20083        0.19114        0.24334        0.19301        0.22410        0.23968        0.22263        0.19129        0.27092        0.35574        0.33111        0.34156        0.24220        0.19698        0.17843        0.24147        0.24792        0.14165        0.19624        0.24579        0.16670        0.18711        0.14312        0.10941        0.17028        0.08177       -0.10093       -0.60332
2.506003 2.479847 2.453833 2.427960 2.402230 2.376641 2.351193 2.325887 2.300723 2.275701 2.250820 2.226080 2.201483 2.177027 2.152712 2.128540 2.104509 2.080619 2.056872 2.033265 2.009801 1.986478 1.963297 1.940257 1.917359 1.894603 1.871989 1.849516 1.827184 1.804995 1.782946 1.761040 1.739275 1.717652 1.696171 1.674831 1.653632 1.632576 1.611661 1.590888 1.570256 1.549766 1.529418 1.509211 1.489146 1.469222 1.449441 1.429801 1.410302 1.390945 1.371730 1.580745 1.978163 1.563534 1.093546 0.962628 0.398283 0.785773 0.526026 0.797280 0.747232 0.762815 0.715061 0.684504 0.546470 0.504954 0.462081 0.410228 0.211089 0.354573 0.191540 0.297020 0.216338 0.178386 0.143996 0.018472 0.026000 -0.000826 -0.062109 0.109768 0.203081 0.177376 0.151261 0.318579 0.180909 0.478081 0.573916 0.560112 0.588237 0.838207 0.787929 0.897976 0.859873 0.951440 0.918749 0.900351 1.193441 1.045288 1.096224 0.892071 0.893160 0.758340 0.625383 0.753018 0.682040 0.453145 0.306780 0.240481 0.233385 0.141643 0.103822 0.141866 0.093818 0.134847 0.060278 0.253706 0.363032 0.341719 0.456197 0.537641 0.426311 0.551868 0.686204 0.693389 0.753199 0.681730 0.692646 0.661108 0.592353 0.523393 0.394919 0.272903 0.216802 0.082867 0.126591 -0.049401 -0.032947 -0.057748 -0.045546 -0.010503 0.149822 0.071042 0.265288 0.290336 0.338184 0.420080 0.500611 0.486848 0.488070 0.500181 0.320315 0.303843 0.281012 0.097899 0.055108 -0.026965 -0.006471 -0.033719 -0.068001 -0.081102 0.031958 0.071344 0.130262 0.179102 0.228577 0.288690 0.314948 0.399035 0.384241 0.282348 0.237226 0.221512 0.172431 0.126050 0.106354 0.018856 0.019379 0.044028 0.001747 0.074889 0.155316 0.143582 0.244283 0.248346 0.303182 0.186738 0.215479 0.152353 0.203921 0.114530 0.046798 0.011708 0.001553 -0.002524 -0.033356 0.039267 0.025131 0.140298 0.145221 0.171303 0.245693 0.177267 0.170679 0.176373 0.131487 0.069443 0.029109 0.053112 -0.006863 -0.006758 0.018783 0.047268 0.055831 0.052698 0.062972 0.059732 0.153429 0.154938 0.075854 0.082964 0.062743 0.010442 -0.006334 0.013035 0.014871 0.013113 0.012296 0.032509 0.057124 0.078217 0.077534 0.089462 0.126537 0.066247 0.025656 0.056721 -0.025190 -0.000739 0.048756 0.010159 0.056344 0.052832 0.035845 0.088417 0.062261 0.035568 0.051123 0.021445 0.032627 0.020057 -0.001181 0.058158 0.007717 0.030215 0.062156 0.070142 0.035661 0.047498 0.041607 0.036012 0.023419 -0.006754 -0.015166 0.034366 0.058480 0.094013 0.069132 0.077374 0.071081 0.085216 0.037252 0.094231 0.092485 0.015363 0.030573 0.075944 0.065567 0.093713 0.087346 0.132869 0.092949 0.061596 0.017943 0.073142 -0.024356 0.006134 0.076306 0.071284 0.067058 0.041800 0.071966 0.035373 0.117255 0.069762 -0.017800 -0.033549 0.040193 0.075559 0.024362 0.028988 0.086716 0.078707 0.014417 0.046272 0.067715 0.037826 0.017273 -0.033270 0.053303 0.095661 0.083758 -0.003859 -0.026430 -0.028494 0.038872 -0.079451 0.020784 -0.044330 -0.032778 0.027503 0.061871 0.001949 -0.007684 -0.058459 -0.046850 -0.074311 -0.037410 -0.091212 -0.085335 0.024886 0.033339 -0.090346 0.055874 0.007093 -0.054363 0.021606 -0.103693 -0.077863 -0.040623 -0.060732 -0.026335 -0.011705 -0.006411 -0.081365 0.037990 0.194215 0.006947 0.150111 0.036555 0.195655 0.168480 0.259639 0.259881 0.126185 0.190932 0.280548 0.143622 0.203794 0.131257 0.130311 0.236400 0.080583 -0.611901
0.072396 0.072898 0.074404 0.076914 0.080426 0.084941 0.090457 0.096972 0.104484 0.112990 0.122488 0.132972 0.144437 0.156877 0.170285 0.184651 0.199963 0.216211 0.233377 0.251446 0.270397 0.290207 0.310850 0.332298 0.354517 0.377469 0.401115 0.425407 0.450296 0.475725 0.501634 0.527956 0.554618 0.581542 0.608642 0.635827 0.663000 0.690054 0.716880 0.743357 0.769362 0.794761 0.819417 0.843184 0.865912 0.887444 0.907619 0.926269 0.943225 0.958312 0.971355 0.982176 0.990597 0.996441 0.999534 0.999704 0.996785 0.990618 0.981052 0.967947 0.951176 0.930625 0.906198 0.877816 0.845423 0.808984 0.768492 0.723966 0.675454 0.623037 0.566829 0.506980 0.443676 0.377142 0.307642 0.235481 0.161001 0.084589 0.006669 0.072296 0.151804 0.231321 0.310276 0.388072 0.464084 0.537668 0.608163 0.674897 0.737198 0.794394 0.845826 0.890854 0.928865 0.959285 0.981585 0.995292 1.000000 0.995375 0.981169 0.957227 0.923494 0.880025 0.826989 0.764678 0.693507 0.614019 0.526886 0.432908 0.333009 0.228234 0.119739 0.008783 0.103282 0.215031 0.324977 0.431592 0.533332 0.628651 0.716037 0.794027 0.861242 0.916411 0.958398 0.986231 0.999126 0.996513 0.978056 0.943675 0.893559 0.828176 0.748286 0.654935 0.549455 0.433452 0.308791 0.177571 0.042093 0.095168 0.231615 0.364568 0.491322 0.609201 0.715615 0.808126 0.884503 0.942789 0.981353 0.998945 0.994745 0.968401 0.920059 0.850386 0.760576 0.652345 0.527912 0.389973 0.241640 0.086395 0.071995 0.229558 0.382219 0.525903 0.656646 0.770711 0.864701 0.935673 0.981237 0.999651 0.989903 0.951765 0.885838 0.793568 0.677233 0.539915 0.385425 0.218225 0.043301 0.133969 0.307978 0.473066 0.623707 0.754695 0.861345 0.939661 0.986513 0.999773 0.978432 0.922681 0.833943 0.714875 0.569315 0.402175 0.219305 0.027304 0.166712 0.355363 0.531286 0.687427 0.817334 0.915442 0.977327 0.999934 0.981748 0.922913 0.825288 0.692419 0.529451 0.342958 0.140699 0.068680 0.276013 0.472001 0.647640 0.794639 0.905836 0.975568 0.999990 0.977316 0.907978 0.794669 0.642293 0.457784 0.249836 0.028512 0.195226 0.410041 0.604801 0.769169 0.894168 0.972703 0.999995 0.973916 0.895179 0.767395 0.596955 0.392751 0.165769 0.071493 0.305679 0.523332 0.711666 0.859344 0.957183 0.998772 0.980935 0.904015 0.771960 0.592178 0.375183 0.134018 0.116491 0.360627 0.582770 0.768397 0.905066 0.983294 0.997251 0.945263 0.830034 0.658580 0.441872 0.194190 0.067776 0.326024 0.562466 0.760216 0.904809 0.985318 0.995228 0.933037 0.802486 0.612429 0.376303 0.111238 0.163139 0.426135 0.657557 0.839265 0.956656 0.999886 0.964763 0.853234 0.673372 0.438887 0.168153 0.117190 0.393910 0.639084 0.832023 0.956039 0.999981 0.959299 0.836601 0.641598 0.390436 0.104432 0.191669 0.471824 0.710960 0.887259 0.984215 0.992247 0.909742 0.743392 0.507762 0.224116 0.081430 0.380266 0.643950 0.846953 0.969162 0.997978 0.929702 0.770099 0.534056 0.244278 0.070789 0.379706 0.651163 0.857173 0.976031 0.994673 0.910242 0.730600 0.473732 0.166068 0.160157 0.470226 0.730635 0.912747 0.996031 0.970475 0.837920 0.612110 0.317396 0.013767 0.344329 0.636760 0.857330 0.980074 0.989960 0.884856 0.676047 0.387190 0.051749 0.290783 0.599495 0.836958 0.973835 0.992617 0.890005 0.677604 0.380774 0.035756 0.314674 0.626458 0.859807 0.984375 0.983321 0.855745 0.617111 0.297567 0.061748
1.000000 1.000000 1.000000 1.000000 1.000000 1.000000 1.000000 1.000000 1.000000 1.000000 1.000000 1.000000 1.000000 1.000000 1.000000 1.000000 1.000000 1.000000 1.000000 1.000000 1.000000 1.000000 1.000000 1.000000 1.000000 1.000000 1.000000 1.000000 1.000000 1.000000 1.000000 1.000000 1.000000 1.000000 1.000000 1.000000 1.000000 1.000000 1.000000 1.000000 1.000000 1.000000 1.000000 1.000000 1.000000 1.000000 1.000000 1.000000 1.000000 1.000000 1.000000 1.000000 0.924616 0.924616 0.924616 0.915156 0.915156 0.915156 0.915156 0.915156 0.915156 0.915156 0.915156 0.915156 0.915156 0.915156 0.915156 0.915156 0.915156 0.915156 0.915156 0.915156 0.915156 0.915156 0.915156 0.915156 0.915156 0.915156 0.915156 0.915156 0.915156 0.915156 0.915156 0.915156 0.915156 0.915156 0.915156 0.915156 0.915156 0.915156 0.915156 0.915156 0.915156 0.915156 0.915156 0.915156 0.915156 0.950517 0.949876 0.950542 0.951425 0.951511 0.951147 0.949035 0.948428 0.948371 0.957480 0.958387 0.961516 0.962845 0.964044 0.965451 0.966828 0.968148 0.967480 0.966341 0.964260 0.962487 0.960696 0.957898 0.956755 0.959369 0.960224 0.960627 0.960766 0.959179 0.959771 0.959525 0.958802 0.958051 0.957239 0.956754 0.956523 0.956910 0.957262 0.958227 0.960723 0.961572 0.961787 0.961753 0.961683 0.962688 0.961097 0.960929 0.956555 0.957480 0.957140 0.954672 0.961255 0.958032 0.958689 0.959216 0.960663 0.960944 0.951314 0.947356 0.936423 0.934958 0.928644 0.919829 0.915596 0.917387 0.920217 0.922147 0.922714 0.917944 0.917991 0.914075 0.910029 0.913482 0.911475 0.910134 0.911825 0.913066 0.913488 0.912307 0.910721 0.904171 0.896927 0.896176 0.899946 0.904544 0.906642 0.907241 0.905158 0.867230 0.870318 0.877143 0.874078 0.865980 0.861782 0.859609 0.864941 0.866748 0.870025 0.869592 0.859874 0.845988 0.832874 0.823346 0.819926 0.820740 0.819454 0.822698 0.815947 0.817263 0.829907 0.818093 0.831428 0.841445 0.832018 0.832855 0.831853 0.827379 0.814913 0.814973 0.817360 0.807953 0.808681 0.808088 0.804805 0.798764 0.803621 0.780062 0.771225 0.764999 0.767174 0.771465 0.763874 0.760869 0.756265 0.750996 0.750632 0.757159 0.768149 0.760226 0.752037 0.727494 0.718801 0.720319 0.724020 0.728314 0.723335 0.702708 0.704754 0.644040 0.663733 0.668776 0.649331 0.648190 0.639011 0.635504 0.635320 0.634011 0.638266 0.644904 0.655073 0.673773 0.668723 0.667815 0.663917 0.646991 0.648159 0.637606 0.643352 0.624118 0.616446 0.642237 0.620076 0.616799 0.609361 0.620874 0.641966 0.614324 0.613521 0.617165 0.609613 0.612089 0.612375 0.602093 0.587157 0.599142 0.620551 0.608908 0.580824 0.581624 0.574865 0.592950 0.563050 0.566013 0.545640 0.515312 0.521192 0.534357 0.533532 0.524145 0.511869 0.505528 0.538078 0.550667 0.584040 0.566100 0.554721 0.507369 0.526951 0.524536 0.526168 0.468638 0.463452 0.447397 0.434692 0.384291 0.376729 0.381677 0.367608 0.346203 0.312182 0.312908 0.316677 0.331140 0.317374 0.303487 0.286975 0.310832 0.311659 0.295976 0.244633 0.228576 0.213997 0.200157 0.202473 0.166872 0.192678 0.261692 0.264225 0.264225 0.264225 0.264225 0.264225 0.264225 0.272475 0.272475 0.272475 0.272475 0.272475 0.272475 0.272475 0.272475 0.272475 0.286845 0.286845 0.286845 0.286845 0.286845 0.286845 0.286845 0.286845 0.286845 0.286845 0.286845 0.286845 0.286845 0.286845
0.000000 0.000000 0.000000 0.000000 0.000000 0.000000 0.000000 0.000000 0.000000 0.000000 0.000000 0.000000 0.000000 0.000000 0.000000 0.000000 0.000000 0.000000 0.000000 0.000000 0.000000 0.000000 0.000000 0.000000 0.000000 7.000000 4.000000 0.000000 0.000000 0.000000 0.000000 0.000000 0.000000 0.000000 0.000000 0.000000 0.000000 0.000000 0.000000 0.000000 0.000000 0.000000 0.000000 0.000000 0.000000 0.000000 0.000000 0.000000 0.000000 0.000000 0.000000 0.000000 0.180334 0.180334 0.180334 0.197066 0.197066 0.197066 0.197066 0.197066 0.197066 0.197066 0.197066 0.197066 0.197066 0.197066 0.197066 0.197066 0.197066 0.197066 0.197066 0.197066 0.197066 0.197066 0.197066 0.197066 0.197066 0.197066 0.197066 0.197066 0.197066 0.197066 0.197066 0.197066 0.197066 0.197066 0.197066 0.197066 0.197066 0.197066 0.197066 0.197066 0.197066 0.197066 0.197066 0.197066 0.197066 0.230940 0.230940 0.230940 0.230940 0.230940 0.230940 0.230940 0.230940 0.230940 0.230940 0.230940 0.230940 0.230940 0.230940 0.230940 0.230940 0.230940 0.230940 0.230940 0.230940 0.230940 0.230940 0.230940 0.230940 0.230940 0.230940 0.230940 0.230940 0.244339 0.244339 0.244339 0.244339 0.244339 0.244339 0.244339 0.244339 0.244339 0.244339 0.244339 0.244339 0.244339 0.244339 0.244339 0.244339 0.244339 0.244339 0.244339 0.244339 0.244339 0.244339 0.244339 0.251976 0.251976 0.251976 0.251976 0.251976 0.251976 0.251976 0.251976 0.251976 0.251976 0.251976 0.251976 0.251976 0.251976 0.251976 0.251976 0.251976 0.251976 0.251976 0.251976 0.264906 0.264906 0.264906 0.264906 0.264906 0.264906 0.264906 0.264906 0.264906 0.264906 0.264906 0.264906 0.264906 0.264906 0.264906 0.264906 0.264906 0.256074 0.256074 0.256074 0.256074 0.256074 0.256074 0.256074 0.256074 0.256074 0.256074 0.256074 0.256074 0.256074 0.256074 0.256074 0.256074 0.256074 0.264906 0.264906 0.264906 0.264906 0.264906 0.264906 0.264906 0.264906 0.264906 0.264906 0.264906 0.264906 0.264906 0.264906 0.264906 0.264906 0.264906 0.264906 0.264906 0.264906 0.264906 0.264906 0.264906 0.264906 0.264906 0.264906 0.264906 0.264906 0.264906 0.264906 0.264906 0.264906 0.264906 0.264906 0.264906 0.264906 0.264906 0.264906 0.264906 0.264906 0.264906 0.264906 0.269680 0.269680 0.269680 0.269680 0.269680 0.269680 0.269680 0.269680 0.269680 0.269680 0.269680 0.269680 0.264906 0.264906 0.264906 0.264906 0.264906 0.264906 0.264906 0.264906 0.264906 0.264906 0.264906 0.264906 0.260378 0.260378 0.260378 0.260378 0.260378 0.260378 0.260378 0.260378 0.260378 0.260378 0.260378 0.260378 0.264906 0.264906 0.264906 0.264906 0.264906 0.264906 0.264906 0.264906 0.264906 0.264906 0.264906 0.269680 0.269680 0.269680 0.269680 0.269680 0.269680 0.269680 0.269680 0.269680 0.269680 0.264906 0.264906 0.264906 0.264906 0.264906 0.264906 0.264906 0.264906 0.264906 0.264906 0.260378 0.260378 0.260378 0.260378 0.260378 0.260378 0.260378 0.260378 0.260378 0.260378 0.256074 0.256074 0.256074 0.256074 0.256074 0.256074 0.256074 0.256074 0.256074 0.256074 0.260378 0.260378 0.260378 0.260378 0.260378 0.260378 0.260378 0.260378 0.260378 0.256074 0.256074 0.256074 0.256074 0.256074 0.256074 0.256074 0.256074 0.256074 0.251976 0.251976 0.251976 0.251976 0.251976 0.251976 0.251976 0.251976 0.251976 0.251976 0.251976 0.251976 0.251976 0.251976
