# Output from CTFFind version 4.1.9, run on 2019-11-03 20:05:10
# Input file: stack6_bm3d_averaged_1_7.5_0_750_half.mrc ; Number of micrographs: 1
# Pixel size: 3.000 Angstroms ; acceleration voltage: 300.0 keV ; spherical aberration: 0.00 mm ; amplitude contrast: 0.07
# Box size: 512 pixels ; min. res.: 30.0 Angstroms ; max. res.: 5.0 Angstroms ; min. def.: 5000.0 um; max. def. 50000.0 um; num. frames averaged: 1
# 6 lines per micrograph: #1 - spatial frequency (1/Angstroms); #2 - 1D rotational average of spectrum (assuming no astigmatism); #3 - 1D rotational average of spectrum; #4 - CTF fit; #5 - cross-correlation between spectrum and CTF fit; #6 - 2sigma of expected cross correlation of noise
0.000000 0.000651 0.001302 0.001953 0.002604 0.003255 0.003906 0.004557 0.005208 0.005859 0.006510 0.007161 0.007812 0.008464 0.009115 0.009766 0.010417 0.011068 0.011719 0.012370 0.013021 0.013672 0.014323 0.014974 0.015625 0.016276 0.016927 0.017578 0.018229 0.018880 0.019531 0.020182 0.020833 0.021484 0.022135 0.022786 0.023438 0.024089 0.024740 0.025391 0.026042 0.026693 0.027344 0.027995 0.028646 0.029297 0.029948 0.030599 0.031250 0.031901 0.032552 0.033203 0.033854 0.034505 0.035156 0.035807 0.036458 0.037109 0.037760 0.038411 0.039062 0.039714 0.040365 0.041016 0.041667 0.042318 0.042969 0.043620 0.044271 0.044922 0.045573 0.046224 0.046875 0.047526 0.048177 0.048828 0.049479 0.050130 0.050781 0.051432 0.052083 0.052734 0.053385 0.054036 0.054688 0.055339 0.055990 0.056641 0.057292 0.057943 0.058594 0.059245 0.059896 0.060547 0.061198 0.061849 0.062500 0.063151 0.063802 0.064453 0.065104 0.065755 0.066406 0.067057 0.067708 0.068359 0.069010 0.069661 0.070312 0.070964 0.071615 0.072266 0.072917 0.073568 0.074219 0.074870 0.075521 0.076172 0.076823 0.077474 0.078125 0.078776 0.079427 0.080078 0.080729 0.081380 0.082031 0.082682 0.083333 0.083984 0.084635 0.085286 0.085938 0.086589 0.087240 0.087891 0.088542 0.089193 0.089844 0.090495 0.091146 0.091797 0.092448 0.093099 0.093750 0.094401 0.095052 0.095703 0.096354 0.097005 0.097656 0.098307 0.098958 0.099609 0.100260 0.100911 0.101562 0.102214 0.102865 0.103516 0.104167 0.104818 0.105469 0.106120 0.106771 0.107422 0.108073 0.108724 0.109375 0.110026 0.110677 0.111328 0.111979 0.112630 0.113281 0.113932 0.114583 0.115234 0.115885 0.116536 0.117188 0.117839 0.118490 0.119141 0.119792 0.120443 0.121094 0.121745 0.122396 0.123047 0.123698 0.124349 0.125000 0.125651 0.126302 0.126953 0.127604 0.128255 0.128906 0.129557 0.130208 0.130859 0.131510 0.132161 0.132812 0.133464 0.134115 0.134766 0.135417 0.136068 0.136719 0.137370 0.138021 0.138672 0.139323 0.139974 0.140625 0.141276 0.141927 0.142578 0.143229 0.143880 0.144531 0.145182 0.145833 0.146484 0.147135 0.147786 0.148438 0.149089 0.149740 0.150391 0.151042 0.151693 0.152344 0.152995 0.153646 0.154297 0.154948 0.155599 0.156250 0.156901 0.157552 0.158203 0.158854 0.159505 0.160156 0.160807 0.161458 0.162109 0.162760 0.163411 0.164062 0.164714 0.165365 0.166016 0.166667 0.167318 0.167969 0.168620 0.169271 0.169922 0.170573 0.171224 0.171875 0.172526 0.173177 0.173828 0.174479 0.175130 0.175781 0.176432 0.177083 0.177734 0.178385 0.179036 0.179688 0.180339 0.180990 0.181641 0.182292 0.182943 0.183594 0.184245 0.184896 0.185547 0.186198 0.186849 0.187500 0.188151 0.188802 0.189453 0.190104 0.190755 0.191406 0.192057 0.192708 0.193359 0.194010 0.194661 0.195312 0.195964 0.196615 0.197266 0.197917 0.198568 0.199219 0.199870 0.200521 0.201172 0.201823 0.202474 0.203125 0.203776 0.204427 0.205078 0.205729 0.206380 0.207031 0.207682 0.208333 0.208984 0.209635 0.210286 0.210938 0.211589 0.212240 0.212891 0.213542 0.214193 0.214844 0.215495 0.216146 0.216797 0.217448 0.218099 0.218750 0.219401 0.220052 0.220703 0.221354 0.222005 0.222656 0.223307 0.223958 0.224609 0.225260 0.225911 0.226562 0.227214 0.227865 0.228516 0.229167 0.229818 0.230469 0.231120 0.231771 0.232422 0.233073 0.233724 0.234375 0.235026 0.235677
       0.33361        0.33361        0.33361        0.33361        0.33361        0.33361        0.33361        0.33361        0.33361        0.33361        0.33361        0.33361        0.33361        0.33361        0.33361        0.33361        0.33361        0.33361        0.33361        0.33361        0.33361        0.33361        0.33361        0.33361        0.33361        0.33361        0.33361        0.33361        0.33361        0.33361        0.33361        0.33361        0.33361        0.33361        0.33361        0.33361        0.33361        0.33361        0.33361        0.33361        0.33361        0.33361        0.33361        0.33361        0.33361        0.33361        0.33361        0.33361        0.33361        0.33361        0.33361        0.59584        0.70823        0.36628        0.17226        0.14018       -0.12755        0.11322        0.04198        0.04427        0.09408        0.30996        0.30641        0.23581        0.14188       -0.03706       -0.00925        0.05281       -0.08737       -0.09400       -0.06775       -0.07359       -0.17087       -0.10817       -0.21725       -0.23653       -0.23505       -0.29295       -0.36320       -0.29183       -0.20104       -0.16498       -0.27261       -0.19830       -0.23724       -0.17845       -0.11996       -0.06111       -0.03353        0.02129        0.07063        0.15283        0.19374        0.23619        0.34746        0.41229        0.36239        0.48497        0.54578        0.55414        0.62970        0.55364        0.58385        0.60500        0.60451        0.59326        0.56034        0.59755        0.54147        0.39985        0.35631        0.37860        0.34447        0.21389        0.20634        0.17580        0.11904        0.11641        0.04505        0.11307        0.09038        0.05850        0.13883        0.19316        0.27937        0.34906        0.36767        0.40038        0.44919        0.48170        0.42338        0.63683        0.55099        0.48225        0.56958        0.50427        0.55996        0.51792        0.39225        0.33029        0.31669        0.27136        0.26118        0.21693        0.19930        0.17831        0.27032        0.24845        0.26655        0.23755        0.27608        0.34007        0.33882        0.45101        0.44663        0.43396        0.41872        0.48299        0.43675        0.41662        0.40898        0.39720        0.33687        0.28403        0.28566        0.27336        0.27172        0.21697        0.20732        0.25458        0.27173        0.29159        0.35184        0.38788        0.42813        0.41862        0.42980        0.49274        0.47636        0.43082        0.38308        0.41916        0.38364        0.33199        0.34175        0.33307        0.27536        0.28581        0.28208        0.25904        0.32231        0.30194        0.32107        0.34112        0.40068        0.42410        0.41369        0.44254        0.39237        0.43520        0.40856        0.33757        0.30263        0.27872        0.28874        0.26141        0.23014        0.31597        0.37901        0.34039        0.31283        0.36869        0.29575        0.35415        0.40516        0.38989        0.36674        0.38023        0.34997        0.36440        0.33614        0.30911        0.28996        0.27276        0.32408        0.33554        0.35562        0.36983        0.39139        0.37309        0.36863        0.32831        0.35858        0.36707        0.34741        0.33101        0.29153        0.29025        0.27331        0.34232        0.33823        0.35195        0.32069        0.35163        0.37524        0.34063        0.35836        0.35156        0.31714        0.31438        0.31118        0.28454        0.27537        0.26567        0.25644        0.27720        0.26998        0.30550        0.27619        0.31809        0.36326        0.26552        0.29706        0.28403        0.25228        0.30723        0.28965        0.29075        0.31720        0.33088        0.33179        0.31890        0.31782        0.31498        0.36587        0.36174        0.30445        0.32842        0.32037        0.37071        0.28108        0.28041        0.29826        0.30823        0.33428        0.36922        0.35909        0.29799        0.23401        0.29931        0.27032        0.26094        0.26256        0.27911        0.31202        0.24143        0.30835        0.33473        0.36933        0.31100        0.31930        0.28713        0.29615        0.29226        0.26994        0.29233        0.27131        0.28549        0.35373        0.35067        0.28585        0.32799        0.33059        0.26262        0.23168        0.19007        0.33432        0.32867        0.36230        0.34812        0.29378        0.23261        0.22201        0.28020        0.27357        0.27252        0.29614        0.29427        0.24828        0.28489        0.28637        0.31020        0.28395        0.28188        0.27635        0.24713        0.23612        0.29232        0.25244        0.21646        0.26046        0.25924        0.26423        0.22681        0.20663        0.27361        0.30689        0.28145        0.20533        0.14772        0.28723        0.22661        0.26199        0.27510        0.16701        0.16189        0.20555        0.24195        0.30566        0.09051       -0.12028       -0.61251       -0.97242
2.434139 2.413518 2.392987 2.372548 2.352200 2.331943 2.311777 2.291703 2.271720 2.251828 2.232028 2.212318 2.192700 2.173173 2.153738 2.134393 2.115140 2.095978 2.076908 2.057928 2.039040 2.020243 2.001538 1.982923 1.964400 1.945968 1.927627 1.909378 1.891220 1.873153 1.855177 1.837293 1.819499 1.801797 1.784187 1.766667 1.749239 1.731902 1.714656 1.697501 1.680438 1.663466 1.646585 1.629796 1.613097 1.596490 1.579974 1.563550 1.547216 1.530974 1.514824 1.872428 2.215161 1.538730 1.332179 1.108186 0.519729 0.937961 0.803639 0.848493 0.701560 1.430433 1.195784 1.213345 0.989487 0.594799 0.469867 0.748988 0.606578 0.286108 0.270542 0.489044 0.250120 0.267837 0.110872 -0.001838 -0.016488 -0.008969 -0.321650 -0.141128 0.014027 0.013451 -0.079907 -0.013376 -0.102534 -0.081099 0.069695 0.200678 0.262467 0.282164 0.390239 0.635614 0.565675 0.673679 0.831097 1.068017 0.808426 1.276182 1.199685 1.276914 1.376076 1.267026 1.163542 1.381633 1.243540 1.348867 1.210614 1.213609 1.226297 0.967174 0.721291 0.752381 0.799470 0.483585 0.452734 0.374326 0.243345 0.198687 0.034787 0.239288 0.176612 0.063919 0.144928 0.241396 0.367329 0.608551 0.612101 0.635068 0.698394 0.882348 0.596271 1.030231 1.057878 0.777456 0.928712 0.773104 0.893681 0.923315 0.655363 0.410651 0.441785 0.390902 0.223534 0.248669 0.161689 -0.015037 0.256252 0.237929 0.263617 0.160074 0.248364 0.335364 0.276300 0.502832 0.604728 0.559174 0.368254 0.649879 0.563287 0.415600 0.544352 0.434034 0.265716 0.310410 0.140828 0.217271 0.025055 0.215975 -0.053271 0.057927 0.067713 0.259952 0.046515 0.400158 0.351798 0.406368 0.379587 0.420734 0.593265 0.410750 0.343349 0.398417 0.196366 0.365341 0.105320 0.268372 0.064454 0.089479 0.079611 0.061047 0.045455 0.157882 0.056658 0.159438 0.242318 0.287314 0.329649 0.263823 0.345228 0.264071 0.293829 0.188965 0.104608 0.019296 -0.006246 0.017066 -0.062570 -0.072392 0.127850 0.219616 0.052028 0.108396 0.132071 0.007838 0.192795 0.261089 0.188572 0.178205 0.129148 0.170606 0.104116 0.095758 0.045851 -0.087498 0.000057 0.132291 0.056992 0.156068 0.137344 0.222009 0.177088 0.150721 0.107051 0.187462 0.100451 0.145607 0.089889 0.005297 -0.012163 -0.013776 0.128297 0.121310 0.133306 0.060147 0.151972 0.165939 0.043043 0.145759 0.054708 -0.009414 0.028207 0.008258 -0.060280 -0.060750 -0.117951 -0.049400 -0.052411 -0.098924 0.008859 -0.052686 0.043155 0.105384 -0.116535 0.020360 -0.052711 -0.095021 0.051285 -0.021472 -0.059965 0.044836 0.100939 0.031140 0.057969 -0.045627 0.025944 0.209361 0.011775 -0.050883 0.078742 0.040526 0.111175 -0.113612 -0.047883 -0.004113 0.042403 0.061184 0.104191 0.130343 -0.052783 -0.111590 0.009105 -0.062337 -0.065420 -0.046831 -0.042849 0.056172 -0.175500 0.130543 0.136518 0.185388 0.037979 0.062188 0.037578 0.031348 0.097223 -0.020808 0.042463 0.011727 0.051261 0.146269 0.193747 0.043808 0.171650 0.168512 -0.040272 -0.010738 -0.160005 0.240792 0.132995 0.216713 0.176224 0.027482 -0.061930 -0.091943 0.022351 0.012405 -0.020499 0.052727 0.048269 -0.081355 0.019270 0.115544 0.067076 0.035254 0.004562 0.056339 -0.113758 -0.011753 0.060163 -0.036744 -0.127267 0.032645 -0.014623 -0.043445 -0.043255 -0.124102 0.081021 0.120059 -0.006535 -0.096251 -0.353273 0.170094 0.510031 0.457917 0.577955 0.261549 0.323461 0.421900 0.510780 0.587961 0.029348 0.008596 -0.942343
0.072396 0.072838 0.074163 0.076371 0.079462 0.083435 0.088289 0.094022 0.100634 0.108122 0.116484 0.125716 0.135815 0.146776 0.158594 0.171262 0.184772 0.199116 0.214282 0.230259 0.247032 0.264586 0.282903 0.301961 0.321739 0.342209 0.363344 0.385111 0.407474 0.430396 0.453833 0.477738 0.502061 0.526747 0.551735 0.576960 0.602354 0.627843 0.653346 0.678779 0.704051 0.729069 0.753731 0.777931 0.801559 0.824499 0.846629 0.867825 0.887956 0.906890 0.924488 0.940610 0.955112 0.967851 0.978680 0.987451 0.994019 0.998237 0.999964 0.999060 0.995388 0.988821 0.979236 0.966518 0.950564 0.931282 0.908590 0.882425 0.852736 0.819493 0.782682 0.742313 0.698416 0.651047 0.600285 0.546238 0.489041 0.428857 0.365881 0.300336 0.232478 0.162594 0.091002 0.018050 0.055883 0.130388 0.205031 0.279348 0.352856 0.425047 0.495396 0.563366 0.628407 0.689964 0.747479 0.800402 0.848190 0.890315 0.926273 0.955588 0.977820 0.992569 0.999485 0.998277 0.988713 0.970632 0.943948 0.908657 0.864842 0.812675 0.752424 0.684454 0.609231 0.527317 0.439375 0.346165 0.248540 0.147440 0.043885 0.061028 0.166143 0.270251 0.372106 0.470437 0.563965 0.651424 0.731572 0.803218 0.865233 0.916578 0.956321 0.983654 0.997916 0.998607 0.985407 0.958192 0.917039 0.862242 0.794319 0.714007 0.622269 0.520285 0.409446 0.291336 0.167716 0.040506 0.088250 0.216406 0.341757 0.462066 0.575119 0.678750 0.770902 0.849658 0.913296 0.960323 0.989521 0.999980 0.991137 0.962795 0.915150 0.848800 0.764752 0.664419 0.549605 0.422480 0.285552 0.141622 0.006269 0.154897 0.300927 0.440980 0.571721 0.689935 0.792613 0.877034 0.940842 0.982127 0.999484 0.992074 0.959665 0.902665 0.822136 0.719788 0.597962 0.459586 0.308120 0.147478 0.018066 0.183983 0.345614 0.498297 0.637510 0.759000 0.858929 0.934004 0.981593 0.999836 0.987727 0.945176 0.873050 0.773168 0.648289 0.502048 0.338864 0.163824 0.017463 0.199040 0.374797 0.538674 0.684877 0.808085 0.903659 0.967832 0.997874 0.992225 0.950588 0.873990 0.764777 0.626575 0.464192 0.283467 0.091080 0.105682 0.299199 0.481803 0.646095 0.785242 0.893285 0.965408 0.998170 0.989698 0.939809 0.850073 0.723801 0.565943 0.382939 0.182460 0.026882 0.235900 0.435226 0.615737 0.768976 0.887568 0.965597 0.998919 0.985421 0.925170 0.820481 0.675864 0.497862 0.294798 0.076395 0.146661 0.363236 0.562304 0.733521 0.867767 0.957665 0.998014 0.986118 0.922006 0.808499 0.651135 0.457938 0.239048 0.006209 0.227834 0.450029 0.647754 0.809529 0.925727 0.989163 0.995583 0.943987 0.836772 0.679681 0.481538 0.253798 0.009912 0.235431 0.467203 0.670938 0.833664 0.944749 0.996643 0.985427 0.911160 0.777971 0.593885 0.370404 0.121820 0.135662 0.384967 0.609279 0.793179 0.923751 0.991510 0.991152 0.922021 0.788260 0.598637 0.366026 0.106581 0.161341 0.418481 0.646035 0.827068 0.947796 0.998685 0.975268 0.878586 0.715243 0.497021 0.240102 0.036101 0.310362 0.561273 0.768927 0.916516 0.991754 0.987952 0.904681 0.747947 0.529842 0.267673 0.017345 0.301778 0.561874 0.775578 0.924413 0.995148 0.981031 0.882517 0.707374 0.470168 0.191118 0.105567 0.393759 0.647693 0.844311 0.965377 0.999256 0.942097 0.798357 0.580554 0.308267 0.006448 0.296823 0.572914 0.795383 0.942524 0.999570 0.960250 0.827572 0.613716 0.339009 0.030078 0.282680 0.568056 0.797160 0.946401 0.999962
1.000000 1.000000 1.000000 1.000000 1.000000 1.000000 1.000000 1.000000 1.000000 1.000000 1.000000 1.000000 1.000000 1.000000 1.000000 1.000000 1.000000 1.000000 1.000000 1.000000 1.000000 1.000000 1.000000 1.000000 1.000000 1.000000 1.000000 1.000000 1.000000 1.000000 1.000000 1.000000 1.000000 1.000000 1.000000 1.000000 1.000000 1.000000 1.000000 1.000000 1.000000 1.000000 1.000000 1.000000 1.000000 1.000000 1.000000 1.000000 1.000000 1.000000 1.000000 1.000000 0.770166 0.770166 0.770166 0.770166 0.770166 0.770166 0.770166 0.758540 0.758540 0.758540 0.758540 0.758540 0.758540 0.758540 0.758540 0.758540 0.758540 0.758540 0.758540 0.758540 0.758540 0.758540 0.758540 0.758540 0.758540 0.758540 0.758540 0.758540 0.758540 0.758540 0.758540 0.758540 0.758540 0.758540 0.758540 0.758540 0.758540 0.758540 0.758540 0.758540 0.758540 0.758540 0.758540 0.758540 0.758540 0.758540 0.758540 0.758540 0.758540 0.758540 0.758540 0.901658 0.903105 0.906119 0.901523 0.903443 0.898234 0.891747 0.893147 0.894875 0.894682 0.895495 0.897180 0.899220 0.906562 0.915479 0.917386 0.924330 0.927734 0.927703 0.931269 0.929910 0.934081 0.931454 0.929656 0.917728 0.921277 0.923252 0.922278 0.921121 0.917970 0.923618 0.922215 0.920107 0.914796 0.910826 0.908850 0.910486 0.908207 0.908798 0.908985 0.909938 0.908113 0.908911 0.905060 0.906018 0.904924 0.901378 0.898464 0.898230 0.899696 0.897995 0.894575 0.888152 0.894036 0.894128 0.893298 0.892212 0.892423 0.893218 0.894000 0.894679 0.892237 0.892291 0.889727 0.891497 0.888097 0.883430 0.877390 0.877815 0.880352 0.887518 0.889631 0.888213 0.885286 0.876727 0.866060 0.863615 0.852286 0.822470 0.824517 0.827711 0.829672 0.829964 0.828904 0.825095 0.821036 0.813199 0.804467 0.809228 0.809692 0.802602 0.798745 0.799671 0.800533 0.807886 0.811618 0.803455 0.800112 0.802234 0.798256 0.799415 0.803433 0.796082 0.793332 0.800319 0.808408 0.808359 0.792885 0.788657 0.786089 0.774188 0.781379 0.787893 0.786781 0.788232 0.785210 0.773330 0.772031 0.765447 0.776345 0.783337 0.782619 0.777611 0.760879 0.717212 0.702211 0.667240 0.665139 0.666756 0.632997 0.633278 0.634726 0.638609 0.581730 0.557717 0.543426 0.544511 0.553801 0.558971 0.552422 0.525889 0.543149 0.539365 0.524783 0.520719 0.503081 0.489937 0.473229 0.475651 0.474826 0.467564 0.435635 0.437570 0.457741 0.466881 0.461874 0.457905 0.430264 0.409986 0.409368 0.401439 0.401114 0.407605 0.416044 0.357920 0.335023 0.321893 0.350578 0.348109 0.346223 0.365688 0.358315 0.351680 0.326422 0.305815 0.274453 0.287161 0.307850 0.311047 0.314437 0.283337 0.274644 0.259911 0.263868 0.308979 0.298752 0.322371 0.328426 0.333442 0.357405 0.330769 0.307407 0.286104 0.328954 0.338463 0.307340 0.302644 0.317168 0.329704 0.328560 0.324384 0.319441 0.365876 0.367730 0.345524 0.345677 0.313089 0.331944 0.362123 0.360515 0.366965 0.376867 0.383495 0.345054 0.267239 0.237465 0.241078 0.218130 0.218132 0.204632 0.189611 0.181653 0.194100 0.215581 0.221618 0.253405 0.221557 0.175514 0.085743 0.152127 0.068499 0.084118 0.084118 0.084118 0.084118 0.084118 0.084118 0.084118 0.084118 0.121900 0.121900 0.121900 0.121900 0.121900 0.121900 0.121900 0.121900 0.121900 0.121900 0.121900 0.121900 0.121900 0.121900 0.121900 0.121900 0.121900 0.121900 0.121900 0.121900 0.121900
0.000000 0.000000 0.000000 0.000000 0.000000 0.000000 0.000000 0.000000 0.000000 0.000000 0.000000 0.000000 0.000000 0.000000 0.000000 0.000000 0.000000 0.000000 0.000000 0.000000 0.000000 0.000000 0.000000 0.000000 0.000000 0.000000 0.000000 0.000000 0.000000 0.000000 0.000000 0.000000 0.000000 0.000000 0.000000 0.000000 0.000000 0.000000 0.000000 0.000000 0.000000 0.000000 0.000000 0.000000 0.000000 0.000000 0.000000 0.000000 0.000000 0.000000 0.000000 0.000000 0.173422 0.173422 0.173422 0.173422 0.173422 0.173422 0.173422 0.191565 0.191565 0.191565 0.191565 0.191565 0.191565 0.191565 0.191565 0.191565 0.191565 0.191565 0.191565 0.191565 0.191565 0.191565 0.191565 0.191565 0.191565 0.191565 0.191565 0.191565 0.191565 0.191565 0.191565 0.191565 0.191565 0.191565 0.191565 0.191565 0.191565 0.191565 0.191565 0.191565 0.191565 0.191565 0.191565 0.191565 0.191565 0.191565 0.191565 0.191565 0.191565 0.191565 0.191565 0.222222 0.222222 0.222222 0.222222 0.222222 0.222222 0.222222 0.222222 0.222222 0.222222 0.222222 0.222222 0.222222 0.222222 0.222222 0.222222 0.222222 0.222222 0.222222 0.222222 0.222222 0.222222 0.222222 0.222222 0.222222 0.222222 0.222222 0.222222 0.222222 0.222222 0.234082 0.234082 0.234082 0.234082 0.234082 0.234082 0.234082 0.234082 0.234082 0.234082 0.234082 0.234082 0.234082 0.234082 0.234082 0.234082 0.234082 0.234082 0.234082 0.234082 0.234082 0.234082 0.234082 0.234082 0.234082 0.244339 0.244339 0.244339 0.244339 0.244339 0.244339 0.244339 0.244339 0.244339 0.244339 0.244339 0.244339 0.244339 0.244339 0.244339 0.244339 0.244339 0.244339 0.244339 0.244339 0.244339 0.248069 0.248069 0.248069 0.248069 0.248069 0.248069 0.248069 0.248069 0.248069 0.248069 0.248069 0.248069 0.248069 0.248069 0.248069 0.248069 0.248069 0.248069 0.248069 0.256074 0.256074 0.256074 0.256074 0.256074 0.256074 0.256074 0.256074 0.256074 0.256074 0.256074 0.256074 0.256074 0.256074 0.256074 0.256074 0.256074 0.256074 0.256074 0.256074 0.256074 0.256074 0.256074 0.256074 0.256074 0.256074 0.256074 0.256074 0.256074 0.256074 0.256074 0.256074 0.256074 0.256074 0.256074 0.256074 0.256074 0.256074 0.256074 0.256074 0.256074 0.256074 0.256074 0.256074 0.256074 0.256074 0.256074 0.256074 0.256074 0.256074 0.256074 0.256074 0.256074 0.256074 0.256074 0.256074 0.256074 0.256074 0.256074 0.256074 0.256074 0.256074 0.260378 0.260378 0.260378 0.260378 0.260378 0.260378 0.260378 0.260378 0.260378 0.260378 0.260378 0.260378 0.260378 0.256074 0.256074 0.256074 0.256074 0.256074 0.256074 0.256074 0.256074 0.256074 0.256074 0.256074 0.256074 0.256074 0.260378 0.260378 0.260378 0.260378 0.260378 0.260378 0.260378 0.260378 0.260378 0.260378 0.260378 0.260378 0.251976 0.251976 0.251976 0.251976 0.251976 0.251976 0.251976 0.251976 0.251976 0.251976 0.251976 0.251976 0.256074 0.256074 0.256074 0.256074 0.256074 0.256074 0.256074 0.256074 0.256074 0.256074 0.256074 0.251976 0.251976 0.251976 0.251976 0.251976 0.251976 0.251976 0.251976 0.251976 0.251976 0.251976 0.260378 0.260378 0.260378 0.260378 0.260378 0.260378 0.260378 0.260378 0.260378 0.260378 0.244339 0.244339 0.244339 0.244339 0.244339 0.244339 0.244339 0.244339 0.244339 0.244339 0.244339 0.244339 0.244339 0.244339 0.244339 0.244339 0.244339 0.244339 0.244339 0.244339 0.244339
