# Output from CTFFind version 4.1.9, run on 2019-11-03 19:47:41
# Input file: stack1_bm3d_averaged_1_5.25_0_1500_half.mrc ; Number of micrographs: 1
# Pixel size: 3.000 Angstroms ; acceleration voltage: 300.0 keV ; spherical aberration: 0.00 mm ; amplitude contrast: 0.07
# Box size: 512 pixels ; min. res.: 30.0 Angstroms ; max. res.: 5.0 Angstroms ; min. def.: 5000.0 um; max. def. 50000.0 um; num. frames averaged: 1
# 6 lines per micrograph: #1 - spatial frequency (1/Angstroms); #2 - 1D rotational average of spectrum (assuming no astigmatism); #3 - 1D rotational average of spectrum; #4 - CTF fit; #5 - cross-correlation between spectrum and CTF fit; #6 - 2sigma of expected cross correlation of noise
0.000000 0.000651 0.001302 0.001953 0.002604 0.003255 0.003906 0.004557 0.005208 0.005859 0.006510 0.007161 0.007812 0.008464 0.009115 0.009766 0.010417 0.011068 0.011719 0.012370 0.013021 0.013672 0.014323 0.014974 0.015625 0.016276 0.016927 0.017578 0.018229 0.018880 0.019531 0.020182 0.020833 0.021484 0.022135 0.022786 0.023438 0.024089 0.024740 0.025391 0.026042 0.026693 0.027344 0.027995 0.028646 0.029297 0.029948 0.030599 0.031250 0.031901 0.032552 0.033203 0.033854 0.034505 0.035156 0.035807 0.036458 0.037109 0.037760 0.038411 0.039062 0.039714 0.040365 0.041016 0.041667 0.042318 0.042969 0.043620 0.044271 0.044922 0.045573 0.046224 0.046875 0.047526 0.048177 0.048828 0.049479 0.050130 0.050781 0.051432 0.052083 0.052734 0.053385 0.054036 0.054688 0.055339 0.055990 0.056641 0.057292 0.057943 0.058594 0.059245 0.059896 0.060547 0.061198 0.061849 0.062500 0.063151 0.063802 0.064453 0.065104 0.065755 0.066406 0.067057 0.067708 0.068359 0.069010 0.069661 0.070312 0.070964 0.071615 0.072266 0.072917 0.073568 0.074219 0.074870 0.075521 0.076172 0.076823 0.077474 0.078125 0.078776 0.079427 0.080078 0.080729 0.081380 0.082031 0.082682 0.083333 0.083984 0.084635 0.085286 0.085938 0.086589 0.087240 0.087891 0.088542 0.089193 0.089844 0.090495 0.091146 0.091797 0.092448 0.093099 0.093750 0.094401 0.095052 0.095703 0.096354 0.097005 0.097656 0.098307 0.098958 0.099609 0.100260 0.100911 0.101562 0.102214 0.102865 0.103516 0.104167 0.104818 0.105469 0.106120 0.106771 0.107422 0.108073 0.108724 0.109375 0.110026 0.110677 0.111328 0.111979 0.112630 0.113281 0.113932 0.114583 0.115234 0.115885 0.116536 0.117188 0.117839 0.118490 0.119141 0.119792 0.120443 0.121094 0.121745 0.122396 0.123047 0.123698 0.124349 0.125000 0.125651 0.126302 0.126953 0.127604 0.128255 0.128906 0.129557 0.130208 0.130859 0.131510 0.132161 0.132812 0.133464 0.134115 0.134766 0.135417 0.136068 0.136719 0.137370 0.138021 0.138672 0.139323 0.139974 0.140625 0.141276 0.141927 0.142578 0.143229 0.143880 0.144531 0.145182 0.145833 0.146484 0.147135 0.147786 0.148438 0.149089 0.149740 0.150391 0.151042 0.151693 0.152344 0.152995 0.153646 0.154297 0.154948 0.155599 0.156250 0.156901 0.157552 0.158203 0.158854 0.159505 0.160156 0.160807 0.161458 0.162109 0.162760 0.163411 0.164062 0.164714 0.165365 0.166016 0.166667 0.167318 0.167969 0.168620 0.169271 0.169922 0.170573 0.171224 0.171875 0.172526 0.173177 0.173828 0.174479 0.175130 0.175781 0.176432 0.177083 0.177734 0.178385 0.179036 0.179688 0.180339 0.180990 0.181641 0.182292 0.182943 0.183594 0.184245 0.184896 0.185547 0.186198 0.186849 0.187500 0.188151 0.188802 0.189453 0.190104 0.190755 0.191406 0.192057 0.192708 0.193359 0.194010 0.194661 0.195312 0.195964 0.196615 0.197266 0.197917 0.198568 0.199219 0.199870 0.200521 0.201172 0.201823 0.202474 0.203125 0.203776 0.204427 0.205078 0.205729 0.206380 0.207031 0.207682 0.208333 0.208984 0.209635 0.210286 0.210938 0.211589 0.212240 0.212891 0.213542 0.214193 0.214844 0.215495 0.216146 0.216797 0.217448 0.218099 0.218750 0.219401 0.220052 0.220703 0.221354 0.222005 0.222656 0.223307 0.223958 0.224609 0.225260 0.225911 0.226562 0.227214 0.227865 0.228516 0.229167 0.229818 0.230469 0.231120 0.231771 0.232422 0.233073 0.233724 0.234375 0.235026 0.235677
       0.35012        0.35012        0.35012        0.35012        0.35012        0.35012        0.35012        0.35012        0.35012        0.35012        0.35012        0.35012        0.35012        0.35012        0.35012        0.35012        0.35012        0.35012        0.35012        0.35012        0.35012        0.35012        0.35012        0.35012        0.35012        0.35012        0.35012        0.35012        0.35012        0.35012        0.35012        0.35012        0.35012        0.35012        0.35012        0.35012        0.35012        0.35012        0.35012        0.35012        0.35012        0.35012        0.35012        0.35012        0.35012        0.35012        0.35012        0.35012        0.35012        0.35012        0.35012        0.40496        0.59309        0.27971        0.12547       -0.01541       -0.27050       -0.09755       -0.17382       -0.20377        0.01658       -0.13075       -0.11121       -0.05794       -0.03719       -0.12905       -0.15787       -0.29595       -0.39905       -0.50361       -0.44531       -0.34560       -0.27199       -0.39485       -0.30571       -0.40255       -0.33807       -0.38504       -0.20434       -0.20003       -0.25619       -0.09079       -0.04500       -0.04636        0.08255        0.03071        0.20326        0.21959        0.33368        0.36736        0.45117        0.48510        0.53923        0.60139        0.66784        0.56862        0.52718        0.50606        0.48547        0.56985        0.48098        0.42673        0.40727        0.33139        0.28581        0.30914        0.32212        0.22109        0.19260        0.09248        0.13025        0.13392        0.15741        0.12606        0.19046        0.24106        0.30017        0.29792        0.33064        0.46217        0.42214        0.48683        0.63370        0.62424        0.55601        0.55327        0.57725        0.42705        0.48039        0.36871        0.31721        0.29084        0.24776        0.25187        0.19465        0.17084        0.15205        0.22302        0.24740        0.27647        0.34078        0.32848        0.40707        0.47404        0.47001        0.44975        0.47917        0.55179        0.49192        0.47906        0.42396        0.35342        0.34024        0.26559        0.29705        0.23408        0.21976        0.28552        0.23397        0.25654        0.32116        0.41368        0.41465        0.44734        0.42604        0.50466        0.49823        0.46853        0.43666        0.39176        0.38187        0.39290        0.40292        0.34503        0.28229        0.31364        0.29076        0.29449        0.30048        0.34497        0.37428        0.39690        0.45416        0.49155        0.40998        0.42928        0.43190        0.39480        0.33103        0.36951        0.32639        0.31931        0.33371        0.29351        0.26268        0.32593        0.34111        0.41518        0.42591        0.41618        0.40608        0.39819        0.37374        0.37204        0.31148        0.31636        0.34883        0.30256        0.31219        0.32997        0.34642        0.34911        0.35412        0.38706        0.38529        0.45686        0.39378        0.34252        0.36336        0.34402        0.33356        0.33157        0.33253        0.37332        0.33435        0.35680        0.35264        0.41260        0.37750        0.36312        0.38472        0.38037        0.36071        0.34099        0.33278        0.30993        0.35150        0.33057        0.31453        0.32783        0.36117        0.35185        0.34357        0.33606        0.30364        0.29988        0.27827        0.31155        0.33298        0.35056        0.33528        0.32316        0.37172        0.33380        0.34197        0.32507        0.30130        0.34263        0.31842        0.31548        0.34297        0.32580        0.31676        0.29876        0.34173        0.37021        0.32437        0.31325        0.32094        0.32204        0.30022        0.35296        0.32245        0.28999        0.33830        0.30387        0.34593        0.35566        0.37487        0.31355        0.31382        0.26665        0.33601        0.36100        0.34334        0.31387        0.30998        0.33118        0.32326        0.29154        0.31815        0.31965        0.31510        0.30896        0.30156        0.29758        0.29735        0.30013        0.32116        0.28216        0.31078        0.35627        0.36848        0.34862        0.31728        0.32984        0.28430        0.30623        0.28815        0.33408        0.34159        0.27363        0.26075        0.32444        0.32978        0.31901        0.28883        0.30227        0.32793        0.28975        0.30641        0.33429        0.32838        0.28238        0.25704        0.30068        0.33887        0.28593        0.26333        0.28659        0.27395        0.30489        0.36654        0.30830        0.32822        0.28081        0.26346        0.29969        0.28710        0.23308        0.25401        0.28025        0.24851        0.21930        0.26631        0.29024        0.39507        0.29768        0.25771        0.21281        0.24329        0.25921        0.24500        0.32393        0.20503        0.15949        0.29665        0.40511        0.30592        0.12852        0.06353       -0.57404       -1.11010
3.001465 2.968747 2.936211 2.903855 2.871680 2.839685 2.807872 2.776239 2.744786 2.713515 2.682425 2.651515 2.620786 2.590237 2.559870 2.529683 2.499677 2.469852 2.440207 2.410743 2.381460 2.352358 2.323437 2.294696 2.266136 2.237757 2.209558 2.181541 2.153704 2.126048 2.098572 2.071278 2.044164 2.017231 1.990478 1.963907 1.937516 1.911306 1.885276 1.859428 1.833760 1.808273 1.782967 1.757841 1.732896 1.708132 1.683549 1.659147 1.634925 1.610884 1.587024 1.549848 1.900415 1.642008 1.179443 1.024186 0.412742 0.896176 0.520334 0.660041 0.886555 0.684818 0.581416 0.755865 0.699111 0.617625 0.521901 0.328332 0.110586 -0.021357 -0.018698 0.008536 0.389834 -0.040945 0.123491 -0.002714 0.062027 -0.062614 0.201365 0.173484 0.081181 0.266334 0.379128 0.280937 0.475163 0.391800 0.673963 0.563471 0.806947 0.760657 0.869296 1.030495 0.929904 1.123616 1.143555 1.102964 0.910019 0.893340 0.881593 0.907010 0.861481 0.749363 0.643856 0.591992 0.507817 0.474854 0.512141 0.365217 0.324544 0.167203 0.128881 0.171510 0.188312 0.122325 0.162679 0.248632 0.331248 0.330830 0.390753 0.405544 0.545712 0.385184 0.724372 0.753879 0.655084 0.598434 0.659274 0.447249 0.417777 0.390462 0.204250 0.215704 0.063339 0.158072 -0.006749 0.002189 -0.072027 -0.054577 0.106457 0.029239 0.116663 0.169384 0.209203 0.286229 0.350356 0.290991 0.331532 0.388391 0.392915 0.330596 0.284671 0.190265 0.143535 0.057338 -0.008806 0.008254 -0.112109 0.014017 0.011351 -0.086832 -0.045375 0.118775 0.246682 0.164996 0.254152 0.207645 0.420415 0.279035 0.266175 0.272205 0.152460 0.113172 0.290037 0.076199 0.077964 0.010908 0.075791 -0.009190 0.081804 0.001024 0.165979 0.056396 0.203846 0.268355 0.267951 0.124988 0.198530 0.162173 0.089383 0.084601 0.078246 0.008011 0.017716 0.053262 -0.083759 -0.059471 0.046587 0.046289 0.209606 0.121917 0.147435 0.065782 0.098020 0.043492 0.021636 -0.070717 -0.005936 0.000307 -0.068688 -0.023273 -0.009003 0.023580 -0.027647 0.033207 0.069910 0.078028 0.201021 -0.005310 0.032108 0.026618 -0.022931 -0.002020 -0.021229 0.017976 0.067573 -0.029852 0.016204 0.038920 0.132610 0.030257 0.033875 0.085692 0.022588 0.043863 -0.018608 0.003387 -0.036224 0.022532 -0.010832 -0.028315 -0.015191 0.053831 -0.013522 0.028825 -0.022931 -0.051602 -0.055400 -0.085111 -0.021748 0.009612 0.044174 -0.024885 -0.005595 0.078246 -0.006319 0.041390 -0.016302 -0.017701 0.037097 -0.020240 0.022552 0.041208 0.016971 -0.006951 -0.019680 0.066817 0.077537 0.016817 0.019452 0.045147 -0.015486 0.028466 0.077668 0.023094 -0.000695 0.062454 0.033381 0.035217 0.057812 0.074788 0.020226 -0.021326 -0.077446 0.057407 0.098094 0.002125 0.008463 -0.009952 0.082702 -0.009226 -0.043616 0.025166 0.032325 0.008135 0.001671 -0.039754 0.008995 -0.042126 -0.007200 -0.003724 -0.067162 0.036242 0.075043 0.095906 0.028066 0.015108 -0.005912 -0.020012 -0.030883 -0.022966 0.021452 0.041351 -0.095053 -0.080703 0.020223 0.007979 0.018475 -0.050089 -0.076067 0.006428 -0.037611 -0.049630 0.070084 -0.015436 -0.028838 -0.087585 -0.025710 0.052869 -0.030536 -0.018238 -0.013497 0.028452 0.045294 0.142377 0.026779 0.066877 -0.002225 0.068885 0.064109 0.008352 -0.038879 -0.015558 0.060246 0.017067 -0.019971 0.032283 0.101900 0.275928 0.017830 0.100263 -0.103432 0.022007 0.092954 0.017451 0.178586 0.256180 0.225744 0.514213 0.646270 0.288416 0.090083 0.097300 -1.581285
0.072396 0.072906 0.074435 0.076983 0.080550 0.085134 0.090735 0.097350 0.104977 0.113614 0.123257 0.133901 0.145542 0.158171 0.171782 0.186365 0.201908 0.218398 0.235819 0.254154 0.273381 0.293477 0.314415 0.336164 0.358689 0.381952 0.405910 0.430516 0.455715 0.481451 0.507659 0.534269 0.561207 0.588390 0.615729 0.643129 0.670489 0.697698 0.724641 0.751194 0.777227 0.802604 0.827180 0.850805 0.873323 0.894572 0.914384 0.932588 0.949008 0.963465 0.975779 0.985767 0.993248 0.998041 0.999969 0.998858 0.994542 0.986861 0.975665 0.960817 0.942191 0.919681 0.893194 0.862662 0.828037 0.789297 0.746447 0.699522 0.648588 0.593744 0.535128 0.472911 0.407306 0.338564 0.266978 0.192883 0.116654 0.038710 0.040493 0.120456 0.200645 0.280492 0.359394 0.436723 0.511826 0.584033 0.652659 0.717016 0.776415 0.830177 0.877640 0.918167 0.951157 0.976055 0.992359 0.999633 0.997514 0.985725 0.964080 0.932497 0.891005 0.839748 0.778996 0.709145 0.630722 0.544388 0.450936 0.351287 0.246489 0.137704 0.026206 0.086640 0.199382 0.310509 0.418463 0.521662 0.618527 0.707502 0.787085 0.855856 0.912503 0.955850 0.984891 0.998808 0.997005 0.979126 0.945074 0.895035 0.829480 0.749177 0.655194 0.548891 0.431913 0.306170 0.173812 0.037200 0.101131 0.238518 0.372217 0.499461 0.617513 0.723736 0.815647 0.890988 0.947782 0.984398 0.999604 0.992614 0.963129 0.911370 0.838092 0.744596 0.632720 0.504817 0.363719 0.212685 0.055336 0.104425 0.262504 0.414726 0.556932 0.685111 0.795509 0.884751 0.949956 0.988839 0.999807 0.982035 0.935522 0.861130 0.760588 0.636481 0.492199 0.331864 0.160228 0.017458 0.195592 0.368398 0.530111 0.675174 0.798435 0.895344 0.962138 0.995998 0.995194 0.959187 0.888694 0.785709 0.653480 0.496430 0.320036 0.130658 0.064681 0.258535 0.443329 0.611641 0.756522 0.871791 0.952316 0.994266 0.995319 0.954818 0.873850 0.755268 0.603623 0.425027 0.226928 0.017830 0.193062 0.396241 0.582317 0.742475 0.868892 0.955156 0.996610 0.990643 0.936881 0.837279 0.696099 0.519779 0.316667 0.096659 0.129252 0.349523 0.552643 0.727741 0.865194 0.957173 0.998130 0.985173 0.918305 0.800515 0.637697 0.438417 0.213489 0.024566 0.262203 0.485612 0.681524 0.838021 0.945287 0.996263 0.987164 0.917804 0.791707 0.616005 0.401087 0.160030 0.092150 0.339427 0.565759 0.756159 0.897697 0.980429 0.998142 0.948880 0.835196 0.664097 0.446688 0.197505 0.066410 0.326644 0.564697 0.763296 0.907695 0.986801 0.994093 0.928229 0.793279 0.598562 0.358084 0.089578 0.186733 0.449671 0.678689 0.855534 0.965720 0.999799 0.954228 0.831818 0.641661 0.398541 0.121861 0.165846 0.440736 0.679619 0.861943 0.971615 0.998485 0.939382 0.798552 0.587469 0.323992 0.030937 0.265848 0.539743 0.765747 0.922802 0.995827 0.977243 0.867865 0.677020 0.421868 0.125942 0.182936 0.475242 0.722584 0.900470 0.990819 0.983889 0.879432 0.686934 0.424887 0.119104 0.199729 0.499111 0.748031 0.920214 0.996990 0.969412 0.839423 0.619884 0.333438 0.010278 0.314963 0.606883 0.833200 0.968374 0.996589 0.913733 0.728104 0.459740 0.138386 0.199706 0.515827 0.773225 0.941439 1.000000 0.941055 0.770554 0.507827 0.183542 0.163762 0.492204 0.761585 0.938381 1.000000 0.937818 0.758538 0.483646 0.147011 0.209193 0.539685 0.801859 0.961321 0.996529 0.901854 0.688644 0.384041 0.027695 0.333293 0.650551 0.880941
1.000000 1.000000 1.000000 1.000000 1.000000 1.000000 1.000000 1.000000 1.000000 1.000000 1.000000 1.000000 1.000000 1.000000 1.000000 1.000000 1.000000 1.000000 1.000000 1.000000 1.000000 1.000000 1.000000 1.000000 1.000000 1.000000 1.000000 1.000000 1.000000 1.000000 1.000000 1.000000 1.000000 1.000000 1.000000 1.000000 1.000000 1.000000 1.000000 1.000000 1.000000 1.000000 1.000000 1.000000 1.000000 1.000000 1.000000 1.000000 1.000000 1.000000 1.000000 1.000000 0.838653 0.838653 0.838653 0.845270 0.845270 0.845270 0.845270 0.845270 0.845270 0.845270 0.845270 0.845270 0.845270 0.845270 0.845270 0.845270 0.845270 0.845270 0.845270 0.845270 0.845270 0.845270 0.845270 0.845270 0.845270 0.845270 0.845270 0.845270 0.845270 0.845270 0.845270 0.845270 0.845270 0.845270 0.845270 0.845270 0.845270 0.845270 0.845270 0.845270 0.845270 0.845270 0.845270 0.845270 0.856731 0.862449 0.864973 0.867703 0.870734 0.867981 0.866846 0.866389 0.866585 0.867498 0.878470 0.903312 0.919983 0.925658 0.936952 0.940686 0.946057 0.947299 0.956203 0.960175 0.961954 0.958543 0.957900 0.959794 0.950293 0.940274 0.938105 0.935199 0.951791 0.941073 0.936865 0.932636 0.930796 0.928330 0.928351 0.929834 0.922846 0.923442 0.924218 0.923394 0.923924 0.921868 0.920729 0.903619 0.904789 0.904140 0.907275 0.886205 0.879338 0.870359 0.867340 0.878457 0.871502 0.864316 0.863141 0.852112 0.852541 0.852551 0.852517 0.838287 0.836436 0.833324 0.829581 0.829142 0.828440 0.833995 0.835470 0.836683 0.823695 0.798865 0.781333 0.756635 0.755207 0.756478 0.760445 0.754540 0.755724 0.752141 0.749169 0.742459 0.741080 0.733569 0.736635 0.732705 0.725194 0.719333 0.694727 0.687868 0.686852 0.660453 0.654374 0.657486 0.658392 0.627503 0.623414 0.626149 0.632677 0.638304 0.650142 0.643941 0.633250 0.601213 0.575082 0.556514 0.572005 0.591235 0.578995 0.582091 0.559234 0.595036 0.601004 0.620983 0.633331 0.636202 0.626999 0.591041 0.548688 0.548782 0.547846 0.549701 0.548169 0.547821 0.555295 0.581660 0.561471 0.543698 0.531069 0.525395 0.531002 0.545082 0.524800 0.517956 0.488480 0.464298 0.446453 0.452702 0.434158 0.419656 0.413992 0.404736 0.388482 0.393503 0.410297 0.403269 0.400598 0.403986 0.401637 0.413832 0.376438 0.329360 0.331006 0.324787 0.322593 0.309981 0.295810 0.302292 0.310733 0.321050 0.354164 0.326155 0.308343 0.282298 0.289306 0.278699 0.299236 0.286665 0.270451 0.250097 0.223303 0.195379 0.196477 0.222681 0.252463 0.221326 0.184032 0.156560 0.150491 0.126739 0.119051 0.059826 0.002003 -0.009099 -0.000049 -0.002173 -0.000479 0.001017 -0.016261 0.005886 0.017368 0.064317 0.037289 0.032757 0.011895 0.025080 -0.011865 -0.021430 -0.047533 -0.046390 -0.031554 -0.005664 -0.043703 -0.059282 -0.080408 -0.072047 -0.111268 -0.095831 -0.103354 -0.096362 -0.100357 -0.144164 -0.153142 -0.176334 -0.199989 -0.125053 -0.125641 -0.120140 -0.140576 -0.137563 -0.118613 -0.126108 -0.128484 -0.110509 -0.116922 -0.097834 -0.099557 -0.094203 -0.057949 -0.052533 -0.061521 -0.066096 -0.050850 -0.062868 -0.076369 -0.073663 -0.026330 -0.008339 0.005151 -0.009501 -0.054248 -0.054248 -0.054248 -0.065184 -0.065184 -0.065184 -0.065184 -0.065184 -0.065184 -0.065184 -0.065184 -0.065184 -0.078622 -0.078622 -0.078622 -0.078622 -0.078622 -0.078622 -0.078622 -0.078622 -0.078622 -0.078622 -0.078622 -0.078622 -0.078622 -0.078622 -0.078622 -0.078622 -0.078622
0.000000 0.000000 0.000000 0.000000 0.000000 0.000000 0.000000 0.000000 0.000000 0.000000 0.000000 0.000000 0.000000 0.000000 0.000000 0.000000 0.000000 0.000000 0.000000 0.000000 0.000000 0.000000 0.000000 0.000000 0.000000 0.000000 0.000000 0.000000 0.000000 0.000000 0.000000 0.000000 0.000000 0.000000 0.000000 0.000000 0.000000 0.000000 0.000000 0.000000 0.000000 0.000000 0.000000 0.000000 0.000000 0.000000 0.000000 0.000000 0.000000 0.000000 0.000000 0.000000 0.180334 0.180334 0.180334 0.199007 0.199007 0.199007 0.199007 0.199007 0.199007 0.199007 0.199007 0.199007 0.199007 0.199007 0.199007 0.199007 0.199007 0.199007 0.199007 0.199007 0.199007 0.199007 0.199007 0.199007 0.199007 0.199007 0.199007 0.199007 0.199007 0.199007 0.199007 0.199007 0.199007 0.199007 0.199007 0.199007 0.199007 0.199007 0.199007 0.199007 0.199007 0.199007 0.199007 0.199007 0.230940 0.230940 0.230940 0.230940 0.230940 0.230940 0.230940 0.230940 0.230940 0.230940 0.230940 0.230940 0.230940 0.230940 0.230940 0.230940 0.230940 0.230940 0.230940 0.230940 0.230940 0.230940 0.230940 0.230940 0.230940 0.230940 0.230940 0.230940 0.244339 0.244339 0.244339 0.244339 0.244339 0.244339 0.244339 0.244339 0.244339 0.244339 0.244339 0.244339 0.244339 0.244339 0.244339 0.244339 0.244339 0.244339 0.244339 0.244339 0.244339 0.244339 0.244339 0.256074 0.256074 0.256074 0.256074 0.256074 0.256074 0.256074 0.256074 0.256074 0.256074 0.256074 0.256074 0.256074 0.256074 0.256074 0.256074 0.256074 0.256074 0.256074 0.256074 0.256074 0.256074 0.256074 0.256074 0.256074 0.256074 0.256074 0.256074 0.256074 0.256074 0.256074 0.256074 0.256074 0.256074 0.256074 0.256074 0.256074 0.264906 0.264906 0.264906 0.264906 0.264906 0.264906 0.264906 0.264906 0.264906 0.264906 0.264906 0.264906 0.264906 0.264906 0.264906 0.264906 0.264906 0.264906 0.264906 0.264906 0.264906 0.264906 0.264906 0.264906 0.264906 0.264906 0.264906 0.264906 0.264906 0.264906 0.264906 0.264906 0.264906 0.264906 0.264906 0.264906 0.264906 0.264906 0.264906 0.264906 0.264906 0.264906 0.264906 0.264906 0.264906 0.264906 0.264906 0.264906 0.264906 0.264906 0.264906 0.264906 0.264906 0.264906 0.264906 0.264906 0.264906 0.264906 0.269680 0.269680 0.269680 0.269680 0.269680 0.269680 0.269680 0.269680 0.269680 0.269680 0.269680 0.269680 0.264906 0.264906 0.264906 0.264906 0.264906 0.264906 0.264906 0.264906 0.264906 0.264906 0.264906 0.264906 0.269680 0.269680 0.269680 0.269680 0.269680 0.269680 0.269680 0.269680 0.269680 0.269680 0.269680 0.264906 0.264906 0.264906 0.264906 0.264906 0.264906 0.264906 0.264906 0.264906 0.264906 0.264906 0.256074 0.256074 0.256074 0.256074 0.256074 0.256074 0.256074 0.256074 0.256074 0.256074 0.256074 0.264906 0.264906 0.264906 0.264906 0.264906 0.264906 0.264906 0.264906 0.264906 0.264906 0.260378 0.260378 0.260378 0.260378 0.260378 0.260378 0.260378 0.260378 0.260378 0.260378 0.264906 0.264906 0.264906 0.264906 0.264906 0.264906 0.264906 0.264906 0.264906 0.260378 0.260378 0.260378 0.260378 0.260378 0.260378 0.260378 0.260378 0.260378 0.256074 0.256074 0.256074 0.256074 0.256074 0.256074 0.256074 0.256074 0.256074 0.251976 0.251976 0.251976 0.251976 0.251976 0.251976 0.251976 0.251976 0.251976 0.251976 0.251976 0.251976 0.251976 0.251976 0.251976 0.251976 0.251976
