# Output from CTFFind version 4.1.9, run on 2019-11-03 19:00:49
# Input file: stack6_bm3d_averaged_1_2.25_0_2000_half.mrc ; Number of micrographs: 1
# Pixel size: 3.000 Angstroms ; acceleration voltage: 300.0 keV ; spherical aberration: 0.00 mm ; amplitude contrast: 0.07
# Box size: 512 pixels ; min. res.: 30.0 Angstroms ; max. res.: 5.0 Angstroms ; min. def.: 5000.0 um; max. def. 50000.0 um; num. frames averaged: 1
# 6 lines per micrograph: #1 - spatial frequency (1/Angstroms); #2 - 1D rotational average of spectrum (assuming no astigmatism); #3 - 1D rotational average of spectrum; #4 - CTF fit; #5 - cross-correlation between spectrum and CTF fit; #6 - 2sigma of expected cross correlation of noise
0.000000 0.000651 0.001302 0.001953 0.002604 0.003255 0.003906 0.004557 0.005208 0.005859 0.006510 0.007161 0.007812 0.008464 0.009115 0.009766 0.010417 0.011068 0.011719 0.012370 0.013021 0.013672 0.014323 0.014974 0.015625 0.016276 0.016927 0.017578 0.018229 0.018880 0.019531 0.020182 0.020833 0.021484 0.022135 0.022786 0.023438 0.024089 0.024740 0.025391 0.026042 0.026693 0.027344 0.027995 0.028646 0.029297 0.029948 0.030599 0.031250 0.031901 0.032552 0.033203 0.033854 0.034505 0.035156 0.035807 0.036458 0.037109 0.037760 0.038411 0.039062 0.039714 0.040365 0.041016 0.041667 0.042318 0.042969 0.043620 0.044271 0.044922 0.045573 0.046224 0.046875 0.047526 0.048177 0.048828 0.049479 0.050130 0.050781 0.051432 0.052083 0.052734 0.053385 0.054036 0.054688 0.055339 0.055990 0.056641 0.057292 0.057943 0.058594 0.059245 0.059896 0.060547 0.061198 0.061849 0.062500 0.063151 0.063802 0.064453 0.065104 0.065755 0.066406 0.067057 0.067708 0.068359 0.069010 0.069661 0.070312 0.070964 0.071615 0.072266 0.072917 0.073568 0.074219 0.074870 0.075521 0.076172 0.076823 0.077474 0.078125 0.078776 0.079427 0.080078 0.080729 0.081380 0.082031 0.082682 0.083333 0.083984 0.084635 0.085286 0.085938 0.086589 0.087240 0.087891 0.088542 0.089193 0.089844 0.090495 0.091146 0.091797 0.092448 0.093099 0.093750 0.094401 0.095052 0.095703 0.096354 0.097005 0.097656 0.098307 0.098958 0.099609 0.100260 0.100911 0.101562 0.102214 0.102865 0.103516 0.104167 0.104818 0.105469 0.106120 0.106771 0.107422 0.108073 0.108724 0.109375 0.110026 0.110677 0.111328 0.111979 0.112630 0.113281 0.113932 0.114583 0.115234 0.115885 0.116536 0.117188 0.117839 0.118490 0.119141 0.119792 0.120443 0.121094 0.121745 0.122396 0.123047 0.123698 0.124349 0.125000 0.125651 0.126302 0.126953 0.127604 0.128255 0.128906 0.129557 0.130208 0.130859 0.131510 0.132161 0.132812 0.133464 0.134115 0.134766 0.135417 0.136068 0.136719 0.137370 0.138021 0.138672 0.139323 0.139974 0.140625 0.141276 0.141927 0.142578 0.143229 0.143880 0.144531 0.145182 0.145833 0.146484 0.147135 0.147786 0.148438 0.149089 0.149740 0.150391 0.151042 0.151693 0.152344 0.152995 0.153646 0.154297 0.154948 0.155599 0.156250 0.156901 0.157552 0.158203 0.158854 0.159505 0.160156 0.160807 0.161458 0.162109 0.162760 0.163411 0.164062 0.164714 0.165365 0.166016 0.166667 0.167318 0.167969 0.168620 0.169271 0.169922 0.170573 0.171224 0.171875 0.172526 0.173177 0.173828 0.174479 0.175130 0.175781 0.176432 0.177083 0.177734 0.178385 0.179036 0.179688 0.180339 0.180990 0.181641 0.182292 0.182943 0.183594 0.184245 0.184896 0.185547 0.186198 0.186849 0.187500 0.188151 0.188802 0.189453 0.190104 0.190755 0.191406 0.192057 0.192708 0.193359 0.194010 0.194661 0.195312 0.195964 0.196615 0.197266 0.197917 0.198568 0.199219 0.199870 0.200521 0.201172 0.201823 0.202474 0.203125 0.203776 0.204427 0.205078 0.205729 0.206380 0.207031 0.207682 0.208333 0.208984 0.209635 0.210286 0.210938 0.211589 0.212240 0.212891 0.213542 0.214193 0.214844 0.215495 0.216146 0.216797 0.217448 0.218099 0.218750 0.219401 0.220052 0.220703 0.221354 0.222005 0.222656 0.223307 0.223958 0.224609 0.225260 0.225911 0.226562 0.227214 0.227865 0.228516 0.229167 0.229818 0.230469 0.231120 0.231771 0.232422 0.233073 0.233724 0.234375 0.235026 0.235677
       0.30496        0.30496        0.30496        0.30496        0.30496        0.30496        0.30496        0.30496        0.30496        0.30496        0.30496        0.30496        0.30496        0.30496        0.30496        0.30496        0.30496        0.30496        0.30496        0.30496        0.30496        0.30496        0.30496        0.30496        0.30496        0.30496        0.30496        0.30496        0.30496        0.30496        0.30496        0.30496        0.30496        0.30496        0.30496        0.30496        0.30496        0.30496        0.30496        0.30496        0.30496        0.30496        0.30496        0.30496        0.30496        0.30496        0.30496        0.30496        0.30496        0.30496        0.30496        0.62637        0.79223        0.39599        0.28712        0.17228       -0.11222        0.11574        0.01162        0.03307        0.11064        0.34433        0.41479        0.38012        0.21478       -0.02078        0.03644        0.06971       -0.17528       -0.17959       -0.08775       -0.11463       -0.29860       -0.19102       -0.31303       -0.26751       -0.28513       -0.40674       -0.46813       -0.46316       -0.41025       -0.34600       -0.42538       -0.34468       -0.40907       -0.35181       -0.27489       -0.20589       -0.19359       -0.11556       -0.06879        0.03862        0.07675        0.24245        0.30356        0.37572        0.39644        0.51192        0.57639        0.60844        0.71756        0.68231        0.73834        0.63991        0.65958        0.67830        0.62485        0.61610        0.61564        0.41571        0.38149        0.35296        0.33086        0.21646        0.12849        0.05949        0.05447        0.00173       -0.07966       -0.01401       -0.03855       -0.07882        0.06579        0.16824        0.26205        0.30975        0.32331        0.40825        0.51609        0.55741        0.51311        0.66430        0.55064        0.52135        0.59697        0.60873        0.53092        0.47814        0.41392        0.37874        0.23414        0.18977        0.12379        0.12387        0.08295        0.05621        0.08290        0.14107        0.13466        0.15589        0.21916        0.24393        0.32890        0.43858        0.46430        0.47694        0.51378        0.57205        0.54752        0.52225        0.40625        0.39705        0.35354        0.27313        0.23834        0.21351        0.17754        0.18370        0.17199        0.16920        0.13716        0.19630        0.24263        0.33731        0.38133        0.40001        0.46129        0.51322        0.44648        0.47541        0.42246        0.40853        0.39002        0.36825        0.28246        0.25080        0.19304        0.21858        0.22291        0.20059        0.21051        0.20381        0.24502        0.32093        0.39905        0.37961        0.37189        0.39051        0.44709        0.44423        0.42568        0.35168        0.31914        0.28310        0.28372        0.25424        0.21732        0.28221        0.29617        0.29476        0.30198        0.31277        0.31062        0.36792        0.35142        0.35186        0.36428        0.32411        0.32248        0.30666        0.28596        0.26986        0.25632        0.22590        0.26975        0.26463        0.29745        0.31003        0.34393        0.35705        0.31966        0.30863        0.34802        0.35525        0.26080        0.29342        0.28584        0.23906        0.22497        0.27673        0.26230        0.26251        0.30116        0.29943        0.32397        0.33437        0.35166        0.30156        0.31239        0.30635        0.28314        0.26402        0.24213        0.22861        0.24909        0.27444        0.29603        0.28932        0.28529        0.31466        0.33648        0.27798        0.30109        0.27453        0.26084        0.23770        0.23776        0.24402        0.26189        0.30103        0.26498        0.29835        0.28221        0.27851        0.30522        0.26967        0.31320        0.31531        0.29491        0.25715        0.25940        0.25753        0.25297        0.30840        0.30434        0.33716        0.30305        0.29501        0.27380        0.30893        0.23735        0.20326        0.27463        0.27506        0.26695        0.26915        0.29953        0.29402        0.35127        0.30057        0.24111        0.22467        0.23122        0.28223        0.30022        0.29203        0.24830        0.26369        0.26287        0.29545        0.27168        0.24276        0.26845        0.25530        0.29117        0.23365        0.27228        0.33319        0.29818        0.22568        0.25880        0.27952        0.29098        0.21444        0.24236        0.25390        0.26747        0.28314        0.35658        0.28196        0.26540        0.26735        0.25180        0.20628        0.18183        0.22710        0.22028        0.20723        0.19423        0.20914        0.25737        0.24023        0.24814        0.21971        0.18307        0.22138        0.22270        0.17521        0.17091        0.18815        0.22197        0.16310        0.05028        0.17988        0.15692        0.09356        0.18113        0.07488        0.10277        0.13503       -0.18121       -0.50026       -0.91484
2.867501 2.839225 2.811095 2.783110 2.755271 2.727577 2.700029 2.672626 2.645368 2.618257 2.591290 2.564469 2.537793 2.511263 2.484879 2.458640 2.432546 2.406598 2.380796 2.355138 2.329627 2.304261 2.279040 2.253965 2.229035 2.204251 2.179612 2.155119 2.130771 2.106568 2.082512 2.058600 2.034834 2.011214 1.987739 1.964409 1.941225 1.918187 1.895294 1.872546 1.849944 1.827488 1.805176 1.783011 1.760991 1.739116 1.717387 1.695803 1.674365 1.653072 1.631925 1.939329 2.267308 1.688921 1.718537 1.373459 0.925878 1.205826 1.054797 1.093341 1.015798 1.528634 1.517095 1.533075 1.268405 0.942687 0.808633 1.022484 0.718383 0.474547 0.597895 0.674167 0.411971 0.480101 0.314348 0.337717 0.245712 0.167359 -0.051949 0.009644 0.037709 0.060851 0.044721 0.120825 -0.050134 0.018130 0.102921 0.219917 0.263930 0.248620 0.343084 0.576561 0.435895 0.710442 0.852397 0.896230 0.902487 1.137118 1.135327 1.199699 1.324620 1.210287 1.394727 1.184973 1.130360 1.312185 1.128901 1.073348 1.164274 0.874253 0.722186 0.675454 0.678213 0.475681 0.394896 0.267406 0.206916 0.112589 -0.023842 0.119145 0.002527 -0.068142 0.105021 0.262515 0.333889 0.462652 0.474481 0.536633 0.700377 0.774962 0.625583 0.958798 0.806009 0.653274 0.764123 0.771996 0.711340 0.677555 0.459788 0.534838 0.257508 0.178718 0.116046 -0.006583 0.015935 -0.083220 -0.039830 -0.017117 0.061528 -0.073141 0.231353 0.132015 0.192732 0.384698 0.400569 0.506598 0.411045 0.579947 0.640122 0.481673 0.394235 0.328856 0.310852 0.152121 0.110590 0.030685 0.056824 -0.021008 -0.010803 -0.034730 -0.100034 -0.013320 0.005353 0.116309 0.271666 0.217310 0.352755 0.358914 0.400787 0.390168 0.433016 0.350818 0.222785 0.343181 0.164857 0.170443 -0.003314 0.055210 0.055265 0.002572 0.001932 -0.002083 0.048505 0.109704 0.246078 0.298226 0.228118 0.228459 0.374700 0.344240 0.343724 0.241646 0.162073 0.151852 0.101097 0.092081 0.024110 0.018751 0.147042 0.051497 0.161404 0.088937 0.123235 0.201235 0.202290 0.189014 0.185164 0.225090 0.124216 0.150704 0.101959 0.078035 0.100750 -0.032832 0.058613 0.082924 0.043222 0.138572 0.118521 0.204676 0.195472 0.122858 0.123843 0.230037 0.124863 0.062367 0.114071 0.039027 0.027348 0.006710 0.085344 0.052972 0.029841 0.137908 0.101790 0.131437 0.161065 0.157287 0.133799 0.093542 0.112673 0.071845 0.031530 0.013421 0.005623 0.011399 0.069127 0.107321 0.081841 0.052014 0.107110 0.127923 0.013415 0.093620 0.041911 0.001367 -0.015477 -0.019942 -0.018941 0.057720 0.061131 -0.013709 0.071301 0.053194 0.014854 0.073294 0.006909 0.058275 0.089244 0.005657 0.001653 -0.022786 0.006567 -0.023344 0.062446 0.063025 0.093592 0.009457 0.111216 0.000729 0.078287 -0.087007 -0.052400 0.012895 0.001627 0.031053 -0.028581 0.076003 0.039384 0.104748 0.001639 -0.065049 -0.068621 -0.088149 0.065311 0.016218 0.033277 -0.050930 -0.029208 -0.024464 0.038322 -0.010866 -0.039996 0.010788 -0.071922 0.050484 -0.064857 0.031775 0.101289 0.021507 -0.053412 0.040639 0.028981 0.031735 -0.083854 0.004349 -0.019846 0.075728 0.089926 0.163710 0.052101 0.039358 0.064654 0.055434 -0.052367 -0.017833 0.033162 0.033904 -0.009846 -0.008161 0.036233 0.133998 0.032293 0.181450 0.028628 0.039756 0.086434 0.126160 -0.020259 0.042663 0.018425 0.176396 0.064711 -0.022188 0.255562 0.224210 0.135429 0.316271 0.147234 0.107061 0.279207 -0.258000 -1.303535
0.072396 0.072835 0.074150 0.076341 0.079409 0.083351 0.088169 0.093859 0.100421 0.107853 0.116152 0.125314 0.135338 0.146217 0.157947 0.170520 0.183931 0.198168 0.213223 0.229084 0.245736 0.263164 0.281350 0.300274 0.319914 0.340244 0.361237 0.382860 0.405079 0.427856 0.451149 0.474913 0.499097 0.523648 0.548506 0.573609 0.598889 0.624273 0.649682 0.675034 0.700242 0.725210 0.749841 0.774031 0.797671 0.820648 0.842842 0.864131 0.884386 0.903477 0.921268 0.937621 0.952395 0.965446 0.976630 0.985803 0.992819 0.997534 0.999806 0.999497 0.996471 0.990600 0.981761 0.969839 0.954729 0.936336 0.914578 0.889388 0.860711 0.828513 0.792776 0.753503 0.710718 0.664470 0.614830 0.561897 0.505797 0.446684 0.384739 0.320177 0.253240 0.184203 0.113371 0.041078 0.032309 0.106397 0.180762 0.254957 0.328508 0.400923 0.471687 0.540272 0.606140 0.668741 0.727526 0.781948 0.831464 0.875549 0.913694 0.945417 0.970270 0.987840 0.997765 0.999730 0.993484 0.978840 0.955682 0.923974 0.883762 0.835180 0.778454 0.713905 0.641951 0.563108 0.477990 0.387307 0.291862 0.192548 0.090342 0.013707 0.118481 0.222805 0.325462 0.425207 0.520775 0.610907 0.694361 0.769934 0.836477 0.892918 0.938282 0.971706 0.992464 0.999980 0.993846 0.973841 0.939937 0.892316 0.831373 0.757725 0.672207 0.575874 0.469991 0.356023 0.235622 0.110604 0.017078 0.145350 0.272060 0.395010 0.511993 0.620834 0.719436 0.805816 0.878156 0.934842 0.974507 0.996068 0.998763 0.982176 0.946268 0.891388 0.818286 0.728117 0.622426 0.503139 0.372533 0.233200 0.088005 0.059972 0.207497 0.351245 0.487886 0.614151 0.726924 0.823319 0.900760 0.957058 0.990482 0.999823 0.984440 0.944308 0.880032 0.792863 0.684691 0.558011 0.415884 0.261874 0.099966 0.065529 0.230085 0.389080 0.537931 0.672222 0.787851 0.881152 0.949034 0.989083 0.999669 0.980022 0.930286 0.851549 0.745840 0.616097 0.466104 0.300395 0.124133 0.057048 0.237210 0.410300 0.570367 0.711762 0.829344 0.918686 0.976252 0.999556 0.987285 0.939385 0.857107 0.743003 0.600867 0.435635 0.253236 0.060389 0.135633 0.327267 0.506951 0.667436 0.802071 0.905105 0.971949 0.999395 0.985799 0.931196 0.837347 0.707719 0.547387 0.362856 0.161833 0.047100 0.254819 0.452068 0.629870 0.779938 0.895086 0.969593 0.999507 0.982884 0.919944 0.813114 0.666980 0.488121 0.284843 0.066822 0.155348 0.370651 0.568202 0.737800 0.870478 0.958990 0.998245 0.985627 0.921203 0.807793 0.650890 0.458436 0.240457 0.008557 0.224666 0.446311 0.643878 0.805992 0.923084 0.987978 0.996371 0.947163 0.842593 0.688205 0.492588 0.266957 0.024523 0.220239 0.452461 0.657780 0.823239 0.938132 0.994739 0.988884 0.920288 0.792682 0.613668 0.394312 0.148512 0.107860 0.357963 0.585079 0.773757 0.910877 0.986604 0.995148 0.935248 0.810375 0.628593 0.402107 0.146484 0.120379 0.379480 0.612072 0.801021 0.932112 0.995151 0.984823 0.901193 0.749826 0.541485 0.291433 0.018372 0.256949 0.513255 0.730442 0.891133 0.982153 0.995639 0.929799 0.789185 0.584460 0.331667 0.051022 0.234650 0.501769 0.727934 0.893844 0.984981 0.992955 0.916343 0.760959 0.539512 0.270622 0.022651 0.314785 0.579961 0.794396 0.938488 0.998675 0.968792 0.850776 0.654662 0.397809 0.103457 0.201338 0.488148 0.729842 0.903168 0.991059 0.984388 0.883003 0.695922 0.440632 0.141552 0.172263 0.469887 0.721576 0.901780
1.000000 1.000000 1.000000 1.000000 1.000000 1.000000 1.000000 1.000000 1.000000 1.000000 1.000000 1.000000 1.000000 1.000000 1.000000 1.000000 1.000000 1.000000 1.000000 1.000000 1.000000 1.000000 1.000000 1.000000 1.000000 1.000000 1.000000 1.000000 1.000000 1.000000 1.000000 1.000000 1.000000 1.000000 1.000000 1.000000 1.000000 1.000000 1.000000 1.000000 1.000000 1.000000 1.000000 1.000000 1.000000 1.000000 1.000000 1.000000 1.000000 1.000000 1.000000 1.000000 0.836253 0.836253 0.836253 0.836253 0.836253 0.836253 0.836253 0.814063 0.814063 0.814063 0.814063 0.814063 0.814063 0.814063 0.814063 0.814063 0.814063 0.814063 0.814063 0.814063 0.814063 0.814063 0.814063 0.814063 0.814063 0.814063 0.814063 0.814063 0.814063 0.814063 0.814063 0.814063 0.814063 0.814063 0.814063 0.814063 0.814063 0.814063 0.814063 0.814063 0.814063 0.814063 0.814063 0.814063 0.814063 0.814063 0.814063 0.814063 0.814063 0.814063 0.814063 0.954030 0.954667 0.954860 0.953819 0.952231 0.948752 0.944623 0.944170 0.945499 0.945709 0.946322 0.947618 0.948556 0.950096 0.951036 0.951800 0.952573 0.960671 0.964390 0.964154 0.963360 0.963291 0.970138 0.969549 0.967280 0.967734 0.967901 0.967881 0.967768 0.967660 0.967196 0.966644 0.967134 0.967015 0.966469 0.965695 0.963832 0.963908 0.963574 0.963689 0.964525 0.965194 0.965799 0.966190 0.966131 0.966222 0.964830 0.964094 0.953284 0.953253 0.945942 0.945676 0.944626 0.941912 0.940848 0.939327 0.939402 0.939315 0.938250 0.938158 0.937044 0.923374 0.923564 0.923039 0.923839 0.918719 0.908366 0.903150 0.899656 0.901271 0.905256 0.909688 0.908682 0.904814 0.903390 0.889906 0.882015 0.866036 0.860511 0.850408 0.858693 0.859710 0.861197 0.858533 0.857740 0.856315 0.854208 0.843128 0.847903 0.840931 0.835827 0.832757 0.831064 0.830051 0.832623 0.836062 0.825339 0.809599 0.810512 0.795242 0.777876 0.775802 0.780179 0.790147 0.804140 0.802543 0.801209 0.786914 0.782147 0.769135 0.760944 0.762636 0.765708 0.763445 0.771391 0.772508 0.782400 0.774248 0.777974 0.780199 0.792293 0.803277 0.808524 0.809221 0.805216 0.808151 0.787032 0.787156 0.788500 0.760920 0.764526 0.764498 0.763701 0.767303 0.768522 0.765398 0.763352 0.760008 0.736335 0.746767 0.751920 0.733033 0.740027 0.720309 0.712024 0.673939 0.676091 0.676750 0.686459 0.689081 0.686650 0.676651 0.689812 0.704207 0.696673 0.702352 0.699609 0.686018 0.684424 0.693020 0.690734 0.668203 0.669846 0.668211 0.657886 0.654926 0.637903 0.650127 0.641605 0.629104 0.622979 0.583404 0.568655 0.558238 0.541304 0.519073 0.496415 0.501942 0.495860 0.481819 0.474174 0.454130 0.405091 0.421262 0.420065 0.402874 0.390789 0.375790 0.325059 0.348177 0.343004 0.344698 0.320549 0.300601 0.272152 0.215419 0.202077 0.172061 0.198053 0.212406 0.199156 0.184404 0.180513 0.190110 0.199847 0.223407 0.221788 0.248878 0.223634 0.183074 0.203320 0.197139 0.184983 0.172296 0.138249 0.176323 0.166449 0.172658 0.179707 0.133604 0.101528 0.069676 0.076624 0.086393 0.114063 0.139904 0.127194 0.105351 0.005944 0.040940 0.068558 0.068558 0.068558 0.068558 0.068558 0.068558 0.068558 0.068558 0.068558 0.068558 0.068558 0.001054 0.001054 0.001054 0.001054 0.001054 0.001054 0.001054 0.001054 0.001054 0.001054 0.001054 0.001054 0.001054 0.001054 0.001054 0.001054 0.001054 0.001054 0.001054
0.000000 0.000000 0.000000 0.000000 0.000000 0.000000 0.000000 0.000000 0.000000 0.000000 0.000000 0.000000 0.000000 0.000000 0.000000 0.000000 0.000000 0.000000 0.000000 0.000000 0.000000 0.000000 0.000000 0.000000 0.000000 0.000000 0.000000 0.000000 0.000000 0.000000 0.000000 0.000000 0.000000 0.000000 0.000000 0.000000 0.000000 0.000000 0.000000 0.000000 0.000000 0.000000 0.000000 0.000000 0.000000 0.000000 0.000000 0.000000 0.000000 0.000000 0.000000 0.000000 0.173422 0.173422 0.173422 0.173422 0.173422 0.173422 0.173422 0.191565 0.191565 0.191565 0.191565 0.191565 0.191565 0.191565 0.191565 0.191565 0.191565 0.191565 0.191565 0.191565 0.191565 0.191565 0.191565 0.191565 0.191565 0.191565 0.191565 0.191565 0.191565 0.191565 0.191565 0.191565 0.191565 0.191565 0.191565 0.191565 0.191565 0.191565 0.191565 0.191565 0.191565 0.191565 0.191565 0.191565 0.191565 0.191565 0.191565 0.191565 0.191565 0.191565 0.191565 0.219529 0.219529 0.219529 0.219529 0.219529 0.219529 0.219529 0.219529 0.219529 0.219529 0.219529 0.219529 0.219529 0.219529 0.219529 0.219529 0.219529 0.219529 0.219529 0.219529 0.219529 0.219529 0.219529 0.219529 0.219529 0.219529 0.219529 0.219529 0.219529 0.219529 0.219529 0.237356 0.237356 0.237356 0.237356 0.237356 0.237356 0.237356 0.237356 0.237356 0.237356 0.237356 0.237356 0.237356 0.237356 0.237356 0.237356 0.237356 0.237356 0.237356 0.237356 0.237356 0.237356 0.237356 0.237356 0.244339 0.244339 0.244339 0.244339 0.244339 0.244339 0.244339 0.244339 0.244339 0.244339 0.244339 0.244339 0.244339 0.244339 0.244339 0.244339 0.244339 0.244339 0.244339 0.244339 0.244339 0.248069 0.248069 0.248069 0.248069 0.248069 0.248069 0.248069 0.248069 0.248069 0.248069 0.248069 0.248069 0.248069 0.248069 0.248069 0.248069 0.248069 0.248069 0.248069 0.248069 0.248069 0.248069 0.248069 0.248069 0.248069 0.248069 0.248069 0.248069 0.248069 0.248069 0.248069 0.248069 0.248069 0.248069 0.248069 0.248069 0.248069 0.256074 0.256074 0.256074 0.256074 0.256074 0.256074 0.256074 0.256074 0.256074 0.256074 0.256074 0.256074 0.256074 0.256074 0.256074 0.256074 0.256074 0.256074 0.256074 0.256074 0.256074 0.256074 0.256074 0.256074 0.256074 0.256074 0.256074 0.256074 0.256074 0.256074 0.256074 0.256074 0.256074 0.256074 0.256074 0.256074 0.256074 0.256074 0.256074 0.256074 0.256074 0.256074 0.256074 0.256074 0.256074 0.260378 0.260378 0.260378 0.260378 0.260378 0.260378 0.260378 0.260378 0.260378 0.260378 0.260378 0.260378 0.260378 0.256074 0.256074 0.256074 0.256074 0.256074 0.256074 0.256074 0.256074 0.256074 0.256074 0.256074 0.256074 0.256074 0.260378 0.260378 0.260378 0.260378 0.260378 0.260378 0.260378 0.260378 0.260378 0.260378 0.260378 0.260378 0.251976 0.251976 0.251976 0.251976 0.251976 0.251976 0.251976 0.251976 0.251976 0.251976 0.251976 0.251976 0.256074 0.256074 0.256074 0.256074 0.256074 0.256074 0.256074 0.256074 0.256074 0.256074 0.256074 0.251976 0.251976 0.251976 0.251976 0.251976 0.251976 0.251976 0.251976 0.251976 0.251976 0.251976 0.248069 0.248069 0.248069 0.248069 0.248069 0.248069 0.248069 0.248069 0.248069 0.248069 0.248069 0.256074 0.256074 0.256074 0.256074 0.256074 0.256074 0.256074 0.256074 0.256074 0.256074 0.256074 0.256074 0.256074 0.256074 0.256074 0.256074 0.256074 0.256074 0.256074
