# Output from CTFFind version 4.1.9, run on 2019-11-02 17:47:43
# Input file: stack11_bm3d_averaged_1_1.0_0_1500_half.mrc ; Number of micrographs: 1
# Pixel size: 3.000 Angstroms ; acceleration voltage: 300.0 keV ; spherical aberration: 0.00 mm ; amplitude contrast: 0.07
# Box size: 512 pixels ; min. res.: 30.0 Angstroms ; max. res.: 5.0 Angstroms ; min. def.: 5000.0 um; max. def. 50000.0 um; num. frames averaged: 1
# 6 lines per micrograph: #1 - spatial frequency (1/Angstroms); #2 - 1D rotational average of spectrum (assuming no astigmatism); #3 - 1D rotational average of spectrum; #4 - CTF fit; #5 - cross-correlation between spectrum and CTF fit; #6 - 2sigma of expected cross correlation of noise
0.000000 0.000651 0.001302 0.001953 0.002604 0.003255 0.003906 0.004557 0.005208 0.005859 0.006510 0.007161 0.007812 0.008464 0.009115 0.009766 0.010417 0.011068 0.011719 0.012370 0.013021 0.013672 0.014323 0.014974 0.015625 0.016276 0.016927 0.017578 0.018229 0.018880 0.019531 0.020182 0.020833 0.021484 0.022135 0.022786 0.023438 0.024089 0.024740 0.025391 0.026042 0.026693 0.027344 0.027995 0.028646 0.029297 0.029948 0.030599 0.031250 0.031901 0.032552 0.033203 0.033854 0.034505 0.035156 0.035807 0.036458 0.037109 0.037760 0.038411 0.039062 0.039714 0.040365 0.041016 0.041667 0.042318 0.042969 0.043620 0.044271 0.044922 0.045573 0.046224 0.046875 0.047526 0.048177 0.048828 0.049479 0.050130 0.050781 0.051432 0.052083 0.052734 0.053385 0.054036 0.054688 0.055339 0.055990 0.056641 0.057292 0.057943 0.058594 0.059245 0.059896 0.060547 0.061198 0.061849 0.062500 0.063151 0.063802 0.064453 0.065104 0.065755 0.066406 0.067057 0.067708 0.068359 0.069010 0.069661 0.070312 0.070964 0.071615 0.072266 0.072917 0.073568 0.074219 0.074870 0.075521 0.076172 0.076823 0.077474 0.078125 0.078776 0.079427 0.080078 0.080729 0.081380 0.082031 0.082682 0.083333 0.083984 0.084635 0.085286 0.085938 0.086589 0.087240 0.087891 0.088542 0.089193 0.089844 0.090495 0.091146 0.091797 0.092448 0.093099 0.093750 0.094401 0.095052 0.095703 0.096354 0.097005 0.097656 0.098307 0.098958 0.099609 0.100260 0.100911 0.101562 0.102214 0.102865 0.103516 0.104167 0.104818 0.105469 0.106120 0.106771 0.107422 0.108073 0.108724 0.109375 0.110026 0.110677 0.111328 0.111979 0.112630 0.113281 0.113932 0.114583 0.115234 0.115885 0.116536 0.117188 0.117839 0.118490 0.119141 0.119792 0.120443 0.121094 0.121745 0.122396 0.123047 0.123698 0.124349 0.125000 0.125651 0.126302 0.126953 0.127604 0.128255 0.128906 0.129557 0.130208 0.130859 0.131510 0.132161 0.132812 0.133464 0.134115 0.134766 0.135417 0.136068 0.136719 0.137370 0.138021 0.138672 0.139323 0.139974 0.140625 0.141276 0.141927 0.142578 0.143229 0.143880 0.144531 0.145182 0.145833 0.146484 0.147135 0.147786 0.148438 0.149089 0.149740 0.150391 0.151042 0.151693 0.152344 0.152995 0.153646 0.154297 0.154948 0.155599 0.156250 0.156901 0.157552 0.158203 0.158854 0.159505 0.160156 0.160807 0.161458 0.162109 0.162760 0.163411 0.164062 0.164714 0.165365 0.166016 0.166667 0.167318 0.167969 0.168620 0.169271 0.169922 0.170573 0.171224 0.171875 0.172526 0.173177 0.173828 0.174479 0.175130 0.175781 0.176432 0.177083 0.177734 0.178385 0.179036 0.179688 0.180339 0.180990 0.181641 0.182292 0.182943 0.183594 0.184245 0.184896 0.185547 0.186198 0.186849 0.187500 0.188151 0.188802 0.189453 0.190104 0.190755 0.191406 0.192057 0.192708 0.193359 0.194010 0.194661 0.195312 0.195964 0.196615 0.197266 0.197917 0.198568 0.199219 0.199870 0.200521 0.201172 0.201823 0.202474 0.203125 0.203776 0.204427 0.205078 0.205729 0.206380 0.207031 0.207682 0.208333 0.208984 0.209635 0.210286 0.210938 0.211589 0.212240 0.212891 0.213542 0.214193 0.214844 0.215495 0.216146 0.216797 0.217448 0.218099 0.218750 0.219401 0.220052 0.220703 0.221354 0.222005 0.222656 0.223307 0.223958 0.224609 0.225260 0.225911 0.226562 0.227214 0.227865 0.228516 0.229167 0.229818 0.230469 0.231120 0.231771 0.232422 0.233073 0.233724 0.234375 0.235026 0.235677
       0.31710        0.31710        0.31710        0.31710        0.31710        0.31710        0.31710        0.31710        0.31710        0.31710        0.31710        0.31710        0.31710        0.31710        0.31710        0.31710        0.31710        0.31710        0.31710        0.31710        0.31710        0.31710        0.31710        0.31710        0.31710        0.31710        0.31710        0.31710        0.31710        0.31710        0.31710        0.31710        0.31710        0.31710        0.31710        0.31710        0.31710        0.31710        0.31710        0.31710        0.31710        0.31710        0.31710        0.31710        0.31710        0.31710        0.31710        0.31710        0.31710        0.31710        0.31710        0.68488        0.87182        0.52248        0.08680       -0.06576       -0.42556       -0.20756       -0.29580       -0.11744       -0.07773       -0.11837       -0.06826       -0.20898       -0.23668       -0.25960       -0.33016       -0.33743       -0.49173       -0.38369       -0.46697       -0.45025       -0.42145       -0.47071       -0.54714       -0.56379       -0.58908       -0.62766       -0.57970       -0.41706       -0.37861       -0.33018       -0.31633       -0.21398       -0.20029        0.01848        0.06905        0.10357        0.22455        0.37203        0.44275        0.51728        0.55973        0.55445        0.57207        0.69896        0.81475        0.74532        0.73444        0.67362        0.58328        0.48620        0.40725        0.49364        0.37391        0.20181        0.07697        0.04615        0.00891       -0.06059       -0.03992       -0.02642       -0.07445       -0.00707       -0.02116        0.21093        0.24943        0.29135        0.43060        0.46591        0.40378        0.53418        0.63092        0.70311        0.76756        0.69177        0.66019        0.70072        0.58783        0.50571        0.41871        0.28908        0.18590        0.15737        0.10827        0.03740        0.01322       -0.00158        0.07536        0.13215        0.20277        0.28331        0.40221        0.41678        0.51262        0.60291        0.63565        0.61449        0.63158        0.55338        0.44581        0.44426        0.35083        0.22904        0.18478        0.14949        0.10573        0.12008        0.06609        0.09904        0.22224        0.26332        0.34056        0.34832        0.45299        0.51349        0.53788        0.55069        0.46898        0.42835        0.39278        0.37391        0.30775        0.25033        0.20065        0.18574        0.16114        0.19120        0.17732        0.26879        0.33321        0.36485        0.42365        0.46249        0.47877        0.44630        0.39362        0.41420        0.37505        0.29048        0.27502        0.22736        0.21340        0.19415        0.21197        0.23007        0.32965        0.37358        0.36657        0.45929        0.43996        0.43983        0.43044        0.39568        0.34336        0.32867        0.27756        0.23537        0.23709        0.26974        0.27020        0.30002        0.30023        0.34004        0.32976        0.40990        0.41696        0.37517        0.34385        0.36381        0.28076        0.28081        0.26322        0.27744        0.26015        0.28079        0.29223        0.31503        0.35178        0.35898        0.35960        0.33244        0.35169        0.28614        0.32346        0.26891        0.24898        0.28359        0.28150        0.30687        0.31441        0.33162        0.32657        0.31302        0.31671        0.28723        0.28686        0.25958        0.28174        0.26854        0.31108        0.28340        0.26264        0.30872        0.31092        0.31594        0.29047        0.29964        0.29157        0.24480        0.24003        0.22123        0.27874        0.27287        0.31066        0.31630        0.32100        0.31599        0.30484        0.27769        0.28405        0.33113        0.27210        0.26545        0.29473        0.29445        0.34106        0.33839        0.36166        0.33223        0.31266        0.28070        0.26617        0.26344        0.22703        0.26698        0.30075        0.29622        0.27781        0.29509        0.27085        0.32391        0.33147        0.25083        0.21824        0.27167        0.33911        0.27824        0.31469        0.32693        0.32718        0.29860        0.32272        0.34256        0.29693        0.29381        0.26209        0.27768        0.35182        0.35199        0.25872        0.26862        0.25468        0.28076        0.22489        0.29111        0.22116        0.25143        0.33012        0.31786        0.34681        0.29771        0.23924        0.23979        0.24289        0.24298        0.18346        0.22189        0.25972        0.29568        0.27894        0.30417        0.29384        0.27791        0.28201        0.21014        0.17872        0.18985        0.23270        0.19893        0.21845        0.23296        0.20826        0.24795        0.33538        0.29610        0.30683        0.22106        0.26028        0.23495        0.28662        0.30256        0.14475        0.21796        0.21896        0.12909        0.23068        0.11176        0.16462        0.19191        0.14019       -0.11750       -0.62513
2.585965 2.558978 2.532137 2.505443 2.478895 2.452493 2.426237 2.400127 2.374164 2.348347 2.322676 2.297151 2.271773 2.246540 2.221454 2.196514 2.171721 2.147074 2.122573 2.098218 2.074009 2.049947 2.026030 2.002260 1.978637 1.955159 1.931828 1.908643 1.885604 1.862712 1.839965 1.817365 1.794911 1.772603 1.750442 1.728427 1.706558 1.684835 1.663258 1.641828 1.620544 1.599406 1.578414 1.557569 1.536870 1.516317 1.495910 1.475650 1.455535 1.435567 1.415745 1.637655 2.043572 1.615738 1.128740 0.987494 0.423189 0.811211 0.563484 0.835084 0.772883 0.787081 0.753562 0.710104 0.562026 0.512339 0.486060 0.445830 0.205267 0.379799 0.203913 0.305896 0.238926 0.180644 0.129852 0.004374 0.042884 -0.016082 -0.055248 0.103761 0.207476 0.196799 0.154160 0.330126 0.197709 0.496821 0.574584 0.547581 0.592215 0.877346 0.808740 0.946213 0.888887 0.973757 0.941118 1.079903 1.141054 1.078409 1.125652 0.954228 0.944570 0.784870 0.652255 0.769285 0.704022 0.461310 0.306652 0.253521 0.213007 0.148241 0.089559 0.125656 0.065844 0.153092 0.051292 0.261540 0.377979 0.359070 0.478686 0.583745 0.467391 0.543366 0.699074 0.747645 0.781262 0.733883 0.733593 0.716619 0.627273 0.571889 0.429107 0.284763 0.206243 0.077301 0.132563 -0.044472 -0.027942 -0.081635 -0.038244 0.005236 0.142947 0.091056 0.302209 0.276543 0.365820 0.455062 0.523090 0.507679 0.519159 0.505178 0.331790 0.308059 0.275696 0.100437 0.046549 -0.001683 -0.036279 -0.042456 -0.092017 -0.104200 -0.016445 0.054827 0.135530 0.136114 0.227130 0.332033 0.307573 0.410869 0.395748 0.281899 0.231938 0.248619 0.207715 0.100461 0.072042 0.016930 0.002145 0.004238 -0.017904 0.057177 0.146525 0.142537 0.225287 0.253027 0.305514 0.258995 0.219658 0.186579 0.209576 0.148502 0.045771 0.046860 -0.011219 -0.010607 -0.032721 0.014820 0.015044 0.171869 0.124425 0.181210 0.236885 0.199317 0.191920 0.196678 0.135881 0.102607 0.063468 0.044175 -0.040607 0.007412 0.020742 0.051829 0.047971 0.077417 0.096704 0.119354 0.136177 0.184945 0.076145 0.095387 0.069777 -0.000734 0.004458 0.008883 -0.011534 0.017987 0.002671 0.029170 0.069546 0.085449 0.107375 0.048855 0.096537 0.053695 0.010632 0.062586 -0.035895 -0.014572 0.021337 -0.001474 0.051173 0.053223 0.048350 0.053832 0.051128 0.044999 0.019699 -0.001347 0.004893 0.015083 -0.012351 0.068931 -0.016290 0.007650 0.055197 0.046764 0.032030 0.043854 0.036792 0.016195 -0.025023 -0.043892 -0.016761 0.016320 0.019619 0.060863 0.059028 0.053391 0.084371 0.061232 0.021458 0.062001 0.084664 0.017306 0.020533 0.057885 0.053190 0.100724 0.109155 0.113413 0.112089 0.063915 0.041473 0.031072 0.006171 -0.004517 0.046216 0.076283 0.043854 0.028199 0.030910 0.025179 0.087665 0.062599 -0.047612 -0.053221 0.030757 0.094976 0.007379 0.032460 0.058009 0.088690 0.021877 0.056209 0.082313 0.031040 0.039235 -0.038064 0.015680 0.109364 0.066614 -0.056489 -0.019631 -0.050996 0.017916 -0.106094 0.035115 -0.110157 -0.033626 0.053372 0.026037 0.030916 -0.044675 -0.065884 -0.089881 -0.081752 -0.067445 -0.129734 -0.096442 -0.039166 0.017360 -0.029431 0.036759 -0.020284 -0.044013 0.052885 -0.110368 -0.094062 -0.093975 -0.005964 -0.059409 -0.021547 -0.010892 0.012362 0.014356 0.180670 -0.007614 0.145185 0.007525 0.267251 0.249301 0.327419 0.277800 0.107975 0.221129 0.258692 0.049796 0.255180 0.118598 0.137253 0.248856 0.143217 -0.645403
0.072396 0.072899 0.074406 0.076917 0.080432 0.084950 0.090470 0.096989 0.104507 0.113019 0.122524 0.133015 0.144489 0.156938 0.170355 0.184731 0.200055 0.216313 0.233492 0.251573 0.270537 0.290360 0.311018 0.332479 0.354713 0.377680 0.401340 0.425647 0.450551 0.475994 0.501918 0.528253 0.554928 0.581864 0.608976 0.636171 0.663353 0.690415 0.717246 0.743727 0.769734 0.795132 0.819785 0.843546 0.866265 0.887784 0.907942 0.926572 0.943503 0.958562 0.971571 0.982354 0.990731 0.996527 0.999566 0.999676 0.996693 0.990455 0.980814 0.967628 0.950771 0.930129 0.905605 0.877123 0.844625 0.808079 0.767477 0.722838 0.674212 0.621680 0.565359 0.505397 0.441984 0.375345 0.305745 0.233490 0.158926 0.082439 0.004455 0.074561 0.154107 0.233644 0.312602 0.390382 0.466357 0.539883 0.610297 0.676928 0.739100 0.796142 0.847395 0.892219 0.930001 0.960169 0.982194 0.995605 0.999997 0.995040 0.980487 0.956188 0.922091 0.878255 0.824854 0.762184 0.690665 0.610847 0.523406 0.429148 0.329003 0.224021 0.115365 0.004298 0.107823 0.219568 0.329447 0.435930 0.537468 0.632519 0.719566 0.797150 0.863894 0.918531 0.959931 0.987127 0.999345 0.996022 0.976836 0.941716 0.890865 0.824766 0.744191 0.650201 0.544145 0.427641 0.302569 0.171038 0.035366 0.101967 0.238353 0.371107 0.497523 0.614924 0.720722 0.812487 0.888000 0.945313 0.982815 0.999276 0.993897 0.966354 0.916819 0.845990 0.755089 0.645863 0.520561 0.381905 0.233034 0.077453 0.081055 0.238504 0.390813 0.533904 0.663820 0.776837 0.869577 0.939124 0.983121 0.999868 0.988394 0.948524 0.880908 0.787046 0.669272 0.530713 0.375233 0.207332 0.032033 0.145262 0.318931 0.483310 0.632881 0.762466 0.867407 0.943761 0.988455 0.999430 0.975753 0.917698 0.826774 0.705723 0.558463 0.389982 0.206194 0.013748 0.180204 0.368267 0.543081 0.697617 0.825473 0.921148 0.980306 0.999995 0.978815 0.917035 0.816639 0.681301 0.516284 0.328266 0.125092 0.084533 0.291405 0.486226 0.660017 0.804555 0.912771 0.979126 0.999923 0.973543 0.900594 0.783951 0.628690 0.441908 0.232427 0.010413 0.213106 0.426777 0.619501 0.781019 0.902479 0.976955 0.999870 0.969325 0.886276 0.754577 0.580846 0.374187 0.145744 0.091869 0.325245 0.540935 0.726238 0.869963 0.963136 0.999606 0.976493 0.894459 0.757771 0.574139 0.354340 0.111622 0.139053 0.381921 0.601398 0.783096 0.914803 0.987326 0.995199 0.937145 0.816278 0.640011 0.419665 0.169806 0.092681 0.349720 0.583260 0.776573 0.915475 0.989416 0.992337 0.923237 0.786372 0.591080 0.351218 0.084239 0.190034 0.450873 0.678190 0.854122 0.964470 0.999913 0.956862 0.837895 0.651693 0.412510 0.139141 0.146498 0.421098 0.661855 0.848388 0.964511 0.999701 0.950139 0.819198 0.617319 0.361281 0.072881 0.222869 0.499886 0.733314 0.901798 0.989484 0.987609 0.895460 0.720627 0.478498 0.190992 0.115347 0.411764 0.669979 0.864914 0.977188 0.995123 0.916070 0.746866 0.503374 0.209099 0.106993 0.413284 0.678650 0.875658 0.983463 0.990108 0.893969 0.704149 0.439743 0.128040 0.198213 0.504211 0.756803 0.928131 0.998776 0.960087 0.815355 0.579701 0.278638 0.054592 0.382611 0.668082 0.877989 0.987523 0.983138 0.864350 0.644071 0.347363 0.008696 0.331953 0.633794 0.860134 0.982904 0.986266 0.868796 0.643954 0.338698 0.009593 0.357630 0.661542 0.882440 0.991482 0.973768 0.830540 0.579319 0.251958 0.109267
1.000000 1.000000 1.000000 1.000000 1.000000 1.000000 1.000000 1.000000 1.000000 1.000000 1.000000 1.000000 1.000000 1.000000 1.000000 1.000000 1.000000 1.000000 1.000000 1.000000 1.000000 1.000000 1.000000 1.000000 1.000000 1.000000 1.000000 1.000000 1.000000 1.000000 1.000000 1.000000 1.000000 1.000000 1.000000 1.000000 1.000000 1.000000 1.000000 1.000000 1.000000 1.000000 1.000000 1.000000 1.000000 1.000000 1.000000 1.000000 1.000000 1.000000 1.000000 1.000000 0.933069 0.933069 0.933069 0.923912 0.923912 0.923912 0.923912 0.923912 0.923912 0.923912 0.923912 0.923912 0.923912 0.923912 0.923912 0.923912 0.923912 0.923912 0.923912 0.923912 0.923912 0.923912 0.923912 0.923912 0.923912 0.923912 0.923912 0.923912 0.923912 0.923912 0.923912 0.923912 0.923912 0.923912 0.923912 0.923912 0.923912 0.923912 0.923912 0.923912 0.923912 0.923912 0.923912 0.923912 0.949791 0.951009 0.958864 0.958692 0.958183 0.956068 0.955158 0.954026 0.953576 0.953849 0.954457 0.955294 0.967048 0.968068 0.969607 0.970407 0.971112 0.971762 0.971610 0.972395 0.971637 0.971093 0.970585 0.966618 0.967252 0.967837 0.967996 0.969041 0.968924 0.971152 0.971285 0.970705 0.969862 0.969162 0.968489 0.968092 0.967817 0.968309 0.968578 0.969847 0.972994 0.972406 0.972099 0.972257 0.972359 0.972528 0.972924 0.973698 0.969783 0.968280 0.966597 0.964400 0.968605 0.965726 0.965512 0.966876 0.967260 0.967662 0.966433 0.962419 0.956674 0.955964 0.953393 0.944502 0.943333 0.943983 0.946223 0.946661 0.945234 0.937969 0.938527 0.931903 0.933388 0.936665 0.931110 0.931011 0.932156 0.931521 0.930437 0.929840 0.926991 0.924304 0.922725 0.922417 0.925390 0.925227 0.926393 0.926263 0.920765 0.912642 0.900425 0.898775 0.893721 0.896763 0.885829 0.885559 0.885516 0.881381 0.884809 0.884261 0.885217 0.882077 0.865956 0.848568 0.842122 0.847065 0.851957 0.849259 0.846918 0.840029 0.851369 0.827648 0.840119 0.850757 0.846756 0.846882 0.845757 0.844072 0.838779 0.839870 0.842163 0.843473 0.841699 0.840097 0.839695 0.821212 0.822407 0.760249 0.742732 0.734623 0.740116 0.747104 0.748837 0.747774 0.755144 0.759970 0.752060 0.735257 0.728058 0.721366 0.726011 0.723304 0.727357 0.712021 0.683577 0.678396 0.649103 0.667006 0.679414 0.641680 0.666208 0.677459 0.676082 0.674838 0.668513 0.665960 0.661129 0.663687 0.670469 0.683606 0.701055 0.724357 0.719456 0.710237 0.706564 0.685640 0.677891 0.671955 0.688135 0.667819 0.663965 0.682836 0.682167 0.666670 0.643981 0.633170 0.625058 0.619758 0.629471 0.618818 0.613911 0.604259 0.580481 0.573292 0.608193 0.624287 0.645091 0.614250 0.600439 0.588436 0.569216 0.582133 0.527156 0.526880 0.547095 0.554687 0.532839 0.521510 0.532813 0.539213 0.540554 0.530644 0.519523 0.506199 0.522036 0.555071 0.544542 0.525641 0.528244 0.527052 0.520059 0.429370 0.423544 0.396649 0.364110 0.305753 0.289476 0.281588 0.265432 0.253109 0.217178 0.213684 0.223791 0.231014 0.243463 0.245302 0.228105 0.238319 0.232993 0.219625 0.157409 0.147139 0.139895 0.129215 0.127726 0.103696 0.127148 0.195108 0.197540 0.197540 0.197540 0.197540 0.197540 0.197540 0.207825 0.207825 0.207825 0.207825 0.207825 0.207825 0.207825 0.207825 0.207825 0.217997 0.217997 0.217997 0.217997 0.217997 0.217997 0.217997 0.217997 0.217997 0.217997 0.217997 0.217997 0.217997 0.217997
0.000000 0.000000 0.000000 0.000000 0.000000 0.000000 0.000000 0.000000 0.000000 0.000000 0.000000 0.000000 0.000000 0.000000 0.000000 0.000000 0.000000 0.000000 0.000000 0.000000 0.000000 0.000000 0.000000 0.000000 0.000000 0.000000 0.000000 0.000000 0.000000 0.000000 0.000000 0.000000 0.000000 0.000000 0.000000 0.000000 0.000000 0.000000 0.000000 0.000000 0.000000 0.000000 0.000000 0.000000 0.000000 0.000000 0.000000 0.000000 0.000000 0.000000 0.000000 0.000000 0.180334 0.180334 0.180334 0.199007 0.199007 0.199007 0.199007 0.199007 0.199007 0.199007 0.199007 0.199007 0.199007 0.199007 0.199007 0.199007 0.199007 0.199007 0.199007 0.199007 0.199007 0.199007 0.199007 0.199007 0.199007 0.199007 0.199007 0.199007 0.199007 0.199007 0.199007 0.199007 0.199007 0.199007 0.199007 0.199007 0.199007 0.199007 0.199007 0.199007 0.199007 0.199007 0.199007 0.199007 0.225018 0.225018 0.225018 0.225018 0.225018 0.225018 0.225018 0.225018 0.225018 0.225018 0.225018 0.225018 0.225018 0.225018 0.225018 0.225018 0.225018 0.225018 0.225018 0.225018 0.225018 0.225018 0.225018 0.225018 0.225018 0.225018 0.225018 0.225018 0.225018 0.244339 0.244339 0.244339 0.244339 0.244339 0.244339 0.244339 0.244339 0.244339 0.244339 0.244339 0.244339 0.244339 0.244339 0.244339 0.244339 0.244339 0.244339 0.244339 0.244339 0.244339 0.244339 0.244339 0.251976 0.251976 0.251976 0.251976 0.251976 0.251976 0.251976 0.251976 0.251976 0.251976 0.251976 0.251976 0.251976 0.251976 0.251976 0.251976 0.251976 0.251976 0.251976 0.251976 0.264906 0.264906 0.264906 0.264906 0.264906 0.264906 0.264906 0.264906 0.264906 0.264906 0.264906 0.264906 0.264906 0.264906 0.264906 0.264906 0.264906 0.264906 0.264906 0.264906 0.264906 0.264906 0.264906 0.264906 0.264906 0.264906 0.264906 0.264906 0.264906 0.264906 0.264906 0.264906 0.264906 0.264906 0.264906 0.264906 0.264906 0.264906 0.264906 0.264906 0.264906 0.264906 0.264906 0.264906 0.264906 0.264906 0.264906 0.264906 0.264906 0.264906 0.264906 0.264906 0.264906 0.264906 0.264906 0.264906 0.264906 0.264906 0.264906 0.264906 0.264906 0.264906 0.256074 0.256074 0.256074 0.256074 0.256074 0.256074 0.256074 0.256074 0.256074 0.256074 0.256074 0.256074 0.256074 0.256074 0.269680 0.269680 0.269680 0.269680 0.269680 0.269680 0.269680 0.269680 0.269680 0.269680 0.269680 0.269680 0.264906 0.264906 0.264906 0.264906 0.264906 0.264906 0.264906 0.264906 0.264906 0.264906 0.264906 0.264906 0.269680 0.269680 0.269680 0.269680 0.269680 0.269680 0.269680 0.269680 0.269680 0.269680 0.269680 0.264906 0.264906 0.264906 0.264906 0.264906 0.264906 0.264906 0.264906 0.264906 0.264906 0.264906 0.256074 0.256074 0.256074 0.256074 0.256074 0.256074 0.256074 0.256074 0.256074 0.256074 0.256074 0.264906 0.264906 0.264906 0.264906 0.264906 0.264906 0.264906 0.264906 0.264906 0.264906 0.260378 0.260378 0.260378 0.260378 0.260378 0.260378 0.260378 0.260378 0.260378 0.260378 0.256074 0.256074 0.256074 0.256074 0.256074 0.256074 0.256074 0.256074 0.256074 0.256074 0.260378 0.260378 0.260378 0.260378 0.260378 0.260378 0.260378 0.260378 0.260378 0.256074 0.256074 0.256074 0.256074 0.256074 0.256074 0.256074 0.256074 0.256074 0.251976 0.251976 0.251976 0.251976 0.251976 0.251976 0.251976 0.251976 0.251976 0.251976 0.251976 0.251976 0.251976 0.251976
