# Output from CTFFind version 4.1.9, run on 2019-11-03 19:41:29
# Input file: stack6_bm3d_averaged_1_4.75_0_1500_half.mrc ; Number of micrographs: 1
# Pixel size: 3.000 Angstroms ; acceleration voltage: 300.0 keV ; spherical aberration: 0.00 mm ; amplitude contrast: 0.07
# Box size: 512 pixels ; min. res.: 30.0 Angstroms ; max. res.: 5.0 Angstroms ; min. def.: 5000.0 um; max. def. 50000.0 um; num. frames averaged: 1
# 6 lines per micrograph: #1 - spatial frequency (1/Angstroms); #2 - 1D rotational average of spectrum (assuming no astigmatism); #3 - 1D rotational average of spectrum; #4 - CTF fit; #5 - cross-correlation between spectrum and CTF fit; #6 - 2sigma of expected cross correlation of noise
0.000000 0.000651 0.001302 0.001953 0.002604 0.003255 0.003906 0.004557 0.005208 0.005859 0.006510 0.007161 0.007812 0.008464 0.009115 0.009766 0.010417 0.011068 0.011719 0.012370 0.013021 0.013672 0.014323 0.014974 0.015625 0.016276 0.016927 0.017578 0.018229 0.018880 0.019531 0.020182 0.020833 0.021484 0.022135 0.022786 0.023438 0.024089 0.024740 0.025391 0.026042 0.026693 0.027344 0.027995 0.028646 0.029297 0.029948 0.030599 0.031250 0.031901 0.032552 0.033203 0.033854 0.034505 0.035156 0.035807 0.036458 0.037109 0.037760 0.038411 0.039062 0.039714 0.040365 0.041016 0.041667 0.042318 0.042969 0.043620 0.044271 0.044922 0.045573 0.046224 0.046875 0.047526 0.048177 0.048828 0.049479 0.050130 0.050781 0.051432 0.052083 0.052734 0.053385 0.054036 0.054688 0.055339 0.055990 0.056641 0.057292 0.057943 0.058594 0.059245 0.059896 0.060547 0.061198 0.061849 0.062500 0.063151 0.063802 0.064453 0.065104 0.065755 0.066406 0.067057 0.067708 0.068359 0.069010 0.069661 0.070312 0.070964 0.071615 0.072266 0.072917 0.073568 0.074219 0.074870 0.075521 0.076172 0.076823 0.077474 0.078125 0.078776 0.079427 0.080078 0.080729 0.081380 0.082031 0.082682 0.083333 0.083984 0.084635 0.085286 0.085938 0.086589 0.087240 0.087891 0.088542 0.089193 0.089844 0.090495 0.091146 0.091797 0.092448 0.093099 0.093750 0.094401 0.095052 0.095703 0.096354 0.097005 0.097656 0.098307 0.098958 0.099609 0.100260 0.100911 0.101562 0.102214 0.102865 0.103516 0.104167 0.104818 0.105469 0.106120 0.106771 0.107422 0.108073 0.108724 0.109375 0.110026 0.110677 0.111328 0.111979 0.112630 0.113281 0.113932 0.114583 0.115234 0.115885 0.116536 0.117188 0.117839 0.118490 0.119141 0.119792 0.120443 0.121094 0.121745 0.122396 0.123047 0.123698 0.124349 0.125000 0.125651 0.126302 0.126953 0.127604 0.128255 0.128906 0.129557 0.130208 0.130859 0.131510 0.132161 0.132812 0.133464 0.134115 0.134766 0.135417 0.136068 0.136719 0.137370 0.138021 0.138672 0.139323 0.139974 0.140625 0.141276 0.141927 0.142578 0.143229 0.143880 0.144531 0.145182 0.145833 0.146484 0.147135 0.147786 0.148438 0.149089 0.149740 0.150391 0.151042 0.151693 0.152344 0.152995 0.153646 0.154297 0.154948 0.155599 0.156250 0.156901 0.157552 0.158203 0.158854 0.159505 0.160156 0.160807 0.161458 0.162109 0.162760 0.163411 0.164062 0.164714 0.165365 0.166016 0.166667 0.167318 0.167969 0.168620 0.169271 0.169922 0.170573 0.171224 0.171875 0.172526 0.173177 0.173828 0.174479 0.175130 0.175781 0.176432 0.177083 0.177734 0.178385 0.179036 0.179688 0.180339 0.180990 0.181641 0.182292 0.182943 0.183594 0.184245 0.184896 0.185547 0.186198 0.186849 0.187500 0.188151 0.188802 0.189453 0.190104 0.190755 0.191406 0.192057 0.192708 0.193359 0.194010 0.194661 0.195312 0.195964 0.196615 0.197266 0.197917 0.198568 0.199219 0.199870 0.200521 0.201172 0.201823 0.202474 0.203125 0.203776 0.204427 0.205078 0.205729 0.206380 0.207031 0.207682 0.208333 0.208984 0.209635 0.210286 0.210938 0.211589 0.212240 0.212891 0.213542 0.214193 0.214844 0.215495 0.216146 0.216797 0.217448 0.218099 0.218750 0.219401 0.220052 0.220703 0.221354 0.222005 0.222656 0.223307 0.223958 0.224609 0.225260 0.225911 0.226562 0.227214 0.227865 0.228516 0.229167 0.229818 0.230469 0.231120 0.231771 0.232422 0.233073 0.233724 0.234375 0.235026 0.235677
       0.30206        0.30206        0.30206        0.30206        0.30206        0.30206        0.30206        0.30206        0.30206        0.30206        0.30206        0.30206        0.30206        0.30206        0.30206        0.30206        0.30206        0.30206        0.30206        0.30206        0.30206        0.30206        0.30206        0.30206        0.30206        0.30206        0.30206        0.30206        0.30206        0.30206        0.30206        0.30206        0.30206        0.30206        0.30206        0.30206        0.30206        0.30206        0.30206        0.30206        0.30206        0.30206        0.30206        0.30206        0.30206        0.30206        0.30206        0.30206        0.30206        0.30206        0.30206        0.60160        0.73432        0.35481        0.19264        0.12517       -0.15440        0.10682        0.02160        0.02906        0.08716        0.30965        0.33981        0.26841        0.15772       -0.03874       -0.00885        0.03943       -0.14979       -0.16020       -0.09248       -0.11634       -0.24888       -0.15955       -0.28630       -0.29392       -0.29636       -0.36322       -0.44160       -0.39252       -0.30260       -0.27128       -0.36872       -0.27657       -0.33906       -0.27457       -0.19900       -0.14981       -0.11121       -0.03293       -0.00486        0.10570        0.14851        0.21067        0.33010        0.39304        0.35634        0.46155        0.55478        0.56425        0.64740        0.59585        0.63387        0.59830        0.62087        0.62204        0.55612        0.56781        0.56051        0.39423        0.32556        0.35525        0.34341        0.18429        0.13992        0.10518        0.07092        0.07742       -0.01934        0.03961        0.00963       -0.03606        0.08164        0.15694        0.25377        0.34450        0.33283        0.36319        0.46932        0.50166        0.43188        0.64831        0.52679        0.48236        0.56216        0.50007        0.51847        0.47511        0.36148        0.31109        0.25176        0.20673        0.18627        0.17465        0.15029        0.09647        0.16141        0.16063        0.20537        0.18452        0.25485        0.28898        0.32284        0.44570        0.42261        0.41190        0.44992        0.48985        0.47110        0.45004        0.37954        0.40111        0.34205        0.27846        0.22507        0.23607        0.21778        0.17176        0.14897        0.19403        0.18996        0.24336        0.31487        0.34083        0.40112        0.38567        0.44778        0.45770        0.44711        0.42331        0.39098        0.40343        0.37675        0.33770        0.31515        0.29732        0.24692        0.26256        0.25894        0.21007        0.26485        0.25030        0.26018        0.31185        0.35830        0.39505        0.39242        0.40661        0.38493        0.40191        0.38864        0.29037        0.28003        0.24174        0.25569        0.21422        0.18949        0.26967        0.31467        0.29602        0.26772        0.32611        0.26034        0.33741        0.35389        0.35610        0.36073        0.37980        0.31252        0.31834        0.30255        0.27203        0.26827        0.24343        0.27187        0.29428        0.29266        0.31258        0.35677        0.37128        0.35288        0.33264        0.34852        0.31822        0.30541        0.30068        0.27143        0.27859        0.25363        0.29676        0.31155        0.29647        0.28998        0.31112        0.31719        0.32689        0.32952        0.28818        0.25703        0.28313        0.27518        0.26179        0.24489        0.22498        0.24200        0.25404        0.24172        0.26521        0.27736        0.32049        0.30647        0.28158        0.29750        0.24109        0.20990        0.26492        0.23996        0.20662        0.26260        0.30566        0.27066        0.29504        0.29445        0.29091        0.29732        0.29884        0.26737        0.29694        0.28001        0.31598        0.26052        0.26351        0.24916        0.29326        0.29705        0.31293        0.32089        0.30553        0.20699        0.27006        0.26384        0.22837        0.24574        0.24447        0.28653        0.26486        0.30433        0.29808        0.34792        0.29906        0.27026        0.23253        0.22946        0.24535        0.24516        0.27115        0.28526        0.29934        0.31678        0.27969        0.27771        0.25342        0.26390        0.27584        0.23724        0.21264        0.23061        0.31329        0.29532        0.28651        0.28264        0.22331        0.26419        0.24790        0.20481        0.21886        0.26693        0.27975        0.28049        0.21180        0.19372        0.25171        0.24641        0.25876        0.24689        0.24427        0.18911        0.21733        0.25313        0.22589        0.27442        0.23639        0.23403        0.17002        0.27491        0.30006        0.17182        0.16424        0.12067        0.13745        0.27682        0.15251        0.11822        0.31998        0.20730        0.13069        0.09911        0.15949        0.12478        0.16135       -0.08524       -0.70589       -1.04590
3.074496 3.043160 3.011989 2.980981 2.950138 2.919459 2.888944 2.858593 2.828406 2.798383 2.768525 2.738831 2.709300 2.679934 2.650732 2.621695 2.592821 2.564112 2.535566 2.507185 2.478968 2.450915 2.423027 2.395302 2.367742 2.340345 2.313113 2.286045 2.259141 2.232402 2.205826 2.179415 2.153168 2.127084 2.101165 2.075411 2.049820 2.024393 1.999131 1.974033 1.949099 1.924329 1.899723 1.875281 1.851004 1.826890 1.802941 1.779156 1.755535 1.732078 1.708786 2.048220 2.361016 1.728811 1.625720 1.353265 0.812794 1.215665 1.083458 1.100373 0.962197 1.568558 1.451319 1.450616 1.205423 0.880673 0.725907 0.963062 0.745251 0.423434 0.519666 0.648679 0.392065 0.429852 0.273149 0.187671 0.138749 0.135918 -0.130979 -0.045062 0.090798 0.052321 0.005586 0.093549 -0.047511 -0.019763 0.142644 0.213895 0.268325 0.325866 0.372254 0.617671 0.563060 0.641824 0.858892 0.967434 0.836002 1.151492 1.139945 1.224278 1.287151 1.158790 1.320706 1.172384 1.130161 1.298784 1.082452 1.041738 1.126663 0.895715 0.611440 0.656729 0.713428 0.425180 0.333967 0.263973 0.134831 0.135484 -0.009359 0.096823 0.047434 -0.089892 0.043055 0.161898 0.265255 0.493341 0.490619 0.448449 0.627357 0.764853 0.501594 0.906591 0.750203 0.707636 0.775081 0.614834 0.689506 0.689209 0.417395 0.333131 0.233483 0.164397 0.109734 0.012077 0.043965 -0.124411 -0.000942 -0.025528 0.077384 -0.035938 0.164556 0.169524 0.138532 0.360244 0.443947 0.349022 0.292457 0.503241 0.498440 0.384715 0.337085 0.311551 0.246127 0.172936 0.016928 0.034123 -0.030494 0.009972 -0.155341 -0.073702 -0.116360 0.070756 0.000939 0.192414 0.206484 0.235806 0.314280 0.315722 0.367580 0.329422 0.369479 0.364399 0.229891 0.269817 0.140405 0.195996 0.056043 0.111188 0.045976 0.052302 -0.030858 0.092350 0.003624 0.107276 0.202003 0.214295 0.288428 0.276122 0.286338 0.273047 0.281669 0.175208 0.082418 0.075661 0.016079 0.011872 -0.068079 -0.042809 0.077697 0.154490 0.066402 0.087452 0.086206 0.096803 0.188175 0.161985 0.198066 0.245985 0.147854 0.106356 0.104046 0.082613 0.057711 -0.031833 0.015185 0.131587 0.005659 0.119000 0.112355 0.218779 0.217774 0.197099 0.182570 0.198707 0.103724 0.124568 0.127570 0.059147 0.025263 0.081473 0.102867 0.126473 0.107867 0.097616 0.116954 0.150361 0.138198 0.117549 0.032439 -0.008547 0.066916 0.007466 0.035585 -0.041666 -0.053370 0.007265 -0.019160 -0.027301 0.037348 0.031625 0.106107 0.096630 0.013961 0.066643 -0.065599 -0.044354 0.038183 -0.062578 -0.066928 0.050972 0.069853 0.005610 0.055628 0.057154 0.054717 0.126708 -0.003346 0.029847 0.116634 -0.000254 0.102316 -0.008056 0.034549 -0.032347 0.124834 0.035178 0.091410 0.124398 0.071799 -0.084318 0.039745 0.025559 -0.038273 -0.009493 0.003681 0.036647 0.032520 0.147032 0.053260 0.154838 0.098512 -0.018447 -0.000036 -0.041255 0.007771 0.033665 0.034547 0.062741 0.092271 0.134958 0.062725 0.073772 0.052102 0.080696 0.074092 0.040106 -0.054257 0.043033 0.136096 0.104105 0.113343 0.111669 0.002833 0.078623 0.026322 -0.047108 0.010921 0.066720 0.121800 0.076773 -0.026259 -0.038124 0.060195 0.056179 0.040793 0.051630 0.009492 -0.004709 -0.003708 0.071678 0.009657 0.128821 -0.028944 0.098501 -0.069129 0.144615 0.160144 -0.107983 -0.030206 -0.168002 -0.232928 0.190519 -0.096224 0.086822 0.524845 0.296723 0.208924 0.105858 0.398481 0.175059 0.259764 -0.129847 -1.719849
0.072396 0.072835 0.074151 0.076345 0.079415 0.083361 0.088183 0.093878 0.100446 0.107885 0.116191 0.125362 0.135394 0.146283 0.158023 0.170608 0.184030 0.198280 0.213349 0.229223 0.245889 0.263332 0.281534 0.300474 0.320130 0.340477 0.361486 0.383126 0.405362 0.428157 0.451467 0.475247 0.499448 0.524015 0.548889 0.574006 0.599300 0.624696 0.650117 0.675479 0.700694 0.725668 0.750303 0.774494 0.798133 0.821105 0.843292 0.864570 0.884812 0.903884 0.921653 0.937978 0.952720 0.965735 0.976878 0.986003 0.992967 0.997623 0.999831 0.999452 0.996351 0.990398 0.981470 0.969455 0.954245 0.935747 0.913879 0.888574 0.859778 0.827456 0.791592 0.752189 0.709273 0.662892 0.613119 0.560054 0.503823 0.444582 0.382515 0.317835 0.250788 0.181649 0.110725 0.038353 0.035101 0.109240 0.183641 0.257853 0.331402 0.403793 0.474512 0.543028 0.608801 0.671283 0.729922 0.784170 0.833486 0.877342 0.915232 0.946675 0.971220 0.988460 0.998031 0.999624 0.992987 0.977937 0.954363 0.922231 0.881592 0.832584 0.775438 0.710481 0.638135 0.558923 0.473464 0.382474 0.286763 0.187228 0.084850 0.019313 0.124140 0.228452 0.331029 0.430620 0.525962 0.615793 0.698871 0.773993 0.840014 0.895865 0.940575 0.973289 0.993286 1.000000 0.993034 0.972176 0.937412 0.888937 0.827160 0.752711 0.666441 0.569421 0.462930 0.348446 0.227636 0.102326 0.025515 0.153808 0.280394 0.403069 0.519624 0.627886 0.725759 0.811269 0.882608 0.938177 0.976623 0.996885 0.998222 0.980246 0.942942 0.886689 0.812270 0.720866 0.614057 0.493795 0.362387 0.222450 0.076869 0.071256 0.218675 0.362060 0.498075 0.623458 0.735103 0.830140 0.906018 0.960579 0.992131 0.999503 0.982106 0.939960 0.873728 0.784714 0.674861 0.546716 0.403389 0.248488 0.086033 0.079634 0.243969 0.402345 0.550175 0.683066 0.796939 0.888170 0.953718 0.991230 0.999150 0.976783 0.924360 0.843055 0.734983 0.603166 0.451465 0.284485 0.107445 0.073976 0.253813 0.426009 0.584621 0.724032 0.839154 0.925632 0.980019 0.999934 0.984180 0.932830 0.847264 0.730162 0.585440 0.418151 0.234313 0.040726 0.155287 0.346139 0.524277 0.682488 0.814192 0.913737 0.976661 0.999907 0.981998 0.923147 0.825301 0.692105 0.528801 0.342046 0.139663 0.069675 0.276802 0.472458 0.647706 0.794354 0.905347 0.975134 0.999972 0.978148 0.910126 0.798582 0.648342 0.466202 0.260655 0.041519 0.180527 0.394435 0.589358 0.755197 0.883145 0.966179 0.999472 0.980713 0.910290 0.791350 0.629698 0.433554 0.213175 0.019665 0.252281 0.471761 0.665687 0.822859 0.933952 0.992109 0.993402 0.937136 0.825970 0.665852 0.465734 0.237135 0.006510 0.250621 0.480311 0.681328 0.840944 0.948781 0.997534 0.983511 0.906947 0.772094 0.587044 0.363289 0.115051 0.141582 0.389701 0.612668 0.795261 0.924730 0.991729 0.991043 0.922044 0.788842 0.600109 0.368570 0.110202 0.156848 0.413510 0.641148 0.822935 0.945133 0.998172 0.977457 0.883824 0.723605 0.508263 0.253639 0.021161 0.295183 0.547195 0.757357 0.908792 0.989007 0.990972 0.913809 0.762986 0.550028 0.291690 0.008709 0.275830 0.538366 0.756809 0.912445 0.991576 0.986798 0.897771 0.731392 0.501352 0.227080 0.067832 0.357626 0.616626 0.821506 0.953466 0.999988 0.956120 0.825077 0.618111 0.353636 0.055667 0.248319 0.529886 0.762304 0.923131 0.996433 0.974447 0.858494 0.659030 0.394796 0.091159 0.222279 0.514539 0.756320 0.922979
1.000000 1.000000 1.000000 1.000000 1.000000 1.000000 1.000000 1.000000 1.000000 1.000000 1.000000 1.000000 1.000000 1.000000 1.000000 1.000000 1.000000 1.000000 1.000000 1.000000 1.000000 1.000000 1.000000 1.000000 1.000000 1.000000 1.000000 1.000000 1.000000 1.000000 1.000000 1.000000 1.000000 1.000000 1.000000 1.000000 1.000000 1.000000 1.000000 1.000000 1.000000 1.000000 1.000000 1.000000 1.000000 1.000000 1.000000 1.000000 1.000000 1.000000 1.000000 1.000000 0.807036 0.807036 0.807036 0.807036 0.807036 0.807036 0.807036 0.785307 0.785307 0.785307 0.785307 0.785307 0.785307 0.785307 0.785307 0.785307 0.785307 0.785307 0.785307 0.785307 0.785307 0.785307 0.785307 0.785307 0.785307 0.785307 0.785307 0.785307 0.785307 0.785307 0.785307 0.785307 0.785307 0.785307 0.785307 0.785307 0.785307 0.785307 0.785307 0.785307 0.785307 0.785307 0.785307 0.785307 0.785307 0.785307 0.785307 0.785307 0.785307 0.785307 0.785307 0.933674 0.932838 0.934259 0.932679 0.934863 0.933624 0.932670 0.934032 0.932956 0.930739 0.930900 0.931386 0.932631 0.932770 0.937826 0.939157 0.947926 0.952028 0.952978 0.952724 0.951347 0.961458 0.959370 0.957590 0.951154 0.952310 0.953417 0.954262 0.953201 0.952595 0.953837 0.954738 0.953239 0.951362 0.950524 0.949708 0.948959 0.948694 0.948991 0.949053 0.948856 0.949700 0.950443 0.949553 0.951641 0.950452 0.950309 0.946754 0.945159 0.946783 0.944980 0.945382 0.941959 0.937838 0.937050 0.936473 0.936062 0.937118 0.938143 0.938825 0.939403 0.940028 0.940163 0.940015 0.940470 0.937643 0.930958 0.927454 0.924996 0.926192 0.929198 0.931999 0.929957 0.925771 0.925786 0.921230 0.918475 0.905118 0.892979 0.890055 0.886725 0.888843 0.891498 0.890211 0.887663 0.886301 0.886297 0.884743 0.888836 0.889657 0.881296 0.871604 0.870086 0.865681 0.870291 0.874960 0.876636 0.885626 0.880373 0.867402 0.862681 0.863817 0.866079 0.873269 0.868684 0.864715 0.860266 0.857318 0.848293 0.840532 0.838411 0.839766 0.841759 0.841517 0.845563 0.835655 0.805523 0.804763 0.800432 0.799467 0.810206 0.818987 0.820684 0.812829 0.789494 0.779002 0.762952 0.763680 0.766870 0.758013 0.761346 0.743250 0.742722 0.717644 0.718550 0.715329 0.709949 0.715688 0.710363 0.714329 0.714313 0.716034 0.716228 0.698098 0.691288 0.659303 0.663629 0.602525 0.610701 0.610910 0.590091 0.574253 0.550833 0.566762 0.575409 0.577749 0.555471 0.548014 0.524547 0.509507 0.509159 0.514305 0.514708 0.517412 0.510320 0.500818 0.494313 0.513496 0.524532 0.508468 0.509503 0.526624 0.523624 0.516176 0.500347 0.490156 0.506376 0.524349 0.532225 0.532168 0.538193 0.509223 0.479281 0.504019 0.519290 0.516941 0.505680 0.492166 0.487106 0.506069 0.480197 0.498555 0.489982 0.500269 0.475702 0.419633 0.375919 0.320147 0.328900 0.327065 0.324885 0.317994 0.322884 0.340903 0.346346 0.352287 0.350987 0.376473 0.416790 0.361084 0.369566 0.369776 0.368593 0.370637 0.368554 0.345845 0.355339 0.377328 0.381339 0.329851 0.317179 0.285476 0.274341 0.284458 0.297893 0.315131 0.302455 0.285304 0.159922 0.184526 0.202856 0.202856 0.202856 0.202856 0.202856 0.202856 0.202856 0.202856 0.202856 0.202856 0.202856 0.149629 0.149629 0.149629 0.149629 0.149629 0.149629 0.149629 0.149629 0.149629 0.149629 0.149629 0.149629 0.149629 0.149629 0.149629 0.149629 0.149629 0.149629 0.149629
0.000000 0.000000 0.000000 0.000000 0.000000 0.000000 0.000000 0.000000 0.000000 0.000000 0.000000 0.000000 0.000000 0.000000 0.000000 0.000000 0.000000 0.000000 0.000000 0.000000 0.000000 0.000000 0.000000 0.000000 0.000000 0.000000 0.000000 0.000000 0.000000 0.000000 0.000000 0.000000 0.000000 0.000000 0.000000 0.000000 0.000000 0.000000 0.000000 0.000000 0.000000 0.000000 0.000000 0.000000 0.000000 0.000000 0.000000 0.000000 0.000000 0.000000 0.000000 0.000000 0.173422 0.173422 0.173422 0.173422 0.173422 0.173422 0.173422 0.191565 0.191565 0.191565 0.191565 0.191565 0.191565 0.191565 0.191565 0.191565 0.191565 0.191565 0.191565 0.191565 0.191565 0.191565 0.191565 0.191565 0.191565 0.191565 0.191565 0.191565 0.191565 0.191565 0.191565 0.191565 0.191565 0.191565 0.191565 0.191565 0.191565 0.191565 0.191565 0.191565 0.191565 0.191565 0.191565 0.191565 0.191565 0.191565 0.191565 0.191565 0.191565 0.191565 0.191565 0.222222 0.222222 0.222222 0.222222 0.222222 0.222222 0.222222 0.222222 0.222222 0.222222 0.222222 0.222222 0.222222 0.222222 0.222222 0.222222 0.222222 0.222222 0.222222 0.222222 0.222222 0.222222 0.222222 0.222222 0.222222 0.222222 0.222222 0.222222 0.222222 0.222222 0.234082 0.234082 0.234082 0.234082 0.234082 0.234082 0.234082 0.234082 0.234082 0.234082 0.234082 0.234082 0.234082 0.234082 0.234082 0.234082 0.234082 0.234082 0.234082 0.234082 0.234082 0.234082 0.234082 0.234082 0.234082 0.244339 0.244339 0.244339 0.244339 0.244339 0.244339 0.244339 0.244339 0.244339 0.244339 0.244339 0.244339 0.244339 0.244339 0.244339 0.244339 0.244339 0.244339 0.244339 0.244339 0.244339 0.248069 0.248069 0.248069 0.248069 0.248069 0.248069 0.248069 0.248069 0.248069 0.248069 0.248069 0.248069 0.248069 0.248069 0.248069 0.248069 0.248069 0.248069 0.248069 0.248069 0.248069 0.248069 0.248069 0.248069 0.248069 0.248069 0.248069 0.248069 0.248069 0.248069 0.248069 0.248069 0.248069 0.248069 0.248069 0.248069 0.248069 0.256074 0.256074 0.256074 0.256074 0.256074 0.256074 0.256074 0.256074 0.256074 0.256074 0.256074 0.256074 0.256074 0.256074 0.256074 0.256074 0.256074 0.256074 0.256074 0.256074 0.256074 0.256074 0.256074 0.256074 0.256074 0.256074 0.256074 0.256074 0.256074 0.256074 0.256074 0.256074 0.256074 0.256074 0.256074 0.256074 0.256074 0.256074 0.256074 0.256074 0.256074 0.256074 0.256074 0.256074 0.256074 0.260378 0.260378 0.260378 0.260378 0.260378 0.260378 0.260378 0.260378 0.260378 0.260378 0.260378 0.260378 0.260378 0.256074 0.256074 0.256074 0.256074 0.256074 0.256074 0.256074 0.256074 0.256074 0.256074 0.256074 0.256074 0.256074 0.260378 0.260378 0.260378 0.260378 0.260378 0.260378 0.260378 0.260378 0.260378 0.260378 0.260378 0.260378 0.251976 0.251976 0.251976 0.251976 0.251976 0.251976 0.251976 0.251976 0.251976 0.251976 0.251976 0.251976 0.256074 0.256074 0.256074 0.256074 0.256074 0.256074 0.256074 0.256074 0.256074 0.256074 0.256074 0.251976 0.251976 0.251976 0.251976 0.251976 0.251976 0.251976 0.251976 0.251976 0.251976 0.251976 0.248069 0.248069 0.248069 0.248069 0.248069 0.248069 0.248069 0.248069 0.248069 0.248069 0.248069 0.256074 0.256074 0.256074 0.256074 0.256074 0.256074 0.256074 0.256074 0.256074 0.256074 0.256074 0.256074 0.256074 0.256074 0.256074 0.256074 0.256074 0.256074 0.256074
