# Output from CTFFind version 4.1.9, run on 2019-11-03 20:05:39
# Input file: stack16_bm3d_averaged_1_10_0_750_half.mrc ; Number of micrographs: 1
# Pixel size: 3.000 Angstroms ; acceleration voltage: 300.0 keV ; spherical aberration: 0.00 mm ; amplitude contrast: 0.07
# Box size: 512 pixels ; min. res.: 30.0 Angstroms ; max. res.: 5.0 Angstroms ; min. def.: 5000.0 um; max. def. 50000.0 um; num. frames averaged: 1
# 6 lines per micrograph: #1 - spatial frequency (1/Angstroms); #2 - 1D rotational average of spectrum (assuming no astigmatism); #3 - 1D rotational average of spectrum; #4 - CTF fit; #5 - cross-correlation between spectrum and CTF fit; #6 - 2sigma of expected cross correlation of noise
0.000000 0.000651 0.001302 0.001953 0.002604 0.003255 0.003906 0.004557 0.005208 0.005859 0.006510 0.007161 0.007812 0.008464 0.009115 0.009766 0.010417 0.011068 0.011719 0.012370 0.013021 0.013672 0.014323 0.014974 0.015625 0.016276 0.016927 0.017578 0.018229 0.018880 0.019531 0.020182 0.020833 0.021484 0.022135 0.022786 0.023438 0.024089 0.024740 0.025391 0.026042 0.026693 0.027344 0.027995 0.028646 0.029297 0.029948 0.030599 0.031250 0.031901 0.032552 0.033203 0.033854 0.034505 0.035156 0.035807 0.036458 0.037109 0.037760 0.038411 0.039062 0.039714 0.040365 0.041016 0.041667 0.042318 0.042969 0.043620 0.044271 0.044922 0.045573 0.046224 0.046875 0.047526 0.048177 0.048828 0.049479 0.050130 0.050781 0.051432 0.052083 0.052734 0.053385 0.054036 0.054688 0.055339 0.055990 0.056641 0.057292 0.057943 0.058594 0.059245 0.059896 0.060547 0.061198 0.061849 0.062500 0.063151 0.063802 0.064453 0.065104 0.065755 0.066406 0.067057 0.067708 0.068359 0.069010 0.069661 0.070312 0.070964 0.071615 0.072266 0.072917 0.073568 0.074219 0.074870 0.075521 0.076172 0.076823 0.077474 0.078125 0.078776 0.079427 0.080078 0.080729 0.081380 0.082031 0.082682 0.083333 0.083984 0.084635 0.085286 0.085938 0.086589 0.087240 0.087891 0.088542 0.089193 0.089844 0.090495 0.091146 0.091797 0.092448 0.093099 0.093750 0.094401 0.095052 0.095703 0.096354 0.097005 0.097656 0.098307 0.098958 0.099609 0.100260 0.100911 0.101562 0.102214 0.102865 0.103516 0.104167 0.104818 0.105469 0.106120 0.106771 0.107422 0.108073 0.108724 0.109375 0.110026 0.110677 0.111328 0.111979 0.112630 0.113281 0.113932 0.114583 0.115234 0.115885 0.116536 0.117188 0.117839 0.118490 0.119141 0.119792 0.120443 0.121094 0.121745 0.122396 0.123047 0.123698 0.124349 0.125000 0.125651 0.126302 0.126953 0.127604 0.128255 0.128906 0.129557 0.130208 0.130859 0.131510 0.132161 0.132812 0.133464 0.134115 0.134766 0.135417 0.136068 0.136719 0.137370 0.138021 0.138672 0.139323 0.139974 0.140625 0.141276 0.141927 0.142578 0.143229 0.143880 0.144531 0.145182 0.145833 0.146484 0.147135 0.147786 0.148438 0.149089 0.149740 0.150391 0.151042 0.151693 0.152344 0.152995 0.153646 0.154297 0.154948 0.155599 0.156250 0.156901 0.157552 0.158203 0.158854 0.159505 0.160156 0.160807 0.161458 0.162109 0.162760 0.163411 0.164062 0.164714 0.165365 0.166016 0.166667 0.167318 0.167969 0.168620 0.169271 0.169922 0.170573 0.171224 0.171875 0.172526 0.173177 0.173828 0.174479 0.175130 0.175781 0.176432 0.177083 0.177734 0.178385 0.179036 0.179688 0.180339 0.180990 0.181641 0.182292 0.182943 0.183594 0.184245 0.184896 0.185547 0.186198 0.186849 0.187500 0.188151 0.188802 0.189453 0.190104 0.190755 0.191406 0.192057 0.192708 0.193359 0.194010 0.194661 0.195312 0.195964 0.196615 0.197266 0.197917 0.198568 0.199219 0.199870 0.200521 0.201172 0.201823 0.202474 0.203125 0.203776 0.204427 0.205078 0.205729 0.206380 0.207031 0.207682 0.208333 0.208984 0.209635 0.210286 0.210938 0.211589 0.212240 0.212891 0.213542 0.214193 0.214844 0.215495 0.216146 0.216797 0.217448 0.218099 0.218750 0.219401 0.220052 0.220703 0.221354 0.222005 0.222656 0.223307 0.223958 0.224609 0.225260 0.225911 0.226562 0.227214 0.227865 0.228516 0.229167 0.229818 0.230469 0.231120 0.231771 0.232422 0.233073 0.233724 0.234375 0.235026 0.235677
       0.37331        0.37331        0.37331        0.37331        0.37331        0.37331        0.37331        0.37331        0.37331        0.37331        0.37331        0.37331        0.37331        0.37331        0.37331        0.37331        0.37331        0.37331        0.37331        0.37331        0.37331        0.37331        0.37331        0.37331        0.37331        0.37331        0.37331        0.37331        0.37331        0.37331        0.37331        0.37331        0.37331        0.37331        0.37331        0.37331        0.37331        0.37331        0.37331        0.37331        0.37331        0.37331        0.37331        0.37331        0.37331        0.37331        0.37331        0.37331        0.37331        0.37331        0.37331        0.44771        0.56358        0.34994       -0.21564       -0.43379       -0.52056       -0.62879       -0.69259       -0.69299       -0.78133       -0.86326       -0.64968       -0.79761       -0.78815       -0.91962       -0.96403       -0.84565       -0.80677       -0.77090       -0.67208       -0.60484       -0.51334       -0.42336       -0.36175       -0.13622       -0.03610        0.07687        0.28993        0.27718        0.33986        0.38314        0.42126        0.55465        0.55552        0.58851        0.54427        0.49098        0.51910        0.55640        0.48193        0.35078        0.24531        0.20859        0.13224        0.05335        0.03462        0.02384        0.09335        0.06142        0.11116        0.08386        0.20279        0.22212        0.42546        0.47516        0.55370        0.66021        0.68430        0.71590        0.65543        0.61901        0.57269        0.46518        0.40572        0.31057        0.24428        0.24505        0.13373        0.15165        0.16400        0.12016        0.12077        0.32123        0.44046        0.54682        0.54447        0.56666        0.61005        0.59591        0.57371        0.59761        0.58108        0.49051        0.33632        0.28970        0.29146        0.19801        0.12155        0.20221        0.25754        0.31660        0.37215        0.44753        0.49397        0.54746        0.61305        0.56285        0.51163        0.53376        0.37781        0.32107        0.29063        0.20578        0.24899        0.27710        0.31197        0.30825        0.36278        0.45205        0.48423        0.51048        0.46855        0.45969        0.50746        0.41999        0.34336        0.30861        0.29067        0.26016        0.24294        0.25985        0.36388        0.47327        0.45755        0.49483        0.56018        0.48045        0.43748        0.37829        0.35274        0.30646        0.30686        0.29190        0.31553        0.39588        0.40360        0.46762        0.48478        0.46349        0.49006        0.40646        0.39695        0.36607        0.30065        0.28021        0.28489        0.37311        0.39664        0.37886        0.40183        0.44521        0.46414        0.41386        0.35620        0.34745        0.37796        0.34548        0.31383        0.32502        0.38640        0.40133        0.42108        0.40831        0.42091        0.44268        0.42812        0.35031        0.31398        0.32476        0.35920        0.41969        0.39287        0.42193        0.37521        0.38872        0.40870        0.36614        0.36922        0.34100        0.33072        0.35981        0.37395        0.35602        0.39565        0.40566        0.35164        0.37001        0.35083        0.33789        0.33289        0.34503        0.35885        0.34724        0.38859        0.40056        0.38860        0.32863        0.32719        0.30988        0.35322        0.34301        0.33786        0.39070        0.37679        0.35864        0.34011        0.33050        0.31838        0.30028        0.34498        0.36198        0.38402        0.38786        0.37735        0.35051        0.36694        0.39150        0.36460        0.36867        0.36658        0.34208        0.35196        0.31572        0.33687        0.33304        0.33832        0.30451        0.34912        0.37585        0.34382        0.38349        0.34323        0.36214        0.37307        0.35680        0.33937        0.36247        0.39929        0.36725        0.39743        0.35683        0.33584        0.35416        0.33885        0.35610        0.35415        0.39263        0.33703        0.34201        0.32307        0.32615        0.29599        0.31382        0.38903        0.34257        0.33037        0.30625        0.28818        0.29607        0.37704        0.32364        0.30982        0.35326        0.33367        0.29925        0.26732        0.30974        0.30334        0.33244        0.33588        0.36909        0.36161        0.34987        0.34115        0.28627        0.31995        0.32538        0.32171        0.33274        0.36463        0.32554        0.24671        0.32093        0.33830        0.35864        0.31140        0.31668        0.26624        0.31741        0.28755        0.27055        0.29939        0.25854        0.32055        0.32227        0.31282        0.29345        0.36042        0.30505        0.25931        0.26411        0.33103        0.25023        0.15409        0.11741        0.19167        0.36300        0.34395        0.21544        0.19901       -0.30403       -0.57701
3.350275 3.307173 3.264352 3.221814 3.179558 3.137583 3.095891 3.054481 3.013353 2.972507 2.931943 2.891661 2.851662 2.811944 2.772508 2.733355 2.694483 2.655894 2.617587 2.579561 2.541818 2.504357 2.467178 2.430281 2.393666 2.357334 2.321283 2.285514 2.250028 2.214823 2.179901 2.145261 2.110902 2.076826 2.043032 2.009520 1.976290 1.943342 1.910676 1.878293 1.846191 1.814371 1.782834 1.751579 1.720605 1.689914 1.659505 1.629378 1.599533 1.569970 1.540689 1.579079 1.632254 1.571182 0.847834 0.616058 0.476964 0.403422 0.304894 0.236856 0.208696 -0.043322 0.226098 0.094505 -0.017316 -0.087823 -0.230355 -0.134169 -0.038159 -0.093788 -0.060617 0.047506 0.051902 0.245321 0.114778 0.366366 0.469033 0.516541 0.788616 0.680813 0.710766 0.819279 0.795497 0.860928 0.921064 0.857348 0.881986 0.728463 0.777202 0.846539 0.701315 0.603327 0.429296 0.431410 0.312049 0.200203 0.191707 0.107664 0.207282 0.119830 0.203850 0.103624 0.213071 0.222197 0.421105 0.387705 0.550151 0.585371 0.592092 0.702427 0.591805 0.546066 0.450254 0.406355 0.267902 0.250142 0.076811 0.135223 -0.040624 0.027968 -0.030088 -0.054833 -0.079423 0.007880 0.237008 0.277453 0.330996 0.264796 0.353484 0.357149 0.378840 0.358551 0.339935 0.304754 0.102118 0.050023 0.053523 -0.037253 -0.153337 -0.081042 -0.066682 0.022826 0.058420 0.126997 0.186020 0.204849 0.297607 0.388842 0.251071 0.352536 0.206797 0.147185 0.055805 0.023342 -0.001115 0.055634 0.064949 0.080777 0.115017 0.161071 0.228175 0.288741 0.253271 0.197079 0.245416 0.216988 0.102767 0.035906 0.058779 0.014758 0.003298 -0.047006 0.027777 0.159975 0.201564 0.175319 0.281420 0.184892 0.196871 0.072533 0.063372 0.030632 -0.002433 -0.014983 -0.009101 0.049122 0.099437 0.111383 0.160478 0.138171 0.226718 0.147716 0.078268 0.097965 0.031493 -0.040712 -0.010126 0.036269 0.080857 0.066253 0.059556 0.145982 0.105819 0.153812 0.042898 0.039872 0.048702 0.045953 0.027197 -0.010008 0.041650 0.061458 0.092670 0.098757 0.080197 0.116765 0.115008 0.077526 0.006439 -0.016300 0.004822 0.069298 0.090503 0.085989 0.081510 0.053359 0.089661 0.062751 0.038699 0.057507 -0.004172 0.006564 0.071054 0.039890 0.041267 0.087663 0.088010 0.044384 0.067892 0.025266 0.017432 0.021998 0.055887 0.031852 0.033141 0.078088 0.083892 0.049741 -0.002026 0.001838 -0.019589 0.051841 0.005339 0.014664 0.074819 0.041933 0.009031 0.020992 -0.016057 -0.002400 -0.029793 0.015079 0.038343 0.063917 0.037777 0.038990 0.016230 0.011842 0.063689 0.018066 0.027802 0.019194 -0.005647 0.018816 -0.038152 -0.035384 -0.037173 -0.011080 -0.070703 0.017602 0.021211 -0.010390 -0.008909 0.002225 -0.006152 0.025297 -0.001367 -0.012490 0.019657 0.036924 0.012590 0.052061 -0.006340 0.007735 0.017013 -0.007956 0.019004 0.000716 0.095502 0.020084 0.010237 0.004875 -0.005289 -0.022211 0.013789 0.069347 0.023115 0.029008 -0.028068 -0.020736 -0.018902 0.078642 0.006085 -0.025053 0.070805 0.045560 -0.009821 -0.007713 -0.002953 0.027192 0.043226 0.041034 0.117019 0.040616 0.067853 0.046402 -0.005788 0.040136 0.025741 0.000510 0.040151 0.066030 0.010341 -0.056033 0.021945 0.045066 0.056969 -0.011506 0.007924 -0.036413 -0.006352 -0.010790 -0.043679 0.013753 -0.067894 0.053111 0.013799 0.049344 -0.076361 0.080198 0.048007 0.007654 -0.023534 0.110126 0.018395 -0.054950 -0.155891 0.166485 0.337569 0.335741 0.135113 0.198981 -0.563050
0.072396 0.073047 0.074998 0.078250 0.082801 0.088650 0.095794 0.104232 0.113957 0.124967 0.137253 0.150808 0.165621 0.181680 0.198969 0.217471 0.237162 0.258016 0.280004 0.303089 0.327230 0.352381 0.378488 0.405490 0.433319 0.461898 0.491142 0.520956 0.551237 0.581870 0.612730 0.643682 0.674578 0.705261 0.735561 0.765296 0.794275 0.822293 0.849138 0.874583 0.898397 0.920337 0.940153 0.957591 0.972392 0.984293 0.993033 0.998350 0.999990 0.997703 0.991253 0.980415 0.964981 0.944766 0.919610 0.889381 0.853979 0.813345 0.767458 0.716345 0.660082 0.598801 0.532687 0.461990 0.387020 0.308156 0.225840 0.140585 0.052970 0.036359 0.126693 0.217259 0.307231 0.395730 0.481835 0.564590 0.643017 0.716121 0.782912 0.842410 0.893668 0.935782 0.967914 0.989306 0.999299 0.997352 0.983060 0.956169 0.916594 0.864434 0.799982 0.723737 0.636411 0.538928 0.432432 0.318273 0.198004 0.073366 0.053737 0.181254 0.307024 0.428808 0.544326 0.651305 0.747523 0.830860 0.899351 0.951236 0.985014 0.999495 0.993840 0.967611 0.920801 0.853865 0.767735 0.663829 0.544046 0.410744 0.266716 0.115139 0.040490 0.196414 0.348718 0.493415 0.626555 0.744338 0.843230 0.920083 0.972240 0.997652 0.994964 0.963598 0.903814 0.816745 0.704408 0.569687 0.416286 0.248649 0.071847 0.108558 0.286679 0.456492 0.612045 0.747668 0.858198 0.939187 0.987111 0.999538 0.975280 0.914494 0.818747 0.691012 0.535625 0.358166 0.165291 0.035494 0.236109 0.428221 0.603587 0.754416 0.873740 0.955757 0.996140 0.992309 0.943619 0.851479 0.719370 0.552771 0.358978 0.146821 0.073702 0.291884 0.496818 0.677946 0.825622 0.931658 0.989808 0.996187 0.949576 0.851592 0.706718 0.522154 0.307532 0.074446 0.164125 0.394536 0.603240 0.777611 0.906730 0.982113 0.998331 0.953454 0.849304 0.691481 0.489142 0.254537 0.002328 0.251295 0.489632 0.696582 0.857752 0.961510 0.999880 0.969235 0.870703 0.710245 0.498406 0.249698 0.018327 0.286266 0.534261 0.743468 0.897539 0.983947 0.995093 0.929061 0.789954 0.587769 0.337778 0.059475 0.224900 0.492096 0.719760 0.888342 0.982843 0.994242 0.920458 0.766756 0.545500 0.275292 0.020501 0.315709 0.583645 0.799535 0.942868 0.999431 0.962837 0.835361 0.627980 0.359583 0.055350 0.255505 0.542506 0.776930 0.934708 0.999015 0.962188 0.826774 0.605563 0.320530 0.000804 0.320247 0.608433 0.832435 0.967257 0.997158 0.917630 0.736214 0.471978 0.153694 0.183189 0.500404 0.761229 0.934786 0.999812 0.947438 0.782564 0.523629 0.200763 0.147595 0.479175 0.752991 0.934476 0.999964 0.939961 0.760717 0.483817 0.143801 0.215998 0.548888 0.810882 0.966593 0.994171 0.888578 0.662681 0.345945 0.019201 0.382923 0.694712 0.910456 0.998812 0.945966 0.758030 0.460628 0.095667 0.284399 0.624018 0.872686 0.992566 0.964462 0.791148 0.497455 0.126997 0.264118 0.615658 0.872581 0.993757 0.958799 0.771753 0.461011 0.075304 0.323751 0.671373 0.910188 0.999837 0.924069 0.693985 0.346760 0.060049 0.457856 0.778575 0.966315 0.987367 0.836549 0.538734 0.145088 0.275428 0.648010 0.905355 0.999950 0.913163 0.659254 0.283424 0.145877 0.549256 0.850978 0.993364 0.948062 0.722072 0.357140 0.077620 0.498525 0.823417 0.987766 0.957803 0.737823 0.370102 0.072851 0.502291 0.830993 0.991040 0.948199 0.709621 0.323198 0.131669 0.560114 0.871519 0.998875 0.913516 0.632024 0.213519 0.252357 0.664421
1.000000 1.000000 1.000000 1.000000 1.000000 1.000000 1.000000 1.000000 1.000000 1.000000 1.000000 1.000000 1.000000 1.000000 1.000000 1.000000 1.000000 1.000000 1.000000 1.000000 1.000000 1.000000 1.000000 1.000000 1.000000 1.000000 1.000000 1.000000 1.000000 1.000000 1.000000 1.000000 1.000000 1.000000 1.000000 1.000000 1.000000 1.000000 1.000000 1.000000 1.000000 1.000000 1.000000 1.000000 1.000000 1.000000 1.000000 1.000000 1.000000 1.000000 1.000000 1.000000 0.923645 0.923645 0.923645 0.923645 0.923645 0.923645 0.923645 0.923645 0.923645 0.923645 0.923645 0.923645 0.923645 0.923645 0.923645 0.923645 0.923645 0.923645 0.923645 0.923645 0.923645 0.923645 0.923645 0.923645 0.923645 0.923645 0.923645 0.923645 0.923645 0.923645 0.923645 0.923645 0.923645 0.913420 0.911504 0.912669 0.911235 0.909757 0.909170 0.908780 0.909822 0.911430 0.913499 0.935118 0.936949 0.938225 0.939551 0.941125 0.943361 0.941176 0.945130 0.951140 0.950015 0.951332 0.951581 0.952151 0.951517 0.950793 0.953055 0.952255 0.950586 0.948595 0.946924 0.946371 0.946147 0.949787 0.950270 0.950440 0.951027 0.950976 0.951694 0.949589 0.947957 0.950250 0.931732 0.929966 0.934826 0.932210 0.933114 0.933084 0.933745 0.934656 0.935071 0.935353 0.931944 0.931383 0.930232 0.924500 0.917028 0.917343 0.919431 0.921625 0.919003 0.917926 0.919167 0.919977 0.917628 0.920575 0.913291 0.910775 0.886336 0.873514 0.867867 0.868624 0.873703 0.877694 0.875475 0.871613 0.865150 0.862768 0.861077 0.862610 0.852587 0.854255 0.853568 0.847233 0.850002 0.852779 0.858218 0.857645 0.853966 0.848831 0.842071 0.827633 0.827670 0.827918 0.831660 0.812134 0.795799 0.828724 0.823062 0.819541 0.826913 0.828698 0.826531 0.824950 0.825317 0.823297 0.815342 0.806310 0.810017 0.819159 0.823618 0.815954 0.811387 0.813187 0.813015 0.808864 0.813790 0.816313 0.813048 0.803874 0.819266 0.800774 0.815762 0.816246 0.793953 0.779482 0.766600 0.773288 0.780141 0.768173 0.768960 0.781049 0.780888 0.777296 0.767810 0.740889 0.748248 0.746296 0.738547 0.729844 0.736195 0.728348 0.727562 0.727578 0.732106 0.731640 0.709454 0.723528 0.730020 0.730526 0.741345 0.742115 0.734080 0.737352 0.742440 0.729452 0.724444 0.705742 0.708258 0.641634 0.635112 0.613966 0.609695 0.605302 0.549711 0.550813 0.534545 0.518873 0.517595 0.484763 0.526342 0.426894 0.420729 0.437259 0.376959 0.371923 0.391895 0.392894 0.408720 0.380917 0.379642 0.386847 0.363111 0.334769 0.311093 0.334733 0.342902 0.335239 0.337186 0.307268 0.300200 0.249675 0.267820 0.272167 0.298328 0.296180 0.281841 0.300202 0.353543 0.287856 0.274488 0.252367 0.278713 0.282076 0.267216 0.257839 0.284832 0.229038 0.247680 0.252294 0.253845 0.310909 0.336049 0.337250 0.332958 0.341180 0.370614 0.337884 0.344486 0.358220 0.350009 0.367269 0.370173 0.383205 0.385909 0.430815 0.454295 0.460621 0.471305 0.487212 0.487316 0.464865 0.471752 0.427528 0.452882 0.430201 0.439003 0.400123 0.385846 0.383738 0.348515 0.305431 0.306311 0.301791 0.256654 0.256468 0.245744 0.212227 0.211779 0.224217 0.234454 0.204073 0.210865 0.223192 0.223192 0.223192 0.223192 0.223192 0.223192 0.223192 0.223192 0.223192 0.223192 0.223192 0.223192 0.223192 0.223192 0.243378 0.243378 0.243378 0.243378 0.243378 0.243378 0.243378 0.243378 0.243378 0.243378 0.243378 0.243378
0.000000 0.000000 0.000000 0.000000 0.000000 0.000000 0.000000 0.000000 0.000000 0.000000 0.000000 0.000000 0.000000 0.000000 0.000000 0.000000 0.000000 0.000000 0.000000 0.000000 0.000000 0.000000 0.000000 0.000000 0.000000 0.000000 0.000000 0.000000 0.000000 0.000000 0.000000 0.000000 0.000000 0.000000 0.000000 0.000000 0.000000 0.000000 0.000000 0.000000 0.000000 0.000000 0.000000 0.000000 0.000000 0.000000 0.000000 0.000000 0.000000 0.000000 0.000000 0.000000 0.209657 0.209657 0.209657 0.209657 0.209657 0.209657 0.209657 0.209657 0.209657 0.209657 0.209657 0.209657 0.209657 0.209657 0.209657 0.209657 0.209657 0.209657 0.209657 0.209657 0.209657 0.209657 0.209657 0.209657 0.209657 0.209657 0.209657 0.209657 0.209657 0.209657 0.209657 0.209657 0.209657 0.244339 0.244339 0.244339 0.244339 0.244339 0.244339 0.244339 0.244339 0.244339 0.244339 0.244339 0.244339 0.244339 0.244339 0.244339 0.244339 0.244339 0.244339 0.244339 0.244339 0.244339 0.244339 0.244339 0.244339 0.244339 0.260378 0.260378 0.260378 0.260378 0.260378 0.260378 0.260378 0.260378 0.260378 0.260378 0.260378 0.260378 0.260378 0.260378 0.260378 0.260378 0.260378 0.260378 0.260378 0.260378 0.269680 0.269680 0.269680 0.269680 0.269680 0.269680 0.269680 0.269680 0.269680 0.269680 0.269680 0.269680 0.269680 0.269680 0.269680 0.269680 0.269680 0.269680 0.269680 0.269680 0.269680 0.269680 0.269680 0.269680 0.269680 0.269680 0.269680 0.269680 0.269680 0.269680 0.269680 0.269680 0.269680 0.280056 0.280056 0.280056 0.280056 0.280056 0.280056 0.280056 0.280056 0.280056 0.280056 0.280056 0.280056 0.280056 0.280056 0.280056 0.280056 0.280056 0.280056 0.280056 0.280056 0.280056 0.280056 0.280056 0.280056 0.280056 0.280056 0.280056 0.274721 0.274721 0.274721 0.274721 0.274721 0.274721 0.274721 0.274721 0.274721 0.274721 0.274721 0.274721 0.274721 0.285714 0.285714 0.285714 0.285714 0.285714 0.285714 0.285714 0.285714 0.285714 0.285714 0.285714 0.280056 0.280056 0.280056 0.280056 0.280056 0.280056 0.280056 0.280056 0.280056 0.280056 0.280056 0.274721 0.274721 0.274721 0.274721 0.274721 0.274721 0.274721 0.274721 0.274721 0.274721 0.274721 0.280056 0.280056 0.280056 0.280056 0.280056 0.280056 0.280056 0.280056 0.280056 0.280056 0.285714 0.285714 0.285714 0.285714 0.285714 0.285714 0.285714 0.285714 0.285714 0.269680 0.269680 0.269680 0.269680 0.269680 0.269680 0.269680 0.269680 0.269680 0.269680 0.274721 0.274721 0.274721 0.274721 0.274721 0.274721 0.274721 0.274721 0.274721 0.285714 0.285714 0.285714 0.285714 0.285714 0.285714 0.285714 0.285714 0.264906 0.264906 0.264906 0.264906 0.264906 0.264906 0.264906 0.264906 0.264906 0.274721 0.274721 0.274721 0.274721 0.274721 0.274721 0.274721 0.274721 0.269680 0.269680 0.269680 0.269680 0.269680 0.269680 0.269680 0.269680 0.269680 0.269680 0.269680 0.269680 0.269680 0.269680 0.269680 0.269680 0.280056 0.280056 0.280056 0.280056 0.280056 0.280056 0.280056 0.260378 0.260378 0.260378 0.260378 0.260378 0.260378 0.260378 0.260378 0.269680 0.269680 0.269680 0.269680 0.269680 0.269680 0.269680 0.264906 0.264906 0.264906 0.264906 0.264906 0.264906 0.264906 0.264906 0.264906 0.264906 0.264906 0.264906 0.264906 0.264906 0.260378 0.260378 0.260378 0.260378 0.260378 0.260378 0.260378 0.260378 0.260378 0.260378 0.260378 0.260378
