# Output from CTFFind version 4.1.9, run on 2019-11-02 17:45:10
# Input file: stack11_bm3d_averaged_1_1.5_0_750_half.mrc ; Number of micrographs: 1
# Pixel size: 3.000 Angstroms ; acceleration voltage: 300.0 keV ; spherical aberration: 0.00 mm ; amplitude contrast: 0.07
# Box size: 512 pixels ; min. res.: 30.0 Angstroms ; max. res.: 5.0 Angstroms ; min. def.: 5000.0 um; max. def. 50000.0 um; num. frames averaged: 1
# 6 lines per micrograph: #1 - spatial frequency (1/Angstroms); #2 - 1D rotational average of spectrum (assuming no astigmatism); #3 - 1D rotational average of spectrum; #4 - CTF fit; #5 - cross-correlation between spectrum and CTF fit; #6 - 2sigma of expected cross correlation of noise
0.000000 0.000651 0.001302 0.001953 0.002604 0.003255 0.003906 0.004557 0.005208 0.005859 0.006510 0.007161 0.007812 0.008464 0.009115 0.009766 0.010417 0.011068 0.011719 0.012370 0.013021 0.013672 0.014323 0.014974 0.015625 0.016276 0.016927 0.017578 0.018229 0.018880 0.019531 0.020182 0.020833 0.021484 0.022135 0.022786 0.023438 0.024089 0.024740 0.025391 0.026042 0.026693 0.027344 0.027995 0.028646 0.029297 0.029948 0.030599 0.031250 0.031901 0.032552 0.033203 0.033854 0.034505 0.035156 0.035807 0.036458 0.037109 0.037760 0.038411 0.039062 0.039714 0.040365 0.041016 0.041667 0.042318 0.042969 0.043620 0.044271 0.044922 0.045573 0.046224 0.046875 0.047526 0.048177 0.048828 0.049479 0.050130 0.050781 0.051432 0.052083 0.052734 0.053385 0.054036 0.054688 0.055339 0.055990 0.056641 0.057292 0.057943 0.058594 0.059245 0.059896 0.060547 0.061198 0.061849 0.062500 0.063151 0.063802 0.064453 0.065104 0.065755 0.066406 0.067057 0.067708 0.068359 0.069010 0.069661 0.070312 0.070964 0.071615 0.072266 0.072917 0.073568 0.074219 0.074870 0.075521 0.076172 0.076823 0.077474 0.078125 0.078776 0.079427 0.080078 0.080729 0.081380 0.082031 0.082682 0.083333 0.083984 0.084635 0.085286 0.085938 0.086589 0.087240 0.087891 0.088542 0.089193 0.089844 0.090495 0.091146 0.091797 0.092448 0.093099 0.093750 0.094401 0.095052 0.095703 0.096354 0.097005 0.097656 0.098307 0.098958 0.099609 0.100260 0.100911 0.101562 0.102214 0.102865 0.103516 0.104167 0.104818 0.105469 0.106120 0.106771 0.107422 0.108073 0.108724 0.109375 0.110026 0.110677 0.111328 0.111979 0.112630 0.113281 0.113932 0.114583 0.115234 0.115885 0.116536 0.117188 0.117839 0.118490 0.119141 0.119792 0.120443 0.121094 0.121745 0.122396 0.123047 0.123698 0.124349 0.125000 0.125651 0.126302 0.126953 0.127604 0.128255 0.128906 0.129557 0.130208 0.130859 0.131510 0.132161 0.132812 0.133464 0.134115 0.134766 0.135417 0.136068 0.136719 0.137370 0.138021 0.138672 0.139323 0.139974 0.140625 0.141276 0.141927 0.142578 0.143229 0.143880 0.144531 0.145182 0.145833 0.146484 0.147135 0.147786 0.148438 0.149089 0.149740 0.150391 0.151042 0.151693 0.152344 0.152995 0.153646 0.154297 0.154948 0.155599 0.156250 0.156901 0.157552 0.158203 0.158854 0.159505 0.160156 0.160807 0.161458 0.162109 0.162760 0.163411 0.164062 0.164714 0.165365 0.166016 0.166667 0.167318 0.167969 0.168620 0.169271 0.169922 0.170573 0.171224 0.171875 0.172526 0.173177 0.173828 0.174479 0.175130 0.175781 0.176432 0.177083 0.177734 0.178385 0.179036 0.179688 0.180339 0.180990 0.181641 0.182292 0.182943 0.183594 0.184245 0.184896 0.185547 0.186198 0.186849 0.187500 0.188151 0.188802 0.189453 0.190104 0.190755 0.191406 0.192057 0.192708 0.193359 0.194010 0.194661 0.195312 0.195964 0.196615 0.197266 0.197917 0.198568 0.199219 0.199870 0.200521 0.201172 0.201823 0.202474 0.203125 0.203776 0.204427 0.205078 0.205729 0.206380 0.207031 0.207682 0.208333 0.208984 0.209635 0.210286 0.210938 0.211589 0.212240 0.212891 0.213542 0.214193 0.214844 0.215495 0.216146 0.216797 0.217448 0.218099 0.218750 0.219401 0.220052 0.220703 0.221354 0.222005 0.222656 0.223307 0.223958 0.224609 0.225260 0.225911 0.226562 0.227214 0.227865 0.228516 0.229167 0.229818 0.230469 0.231120 0.231771 0.232422 0.233073 0.233724 0.234375 0.235026 0.235677
       0.31675        0.31675        0.31675        0.31675        0.31675        0.31675        0.31675        0.31675        0.31675        0.31675        0.31675        0.31675        0.31675        0.31675        0.31675        0.31675        0.31675        0.31675        0.31675        0.31675        0.31675        0.31675        0.31675        0.31675        0.31675        0.31675        0.31675        0.31675        0.31675        0.31675        0.31675        0.31675        0.31675        0.31675        0.31675        0.31675        0.31675        0.31675        0.31675        0.31675        0.31675        0.31675        0.31675        0.31675        0.31675        0.31675        0.31675        0.31675        0.31675        0.31675        0.31675        0.68256        0.86841        0.52286        0.08818       -0.06409       -0.42561       -0.20591       -0.29688       -0.11712       -0.07693       -0.11909       -0.06857       -0.20796       -0.23511       -0.25801       -0.33050       -0.33797       -0.48863       -0.38218       -0.46599       -0.44800       -0.42215       -0.46909       -0.54200       -0.56137       -0.58768       -0.62285       -0.57802       -0.41561       -0.37917       -0.33114       -0.31440       -0.21176       -0.20034        0.01785        0.07476        0.10653        0.22566        0.37072        0.44245        0.51576        0.55824        0.55338        0.56993        0.69738        0.81109        0.73906        0.73237        0.66725        0.57935        0.48407        0.40741        0.49352        0.37631        0.20494        0.07755        0.04665        0.01281       -0.06173       -0.03914       -0.02138       -0.07067       -0.00865       -0.01905        0.21317        0.25062        0.28947        0.42983        0.46130        0.40394        0.53687        0.62546        0.69821        0.76135        0.68862        0.65534        0.69794        0.58391        0.50099        0.41856        0.29019        0.18804        0.15530        0.10705        0.03863        0.01068       -0.00058        0.07583        0.13177        0.20480        0.28019        0.39853        0.41753        0.50968        0.60207        0.63340        0.61764        0.62889        0.55407        0.44774        0.44704        0.35205        0.22868        0.18235        0.14762        0.11116        0.12246        0.07033        0.10218        0.22808        0.26167        0.34096        0.35449        0.45297        0.51451        0.53669        0.54855        0.46995        0.42970        0.39010        0.36596        0.30644        0.25062        0.20129        0.18632        0.16148        0.19164        0.17853        0.26951        0.33221        0.36506        0.42530        0.46030        0.47704        0.44240        0.39412        0.41592        0.37382        0.28482        0.26899        0.22324        0.21394        0.19479        0.21575        0.22897        0.32775        0.37309        0.36715        0.46216        0.43661        0.43666        0.42956        0.39406        0.34492        0.32727        0.27625        0.24148        0.23675        0.26964        0.27251        0.30203        0.30223        0.33739        0.32849        0.40749        0.41843        0.37545        0.34569        0.36534        0.28000        0.28023        0.26018        0.27661        0.26049        0.27977        0.29183        0.31145        0.34946        0.36038        0.36015        0.33421        0.35100        0.28572        0.32037        0.26768        0.24549        0.28631        0.28290        0.30878        0.31115        0.33081        0.32670        0.31415        0.31771        0.28699        0.28804        0.26083        0.28233        0.26488        0.30769        0.28266        0.26632        0.30780        0.31205        0.31617        0.28508        0.30060        0.28637        0.24933        0.24222        0.21912        0.28087        0.27495        0.31859        0.31344        0.32051        0.31835        0.30734        0.27621        0.28718        0.32911        0.26750        0.25889        0.29384        0.28997        0.33900        0.33324        0.35459        0.33081        0.31117        0.28269        0.26632        0.25990        0.22636        0.27150        0.30448        0.29466        0.27897        0.29386        0.26936        0.32404        0.32703        0.24905        0.21876        0.27548        0.33410        0.27710        0.30696        0.32446        0.32513        0.30171        0.32336        0.34343        0.29938        0.28859        0.25730        0.28309        0.35482        0.35623        0.26371        0.26639        0.25424        0.28698        0.22026        0.29185        0.22416        0.25124        0.33570        0.32303        0.34871        0.29580        0.24201        0.23958        0.23876        0.23217        0.18719        0.22561        0.26382        0.30095        0.26953        0.30651        0.30176        0.27601        0.27447        0.20821        0.16643        0.19319        0.22995        0.19974        0.20933        0.22771        0.20386        0.25143        0.34334        0.29994        0.31306        0.22378        0.24408        0.22756        0.28560        0.30061        0.14713        0.22455        0.22527        0.11019        0.21813        0.11188        0.14417        0.21938        0.11468       -0.11350       -0.58297
2.590181 2.563136 2.536237 2.509485 2.482880 2.456421 2.430109 2.403944 2.377926 2.352054 2.326329 2.300750 2.275319 2.250034 2.224895 2.199903 2.175059 2.150360 2.125809 2.101404 2.077146 2.053034 2.029069 2.005251 1.981580 1.958055 1.934677 1.911446 1.888361 1.865423 1.842632 1.819987 1.797489 1.775138 1.752933 1.730876 1.708965 1.687200 1.665582 1.644111 1.622787 1.601609 1.580578 1.559694 1.538956 1.518366 1.497921 1.477624 1.457473 1.437469 1.417611 1.637953 2.045424 1.619351 1.131512 0.989448 0.421330 0.813466 0.561338 0.835528 0.773305 0.788411 0.751449 0.710679 0.563381 0.514855 0.484773 0.443079 0.207073 0.380792 0.201898 0.308367 0.236347 0.180670 0.132077 0.006427 0.040350 -0.013220 -0.056053 0.104299 0.206792 0.192944 0.154526 0.332123 0.197420 0.494550 0.580412 0.552557 0.594956 0.876917 0.810323 0.946270 0.889056 0.974416 0.943588 1.079748 1.139533 1.073407 1.128038 0.948909 0.942861 0.785227 0.652224 0.771806 0.707526 0.464291 0.308781 0.251950 0.217363 0.147672 0.089016 0.128714 0.071543 0.149413 0.054894 0.263322 0.379744 0.356839 0.482121 0.579696 0.465208 0.550368 0.697937 0.743118 0.781484 0.730314 0.731324 0.714119 0.627293 0.567831 0.428007 0.288410 0.207911 0.078178 0.130222 -0.043224 -0.031265 -0.079945 -0.038213 0.002753 0.147656 0.088127 0.298686 0.278707 0.364342 0.457933 0.522569 0.507599 0.520265 0.506633 0.334663 0.310248 0.279425 0.099476 0.048626 -0.008747 -0.031020 -0.039708 -0.088819 -0.104449 -0.007932 0.057727 0.130656 0.143852 0.230593 0.333286 0.312557 0.417747 0.392327 0.283922 0.231226 0.244463 0.202338 0.104050 0.075601 0.016647 0.001646 0.006347 -0.015680 0.059437 0.147925 0.141462 0.231557 0.254909 0.304717 0.257250 0.223282 0.186293 0.214531 0.143754 0.044035 0.038964 -0.010066 -0.010597 -0.030304 0.018506 0.016446 0.169628 0.129142 0.182176 0.239246 0.200174 0.189907 0.197663 0.141198 0.103939 0.062870 0.048833 -0.031434 0.006916 0.024422 0.057088 0.053079 0.079662 0.095908 0.123006 0.138301 0.188802 0.079585 0.099285 0.073749 0.001509 0.004941 0.008185 -0.007874 0.019105 0.006351 0.029625 0.067540 0.081087 0.124911 0.049743 0.102328 0.054954 0.012419 0.061093 -0.036215 -0.012685 0.027230 0.001239 0.056143 0.051622 0.052965 0.056496 0.054932 0.046135 0.023304 0.000709 0.012010 0.013651 -0.011845 0.070555 -0.015042 0.012820 0.058457 0.049349 0.036889 0.045517 0.038618 0.016844 -0.016041 -0.039636 -0.014928 0.021674 0.028512 0.072010 0.059544 0.064319 0.083431 0.066935 0.024932 0.067601 0.086586 0.015363 0.018168 0.061690 0.051023 0.102773 0.107912 0.107540 0.118438 0.070240 0.044121 0.034132 0.004598 0.002126 0.053308 0.083168 0.045455 0.034831 0.032477 0.017619 0.095909 0.057674 -0.047398 -0.049587 0.032877 0.095402 0.006065 0.023181 0.062074 0.087333 0.030278 0.059387 0.081931 0.035704 0.036142 -0.041600 0.024443 0.115020 0.073546 -0.046158 -0.022136 -0.046828 0.034415 -0.109916 0.040461 -0.101519 -0.028503 0.061127 0.038806 0.034653 -0.039793 -0.060691 -0.078881 -0.085640 -0.070694 -0.119707 -0.089453 -0.032202 0.036667 -0.033685 0.044926 -0.012179 -0.043340 0.047429 -0.106972 -0.105469 -0.086570 -0.015224 -0.048617 -0.050925 0.001195 0.002698 0.020207 0.189891 -0.014763 0.150022 0.015096 0.250672 0.249116 0.327876 0.277013 0.112822 0.227840 0.269347 0.036755 0.236761 0.116126 0.110071 0.311384 0.117340 -0.604271
0.072396 0.072899 0.074406 0.076917 0.080433 0.084951 0.090471 0.096991 0.104509 0.113022 0.122526 0.133018 0.144492 0.156942 0.170360 0.184737 0.200061 0.216321 0.233500 0.251582 0.270547 0.290371 0.311030 0.332492 0.354726 0.377695 0.401356 0.425664 0.450569 0.476013 0.501938 0.528274 0.554950 0.581887 0.608999 0.636196 0.663378 0.690441 0.717272 0.743754 0.769760 0.795158 0.819811 0.843571 0.866289 0.887808 0.907965 0.926593 0.943523 0.958579 0.971586 0.982366 0.990741 0.996533 0.999568 0.999674 0.996686 0.990444 0.980797 0.967606 0.950742 0.930093 0.905563 0.877074 0.844569 0.808015 0.767405 0.722758 0.674124 0.621584 0.565255 0.505285 0.441864 0.375218 0.305611 0.233349 0.158779 0.082287 0.004298 0.074722 0.154270 0.233808 0.312766 0.390545 0.466518 0.540040 0.610448 0.677071 0.739234 0.796266 0.847506 0.892315 0.930082 0.960231 0.982237 0.995627 0.999996 0.995016 0.980439 0.956114 0.921992 0.878129 0.824703 0.762007 0.690464 0.610622 0.523159 0.428881 0.328719 0.223723 0.115055 0.003981 0.108144 0.219889 0.329763 0.436236 0.537761 0.632792 0.719815 0.797370 0.864081 0.918680 0.960038 0.987189 0.999359 0.995987 0.976748 0.941577 0.890674 0.824523 0.743900 0.649866 0.543768 0.427229 0.302128 0.170576 0.034890 0.102448 0.238829 0.371570 0.497962 0.615328 0.721083 0.812795 0.888245 0.945490 0.982916 0.999297 0.993835 0.966207 0.916588 0.845676 0.754699 0.645402 0.520040 0.381333 0.232425 0.076820 0.081695 0.239136 0.391420 0.534468 0.664326 0.777267 0.869919 0.939365 0.983251 0.999879 0.988284 0.948290 0.880555 0.786581 0.668705 0.530059 0.374510 0.206561 0.031236 0.146060 0.319704 0.484033 0.633528 0.763011 0.867832 0.944046 0.988587 0.999399 0.975558 0.917340 0.826262 0.705072 0.557692 0.389116 0.205264 0.012788 0.181157 0.369178 0.543911 0.698333 0.826042 0.921544 0.980509 0.999991 0.978599 0.916610 0.816020 0.680508 0.515347 0.327223 0.123986 0.085654 0.292493 0.487228 0.660887 0.805249 0.913253 0.979368 0.999907 0.973265 0.900061 0.783183 0.627720 0.440779 0.231192 0.009133 0.214367 0.427957 0.620534 0.781848 0.903056 0.977242 0.999847 0.968986 0.885633 0.753659 0.579697 0.372867 0.144323 0.093311 0.326624 0.542171 0.727257 0.870699 0.963541 0.999648 0.976161 0.893766 0.756752 0.572851 0.352857 0.110033 0.140647 0.383419 0.602702 0.784122 0.915473 0.987590 0.995033 0.936550 0.815287 0.638682 0.418085 0.168080 0.094443 0.351388 0.584719 0.777711 0.916207 0.989681 0.992107 0.922519 0.785209 0.589552 0.349435 0.082327 0.191932 0.452612 0.679632 0.855148 0.964994 0.999884 0.956274 0.836781 0.650138 0.410629 0.137085 0.148566 0.423007 0.663444 0.849517 0.965077 0.999646 0.949458 0.817936 0.615577 0.359207 0.070648 0.225067 0.501854 0.734868 0.902789 0.989817 0.987240 0.894411 0.718985 0.476406 0.188640 0.117742 0.413974 0.671792 0.866146 0.977710 0.994874 0.915062 0.745187 0.501180 0.206599 0.109549 0.415638 0.680562 0.876921 0.983937 0.989732 0.892770 0.702237 0.437312 0.125342 0.200897 0.506587 0.758613 0.929166 0.998911 0.959294 0.813709 0.577371 0.275878 0.057475 0.385295 0.670254 0.879393 0.987985 0.982589 0.862840 0.641766 0.344518 0.005648 0.334844 0.636175 0.861711 0.983474 0.985743 0.867230 0.641522 0.335696 0.012804 0.360642 0.663972 0.883971 0.991904 0.973013 0.828687 0.576598 0.248708 0.112626
1.000000 1.000000 1.000000 1.000000 1.000000 1.000000 1.000000 1.000000 1.000000 1.000000 1.000000 1.000000 1.000000 1.000000 1.000000 1.000000 1.000000 1.000000 1.000000 1.000000 1.000000 1.000000 1.000000 1.000000 1.000000 1.000000 1.000000 1.000000 1.000000 1.000000 1.000000 1.000000 1.000000 1.000000 1.000000 1.000000 1.000000 1.000000 1.000000 1.000000 1.000000 1.000000 1.000000 1.000000 1.000000 1.000000 1.000000 1.000000 1.000000 1.000000 1.000000 1.000000 0.929600 0.929600 0.929600 0.919593 0.919593 0.919593 0.919593 0.919593 0.919593 0.919593 0.919593 0.919593 0.919593 0.919593 0.919593 0.919593 0.919593 0.919593 0.919593 0.919593 0.919593 0.919593 0.919593 0.919593 0.919593 0.919593 0.919593 0.919593 0.919593 0.919593 0.919593 0.919593 0.919593 0.919593 0.919593 0.919593 0.919593 0.919593 0.919593 0.919593 0.919593 0.919593 0.919593 0.919593 0.949998 0.951244 0.959142 0.958986 0.958490 0.956402 0.955485 0.954364 0.953910 0.954182 0.954786 0.955617 0.964336 0.965408 0.966984 0.967812 0.968529 0.969174 0.969000 0.969714 0.968918 0.968351 0.967834 0.963850 0.964478 0.965036 0.965144 0.966174 0.966053 0.968057 0.968234 0.967625 0.966731 0.965976 0.965248 0.964818 0.964535 0.965042 0.965339 0.966651 0.969835 0.969261 0.968967 0.969124 0.969225 0.969407 0.969847 0.971547 0.967798 0.968431 0.966762 0.964582 0.968769 0.965915 0.965695 0.967057 0.967442 0.967844 0.966552 0.963001 0.957235 0.956742 0.953763 0.944361 0.942576 0.943259 0.945604 0.946087 0.944819 0.937498 0.938085 0.931950 0.932994 0.936284 0.931324 0.931303 0.932449 0.931514 0.929888 0.929206 0.926370 0.923355 0.921435 0.921217 0.924258 0.925087 0.926310 0.926137 0.920449 0.911702 0.898191 0.896933 0.891719 0.894931 0.884438 0.884398 0.884532 0.880539 0.884042 0.884141 0.885132 0.881858 0.866243 0.848087 0.840247 0.843546 0.848645 0.843910 0.842864 0.836003 0.848009 0.830234 0.842893 0.853909 0.849903 0.850573 0.850214 0.847809 0.841793 0.842534 0.844551 0.846446 0.845724 0.844818 0.841946 0.825063 0.826322 0.761221 0.744147 0.738754 0.744311 0.750436 0.751205 0.750600 0.758577 0.763790 0.757586 0.741207 0.733470 0.724837 0.729839 0.732913 0.736971 0.725310 0.700037 0.692897 0.660226 0.677887 0.694152 0.653270 0.677043 0.687799 0.684407 0.683260 0.675938 0.671870 0.666710 0.669693 0.678350 0.692709 0.712176 0.736386 0.733554 0.723537 0.722486 0.703612 0.696604 0.687075 0.696415 0.677442 0.673337 0.691618 0.691357 0.678166 0.657258 0.645158 0.632473 0.627782 0.635531 0.628264 0.625426 0.614496 0.588104 0.582477 0.619442 0.635918 0.654548 0.627489 0.613276 0.603552 0.582562 0.596245 0.542806 0.542807 0.563711 0.571000 0.548961 0.534838 0.544189 0.555334 0.560531 0.551492 0.534222 0.522221 0.536442 0.565332 0.556811 0.535793 0.539706 0.538288 0.531875 0.452496 0.448144 0.417512 0.387722 0.330220 0.306084 0.299047 0.280932 0.265790 0.231534 0.227709 0.238125 0.247223 0.257229 0.258818 0.244318 0.248643 0.241273 0.227424 0.165505 0.154162 0.146670 0.135564 0.136741 0.114522 0.136854 0.200785 0.203246 0.203246 0.203246 0.203246 0.203246 0.203246 0.214161 0.214161 0.214161 0.214161 0.214161 0.214161 0.214161 0.214161 0.214161 0.221751 0.221751 0.221751 0.221751 0.221751 0.221751 0.221751 0.221751 0.221751 0.221751 0.221751 0.221751 0.221751 0.221751
0.000000 0.000000 0.000000 0.000000 0.000000 0.000000 0.000000 0.000000 0.000000 0.000000 0.000000 0.000000 0.000000 0.000000 0.000000 0.000000 0.000000 0.000000 0.000000 0.000000 0.000000 0.000000 0.000000 0.000000 0.000000 0.000000 0.000000 0.000000 0.000000 0.000000 0.000000 0.000000 0.000000 0.000000 0.000000 0.000000 0.000000 0.000000 0.000000 0.000000 0.000000 0.000000 0.000000 0.000000 0.000000 0.000000 0.000000 0.000000 0.000000 0.000000 0.000000 0.000000 0.180334 0.180334 0.180334 0.199007 0.199007 0.199007 0.199007 0.199007 0.199007 0.199007 0.199007 0.199007 0.199007 0.199007 0.199007 0.199007 0.199007 0.199007 0.199007 0.199007 0.199007 0.199007 0.199007 0.199007 0.199007 0.199007 0.199007 0.199007 0.199007 0.199007 0.199007 0.199007 0.199007 0.199007 0.199007 0.199007 0.199007 0.199007 0.199007 0.199007 0.199007 0.199007 0.199007 0.199007 0.225018 0.225018 0.225018 0.225018 0.225018 0.225018 0.225018 0.225018 0.225018 0.225018 0.225018 0.225018 0.225018 0.225018 0.225018 0.225018 0.225018 0.225018 0.225018 0.225018 0.225018 0.225018 0.225018 0.225018 0.225018 0.225018 0.225018 0.225018 0.225018 0.244339 0.244339 0.244339 0.244339 0.244339 0.244339 0.244339 0.244339 0.244339 0.244339 0.244339 0.244339 0.244339 0.244339 0.244339 0.244339 0.244339 0.244339 0.244339 0.244339 0.244339 0.244339 0.244339 0.251976 0.251976 0.251976 0.251976 0.251976 0.251976 0.251976 0.251976 0.251976 0.251976 0.251976 0.251976 0.251976 0.251976 0.251976 0.251976 0.251976 0.251976 0.251976 0.251976 0.264906 0.264906 0.264906 0.264906 0.264906 0.264906 0.264906 0.264906 0.264906 0.264906 0.264906 0.264906 0.264906 0.264906 0.264906 0.264906 0.264906 0.264906 0.264906 0.264906 0.264906 0.264906 0.264906 0.264906 0.264906 0.264906 0.264906 0.264906 0.264906 0.264906 0.264906 0.264906 0.264906 0.264906 0.264906 0.264906 0.264906 0.264906 0.264906 0.264906 0.264906 0.264906 0.264906 0.264906 0.264906 0.264906 0.264906 0.264906 0.264906 0.264906 0.264906 0.264906 0.264906 0.264906 0.264906 0.264906 0.264906 0.264906 0.264906 0.264906 0.264906 0.264906 0.256074 0.256074 0.256074 0.256074 0.256074 0.256074 0.256074 0.256074 0.256074 0.256074 0.256074 0.256074 0.256074 0.256074 0.269680 0.269680 0.269680 0.269680 0.269680 0.269680 0.269680 0.269680 0.269680 0.269680 0.269680 0.269680 0.264906 0.264906 0.264906 0.264906 0.264906 0.264906 0.264906 0.264906 0.264906 0.264906 0.264906 0.264906 0.269680 0.269680 0.269680 0.269680 0.269680 0.269680 0.269680 0.269680 0.269680 0.269680 0.269680 0.264906 0.264906 0.264906 0.264906 0.264906 0.264906 0.264906 0.264906 0.264906 0.264906 0.264906 0.256074 0.256074 0.256074 0.256074 0.256074 0.256074 0.256074 0.256074 0.256074 0.256074 0.256074 0.264906 0.264906 0.264906 0.264906 0.264906 0.264906 0.264906 0.264906 0.264906 0.264906 0.260378 0.260378 0.260378 0.260378 0.260378 0.260378 0.260378 0.260378 0.260378 0.260378 0.256074 0.256074 0.256074 0.256074 0.256074 0.256074 0.256074 0.256074 0.256074 0.256074 0.260378 0.260378 0.260378 0.260378 0.260378 0.260378 0.260378 0.260378 0.260378 0.256074 0.256074 0.256074 0.256074 0.256074 0.256074 0.256074 0.256074 0.256074 0.251976 0.251976 0.251976 0.251976 0.251976 0.251976 0.251976 0.251976 0.251976 0.251976 0.251976 0.251976 0.251976 0.251976
