# Output from CTFFind version 4.1.9, run on 2019-11-03 20:08:55
# Input file: stack11_bm3d_averaged_1_7.5_0_2000_half.mrc ; Number of micrographs: 1
# Pixel size: 3.000 Angstroms ; acceleration voltage: 300.0 keV ; spherical aberration: 0.00 mm ; amplitude contrast: 0.07
# Box size: 512 pixels ; min. res.: 30.0 Angstroms ; max. res.: 5.0 Angstroms ; min. def.: 5000.0 um; max. def. 50000.0 um; num. frames averaged: 1
# 6 lines per micrograph: #1 - spatial frequency (1/Angstroms); #2 - 1D rotational average of spectrum (assuming no astigmatism); #3 - 1D rotational average of spectrum; #4 - CTF fit; #5 - cross-correlation between spectrum and CTF fit; #6 - 2sigma of expected cross correlation of noise
0.000000 0.000651 0.001302 0.001953 0.002604 0.003255 0.003906 0.004557 0.005208 0.005859 0.006510 0.007161 0.007812 0.008464 0.009115 0.009766 0.010417 0.011068 0.011719 0.012370 0.013021 0.013672 0.014323 0.014974 0.015625 0.016276 0.016927 0.017578 0.018229 0.018880 0.019531 0.020182 0.020833 0.021484 0.022135 0.022786 0.023438 0.024089 0.024740 0.025391 0.026042 0.026693 0.027344 0.027995 0.028646 0.029297 0.029948 0.030599 0.031250 0.031901 0.032552 0.033203 0.033854 0.034505 0.035156 0.035807 0.036458 0.037109 0.037760 0.038411 0.039062 0.039714 0.040365 0.041016 0.041667 0.042318 0.042969 0.043620 0.044271 0.044922 0.045573 0.046224 0.046875 0.047526 0.048177 0.048828 0.049479 0.050130 0.050781 0.051432 0.052083 0.052734 0.053385 0.054036 0.054688 0.055339 0.055990 0.056641 0.057292 0.057943 0.058594 0.059245 0.059896 0.060547 0.061198 0.061849 0.062500 0.063151 0.063802 0.064453 0.065104 0.065755 0.066406 0.067057 0.067708 0.068359 0.069010 0.069661 0.070312 0.070964 0.071615 0.072266 0.072917 0.073568 0.074219 0.074870 0.075521 0.076172 0.076823 0.077474 0.078125 0.078776 0.079427 0.080078 0.080729 0.081380 0.082031 0.082682 0.083333 0.083984 0.084635 0.085286 0.085938 0.086589 0.087240 0.087891 0.088542 0.089193 0.089844 0.090495 0.091146 0.091797 0.092448 0.093099 0.093750 0.094401 0.095052 0.095703 0.096354 0.097005 0.097656 0.098307 0.098958 0.099609 0.100260 0.100911 0.101562 0.102214 0.102865 0.103516 0.104167 0.104818 0.105469 0.106120 0.106771 0.107422 0.108073 0.108724 0.109375 0.110026 0.110677 0.111328 0.111979 0.112630 0.113281 0.113932 0.114583 0.115234 0.115885 0.116536 0.117188 0.117839 0.118490 0.119141 0.119792 0.120443 0.121094 0.121745 0.122396 0.123047 0.123698 0.124349 0.125000 0.125651 0.126302 0.126953 0.127604 0.128255 0.128906 0.129557 0.130208 0.130859 0.131510 0.132161 0.132812 0.133464 0.134115 0.134766 0.135417 0.136068 0.136719 0.137370 0.138021 0.138672 0.139323 0.139974 0.140625 0.141276 0.141927 0.142578 0.143229 0.143880 0.144531 0.145182 0.145833 0.146484 0.147135 0.147786 0.148438 0.149089 0.149740 0.150391 0.151042 0.151693 0.152344 0.152995 0.153646 0.154297 0.154948 0.155599 0.156250 0.156901 0.157552 0.158203 0.158854 0.159505 0.160156 0.160807 0.161458 0.162109 0.162760 0.163411 0.164062 0.164714 0.165365 0.166016 0.166667 0.167318 0.167969 0.168620 0.169271 0.169922 0.170573 0.171224 0.171875 0.172526 0.173177 0.173828 0.174479 0.175130 0.175781 0.176432 0.177083 0.177734 0.178385 0.179036 0.179688 0.180339 0.180990 0.181641 0.182292 0.182943 0.183594 0.184245 0.184896 0.185547 0.186198 0.186849 0.187500 0.188151 0.188802 0.189453 0.190104 0.190755 0.191406 0.192057 0.192708 0.193359 0.194010 0.194661 0.195312 0.195964 0.196615 0.197266 0.197917 0.198568 0.199219 0.199870 0.200521 0.201172 0.201823 0.202474 0.203125 0.203776 0.204427 0.205078 0.205729 0.206380 0.207031 0.207682 0.208333 0.208984 0.209635 0.210286 0.210938 0.211589 0.212240 0.212891 0.213542 0.214193 0.214844 0.215495 0.216146 0.216797 0.217448 0.218099 0.218750 0.219401 0.220052 0.220703 0.221354 0.222005 0.222656 0.223307 0.223958 0.224609 0.225260 0.225911 0.226562 0.227214 0.227865 0.228516 0.229167 0.229818 0.230469 0.231120 0.231771 0.232422 0.233073 0.233724 0.234375 0.235026 0.235677
       0.34618        0.34618        0.34618        0.34618        0.34618        0.34618        0.34618        0.34618        0.34618        0.34618        0.34618        0.34618        0.34618        0.34618        0.34618        0.34618        0.34618        0.34618        0.34618        0.34618        0.34618        0.34618        0.34618        0.34618        0.34618        0.34618        0.34618        0.34618        0.34618        0.34618        0.34618        0.34618        0.34618        0.34618        0.34618        0.34618        0.34618        0.34618        0.34618        0.34618        0.34618        0.34618        0.34618        0.34618        0.34618        0.34618        0.34618        0.34618        0.34618        0.34618        0.34618        0.69964        0.85728        0.53866        0.10549       -0.02876       -0.38351       -0.17937       -0.28825       -0.11678       -0.05466       -0.11310       -0.05326       -0.16465       -0.20466       -0.21238       -0.30594       -0.31727       -0.44223       -0.36139       -0.42420       -0.41947       -0.39189       -0.40356       -0.44337       -0.50477       -0.55720       -0.54669       -0.52060       -0.35439       -0.32309       -0.28869       -0.26875       -0.18464       -0.16808        0.06284        0.14444        0.17812        0.26813        0.38157        0.45821        0.52362        0.60260        0.59975        0.58568        0.70121        0.80246        0.70203        0.74493        0.61827        0.56860        0.48396        0.43397        0.51285        0.39901        0.27506        0.11868        0.11642        0.09723       -0.01045        0.04895        0.05537        0.01510        0.02896        0.03403        0.23673        0.27224        0.29691        0.43628        0.45424        0.41547        0.60246        0.61715        0.63273        0.72282        0.67512        0.64742        0.65471        0.55990        0.45971        0.41929        0.30519        0.27356        0.18725        0.13802        0.05276        0.06902        0.07995        0.10176        0.16296        0.24816        0.30155        0.42595        0.46650        0.48162        0.56254        0.60117        0.63656        0.61388        0.55722        0.46342        0.47373        0.37898        0.28010        0.21407        0.15643        0.17501        0.15496        0.16514        0.19512        0.32623        0.34104        0.41080        0.44905        0.42510        0.47889        0.56410        0.55653        0.50500        0.45790        0.41536        0.37591        0.34469        0.31242        0.26830        0.24839        0.25907        0.25897        0.22789        0.31217        0.36639        0.38499        0.43952        0.45623        0.46723        0.42924        0.41450        0.40266        0.36445        0.34169        0.27584        0.28469        0.27098        0.25066        0.29868        0.29622        0.35438        0.38533        0.43817        0.47685        0.40662        0.42253        0.43294        0.41313        0.35188        0.33129        0.29322        0.32911        0.27825        0.32629        0.31794        0.33604        0.34411        0.36677        0.31248        0.38741        0.41186        0.38173        0.35360        0.36998        0.32082        0.29721        0.31047        0.32023        0.30914        0.32145        0.34786        0.36028        0.34206        0.36409        0.36267        0.42681        0.39287        0.34190        0.35106        0.30121        0.29671        0.32822        0.32150        0.33207        0.34530        0.34591        0.38991        0.33196        0.33095        0.33984        0.35179        0.30565        0.31370        0.28403        0.30385        0.33382        0.30466        0.33418        0.36110        0.37425        0.30140        0.34673        0.30148        0.29195        0.28025        0.24854        0.31039        0.30963        0.34370        0.34097        0.34741        0.32946        0.35067        0.31695        0.34682        0.30539        0.32817        0.29594        0.33903        0.33527        0.37692        0.33452        0.33786        0.33707        0.29402        0.27785        0.31496        0.25280        0.23172        0.34129        0.32514        0.36985        0.34845        0.36547        0.33851        0.33450        0.35419        0.26792        0.27308        0.32134        0.30216        0.31183        0.31330        0.33982        0.32927        0.28897        0.29280        0.34663        0.32358        0.32531        0.30306        0.32149        0.33739        0.39174        0.36639        0.32284        0.28465        0.30383        0.29112        0.31122        0.28184        0.27461        0.31318        0.32922        0.34695        0.35724        0.33439        0.29849        0.30247        0.27307        0.28123        0.25826        0.30625        0.25925        0.25161        0.28617        0.28122        0.26257        0.29333        0.22223        0.21873        0.23693        0.19530        0.27667        0.35123        0.25502        0.24887        0.32036        0.30002        0.30702        0.31470        0.27698        0.25454        0.19692        0.21151        0.21339        0.29170        0.23765        0.28597        0.36825        0.37808        0.26089        0.18865        0.14131       -0.01822       -0.14299       -0.62741
2.730388 2.701401 2.672572 2.643901 2.615388 2.587033 2.558835 2.530796 2.502914 2.475190 2.447624 2.420216 2.392966 2.365873 2.338939 2.312162 2.285543 2.259083 2.232780 2.206634 2.180647 2.154818 2.129146 2.103632 2.078276 2.053078 2.028038 2.003156 1.978432 1.953865 1.929456 1.905206 1.881113 1.857178 1.833400 1.809781 1.786320 1.763016 1.739870 1.716882 1.694052 1.671380 1.648866 1.626509 1.604311 1.582270 1.560387 1.538662 1.517095 1.495686 1.474435 1.686429 2.101227 1.668811 1.159674 1.025942 0.443323 0.827429 0.545096 0.821522 0.794645 0.796199 0.736378 0.737122 0.581329 0.546255 0.488083 0.414884 0.243020 0.352850 0.192821 0.321208 0.211533 0.205856 0.181059 0.040737 -0.000430 0.018253 -0.068507 0.129554 0.227224 0.183673 0.175340 0.314431 0.178505 0.508926 0.609579 0.620671 0.637055 0.854491 0.814868 0.920028 0.918907 1.012189 0.983926 1.062977 1.142652 1.017604 1.139467 0.886859 0.906267 0.777034 0.638049 0.790173 0.676975 0.486915 0.325649 0.245325 0.264461 0.145758 0.136307 0.162952 0.107153 0.114276 0.082011 0.240916 0.339829 0.331982 0.465137 0.530661 0.405532 0.580388 0.714204 0.624668 0.700506 0.691210 0.700709 0.627773 0.580220 0.474968 0.356243 0.270245 0.213887 0.091453 0.113127 -0.116749 -0.048080 -0.061566 -0.083061 -0.016566 0.124891 0.070549 0.237512 0.299699 0.327732 0.360787 0.481064 0.451231 0.465649 0.475830 0.296382 0.285147 0.278768 0.083673 0.044798 -0.081434 -0.016433 -0.061659 -0.095022 -0.065706 0.039912 0.092980 0.124156 0.221597 0.215870 0.212037 0.306035 0.332252 0.435216 0.248695 0.225706 0.221987 0.139645 0.142340 0.117225 -0.004465 0.014133 0.077120 -0.011022 0.042846 0.130143 0.131511 0.206191 0.226704 0.247969 0.158582 0.205943 0.125699 0.119562 0.113528 0.024882 -0.025689 -0.001627 -0.019885 -0.049918 0.054574 0.003334 0.104015 0.134473 0.189940 0.157227 0.112005 0.135653 0.153888 0.106210 0.033641 -0.025845 0.025434 0.029515 -0.044397 0.038462 0.018481 0.046742 0.038438 0.053194 0.018416 0.127863 0.112390 0.044299 0.034975 0.039881 0.004055 -0.029849 0.007477 0.002136 -0.005553 0.001352 0.057821 0.052079 0.036776 0.069572 0.060430 0.162525 0.062911 0.041883 0.043133 -0.033912 0.012914 0.047235 0.008245 0.031947 0.055517 0.076662 0.057771 0.041312 0.008229 0.078648 0.029198 0.019991 0.025343 -0.004661 0.031238 0.027475 0.020753 0.069263 0.074490 0.079735 0.042234 0.053991 0.021209 0.017762 -0.026503 -0.023107 0.037943 0.051761 0.078582 0.078893 0.065462 0.069107 0.094438 0.041523 0.085795 0.053353 0.045159 0.018012 0.102383 0.063198 0.124674 0.061156 0.068991 0.090036 0.027229 0.002511 0.083078 -0.038661 -0.029928 0.087327 0.041511 0.154095 0.087408 0.085413 0.063203 0.025822 0.086498 -0.028042 -0.023725 0.043392 0.028687 0.028425 0.011994 0.097609 0.025817 -0.014888 0.046974 0.036819 0.051312 0.053726 -0.007443 0.051214 0.044865 0.110327 0.059648 0.027977 -0.029479 -0.031163 -0.004184 0.010965 -0.055674 -0.019215 -0.000632 0.006302 0.041945 0.060214 0.005629 -0.029871 -0.027349 -0.017670 -0.062519 -0.043159 -0.037067 -0.127633 -0.092115 -0.064097 -0.098236 -0.105699 -0.030226 -0.150006 -0.100292 -0.115824 -0.193910 -0.069584 0.058939 -0.075877 -0.129150 0.049515 0.020586 -0.031536 0.067600 -0.023401 -0.004608 -0.078561 -0.041913 0.050624 0.134336 0.050643 0.135917 0.162788 0.473146 0.208194 0.325887 0.177715 -0.023343 -0.683603
0.072396 0.072899 0.074408 0.076923 0.080443 0.084967 0.090494 0.097023 0.104550 0.113074 0.122591 0.133097 0.144586 0.157051 0.170486 0.184881 0.200225 0.216505 0.233706 0.251810 0.270798 0.290647 0.311330 0.332818 0.355078 0.378073 0.401761 0.426095 0.451026 0.476497 0.502446 0.528807 0.555507 0.582466 0.609599 0.636813 0.664011 0.691088 0.717929 0.744418 0.770427 0.795824 0.820470 0.844220 0.866921 0.888416 0.908544 0.927135 0.944021 0.959025 0.971972 0.982683 0.990979 0.996684 0.999622 0.999622 0.996517 0.990149 0.980366 0.967029 0.950010 0.929197 0.904494 0.875825 0.843132 0.806385 0.765576 0.720727 0.671888 0.619143 0.562609 0.502439 0.438822 0.371987 0.302201 0.229772 0.155050 0.078423 0.000321 0.078789 0.158402 0.237976 0.316938 0.394687 0.470593 0.544009 0.614270 0.680704 0.742634 0.799387 0.850305 0.894746 0.932100 0.961794 0.983304 0.996161 0.999962 0.994383 0.979184 0.954218 0.919441 0.874920 0.820837 0.757498 0.685332 0.604899 0.516886 0.422108 0.321509 0.216147 0.107195 0.004073 0.116292 0.228024 0.337771 0.443999 0.545156 0.639695 0.726103 0.802922 0.868781 0.922419 0.962716 0.988719 0.999668 0.995020 0.974471 0.937973 0.885753 0.818320 0.736472 0.641299 0.534174 0.416746 0.290918 0.158826 0.022804 0.114644 0.250899 0.383266 0.509031 0.625520 0.730152 0.820509 0.894390 0.949876 0.985385 0.999727 0.992146 0.962364 0.910608 0.837629 0.744704 0.633639 0.506736 0.366768 0.216924 0.060746 0.097948 0.255150 0.406764 0.548712 0.677050 0.788077 0.878455 0.945318 0.986374 0.999996 0.985300 0.942200 0.871445 0.774635 0.654202 0.513370 0.356088 0.186933 0.010992 0.166287 0.339257 0.502251 0.649771 0.776678 0.878386 0.951040 0.991678 0.998374 0.970340 0.908001 0.813029 0.688323 0.537951 0.367039 0.181623 0.011560 0.205296 0.392160 0.564810 0.716265 0.840213 0.931285 0.985311 0.999530 0.972763 0.905510 0.799995 0.660124 0.491381 0.300631 0.095877 0.114064 0.319934 0.512432 0.682647 0.822477 0.925038 0.985026 0.999026 0.965735 0.886092 0.763307 0.602782 0.411901 0.199735 0.023371 0.246285 0.457626 0.646365 0.802401 0.917127 0.983938 0.998646 0.959779 0.868749 0.729864 0.550168 0.339136 0.108209 0.129796 0.361387 0.573160 0.752578 0.888740 0.973075 0.999927 0.966978 0.875484 0.730309 0.539716 0.314963 0.069673 0.180967 0.421119 0.635298 0.809395 0.931623 0.993372 0.989856 0.920548 0.789326 0.604338 0.377548 0.124029 0.139001 0.393347 0.621058 0.805739 0.933753 0.995281 0.985129 0.903239 0.754821 0.550111 0.303730 0.033696 0.239845 0.496122 0.715301 0.880062 0.977007 0.997816 0.940036 0.807419 0.609780 0.362353 0.084694 0.200839 0.470831 0.702751 0.876858 0.977934 0.996674 0.930637 0.784617 0.570406 0.305929 0.013818 0.280472 0.550864 0.772977 0.926368 0.996474 0.976083 0.866173 0.676006 0.422456 0.128610 0.178264 0.469237 0.716403 0.895635 0.988962 0.986497 0.887563 0.700982 0.444404 0.142747 0.174150 0.474444 0.727472 0.906930 0.993674 0.977867 0.860209 0.652088 0.374618 0.056596 0.268411 0.565566 0.802519 0.952974 0.999700 0.936626 0.769752 0.516726 0.205115 0.130494 0.452285 0.723454 0.912464 0.996798 0.965759 0.821963 0.581313 0.271374 0.071645 0.407067 0.694547 0.898939 0.994711 0.969239 0.824624 0.577730 0.258385 0.094121 0.435752 0.723250 0.919628 0.999031 0.950291 0.778646 0.505397 0.165401 0.197227
1.000000 1.000000 1.000000 1.000000 1.000000 1.000000 1.000000 1.000000 1.000000 1.000000 1.000000 1.000000 1.000000 1.000000 1.000000 1.000000 1.000000 1.000000 1.000000 1.000000 1.000000 1.000000 1.000000 1.000000 1.000000 1.000000 1.000000 1.000000 1.000000 1.000000 1.000000 1.000000 1.000000 1.000000 1.000000 1.000000 1.000000 1.000000 1.000000 1.000000 1.000000 1.000000 1.000000 1.000000 1.000000 1.000000 1.000000 1.000000 1.000000 1.000000 1.000000 1.000000 0.914189 0.914189 0.914189 0.911293 0.911293 0.911293 0.911293 0.911293 0.911293 0.911293 0.911293 0.911293 0.911293 0.911293 0.911293 0.911293 0.911293 0.911293 0.911293 0.911293 0.911293 0.911293 0.911293 0.911293 0.911293 0.911293 0.911293 0.911293 0.911293 0.911293 0.911293 0.911293 0.911293 0.911293 0.911293 0.911293 0.911293 0.911293 0.911293 0.911293 0.911293 0.911293 0.911293 0.911293 0.939724 0.941153 0.949508 0.949032 0.948489 0.946511 0.945245 0.945035 0.944949 0.945303 0.946039 0.947034 0.953250 0.954187 0.958593 0.961314 0.961287 0.963030 0.965003 0.964646 0.956363 0.956115 0.954676 0.953955 0.956068 0.954713 0.953487 0.953964 0.951614 0.955962 0.955530 0.954324 0.952686 0.951094 0.947505 0.947002 0.946037 0.946861 0.946956 0.948568 0.951620 0.951795 0.951542 0.948808 0.948408 0.949618 0.949172 0.950972 0.938798 0.938046 0.936480 0.936424 0.938922 0.938800 0.938685 0.939598 0.939296 0.939216 0.939368 0.933615 0.933306 0.926252 0.922398 0.921142 0.915573 0.911563 0.914282 0.917020 0.918227 0.918625 0.909157 0.906239 0.907219 0.905972 0.907438 0.907057 0.908229 0.908637 0.908555 0.903486 0.894090 0.892526 0.883632 0.886393 0.882617 0.879928 0.877075 0.868561 0.860172 0.871981 0.858996 0.817839 0.821438 0.826051 0.818831 0.815258 0.819644 0.821184 0.825995 0.819898 0.818727 0.812627 0.799159 0.795377 0.788722 0.774198 0.770456 0.761088 0.750798 0.744709 0.768030 0.761749 0.773511 0.777798 0.777401 0.773601 0.763947 0.752615 0.752783 0.751721 0.747668 0.723874 0.715314 0.715353 0.713057 0.699964 0.702868 0.691420 0.691657 0.678824 0.683888 0.689785 0.693213 0.688691 0.682690 0.674476 0.669646 0.683546 0.696875 0.689017 0.685579 0.694415 0.685271 0.679716 0.671104 0.674767 0.666304 0.661635 0.663200 0.696449 0.669961 0.659735 0.666007 0.666424 0.663988 0.663953 0.642880 0.637276 0.613905 0.631337 0.636071 0.651740 0.653946 0.657325 0.668066 0.673961 0.684613 0.689325 0.687260 0.646703 0.651148 0.668555 0.676515 0.666231 0.656478 0.650785 0.641075 0.677926 0.662432 0.620804 0.616625 0.617250 0.571601 0.550591 0.548901 0.550225 0.577528 0.575355 0.558769 0.532749 0.534618 0.534862 0.530934 0.530089 0.509577 0.519804 0.503439 0.480562 0.493439 0.501889 0.500587 0.484675 0.478485 0.492269 0.472733 0.496813 0.475042 0.458073 0.474238 0.473414 0.461206 0.389816 0.396472 0.387376 0.372249 0.329462 0.338749 0.348817 0.328456 0.252176 0.246598 0.247400 0.243714 0.221929 0.196206 0.182898 0.173140 0.150526 0.091752 0.042414 0.045312 0.049298 0.075744 0.037800 0.091510 0.161258 0.157870 0.157870 0.157870 0.157870 0.157870 0.157870 0.157870 0.157870 0.134440 0.134440 0.134440 0.134440 0.134440 0.134440 0.134440 0.134440 0.134440 0.157870 0.157870 0.157870 0.157870 0.157870 0.157870 0.157870 0.157870 0.157870 0.157870 0.157870 0.157870 0.157870 0.157870
0.000000 0.000000 0.000000 0.000000 0.000000 0.000000 0.000000 0.000000 0.000000 0.000000 0.000000 0.000000 0.000000 0.000000 0.000000 0.000000 0.000000 0.000000 0.000000 0.000000 0.000000 0.000000 0.000000 0.000000 0.000000 0.000000 0.000000 0.000000 0.000000 0.000000 0.000000 0.000000 0.000000 0.000000 0.000000 0.000000 0.000000 0.000000 0.000000 0.000000 0.000000 0.000000 0.000000 0.000000 0.000000 0.000000 0.000000 0.000000 0.000000 0.000000 0.000000 0.000000 0.180334 0.180334 0.180334 0.199007 0.199007 0.199007 0.199007 0.199007 0.199007 0.199007 0.199007 0.199007 0.199007 0.199007 0.199007 0.199007 0.199007 0.199007 0.199007 0.199007 0.199007 0.199007 0.199007 0.199007 0.199007 0.199007 0.199007 0.199007 0.199007 0.199007 0.199007 0.199007 0.199007 0.199007 0.199007 0.199007 0.199007 0.199007 0.199007 0.199007 0.199007 0.199007 0.199007 0.199007 0.225018 0.225018 0.225018 0.225018 0.225018 0.225018 0.225018 0.225018 0.225018 0.225018 0.225018 0.225018 0.225018 0.225018 0.225018 0.225018 0.225018 0.225018 0.225018 0.225018 0.225018 0.225018 0.225018 0.225018 0.225018 0.225018 0.225018 0.225018 0.225018 0.244339 0.244339 0.244339 0.244339 0.244339 0.244339 0.244339 0.244339 0.244339 0.244339 0.244339 0.244339 0.244339 0.244339 0.244339 0.244339 0.244339 0.244339 0.244339 0.244339 0.244339 0.244339 0.244339 0.256074 0.256074 0.256074 0.256074 0.256074 0.256074 0.256074 0.256074 0.256074 0.256074 0.256074 0.256074 0.256074 0.256074 0.256074 0.256074 0.256074 0.256074 0.256074 0.256074 0.256074 0.256074 0.256074 0.256074 0.256074 0.256074 0.256074 0.256074 0.256074 0.256074 0.256074 0.256074 0.256074 0.256074 0.256074 0.256074 0.256074 0.264906 0.264906 0.264906 0.264906 0.264906 0.264906 0.264906 0.264906 0.264906 0.264906 0.264906 0.264906 0.264906 0.264906 0.264906 0.264906 0.264906 0.264906 0.264906 0.264906 0.264906 0.264906 0.264906 0.264906 0.264906 0.264906 0.264906 0.264906 0.264906 0.264906 0.264906 0.264906 0.264906 0.264906 0.264906 0.264906 0.264906 0.264906 0.264906 0.264906 0.264906 0.264906 0.264906 0.264906 0.264906 0.264906 0.264906 0.264906 0.264906 0.264906 0.264906 0.264906 0.264906 0.264906 0.264906 0.264906 0.264906 0.264906 0.260378 0.260378 0.260378 0.260378 0.260378 0.260378 0.260378 0.260378 0.260378 0.260378 0.260378 0.260378 0.260378 0.264906 0.264906 0.264906 0.264906 0.264906 0.264906 0.264906 0.264906 0.264906 0.264906 0.264906 0.264906 0.269680 0.269680 0.269680 0.269680 0.269680 0.269680 0.269680 0.269680 0.269680 0.269680 0.269680 0.264906 0.264906 0.264906 0.264906 0.264906 0.264906 0.264906 0.264906 0.264906 0.264906 0.264906 0.256074 0.256074 0.256074 0.256074 0.256074 0.256074 0.256074 0.256074 0.256074 0.256074 0.256074 0.264906 0.264906 0.264906 0.264906 0.264906 0.264906 0.264906 0.264906 0.264906 0.264906 0.260378 0.260378 0.260378 0.260378 0.260378 0.260378 0.260378 0.260378 0.260378 0.260378 0.264906 0.264906 0.264906 0.264906 0.264906 0.264906 0.264906 0.264906 0.264906 0.251976 0.251976 0.251976 0.251976 0.251976 0.251976 0.251976 0.251976 0.251976 0.251976 0.256074 0.256074 0.256074 0.256074 0.256074 0.256074 0.256074 0.256074 0.256074 0.251976 0.251976 0.251976 0.251976 0.251976 0.251976 0.251976 0.251976 0.251976 0.251976 0.251976 0.251976 0.251976 0.251976
