# Output from CTFFind version 4.1.9, run on 2019-11-03 19:33:55
# Input file: stack11_bm3d_averaged_1_4.25_0_1000_half.mrc ; Number of micrographs: 1
# Pixel size: 3.000 Angstroms ; acceleration voltage: 300.0 keV ; spherical aberration: 0.00 mm ; amplitude contrast: 0.07
# Box size: 512 pixels ; min. res.: 30.0 Angstroms ; max. res.: 5.0 Angstroms ; min. def.: 5000.0 um; max. def. 50000.0 um; num. frames averaged: 1
# 6 lines per micrograph: #1 - spatial frequency (1/Angstroms); #2 - 1D rotational average of spectrum (assuming no astigmatism); #3 - 1D rotational average of spectrum; #4 - CTF fit; #5 - cross-correlation between spectrum and CTF fit; #6 - 2sigma of expected cross correlation of noise
0.000000 0.000651 0.001302 0.001953 0.002604 0.003255 0.003906 0.004557 0.005208 0.005859 0.006510 0.007161 0.007812 0.008464 0.009115 0.009766 0.010417 0.011068 0.011719 0.012370 0.013021 0.013672 0.014323 0.014974 0.015625 0.016276 0.016927 0.017578 0.018229 0.018880 0.019531 0.020182 0.020833 0.021484 0.022135 0.022786 0.023438 0.024089 0.024740 0.025391 0.026042 0.026693 0.027344 0.027995 0.028646 0.029297 0.029948 0.030599 0.031250 0.031901 0.032552 0.033203 0.033854 0.034505 0.035156 0.035807 0.036458 0.037109 0.037760 0.038411 0.039062 0.039714 0.040365 0.041016 0.041667 0.042318 0.042969 0.043620 0.044271 0.044922 0.045573 0.046224 0.046875 0.047526 0.048177 0.048828 0.049479 0.050130 0.050781 0.051432 0.052083 0.052734 0.053385 0.054036 0.054688 0.055339 0.055990 0.056641 0.057292 0.057943 0.058594 0.059245 0.059896 0.060547 0.061198 0.061849 0.062500 0.063151 0.063802 0.064453 0.065104 0.065755 0.066406 0.067057 0.067708 0.068359 0.069010 0.069661 0.070312 0.070964 0.071615 0.072266 0.072917 0.073568 0.074219 0.074870 0.075521 0.076172 0.076823 0.077474 0.078125 0.078776 0.079427 0.080078 0.080729 0.081380 0.082031 0.082682 0.083333 0.083984 0.084635 0.085286 0.085938 0.086589 0.087240 0.087891 0.088542 0.089193 0.089844 0.090495 0.091146 0.091797 0.092448 0.093099 0.093750 0.094401 0.095052 0.095703 0.096354 0.097005 0.097656 0.098307 0.098958 0.099609 0.100260 0.100911 0.101562 0.102214 0.102865 0.103516 0.104167 0.104818 0.105469 0.106120 0.106771 0.107422 0.108073 0.108724 0.109375 0.110026 0.110677 0.111328 0.111979 0.112630 0.113281 0.113932 0.114583 0.115234 0.115885 0.116536 0.117188 0.117839 0.118490 0.119141 0.119792 0.120443 0.121094 0.121745 0.122396 0.123047 0.123698 0.124349 0.125000 0.125651 0.126302 0.126953 0.127604 0.128255 0.128906 0.129557 0.130208 0.130859 0.131510 0.132161 0.132812 0.133464 0.134115 0.134766 0.135417 0.136068 0.136719 0.137370 0.138021 0.138672 0.139323 0.139974 0.140625 0.141276 0.141927 0.142578 0.143229 0.143880 0.144531 0.145182 0.145833 0.146484 0.147135 0.147786 0.148438 0.149089 0.149740 0.150391 0.151042 0.151693 0.152344 0.152995 0.153646 0.154297 0.154948 0.155599 0.156250 0.156901 0.157552 0.158203 0.158854 0.159505 0.160156 0.160807 0.161458 0.162109 0.162760 0.163411 0.164062 0.164714 0.165365 0.166016 0.166667 0.167318 0.167969 0.168620 0.169271 0.169922 0.170573 0.171224 0.171875 0.172526 0.173177 0.173828 0.174479 0.175130 0.175781 0.176432 0.177083 0.177734 0.178385 0.179036 0.179688 0.180339 0.180990 0.181641 0.182292 0.182943 0.183594 0.184245 0.184896 0.185547 0.186198 0.186849 0.187500 0.188151 0.188802 0.189453 0.190104 0.190755 0.191406 0.192057 0.192708 0.193359 0.194010 0.194661 0.195312 0.195964 0.196615 0.197266 0.197917 0.198568 0.199219 0.199870 0.200521 0.201172 0.201823 0.202474 0.203125 0.203776 0.204427 0.205078 0.205729 0.206380 0.207031 0.207682 0.208333 0.208984 0.209635 0.210286 0.210938 0.211589 0.212240 0.212891 0.213542 0.214193 0.214844 0.215495 0.216146 0.216797 0.217448 0.218099 0.218750 0.219401 0.220052 0.220703 0.221354 0.222005 0.222656 0.223307 0.223958 0.224609 0.225260 0.225911 0.226562 0.227214 0.227865 0.228516 0.229167 0.229818 0.230469 0.231120 0.231771 0.232422 0.233073 0.233724 0.234375 0.235026 0.235677
       0.33408        0.33408        0.33408        0.33408        0.33408        0.33408        0.33408        0.33408        0.33408        0.33408        0.33408        0.33408        0.33408        0.33408        0.33408        0.33408        0.33408        0.33408        0.33408        0.33408        0.33408        0.33408        0.33408        0.33408        0.33408        0.33408        0.33408        0.33408        0.33408        0.33408        0.33408        0.33408        0.33408        0.33408        0.33408        0.33408        0.33408        0.33408        0.33408        0.33408        0.33408        0.33408        0.33408        0.33408        0.33408        0.33408        0.33408        0.33408        0.33408        0.33408        0.33408        0.69152        0.86033        0.53225        0.10249       -0.03700       -0.40127       -0.18579       -0.28969       -0.11278       -0.05881       -0.11079       -0.05526       -0.17916       -0.21328       -0.22779       -0.31463       -0.32631       -0.45637       -0.36775       -0.43682       -0.43030       -0.40472       -0.43039       -0.47597       -0.52473       -0.56602       -0.57427       -0.54588       -0.37475       -0.34823       -0.30792       -0.28605       -0.19278       -0.18455        0.04710        0.12372        0.15413        0.25098        0.37683        0.45325        0.51749        0.58433        0.58207        0.57305        0.69391        0.80519        0.71213        0.73782        0.63170        0.56702        0.48320        0.42477        0.50817        0.39107        0.24769        0.10310        0.08930        0.06740       -0.03199        0.01495        0.03055       -0.01630        0.01537        0.00839        0.23467        0.26418        0.29200        0.42768        0.45014        0.40905        0.57789        0.62548        0.65559        0.73413        0.68060        0.64971        0.67097        0.56485        0.46990        0.41757        0.29856        0.24306        0.17000        0.12684        0.05243        0.04381        0.04607        0.08633        0.14293        0.22968        0.28054        0.40500        0.45515        0.48545        0.58370        0.61369        0.63758        0.62024        0.56068        0.45461        0.46588        0.37286        0.25622        0.19912        0.15581        0.15618        0.14270        0.13334        0.15962        0.29419        0.30471        0.38439        0.42159        0.43007        0.49619        0.55339        0.55275        0.49051        0.45186        0.40268        0.35274        0.32383        0.28876        0.23549        0.23164        0.22009        0.23637        0.21380        0.29985        0.35841        0.38615        0.43891        0.45378        0.47178        0.42165        0.39914        0.40419        0.36056        0.30612        0.26865        0.25319        0.25253        0.22076        0.26940        0.27008        0.34005        0.37334        0.40768        0.47523        0.41691        0.42865        0.43167        0.40455        0.34323        0.31953        0.28960        0.30453        0.26558        0.30394        0.29873        0.31786        0.32679        0.34831        0.31875        0.39947        0.41646        0.37939        0.34445        0.37092        0.30582        0.28795        0.28749        0.31419        0.29507        0.30641        0.32356        0.33684        0.34023        0.36692        0.36924        0.39204        0.37363        0.32505        0.33169        0.29100        0.27476        0.31969        0.31200        0.32165        0.32878        0.32627        0.36607        0.32737        0.32687        0.32034        0.32896        0.29488        0.30462        0.27039        0.29722        0.31499        0.29699        0.31819        0.34025        0.34530        0.28027        0.31642        0.28558        0.30143        0.27752        0.23745        0.29123        0.29335        0.34010        0.33049        0.32877        0.32120        0.33964        0.30060        0.33818        0.32103        0.29799        0.27449        0.32101        0.30733        0.35239        0.32483        0.33035        0.33727        0.29172        0.27404        0.30677        0.24509        0.22174        0.32464        0.31714        0.33603        0.32831        0.34211        0.31420        0.34195        0.33934        0.26339        0.24384        0.30532        0.29835        0.30510        0.32021        0.33736        0.33627        0.30245        0.28808        0.33475        0.31467        0.29182        0.27449        0.31944        0.34939        0.39246        0.32618        0.29453        0.27561        0.30745        0.27022        0.29052        0.26742        0.24394        0.30814        0.33020        0.33982        0.34068        0.30544        0.27696        0.28699        0.25756        0.25665        0.24586        0.31810        0.28383        0.22537        0.32343        0.31718        0.26018        0.27970        0.20543        0.21336        0.25441        0.18135        0.24857        0.30215        0.23015        0.21366        0.30766        0.32834        0.32705        0.32668        0.25249        0.21746        0.17775        0.21587        0.18981        0.19033        0.20288        0.24681        0.27933        0.25446        0.20167        0.11520        0.09129       -0.00680       -0.10671       -0.61943
2.706835 2.678211 2.649744 2.621432 2.593277 2.565278 2.537435 2.509748 2.482218 2.454844 2.427626 2.400564 2.373659 2.346910 2.320317 2.293880 2.267600 2.241476 2.215508 2.189696 2.164040 2.138541 2.113198 2.088011 2.062981 2.038107 2.013388 1.988827 1.964421 1.940172 1.916079 1.892142 1.868361 1.844737 1.821269 1.797957 1.774801 1.751801 1.728958 1.706271 1.683740 1.661366 1.639148 1.617086 1.595180 1.573430 1.551837 1.530400 1.509119 1.487994 1.467026 1.682019 2.099242 1.663652 1.165842 1.030543 0.439104 0.838156 0.561399 0.842885 0.799679 0.810953 0.756039 0.736659 0.587701 0.545991 0.495688 0.430248 0.239557 0.372468 0.204367 0.325360 0.226023 0.199008 0.169645 0.035434 0.022240 0.013378 -0.066003 0.126362 0.223668 0.187229 0.169442 0.332899 0.185199 0.507317 0.612373 0.607949 0.625632 0.869933 0.825062 0.935164 0.910738 1.008729 0.972091 1.069222 1.154917 1.042900 1.141313 0.913334 0.923265 0.787136 0.650143 0.791575 0.699735 0.477290 0.325353 0.249460 0.254296 0.147937 0.118343 0.154426 0.100221 0.132141 0.068964 0.256909 0.362153 0.343985 0.471915 0.547813 0.423932 0.578882 0.717229 0.682656 0.741879 0.704356 0.720501 0.663598 0.600502 0.515570 0.383744 0.278366 0.221459 0.081492 0.119858 -0.080340 -0.043777 -0.062348 -0.070436 -0.022244 0.141210 0.066885 0.245445 0.303705 0.341277 0.405113 0.505495 0.485309 0.485390 0.495183 0.310344 0.293880 0.282612 0.087299 0.043911 -0.058910 -0.011434 -0.056225 -0.087509 -0.088867 0.034071 0.076042 0.119135 0.203516 0.228726 0.252918 0.298905 0.429984 0.391414 0.269096 0.241085 0.216000 0.155220 0.137928 0.108723 0.001965 0.017710 0.056985 -0.003025 0.065152 0.146501 0.146573 0.237689 0.247131 0.286432 0.185399 0.215613 0.144706 0.178761 0.113054 0.049641 -0.005965 0.008772 -0.004621 -0.045595 0.055047 0.021254 0.128604 0.148661 0.184871 0.203184 0.157490 0.164049 0.178633 0.131231 0.061631 0.006597 0.054812 0.018790 -0.013292 0.031904 0.041931 0.058403 0.052565 0.062089 0.084076 0.130203 0.156514 0.058529 0.060558 0.057323 0.013889 -0.023073 0.014144 0.018661 0.005877 0.012106 0.039045 0.056663 0.055248 0.099964 0.057522 0.135202 0.060301 0.023898 0.038250 -0.033156 0.000644 0.044690 0.000793 0.040015 0.049728 0.020253 0.113713 0.035633 0.010361 0.050157 0.006507 0.014563 0.006822 -0.020536 0.034936 0.006168 0.006750 0.057627 0.058851 0.047754 0.029670 0.034426 0.036869 0.027042 -0.012157 -0.023149 0.033326 0.053520 0.084683 0.086430 0.066093 0.079348 0.108463 0.058007 0.114510 0.094076 0.033122 0.040695 0.097509 0.077785 0.113798 0.105127 0.058404 0.137509 0.063555 0.023759 0.097636 -0.023004 0.002320 0.110008 0.067519 0.134950 0.091608 0.098382 0.047942 0.108562 0.090107 -0.005170 -0.028536 0.062024 0.068863 0.042367 0.051142 0.099288 0.087669 0.009387 0.046555 0.070801 0.058007 0.042618 -0.017136 0.078033 0.092348 0.134830 0.019161 0.010949 -0.017672 0.031323 -0.027849 0.009100 -0.033694 -0.041522 0.012154 0.058461 0.007954 0.032458 -0.018499 -0.034357 -0.047376 -0.028512 -0.071519 -0.067187 0.015377 0.022174 -0.092274 0.033740 -0.014056 -0.066286 0.010126 -0.124607 -0.070765 -0.066810 -0.166903 -0.025943 0.034336 -0.032564 -0.136854 0.051290 0.109163 -0.019275 0.102219 -0.026158 0.235927 0.144320 0.227961 0.237381 0.212697 0.213674 0.279343 0.267569 0.288884 0.183807 0.203998 0.132027 -0.011346 -0.666039
0.072396 0.072899 0.074406 0.076919 0.080435 0.084955 0.090476 0.096998 0.104518 0.113034 0.122542 0.133037 0.144515 0.156968 0.170390 0.184771 0.200100 0.216364 0.233549 0.251636 0.270606 0.290437 0.311101 0.332570 0.354810 0.377785 0.401452 0.425766 0.450677 0.476128 0.502058 0.528401 0.555082 0.582024 0.609142 0.636342 0.663528 0.690594 0.717428 0.743911 0.769918 0.795317 0.819967 0.843726 0.866440 0.887953 0.908102 0.926722 0.943641 0.958685 0.971678 0.982441 0.990798 0.996569 0.999581 0.999662 0.996646 0.990374 0.980695 0.967469 0.950569 0.929881 0.905310 0.876778 0.844228 0.807629 0.766971 0.722276 0.673594 0.621005 0.564627 0.504610 0.441143 0.374451 0.304801 0.232500 0.157894 0.081369 0.003354 0.075688 0.155251 0.234798 0.313758 0.391529 0.467487 0.540983 0.611357 0.677936 0.740043 0.797009 0.848173 0.892895 0.930563 0.960605 0.982493 0.995757 0.999992 0.994869 0.980144 0.955667 0.921389 0.877371 0.823788 0.760940 0.689248 0.609266 0.521672 0.427275 0.327009 0.221925 0.113190 0.002069 0.110079 0.221821 0.331667 0.438083 0.539520 0.634435 0.721313 0.798695 0.865204 0.919576 0.960682 0.987561 0.999441 0.995767 0.976217 0.940731 0.889514 0.823059 0.742145 0.647839 0.541496 0.424745 0.299470 0.167788 0.032021 0.105344 0.241698 0.374353 0.500597 0.617757 0.723247 0.814640 0.889719 0.946547 0.983520 0.999417 0.993452 0.965313 0.915186 0.843783 0.752341 0.642623 0.516892 0.377883 0.228750 0.073005 0.085557 0.242945 0.395073 0.537865 0.667365 0.779855 0.871970 0.940805 0.984022 0.999937 0.987606 0.946874 0.878421 0.783771 0.665284 0.526115 0.370148 0.201908 0.026430 0.150868 0.324359 0.488378 0.637410 0.766288 0.870374 0.945748 0.989365 0.999201 0.974364 0.915166 0.823160 0.701129 0.553032 0.383893 0.199661 0.007007 0.186900 0.374656 0.548904 0.702631 0.829457 0.923913 0.981710 0.999945 0.977276 0.914035 0.812269 0.675714 0.509692 0.320931 0.117320 0.092408 0.299030 0.493251 0.666107 0.809405 0.916125 0.980792 0.999782 0.971560 0.896822 0.778533 0.621855 0.433962 0.223744 0.001415 0.221968 0.435044 0.626730 0.786809 0.906492 0.978936 0.999670 0.966906 0.881723 0.748093 0.572752 0.364900 0.135764 0.101986 0.334920 0.549599 0.733364 0.875097 0.965933 0.999849 0.974114 0.889549 0.750579 0.565065 0.343909 0.100464 0.150244 0.392432 0.610538 0.790248 0.919456 0.989125 0.993969 0.932908 0.809260 0.630634 0.408529 0.157647 0.105045 0.361418 0.593458 0.784516 0.920553 0.991205 0.990648 0.918126 0.778153 0.580307 0.338654 0.070795 0.203356 0.463047 0.688256 0.861261 0.968070 0.999628 0.952644 0.830009 0.640709 0.399266 0.124673 0.161021 0.434476 0.672954 0.856239 0.968392 0.999213 0.945250 0.810252 0.605021 0.346654 0.057168 0.238296 0.513645 0.744146 0.908671 0.991708 0.984903 0.887990 0.709010 0.463747 0.174442 0.132162 0.427246 0.682624 0.873458 0.980733 0.993244 0.908863 0.734961 0.487878 0.191508 0.124941 0.429774 0.691976 0.884403 0.986649 0.987320 0.885405 0.690617 0.422602 0.109060 0.217027 0.520827 0.769386 0.935244 0.999557 0.954353 0.803645 0.563236 0.259194 0.074855 0.401403 0.683231 0.887696 0.990585 0.979098 0.853578 0.627739 0.327322 0.012719 0.352190 0.650401 0.871043 0.986703 0.982387 0.857607 0.626736 0.317521 0.032140 0.378715 0.678469 0.892995 0.994222 0.968231 0.817325 0.560045 0.229069 0.132812
1.000000 1.000000 1.000000 1.000000 1.000000 1.000000 1.000000 1.000000 1.000000 1.000000 1.000000 1.000000 1.000000 1.000000 1.000000 1.000000 1.000000 1.000000 1.000000 1.000000 1.000000 1.000000 1.000000 1.000000 1.000000 1.000000 1.000000 1.000000 1.000000 1.000000 1.000000 1.000000 1.000000 1.000000 1.000000 1.000000 1.000000 1.000000 1.000000 1.000000 1.000000 1.000000 1.000000 1.000000 1.000000 1.000000 1.000000 1.000000 1.000000 1.000000 1.000000 1.000000 0.918174 0.918174 0.918174 0.910004 0.910004 0.910004 0.910004 0.910004 0.910004 0.910004 0.910004 0.910004 0.910004 0.910004 0.910004 0.910004 0.910004 0.910004 0.910004 0.910004 0.910004 0.910004 0.910004 0.910004 0.910004 0.910004 0.910004 0.910004 0.910004 0.910004 0.910004 0.910004 0.910004 0.910004 0.910004 0.910004 0.910004 0.910004 0.910004 0.910004 0.910004 0.910004 0.910004 0.910004 0.938710 0.940245 0.948421 0.948113 0.947479 0.945315 0.944134 0.943635 0.943519 0.943858 0.944596 0.945604 0.954444 0.955665 0.958525 0.960190 0.960933 0.961558 0.962178 0.962711 0.953538 0.953330 0.951960 0.951354 0.953878 0.953105 0.953006 0.953972 0.953840 0.954677 0.954566 0.953837 0.952715 0.951720 0.950754 0.950178 0.949956 0.950693 0.951114 0.952612 0.955948 0.956520 0.956645 0.956800 0.956899 0.958197 0.957045 0.956613 0.952592 0.952819 0.952379 0.952625 0.956155 0.956084 0.956639 0.957200 0.958777 0.959068 0.951870 0.949683 0.940403 0.938599 0.934360 0.928657 0.924359 0.926214 0.927697 0.928539 0.929076 0.924317 0.924290 0.921670 0.919630 0.922434 0.921627 0.922091 0.923466 0.920580 0.919139 0.918544 0.916164 0.907025 0.894708 0.894173 0.896331 0.901052 0.902619 0.901384 0.902684 0.889994 0.871642 0.858056 0.859967 0.863745 0.855168 0.853203 0.853864 0.854656 0.858280 0.851624 0.849522 0.845625 0.835224 0.825746 0.818315 0.813497 0.819187 0.814987 0.805380 0.804444 0.814882 0.807613 0.822061 0.826905 0.823873 0.823263 0.821457 0.816833 0.794016 0.792583 0.783145 0.764650 0.765039 0.763504 0.761984 0.758477 0.765219 0.753262 0.749715 0.734130 0.734876 0.737914 0.739944 0.738026 0.730552 0.733926 0.738789 0.720033 0.706850 0.693879 0.698524 0.705086 0.706706 0.703299 0.682883 0.647949 0.616903 0.636892 0.653404 0.613471 0.638035 0.649805 0.631743 0.629514 0.620616 0.624202 0.611236 0.614967 0.617641 0.621626 0.621854 0.638552 0.623099 0.616222 0.625909 0.625482 0.635848 0.631894 0.632301 0.604612 0.601953 0.626274 0.629604 0.614528 0.631728 0.619294 0.633311 0.668512 0.676868 0.649809 0.643104 0.621348 0.579108 0.573379 0.567966 0.580597 0.613494 0.592279 0.557222 0.534066 0.541369 0.560840 0.567550 0.570124 0.547616 0.549493 0.540091 0.514516 0.520877 0.535716 0.537086 0.525774 0.504148 0.511164 0.514169 0.538564 0.527142 0.486758 0.501224 0.497244 0.493891 0.440544 0.456655 0.438214 0.425701 0.378977 0.386344 0.399361 0.386746 0.325425 0.309018 0.308682 0.308559 0.310240 0.299135 0.273468 0.261824 0.245054 0.246711 0.235708 0.211240 0.206622 0.191065 0.180428 0.180488 0.138770 0.181355 0.242632 0.243835 0.243835 0.243835 0.243835 0.243835 0.243835 0.247048 0.247048 0.247048 0.247048 0.247048 0.247048 0.247048 0.247048 0.247048 0.269998 0.269998 0.269998 0.269998 0.269998 0.269998 0.269998 0.269998 0.269998 0.269998 0.269998 0.269998 0.269998 0.269998
0.000000 0.000000 0.000000 0.000000 0.000000 0.000000 0.000000 0.000000 0.000000 0.000000 0.000000 0.000000 0.000000 0.000000 0.000000 0.000000 0.000000 0.000000 0.000000 0.000000 0.000000 0.000000 0.000000 0.000000 0.000000 7.000000 4.000000 0.000000 0.000000 0.000000 0.000000 0.000000 0.000000 0.000000 0.000000 0.000000 0.000000 0.000000 0.000000 0.000000 0.000000 0.000000 0.000000 0.000000 0.000000 0.000000 0.000000 0.000000 0.000000 0.000000 0.000000 0.000000 0.180334 0.180334 0.180334 0.199007 0.199007 0.199007 0.199007 0.199007 0.199007 0.199007 0.199007 0.199007 0.199007 0.199007 0.199007 0.199007 0.199007 0.199007 0.199007 0.199007 0.199007 0.199007 0.199007 0.199007 0.199007 0.199007 0.199007 0.199007 0.199007 0.199007 0.199007 0.199007 0.199007 0.199007 0.199007 0.199007 0.199007 0.199007 0.199007 0.199007 0.199007 0.199007 0.199007 0.199007 0.225018 0.225018 0.225018 0.225018 0.225018 0.225018 0.225018 0.225018 0.225018 0.225018 0.225018 0.225018 0.225018 0.225018 0.225018 0.225018 0.225018 0.225018 0.225018 0.225018 0.225018 0.225018 0.225018 0.225018 0.225018 0.225018 0.225018 0.225018 0.225018 0.244339 0.244339 0.244339 0.244339 0.244339 0.244339 0.244339 0.244339 0.244339 0.244339 0.244339 0.244339 0.244339 0.244339 0.244339 0.244339 0.244339 0.244339 0.244339 0.244339 0.244339 0.244339 0.244339 0.251976 0.251976 0.251976 0.251976 0.251976 0.251976 0.251976 0.251976 0.251976 0.251976 0.251976 0.251976 0.251976 0.251976 0.251976 0.251976 0.251976 0.251976 0.251976 0.251976 0.264906 0.264906 0.264906 0.264906 0.264906 0.264906 0.264906 0.264906 0.264906 0.264906 0.264906 0.264906 0.264906 0.264906 0.264906 0.264906 0.264906 0.264906 0.264906 0.264906 0.264906 0.264906 0.264906 0.264906 0.264906 0.264906 0.264906 0.264906 0.264906 0.264906 0.264906 0.264906 0.264906 0.264906 0.264906 0.264906 0.264906 0.264906 0.264906 0.264906 0.264906 0.264906 0.264906 0.264906 0.264906 0.264906 0.264906 0.264906 0.264906 0.264906 0.264906 0.264906 0.264906 0.264906 0.264906 0.264906 0.264906 0.264906 0.264906 0.264906 0.264906 0.264906 0.256074 0.256074 0.256074 0.256074 0.256074 0.256074 0.256074 0.256074 0.256074 0.256074 0.256074 0.256074 0.256074 0.256074 0.269680 0.269680 0.269680 0.269680 0.269680 0.269680 0.269680 0.269680 0.269680 0.269680 0.269680 0.269680 0.264906 0.264906 0.264906 0.264906 0.264906 0.264906 0.264906 0.264906 0.264906 0.264906 0.264906 0.264906 0.269680 0.269680 0.269680 0.269680 0.269680 0.269680 0.269680 0.269680 0.269680 0.269680 0.269680 0.264906 0.264906 0.264906 0.264906 0.264906 0.264906 0.264906 0.264906 0.264906 0.264906 0.264906 0.256074 0.256074 0.256074 0.256074 0.256074 0.256074 0.256074 0.256074 0.256074 0.256074 0.256074 0.264906 0.264906 0.264906 0.264906 0.264906 0.264906 0.264906 0.264906 0.264906 0.264906 0.260378 0.260378 0.260378 0.260378 0.260378 0.260378 0.260378 0.260378 0.260378 0.260378 0.256074 0.256074 0.256074 0.256074 0.256074 0.256074 0.256074 0.256074 0.256074 0.256074 0.260378 0.260378 0.260378 0.260378 0.260378 0.260378 0.260378 0.260378 0.260378 0.256074 0.256074 0.256074 0.256074 0.256074 0.256074 0.256074 0.256074 0.256074 0.251976 0.251976 0.251976 0.251976 0.251976 0.251976 0.251976 0.251976 0.251976 0.251976 0.251976 0.251976 0.251976 0.251976
