# Output from CTFFind version 4.1.9, run on 2019-11-03 19:39:33
# Input file: stack11_bm3d_averaged_1_4.75_0_750_half.mrc ; Number of micrographs: 1
# Pixel size: 3.000 Angstroms ; acceleration voltage: 300.0 keV ; spherical aberration: 0.00 mm ; amplitude contrast: 0.07
# Box size: 512 pixels ; min. res.: 30.0 Angstroms ; max. res.: 5.0 Angstroms ; min. def.: 5000.0 um; max. def. 50000.0 um; num. frames averaged: 1
# 6 lines per micrograph: #1 - spatial frequency (1/Angstroms); #2 - 1D rotational average of spectrum (assuming no astigmatism); #3 - 1D rotational average of spectrum; #4 - CTF fit; #5 - cross-correlation between spectrum and CTF fit; #6 - 2sigma of expected cross correlation of noise
0.000000 0.000651 0.001302 0.001953 0.002604 0.003255 0.003906 0.004557 0.005208 0.005859 0.006510 0.007161 0.007812 0.008464 0.009115 0.009766 0.010417 0.011068 0.011719 0.012370 0.013021 0.013672 0.014323 0.014974 0.015625 0.016276 0.016927 0.017578 0.018229 0.018880 0.019531 0.020182 0.020833 0.021484 0.022135 0.022786 0.023438 0.024089 0.024740 0.025391 0.026042 0.026693 0.027344 0.027995 0.028646 0.029297 0.029948 0.030599 0.031250 0.031901 0.032552 0.033203 0.033854 0.034505 0.035156 0.035807 0.036458 0.037109 0.037760 0.038411 0.039062 0.039714 0.040365 0.041016 0.041667 0.042318 0.042969 0.043620 0.044271 0.044922 0.045573 0.046224 0.046875 0.047526 0.048177 0.048828 0.049479 0.050130 0.050781 0.051432 0.052083 0.052734 0.053385 0.054036 0.054688 0.055339 0.055990 0.056641 0.057292 0.057943 0.058594 0.059245 0.059896 0.060547 0.061198 0.061849 0.062500 0.063151 0.063802 0.064453 0.065104 0.065755 0.066406 0.067057 0.067708 0.068359 0.069010 0.069661 0.070312 0.070964 0.071615 0.072266 0.072917 0.073568 0.074219 0.074870 0.075521 0.076172 0.076823 0.077474 0.078125 0.078776 0.079427 0.080078 0.080729 0.081380 0.082031 0.082682 0.083333 0.083984 0.084635 0.085286 0.085938 0.086589 0.087240 0.087891 0.088542 0.089193 0.089844 0.090495 0.091146 0.091797 0.092448 0.093099 0.093750 0.094401 0.095052 0.095703 0.096354 0.097005 0.097656 0.098307 0.098958 0.099609 0.100260 0.100911 0.101562 0.102214 0.102865 0.103516 0.104167 0.104818 0.105469 0.106120 0.106771 0.107422 0.108073 0.108724 0.109375 0.110026 0.110677 0.111328 0.111979 0.112630 0.113281 0.113932 0.114583 0.115234 0.115885 0.116536 0.117188 0.117839 0.118490 0.119141 0.119792 0.120443 0.121094 0.121745 0.122396 0.123047 0.123698 0.124349 0.125000 0.125651 0.126302 0.126953 0.127604 0.128255 0.128906 0.129557 0.130208 0.130859 0.131510 0.132161 0.132812 0.133464 0.134115 0.134766 0.135417 0.136068 0.136719 0.137370 0.138021 0.138672 0.139323 0.139974 0.140625 0.141276 0.141927 0.142578 0.143229 0.143880 0.144531 0.145182 0.145833 0.146484 0.147135 0.147786 0.148438 0.149089 0.149740 0.150391 0.151042 0.151693 0.152344 0.152995 0.153646 0.154297 0.154948 0.155599 0.156250 0.156901 0.157552 0.158203 0.158854 0.159505 0.160156 0.160807 0.161458 0.162109 0.162760 0.163411 0.164062 0.164714 0.165365 0.166016 0.166667 0.167318 0.167969 0.168620 0.169271 0.169922 0.170573 0.171224 0.171875 0.172526 0.173177 0.173828 0.174479 0.175130 0.175781 0.176432 0.177083 0.177734 0.178385 0.179036 0.179688 0.180339 0.180990 0.181641 0.182292 0.182943 0.183594 0.184245 0.184896 0.185547 0.186198 0.186849 0.187500 0.188151 0.188802 0.189453 0.190104 0.190755 0.191406 0.192057 0.192708 0.193359 0.194010 0.194661 0.195312 0.195964 0.196615 0.197266 0.197917 0.198568 0.199219 0.199870 0.200521 0.201172 0.201823 0.202474 0.203125 0.203776 0.204427 0.205078 0.205729 0.206380 0.207031 0.207682 0.208333 0.208984 0.209635 0.210286 0.210938 0.211589 0.212240 0.212891 0.213542 0.214193 0.214844 0.215495 0.216146 0.216797 0.217448 0.218099 0.218750 0.219401 0.220052 0.220703 0.221354 0.222005 0.222656 0.223307 0.223958 0.224609 0.225260 0.225911 0.226562 0.227214 0.227865 0.228516 0.229167 0.229818 0.230469 0.231120 0.231771 0.232422 0.233073 0.233724 0.234375 0.235026 0.235677
       0.33795        0.33795        0.33795        0.33795        0.33795        0.33795        0.33795        0.33795        0.33795        0.33795        0.33795        0.33795        0.33795        0.33795        0.33795        0.33795        0.33795        0.33795        0.33795        0.33795        0.33795        0.33795        0.33795        0.33795        0.33795        0.33795        0.33795        0.33795        0.33795        0.33795        0.33795        0.33795        0.33795        0.33795        0.33795        0.33795        0.33795        0.33795        0.33795        0.33795        0.33795        0.33795        0.33795        0.33795        0.33795        0.33795        0.33795        0.33795        0.33795        0.33795        0.33795        0.69453        0.85951        0.53447        0.10407       -0.03301       -0.39613       -0.18336       -0.28912       -0.11301       -0.05670       -0.11037       -0.05416       -0.17504       -0.21017       -0.22310       -0.31203       -0.32336       -0.45176       -0.36536       -0.43284       -0.42716       -0.40129       -0.42310       -0.46603       -0.51823       -0.56274       -0.56618       -0.53891       -0.36792       -0.34080       -0.30196       -0.28102       -0.18988       -0.17922        0.05257        0.13077        0.16118        0.25596        0.37888        0.45560        0.52033        0.59018        0.58798        0.57713        0.69646        0.80494        0.70968        0.74083        0.62811        0.56756        0.48297        0.42647        0.50952        0.39264        0.25456        0.10829        0.09709        0.07549       -0.02642        0.02439        0.03789       -0.00688        0.01955        0.01498        0.23637        0.26762        0.29385        0.43068        0.45180        0.41103        0.58430        0.62531        0.65070        0.73134        0.67982        0.64973        0.66683        0.56378        0.46744        0.41858        0.30066        0.25150        0.17400        0.13113        0.05314        0.05101        0.05579        0.09185        0.14912        0.23599        0.28545        0.40919        0.45902        0.48355        0.57806        0.61007        0.63837        0.61990        0.56187        0.45742        0.46979        0.37649        0.26365        0.20351        0.15743        0.16216        0.14574        0.14191        0.16927        0.30450        0.31648        0.39215        0.43194        0.42917        0.49116        0.55768        0.55327        0.49449        0.45399        0.40706        0.35877        0.33007        0.29580        0.24515        0.23829        0.23271        0.24367        0.21825        0.30333        0.36109        0.38670        0.44003        0.45510        0.47136        0.42437        0.40291        0.40265        0.36036        0.31586        0.27080        0.26308        0.25956        0.22848        0.27860        0.27850        0.34440        0.37564        0.41686        0.47587        0.41431        0.42653        0.43239        0.40673        0.34533        0.32243        0.29233        0.31256        0.26831        0.30998        0.30357        0.32193        0.33062        0.35456        0.31813        0.39707        0.41659        0.37874        0.34558        0.37145        0.31116        0.28970        0.29487        0.31846        0.30100        0.31341        0.33185        0.34434        0.34046        0.36761        0.36848        0.40314        0.37948        0.33047        0.33702        0.29430        0.28203        0.32156        0.31582        0.32498        0.33381        0.33096        0.37386        0.32796        0.32887        0.32912        0.33498        0.29920        0.30807        0.27365        0.29915        0.32151        0.30224        0.32331        0.34553        0.35256        0.28726        0.32410        0.29027        0.30203        0.27991        0.24152        0.29643        0.29713        0.34100        0.33365        0.33231        0.32295        0.34546        0.30737        0.34299        0.31815        0.30685        0.27838        0.32597        0.31259        0.35692        0.32336        0.33297        0.34060        0.29370        0.27466        0.30952        0.24626        0.22408        0.33208        0.31835        0.34942        0.33659        0.35174        0.32207        0.33970        0.34283        0.26315        0.24980        0.30909        0.30083        0.30784        0.32030        0.33901        0.33400        0.29999        0.29103        0.33961        0.31698        0.30078        0.27906        0.32072        0.34656        0.39446        0.33950        0.30355        0.27817        0.30431        0.27816        0.29144        0.26724        0.25254        0.31002        0.33089        0.34211        0.34802        0.31724        0.28450        0.29295        0.26102        0.26646        0.24866        0.31788        0.27841        0.23119        0.31664        0.30866        0.26501        0.28917        0.20965        0.21476        0.25454        0.18706        0.25431        0.32215        0.23829        0.22018        0.31161        0.31948        0.32259        0.31762        0.25616        0.22954        0.18169        0.21351        0.19064        0.21811        0.21868        0.25984        0.31609        0.29350        0.22265        0.12049        0.06555       -0.01699       -0.10739       -0.62752
2.736709 2.707713 2.678876 2.650197 2.621677 2.593315 2.565111 2.537066 2.509180 2.481452 2.453882 2.426471 2.399218 2.372124 2.345188 2.318411 2.291792 2.265331 2.239029 2.212886 2.186901 2.161074 2.135406 2.109896 2.084545 2.059352 2.034317 2.009441 1.984724 1.960165 1.935764 1.911522 1.887438 1.863513 1.839746 1.816138 1.792688 1.769396 1.746263 1.723289 1.700473 1.677815 1.655316 1.632975 1.610793 1.588769 1.566904 1.545197 1.523649 1.502258 1.481027 1.697095 2.115891 1.678012 1.174057 1.039065 0.443708 0.843156 0.561208 0.844631 0.805106 0.814992 0.756803 0.742339 0.591320 0.551187 0.497297 0.429974 0.243033 0.370524 0.203074 0.327260 0.223955 0.201794 0.174916 0.038443 0.016977 0.015825 -0.067612 0.129255 0.227165 0.187901 0.172672 0.331092 0.184700 0.512711 0.617678 0.616546 0.633832 0.872285 0.829160 0.939165 0.920100 1.018531 0.983180 1.075641 1.160738 1.042215 1.150638 0.912427 0.925836 0.790175 0.649889 0.796657 0.699089 0.480786 0.329297 0.249756 0.259024 0.148363 0.123652 0.158338 0.103862 0.128122 0.073070 0.254693 0.360360 0.343621 0.473655 0.548199 0.421909 0.583735 0.723210 0.674028 0.731220 0.710452 0.720593 0.658943 0.599949 0.508964 0.379508 0.278605 0.221895 0.083684 0.119786 -0.089484 -0.045272 -0.061411 -0.072710 -0.020422 0.139834 0.068514 0.243375 0.305815 0.339358 0.396248 0.503323 0.481374 0.480925 0.493906 0.308441 0.292959 0.284686 0.087246 0.044027 -0.067322 -0.009948 -0.060370 -0.090537 -0.084781 0.036851 0.082655 0.121916 0.212242 0.229928 0.243275 0.290971 0.436366 0.393682 0.267198 0.241694 0.221293 0.152119 0.144619 0.114779 0.002832 0.020879 0.067149 -0.001278 0.061385 0.145405 0.147307 0.234237 0.247791 0.282383 0.185068 0.217767 0.145283 0.168053 0.118271 0.050151 -0.007074 0.013583 -0.002187 -0.043133 0.061808 0.023331 0.125073 0.151431 0.192566 0.192790 0.156847 0.159789 0.178950 0.128429 0.058583 0.000370 0.053347 0.026027 -0.018580 0.036066 0.039076 0.057345 0.051305 0.062999 0.074453 0.130662 0.149979 0.055471 0.055889 0.055183 0.015724 -0.024522 0.015403 0.020199 0.005241 0.015417 0.045878 0.058859 0.055859 0.083456 0.061024 0.141921 0.059807 0.027597 0.037272 -0.034921 0.003407 0.042910 0.002471 0.035596 0.050117 0.021943 0.114750 0.031423 0.006046 0.054720 0.004003 0.011009 0.005150 -0.022747 0.026385 0.007504 0.005349 0.055669 0.056244 0.052919 0.031933 0.035864 0.032664 0.023716 -0.015362 -0.025025 0.032085 0.051227 0.081974 0.085172 0.059672 0.082328 0.108681 0.057626 0.114028 0.088338 0.037670 0.037098 0.102700 0.073899 0.118274 0.092784 0.068955 0.131453 0.056201 0.019216 0.095424 -0.027287 -0.005570 0.108861 0.058690 0.150686 0.089507 0.112774 0.048201 0.090550 0.093663 -0.012183 -0.028826 0.060753 0.059005 0.045325 0.045369 0.107385 0.068844 0.000191 0.049369 0.068021 0.056530 0.049092 -0.018452 0.074857 0.080786 0.136462 0.030735 0.016090 -0.020035 0.010607 -0.017923 0.001882 -0.043801 -0.034417 0.010940 0.046131 0.015528 0.038703 -0.007510 -0.036301 -0.042729 -0.027748 -0.070006 -0.062296 -0.004760 0.022328 -0.094422 0.016686 -0.030315 -0.067218 0.006285 -0.131037 -0.078424 -0.078837 -0.183695 -0.035663 0.050078 -0.046536 -0.152607 0.045829 0.069883 -0.032797 0.069014 -0.051142 0.250448 0.145657 0.223875 0.246646 0.253049 0.234497 0.292559 0.303723 0.336962 0.203396 0.219178 0.089703 -0.022892 -0.682183
0.072396 0.072899 0.074407 0.076919 0.080436 0.084957 0.090479 0.097002 0.104524 0.113041 0.122550 0.133047 0.144526 0.156982 0.170406 0.184789 0.200120 0.216387 0.233574 0.251664 0.270637 0.290471 0.311138 0.332610 0.354853 0.377831 0.401502 0.425820 0.450734 0.476188 0.502121 0.528466 0.555151 0.582096 0.609215 0.636419 0.663606 0.690674 0.717509 0.743993 0.770001 0.795399 0.820049 0.843805 0.866517 0.888028 0.908174 0.926789 0.943703 0.958740 0.971726 0.982481 0.990827 0.996588 0.999588 0.999656 0.996626 0.990338 0.980642 0.967398 0.950479 0.929771 0.905178 0.876624 0.844051 0.807428 0.766746 0.722026 0.673318 0.620705 0.564301 0.504260 0.440768 0.374053 0.304381 0.232060 0.157434 0.080893 0.002864 0.076189 0.155760 0.235312 0.314272 0.392040 0.467989 0.541473 0.611828 0.678383 0.740462 0.797394 0.848518 0.893195 0.930813 0.960799 0.982625 0.995823 0.999988 0.994792 0.979991 0.955435 0.921076 0.876976 0.823313 0.760385 0.688617 0.608561 0.520900 0.426441 0.326121 0.220992 0.112221 0.001077 0.111083 0.222824 0.332654 0.439040 0.540433 0.635287 0.722090 0.799381 0.865785 0.920038 0.961014 0.987752 0.999482 0.995650 0.975939 0.940289 0.888910 0.822297 0.741232 0.646786 0.540316 0.423455 0.298089 0.166341 0.030532 0.106848 0.243186 0.375794 0.501963 0.619015 0.724368 0.815593 0.890480 0.947092 0.983829 0.999475 0.993249 0.964844 0.914454 0.842796 0.751114 0.641177 0.515256 0.376091 0.226841 0.071025 0.087559 0.244920 0.396966 0.539623 0.668937 0.781193 0.873029 0.941546 0.984414 0.999960 0.987246 0.946132 0.877306 0.782306 0.663503 0.524063 0.367883 0.199491 0.023936 0.153362 0.326772 0.490628 0.639418 0.767980 0.871685 0.946621 0.989758 0.999087 0.973734 0.914027 0.821540 0.699075 0.550607 0.381179 0.196752 0.004007 0.189876 0.377492 0.551488 0.704852 0.831216 0.925128 0.982318 0.999905 0.976574 0.912684 0.810309 0.673216 0.506748 0.317661 0.113858 0.095910 0.302419 0.496367 0.668801 0.811544 0.917598 0.981512 0.999697 0.970655 0.895122 0.776102 0.618797 0.430414 0.219873 0.002591 0.225907 0.438712 0.629931 0.789364 0.908252 0.979790 0.999552 0.965801 0.879669 0.745185 0.569132 0.360755 0.131318 0.106485 0.339215 0.553437 0.736510 0.877351 0.967143 0.999920 0.973019 0.887330 0.747350 0.561005 0.339254 0.095495 0.155219 0.397093 0.614581 0.793396 0.921487 0.989882 0.993376 0.930980 0.806100 0.626433 0.403555 0.152228 0.110540 0.366609 0.597968 0.788012 0.922763 0.991949 0.989842 0.915802 0.774452 0.575479 0.333041 0.064804 0.209272 0.468438 0.692693 0.864385 0.969612 0.999437 0.950706 0.826446 0.635779 0.393343 0.118225 0.167475 0.440400 0.677846 0.859670 0.970047 0.998922 0.943002 0.806208 0.599504 0.340115 0.050170 0.245144 0.519730 0.748905 0.911653 0.992614 0.983614 0.884590 0.703775 0.457140 0.167060 0.139633 0.434097 0.688187 0.877177 0.982216 0.992309 0.905566 0.729586 0.480933 0.183658 0.132915 0.437065 0.697833 0.888198 0.987959 0.985968 0.881493 0.684518 0.414926 0.100600 0.225371 0.528158 0.774891 0.938295 0.999779 0.951681 0.798331 0.555835 0.250507 0.083867 0.409716 0.689882 0.891894 0.991809 0.977161 0.848661 0.620376 0.318354 0.022247 0.361146 0.657693 0.875765 0.988241 0.980506 0.852492 0.618974 0.308042 0.042165 0.388037 0.685891 0.897543 0.995271 0.965599 0.811298 0.551368 0.218845 0.143262
1.000000 1.000000 1.000000 1.000000 1.000000 1.000000 1.000000 1.000000 1.000000 1.000000 1.000000 1.000000 1.000000 1.000000 1.000000 1.000000 1.000000 1.000000 1.000000 1.000000 1.000000 1.000000 1.000000 1.000000 1.000000 1.000000 1.000000 1.000000 1.000000 1.000000 1.000000 1.000000 1.000000 1.000000 1.000000 1.000000 1.000000 1.000000 1.000000 1.000000 1.000000 1.000000 1.000000 1.000000 1.000000 1.000000 1.000000 1.000000 1.000000 1.000000 1.000000 1.000000 0.920059 0.920059 0.920059 0.912156 0.912156 0.912156 0.912156 0.912156 0.912156 0.912156 0.912156 0.912156 0.912156 0.912156 0.912156 0.912156 0.912156 0.912156 0.912156 0.912156 0.912156 0.912156 0.912156 0.912156 0.912156 0.912156 0.912156 0.912156 0.912156 0.912156 0.912156 0.912156 0.912156 0.912156 0.912156 0.912156 0.912156 0.912156 0.912156 0.912156 0.912156 0.912156 0.912156 0.912156 0.941314 0.942765 0.950933 0.950581 0.949979 0.947885 0.946713 0.946351 0.946244 0.946571 0.947278 0.948241 0.954503 0.955733 0.960181 0.961839 0.962586 0.963228 0.963879 0.963461 0.954748 0.954545 0.953180 0.952595 0.955122 0.954146 0.953338 0.954305 0.954181 0.954941 0.954847 0.954137 0.953034 0.951920 0.950963 0.950537 0.950322 0.951056 0.951474 0.952959 0.956276 0.956854 0.956981 0.957136 0.957237 0.958531 0.957444 0.956953 0.944783 0.944573 0.943497 0.943572 0.946751 0.946712 0.947282 0.947882 0.949584 0.949938 0.943003 0.941219 0.932249 0.929752 0.926050 0.920387 0.915970 0.917965 0.919700 0.920740 0.921238 0.916484 0.916285 0.913657 0.910142 0.912750 0.912320 0.913370 0.914871 0.913334 0.912384 0.911476 0.909441 0.901105 0.888666 0.887620 0.887918 0.893001 0.894296 0.893253 0.895367 0.883612 0.867070 0.850214 0.852188 0.855777 0.846650 0.843977 0.844418 0.845256 0.849030 0.841760 0.839069 0.834680 0.824774 0.817180 0.810696 0.804135 0.805775 0.800963 0.791282 0.788465 0.814533 0.808143 0.817541 0.822045 0.820562 0.819341 0.815711 0.809615 0.786282 0.785244 0.773360 0.751982 0.752453 0.750716 0.749874 0.747171 0.753532 0.743575 0.740916 0.724750 0.724423 0.728097 0.730977 0.729273 0.724848 0.728800 0.733558 0.715294 0.704538 0.693030 0.697425 0.699227 0.701860 0.702699 0.679663 0.649169 0.627409 0.646410 0.651278 0.620764 0.644320 0.657913 0.636935 0.633976 0.624333 0.626482 0.618087 0.621560 0.621216 0.622090 0.625524 0.640621 0.628806 0.625952 0.633852 0.633871 0.645669 0.641955 0.644275 0.615336 0.615977 0.638732 0.642361 0.627117 0.644808 0.632995 0.645662 0.681176 0.681067 0.648653 0.642599 0.623832 0.583761 0.572654 0.567655 0.578142 0.609909 0.597785 0.567863 0.542273 0.546909 0.560969 0.568227 0.570364 0.552959 0.559842 0.551045 0.528042 0.535869 0.547343 0.547234 0.535054 0.519710 0.520760 0.526025 0.546034 0.537601 0.496644 0.513939 0.510831 0.503937 0.446001 0.458444 0.442658 0.431923 0.389228 0.399600 0.409841 0.396649 0.316860 0.297078 0.297439 0.297970 0.295803 0.280056 0.255359 0.245846 0.214367 0.214604 0.202228 0.178524 0.174478 0.157472 0.147441 0.150781 0.117235 0.166468 0.228955 0.230076 0.230076 0.230076 0.230076 0.230076 0.230076 0.220872 0.220872 0.220872 0.220872 0.220872 0.220872 0.220872 0.220872 0.220872 0.243614 0.243614 0.243614 0.243614 0.243614 0.243614 0.243614 0.243614 0.243614 0.243614 0.243614 0.243614 0.243614 0.243614
0.000000 0.000000 0.000000 0.000000 0.000000 0.000000 0.000000 0.000000 0.000000 0.000000 0.000000 0.000000 0.000000 0.000000 0.000000 0.000000 0.000000 0.000000 0.000000 0.000000 0.000000 0.000000 0.000000 0.000000 0.000000 0.000000 0.000000 0.000000 0.000000 0.000000 0.000000 0.000000 0.000000 0.000000 0.000000 0.000000 0.000000 0.000000 0.000000 0.000000 0.000000 0.000000 0.000000 0.000000 0.000000 0.000000 0.000000 0.000000 0.000000 0.000000 0.000000 0.000000 0.180334 0.180334 0.180334 0.199007 0.199007 0.199007 0.199007 0.199007 0.199007 0.199007 0.199007 0.199007 0.199007 0.199007 0.199007 0.199007 0.199007 0.199007 0.199007 0.199007 0.199007 0.199007 0.199007 0.199007 0.199007 0.199007 0.199007 0.199007 0.199007 0.199007 0.199007 0.199007 0.199007 0.199007 0.199007 0.199007 0.199007 0.199007 0.199007 0.199007 0.199007 0.199007 0.199007 0.199007 0.225018 0.225018 0.225018 0.225018 0.225018 0.225018 0.225018 0.225018 0.225018 0.225018 0.225018 0.225018 0.225018 0.225018 0.225018 0.225018 0.225018 0.225018 0.225018 0.225018 0.225018 0.225018 0.225018 0.225018 0.225018 0.225018 0.225018 0.225018 0.225018 0.244339 0.244339 0.244339 0.244339 0.244339 0.244339 0.244339 0.244339 0.244339 0.244339 0.244339 0.244339 0.244339 0.244339 0.244339 0.244339 0.244339 0.244339 0.244339 0.244339 0.244339 0.244339 0.244339 0.251976 0.251976 0.251976 0.251976 0.251976 0.251976 0.251976 0.251976 0.251976 0.251976 0.251976 0.251976 0.251976 0.251976 0.251976 0.251976 0.251976 0.251976 0.251976 0.251976 0.264906 0.264906 0.264906 0.264906 0.264906 0.264906 0.264906 0.264906 0.264906 0.264906 0.264906 0.264906 0.264906 0.264906 0.264906 0.264906 0.264906 0.264906 0.264906 0.264906 0.264906 0.264906 0.264906 0.264906 0.264906 0.264906 0.264906 0.264906 0.264906 0.264906 0.264906 0.264906 0.264906 0.264906 0.264906 0.264906 0.264906 0.264906 0.264906 0.264906 0.264906 0.264906 0.264906 0.264906 0.264906 0.264906 0.264906 0.264906 0.264906 0.264906 0.264906 0.264906 0.264906 0.264906 0.264906 0.264906 0.264906 0.264906 0.264906 0.264906 0.264906 0.264906 0.256074 0.256074 0.256074 0.256074 0.256074 0.256074 0.256074 0.256074 0.256074 0.256074 0.256074 0.256074 0.256074 0.256074 0.269680 0.269680 0.269680 0.269680 0.269680 0.269680 0.269680 0.269680 0.269680 0.269680 0.269680 0.269680 0.264906 0.264906 0.264906 0.264906 0.264906 0.264906 0.264906 0.264906 0.264906 0.264906 0.264906 0.264906 0.269680 0.269680 0.269680 0.269680 0.269680 0.269680 0.269680 0.269680 0.269680 0.269680 0.269680 0.264906 0.264906 0.264906 0.264906 0.264906 0.264906 0.264906 0.264906 0.264906 0.264906 0.264906 0.256074 0.256074 0.256074 0.256074 0.256074 0.256074 0.256074 0.256074 0.256074 0.256074 0.256074 0.264906 0.264906 0.264906 0.264906 0.264906 0.264906 0.264906 0.264906 0.264906 0.264906 0.260378 0.260378 0.260378 0.260378 0.260378 0.260378 0.260378 0.260378 0.260378 0.260378 0.256074 0.256074 0.256074 0.256074 0.256074 0.256074 0.256074 0.256074 0.256074 0.256074 0.260378 0.260378 0.260378 0.260378 0.260378 0.260378 0.260378 0.260378 0.260378 0.256074 0.256074 0.256074 0.256074 0.256074 0.256074 0.256074 0.256074 0.256074 0.251976 0.251976 0.251976 0.251976 0.251976 0.251976 0.251976 0.251976 0.251976 0.251976 0.251976 0.251976 0.251976 0.251976
