# Output from CTFFind version 4.1.9, run on 2019-11-03 20:06:47
# Input file: stack1_bm3d_averaged_1_6.5_0_1250_half.mrc ; Number of micrographs: 1
# Pixel size: 3.000 Angstroms ; acceleration voltage: 300.0 keV ; spherical aberration: 0.00 mm ; amplitude contrast: 0.07
# Box size: 512 pixels ; min. res.: 30.0 Angstroms ; max. res.: 5.0 Angstroms ; min. def.: 5000.0 um; max. def. 50000.0 um; num. frames averaged: 1
# 6 lines per micrograph: #1 - spatial frequency (1/Angstroms); #2 - 1D rotational average of spectrum (assuming no astigmatism); #3 - 1D rotational average of spectrum; #4 - CTF fit; #5 - cross-correlation between spectrum and CTF fit; #6 - 2sigma of expected cross correlation of noise
0.000000 0.000651 0.001302 0.001953 0.002604 0.003255 0.003906 0.004557 0.005208 0.005859 0.006510 0.007161 0.007812 0.008464 0.009115 0.009766 0.010417 0.011068 0.011719 0.012370 0.013021 0.013672 0.014323 0.014974 0.015625 0.016276 0.016927 0.017578 0.018229 0.018880 0.019531 0.020182 0.020833 0.021484 0.022135 0.022786 0.023438 0.024089 0.024740 0.025391 0.026042 0.026693 0.027344 0.027995 0.028646 0.029297 0.029948 0.030599 0.031250 0.031901 0.032552 0.033203 0.033854 0.034505 0.035156 0.035807 0.036458 0.037109 0.037760 0.038411 0.039062 0.039714 0.040365 0.041016 0.041667 0.042318 0.042969 0.043620 0.044271 0.044922 0.045573 0.046224 0.046875 0.047526 0.048177 0.048828 0.049479 0.050130 0.050781 0.051432 0.052083 0.052734 0.053385 0.054036 0.054688 0.055339 0.055990 0.056641 0.057292 0.057943 0.058594 0.059245 0.059896 0.060547 0.061198 0.061849 0.062500 0.063151 0.063802 0.064453 0.065104 0.065755 0.066406 0.067057 0.067708 0.068359 0.069010 0.069661 0.070312 0.070964 0.071615 0.072266 0.072917 0.073568 0.074219 0.074870 0.075521 0.076172 0.076823 0.077474 0.078125 0.078776 0.079427 0.080078 0.080729 0.081380 0.082031 0.082682 0.083333 0.083984 0.084635 0.085286 0.085938 0.086589 0.087240 0.087891 0.088542 0.089193 0.089844 0.090495 0.091146 0.091797 0.092448 0.093099 0.093750 0.094401 0.095052 0.095703 0.096354 0.097005 0.097656 0.098307 0.098958 0.099609 0.100260 0.100911 0.101562 0.102214 0.102865 0.103516 0.104167 0.104818 0.105469 0.106120 0.106771 0.107422 0.108073 0.108724 0.109375 0.110026 0.110677 0.111328 0.111979 0.112630 0.113281 0.113932 0.114583 0.115234 0.115885 0.116536 0.117188 0.117839 0.118490 0.119141 0.119792 0.120443 0.121094 0.121745 0.122396 0.123047 0.123698 0.124349 0.125000 0.125651 0.126302 0.126953 0.127604 0.128255 0.128906 0.129557 0.130208 0.130859 0.131510 0.132161 0.132812 0.133464 0.134115 0.134766 0.135417 0.136068 0.136719 0.137370 0.138021 0.138672 0.139323 0.139974 0.140625 0.141276 0.141927 0.142578 0.143229 0.143880 0.144531 0.145182 0.145833 0.146484 0.147135 0.147786 0.148438 0.149089 0.149740 0.150391 0.151042 0.151693 0.152344 0.152995 0.153646 0.154297 0.154948 0.155599 0.156250 0.156901 0.157552 0.158203 0.158854 0.159505 0.160156 0.160807 0.161458 0.162109 0.162760 0.163411 0.164062 0.164714 0.165365 0.166016 0.166667 0.167318 0.167969 0.168620 0.169271 0.169922 0.170573 0.171224 0.171875 0.172526 0.173177 0.173828 0.174479 0.175130 0.175781 0.176432 0.177083 0.177734 0.178385 0.179036 0.179688 0.180339 0.180990 0.181641 0.182292 0.182943 0.183594 0.184245 0.184896 0.185547 0.186198 0.186849 0.187500 0.188151 0.188802 0.189453 0.190104 0.190755 0.191406 0.192057 0.192708 0.193359 0.194010 0.194661 0.195312 0.195964 0.196615 0.197266 0.197917 0.198568 0.199219 0.199870 0.200521 0.201172 0.201823 0.202474 0.203125 0.203776 0.204427 0.205078 0.205729 0.206380 0.207031 0.207682 0.208333 0.208984 0.209635 0.210286 0.210938 0.211589 0.212240 0.212891 0.213542 0.214193 0.214844 0.215495 0.216146 0.216797 0.217448 0.218099 0.218750 0.219401 0.220052 0.220703 0.221354 0.222005 0.222656 0.223307 0.223958 0.224609 0.225260 0.225911 0.226562 0.227214 0.227865 0.228516 0.229167 0.229818 0.230469 0.231120 0.231771 0.232422 0.233073 0.233724 0.234375 0.235026 0.235677
       0.34803        0.34803        0.34803        0.34803        0.34803        0.34803        0.34803        0.34803        0.34803        0.34803        0.34803        0.34803        0.34803        0.34803        0.34803        0.34803        0.34803        0.34803        0.34803        0.34803        0.34803        0.34803        0.34803        0.34803        0.34803        0.34803        0.34803        0.34803        0.34803        0.34803        0.34803        0.34803        0.34803        0.34803        0.34803        0.34803        0.34803        0.34803        0.34803        0.34803        0.34803        0.34803        0.34803        0.34803        0.34803        0.34803        0.34803        0.34803        0.34803        0.34803        0.34803        0.35799        0.51205        0.23665        0.08816       -0.00033       -0.27081       -0.11129       -0.16413       -0.22155        0.01264       -0.14177       -0.08146       -0.06108       -0.04399       -0.12693       -0.15874       -0.26239       -0.32496       -0.43944       -0.37417       -0.27342       -0.23431       -0.33285       -0.25017       -0.31896       -0.28486       -0.31067       -0.14415       -0.15270       -0.21633       -0.04572        0.01613       -0.03104        0.07836        0.03261        0.22476        0.24365        0.33918        0.35447        0.39811        0.43660        0.51036        0.57025        0.58932        0.51994        0.49207        0.51190        0.46543        0.53514        0.45658        0.41554        0.41584        0.34973        0.29817        0.30910        0.33750        0.23175        0.19687        0.12435        0.14866        0.16047        0.18550        0.15821        0.22678        0.27757        0.31433        0.29866        0.37901        0.46781        0.40069        0.48952        0.60805        0.57103        0.52935        0.55981        0.59895        0.41980        0.48656        0.39077        0.32087        0.29986        0.28124        0.25608        0.18840        0.18411        0.14773        0.20950        0.26141        0.29100        0.34819        0.30941        0.41411        0.43951        0.46322        0.47873        0.48889        0.52466        0.46848        0.44088        0.41281        0.34282        0.32951        0.30814        0.31910        0.25140        0.24090        0.26198        0.24714        0.27200        0.32786        0.43298        0.45031        0.42541        0.41862        0.48041        0.47194        0.46896        0.46213        0.38081        0.37002        0.40654        0.36901        0.30659        0.29637        0.32584        0.29058        0.30313        0.29889        0.31904        0.35820        0.38369        0.44368        0.46003        0.37060        0.45436        0.42862        0.36344        0.30475        0.35733        0.33109        0.31058        0.32899        0.27730        0.27450        0.32302        0.33928        0.44534        0.41474        0.37295        0.38582        0.42811        0.36258        0.35882        0.33808        0.34110        0.29166        0.28924        0.29814        0.37171        0.37863        0.34162        0.35026        0.40003        0.39696        0.45613        0.40489        0.36059        0.33802        0.34166        0.32978        0.31973        0.34372        0.39240        0.36493        0.36931        0.33140        0.44135        0.36782        0.34989        0.33517        0.37905        0.37700        0.31954        0.32027        0.28837        0.31256        0.33333        0.31372        0.33388        0.34214        0.36075        0.34888        0.33943        0.30373        0.29950        0.28756        0.33743        0.33345        0.35118        0.30875        0.34910        0.35148        0.33938        0.33741        0.30833        0.28544        0.32449        0.32658        0.32783        0.31913        0.31032        0.32390        0.33100        0.33537        0.34177        0.37745        0.34375        0.28284        0.32503        0.32179        0.33047        0.33669        0.28187        0.32545        0.29419        0.32141        0.31290        0.38065        0.33137        0.30780        0.28154        0.29308        0.37555        0.35757        0.32830        0.33323        0.31045        0.31529        0.33465        0.33180        0.28868        0.32150        0.26640        0.27026        0.29379        0.30398        0.30604        0.32118        0.23360        0.29286        0.34384        0.35690        0.35144        0.32666        0.31519        0.30173        0.32072        0.31563        0.25562        0.29447        0.28614        0.32770        0.33140        0.36258        0.35836        0.31945        0.31957        0.34245        0.32915        0.31856        0.33284        0.33697        0.27360        0.29450        0.33156        0.32655        0.24367        0.19852        0.22492        0.28952        0.30600        0.30263        0.26379        0.29256        0.28739        0.24294        0.26336        0.27362        0.22799        0.27155        0.28101        0.25356        0.20579        0.24520        0.32405        0.39681        0.28428        0.24744        0.18943        0.20240        0.29955        0.29881        0.38892        0.23519        0.21558        0.27556        0.35160        0.24508        0.08898       -0.08818       -0.53646       -0.75372
3.384283 3.346732 3.309393 3.272265 3.235350 3.198646 3.162153 3.125873 3.089804 3.053947 3.018302 2.982868 2.947647 2.912637 2.877839 2.843252 2.808877 2.774715 2.740763 2.707024 2.673496 2.640181 2.607077 2.574184 2.541504 2.509035 2.476778 2.444732 2.412899 2.381277 2.349867 2.318669 2.287682 2.256908 2.226345 2.195993 2.165854 2.135926 2.106210 2.076706 2.047414 2.018333 1.989464 1.960807 1.932362 1.904128 1.876106 1.848296 1.820698 1.793311 1.766136 1.677945 2.009503 1.730691 1.114195 1.171217 0.385804 0.926470 0.538242 0.656780 0.943875 0.695072 0.652832 0.778718 0.711016 0.653128 0.492081 0.350866 0.176204 -0.014444 -0.010794 0.087402 0.414554 -0.031379 0.164344 0.040892 0.130969 -0.062840 0.260704 0.190938 0.097782 0.302170 0.492273 0.289712 0.479450 0.388272 0.764736 0.644802 0.874762 0.866388 0.846776 1.065631 0.961234 1.256127 1.159417 1.128074 0.966203 1.015157 0.957626 0.919061 0.953185 0.776549 0.728523 0.658549 0.615625 0.476809 0.566956 0.453075 0.298433 0.197921 0.141107 0.183444 0.231343 0.163806 0.180227 0.346731 0.353531 0.368414 0.464798 0.520206 0.542533 0.410062 0.835350 0.765710 0.694565 0.655294 0.762897 0.524610 0.440745 0.485089 0.197733 0.239068 0.099927 0.176296 -0.022833 -0.029063 -0.103531 -0.102963 0.119514 0.020798 0.134930 0.185698 0.180253 0.324349 0.336760 0.346682 0.342394 0.452571 0.370025 0.282469 0.263367 0.150112 0.118318 0.061899 0.029855 0.007295 -0.080035 -0.070500 -0.055223 -0.076648 -0.049745 0.142732 0.311133 0.190692 0.221266 0.220151 0.443621 0.257539 0.346626 0.292775 0.159970 0.137591 0.299938 0.010486 0.049894 0.038188 0.072914 0.005129 0.093877 -0.012199 0.144848 -0.011055 0.247154 0.312053 0.206247 0.239445 0.227791 0.167064 0.048315 0.082319 0.100856 0.016823 0.009852 0.054252 -0.089443 -0.028065 0.021224 0.123726 0.294956 0.135713 0.107884 0.197971 0.139346 0.101644 0.062896 0.031511 0.050701 -0.072107 -0.022538 0.027014 0.113972 0.102180 0.029260 0.075403 0.174285 0.144282 0.279357 0.095787 0.070784 0.045340 0.018786 0.049882 0.013805 0.078346 0.154599 0.075806 0.072326 0.038069 0.272183 0.045047 0.035211 0.035706 0.102819 0.064751 -0.023308 0.002808 -0.065980 -0.018036 0.026868 0.000782 -0.001445 -0.001049 0.044844 0.009009 -0.011650 -0.079896 -0.056222 -0.061673 -0.026135 0.019773 -0.008646 -0.017932 0.014229 0.025617 0.010327 0.040928 -0.050013 -0.044535 0.012610 0.001509 0.025640 0.011425 -0.013710 -0.002427 0.020735 0.038116 0.055244 0.149204 -0.028121 -0.045801 0.028669 0.014310 0.031414 0.032491 -0.057855 0.034640 -0.038594 0.028857 0.007651 0.130487 0.002295 -0.043825 -0.058539 -0.024187 0.119774 0.056301 -0.010472 0.025189 -0.001606 -0.001751 0.019330 0.010690 -0.048631 0.026049 -0.107648 -0.077048 -0.032112 -0.028688 -0.040492 -0.053969 -0.208186 0.004254 0.067724 0.019165 0.006242 0.021055 -0.043645 -0.039588 -0.059743 -0.048312 -0.114348 -0.090692 -0.112989 -0.019910 0.010231 0.018614 0.021546 -0.056184 -0.025492 -0.043627 0.002676 -0.073389 -0.004391 -0.003526 -0.109228 -0.045444 -0.000994 -0.026465 -0.101618 -0.229732 -0.108677 0.075042 0.027140 -0.037794 -0.017648 0.036985 -0.076248 0.101346 -0.076787 0.011931 -0.091108 0.044833 0.018629 0.008624 -0.131307 0.025737 0.278567 0.194688 0.044567 0.049890 -0.167892 -0.039227 0.119368 0.074653 0.289799 0.326759 0.369858 0.480729 0.626047 0.422399 0.089638 -0.140339 -1.272333
0.072396 0.072906 0.074437 0.076987 0.080556 0.085144 0.090749 0.097369 0.105003 0.113646 0.123297 0.133949 0.145599 0.158238 0.171860 0.186454 0.202008 0.218511 0.235946 0.254294 0.273536 0.293646 0.314599 0.336364 0.358905 0.382184 0.406158 0.430780 0.455995 0.481746 0.507970 0.534595 0.561547 0.588743 0.616094 0.643506 0.670874 0.698091 0.725040 0.751596 0.777631 0.803006 0.827577 0.851194 0.873701 0.894934 0.914727 0.932907 0.949299 0.963723 0.975998 0.985942 0.993373 0.998111 0.999977 0.998799 0.994410 0.986650 0.975368 0.960429 0.941706 0.919093 0.892499 0.861855 0.827115 0.788255 0.745283 0.698234 0.647175 0.592206 0.533466 0.471128 0.405405 0.336551 0.264860 0.190668 0.114352 0.036333 0.042931 0.122941 0.203160 0.283017 0.361910 0.439208 0.514256 0.586383 0.654905 0.719130 0.778370 0.831945 0.879193 0.919478 0.952200 0.976804 0.992790 0.999724 0.997247 0.985082 0.963049 0.931070 0.889176 0.837519 0.776372 0.706137 0.627348 0.540672 0.446908 0.346983 0.241951 0.132981 0.021352 0.091563 0.204311 0.315375 0.423193 0.526182 0.622760 0.711372 0.790519 0.858781 0.914851 0.957560 0.985907 0.999086 0.996509 0.977832 0.942974 0.892131 0.825791 0.744738 0.650056 0.543123 0.425598 0.299406 0.166714 0.029892 0.108511 0.245824 0.379297 0.506161 0.623679 0.729218 0.820301 0.894683 0.950402 0.985847 0.999808 0.991525 0.960728 0.907668 0.833133 0.738459 0.625515 0.496688 0.354839 0.203257 0.045585 0.114254 0.272155 0.423933 0.565433 0.692649 0.801845 0.889669 0.953272 0.990407 0.999529 0.979862 0.931462 0.855248 0.753010 0.627389 0.481833 0.320513 0.148226 0.029740 0.207764 0.380053 0.540846 0.684601 0.806193 0.901121 0.965675 0.997109 0.993772 0.955214 0.882244 0.776954 0.642681 0.483939 0.306282 0.116133 0.079432 0.272941 0.456811 0.623638 0.766512 0.879314 0.956997 0.995839 0.993640 0.949875 0.865774 0.744329 0.590229 0.409705 0.210315 0.000640 0.210064 0.412269 0.596610 0.754321 0.877676 0.960387 0.997953 0.987942 0.930173 0.826800 0.682286 0.503246 0.298189 0.077138 0.148833 0.368145 0.569306 0.741520 0.875287 0.962953 0.999188 0.981346 0.909698 0.787501 0.620917 0.418739 0.191977 0.046709 0.283701 0.505187 0.697978 0.850304 0.952573 0.998005 0.983140 0.908141 0.776890 0.596857 0.378731 0.135823 0.116690 0.362716 0.586255 0.772456 0.908631 0.985161 0.996230 0.940324 0.820448 0.644053 0.422637 0.171054 0.093444 0.352349 0.587207 0.780929 0.919073 0.990971 0.990612 0.917211 0.775407 0.575058 0.330627 0.060198 0.215810 0.476172 0.700499 0.870847 0.973202 0.998708 0.944498 0.814083 0.617224 0.369290 0.090139 0.197441 0.469548 0.703160 0.878115 0.978900 0.996101 0.927367 0.777792 0.559642 0.291447 0.003501 0.299110 0.568798 0.787875 0.935857 0.998446 0.969007 0.849365 0.649829 0.388418 0.089324 0.219251 0.507743 0.748038 0.916268 0.995246 0.976320 0.860430 0.658225 0.389218 0.079999 0.238324 0.533204 0.774011 0.935243 0.999314 0.958587 0.816395 0.586925 0.293942 0.031575 0.354643 0.640006 0.856013 0.978183 0.992100 0.895232 0.697471 0.420276 0.094471 0.243088 0.553642 0.800983 0.955740 0.998960 0.924568 0.740357 0.467341 0.137501 0.209859 0.532726 0.791483 0.953809 0.998832 0.919961 0.725994 0.440315 0.098239 0.257251 0.580850 0.830717 0.973948 0.991047 0.878732 0.650684 0.336082 0.024004 0.381842 0.689352 0.904592
1.000000 1.000000 1.000000 1.000000 1.000000 1.000000 1.000000 1.000000 1.000000 1.000000 1.000000 1.000000 1.000000 1.000000 1.000000 1.000000 1.000000 1.000000 1.000000 1.000000 1.000000 1.000000 1.000000 1.000000 1.000000 1.000000 1.000000 1.000000 1.000000 1.000000 1.000000 1.000000 1.000000 1.000000 1.000000 1.000000 1.000000 1.000000 1.000000 1.000000 1.000000 1.000000 1.000000 1.000000 1.000000 1.000000 1.000000 1.000000 1.000000 1.000000 1.000000 1.000000 0.826641 0.826641 0.826641 0.813922 0.813922 0.813922 0.813922 0.813922 0.813922 0.813922 0.813922 0.813922 0.813922 0.813922 0.813922 0.813922 0.813922 0.813922 0.813922 0.813922 0.813922 0.813922 0.813922 0.813922 0.813922 0.813922 0.813922 0.813922 0.813922 0.813922 0.813922 0.813922 0.813922 0.813922 0.813922 0.813922 0.813922 0.813922 0.813922 0.813922 0.813922 0.813922 0.813922 0.813922 0.851776 0.859375 0.862213 0.865147 0.866030 0.863572 0.862250 0.861804 0.861696 0.862684 0.868790 0.893810 0.910987 0.913793 0.925232 0.928834 0.934126 0.937167 0.953145 0.954661 0.956252 0.955274 0.955853 0.957893 0.962232 0.958610 0.959719 0.959749 0.964457 0.960536 0.959907 0.958681 0.957470 0.954476 0.955647 0.955400 0.952483 0.952910 0.947511 0.947867 0.948175 0.946266 0.944282 0.931265 0.926244 0.925521 0.925683 0.905842 0.898766 0.888263 0.872744 0.894866 0.888466 0.869050 0.868109 0.844631 0.847291 0.847229 0.838685 0.835224 0.832773 0.828229 0.819296 0.820204 0.818946 0.827838 0.831897 0.834011 0.823895 0.803596 0.779236 0.763488 0.763188 0.764690 0.757619 0.761997 0.763156 0.761974 0.759789 0.758203 0.749506 0.760270 0.760711 0.756530 0.750176 0.748421 0.733786 0.728086 0.721791 0.697011 0.676695 0.665180 0.666731 0.652209 0.643700 0.645087 0.652204 0.658724 0.668512 0.662226 0.658372 0.638245 0.611558 0.570220 0.585057 0.593021 0.568044 0.558352 0.544596 0.581451 0.604264 0.627498 0.644759 0.647131 0.650600 0.625584 0.589494 0.576455 0.579044 0.579554 0.579127 0.571796 0.577965 0.596237 0.579874 0.545342 0.545967 0.543104 0.553465 0.571473 0.572337 0.571469 0.534680 0.520351 0.494898 0.469725 0.419024 0.407941 0.408762 0.419791 0.398299 0.387817 0.392413 0.413710 0.402055 0.404587 0.391292 0.385912 0.360108 0.357110 0.359801 0.342927 0.326939 0.278098 0.246412 0.232681 0.244951 0.249450 0.299010 0.321746 0.319791 0.293176 0.293747 0.329864 0.352170 0.364804 0.368056 0.337877 0.319690 0.213830 0.210464 0.248341 0.271546 0.279246 0.258301 0.253672 0.254234 0.229612 0.217102 0.158720 0.114971 0.083260 0.100034 0.104455 0.096514 0.084581 0.034244 0.027471 0.027335 0.022074 -0.005678 -0.009742 0.015536 0.025865 0.035492 0.054551 0.034158 -0.000541 0.026896 0.022189 0.032455 0.048160 0.021783 0.027981 0.000917 -0.031699 -0.036292 -0.050765 -0.069035 -0.043275 -0.036607 -0.016128 -0.043094 -0.027879 -0.027897 -0.041523 -0.111905 -0.146878 -0.136629 -0.148478 -0.141820 -0.138374 -0.139621 -0.161917 -0.160757 -0.167641 -0.059010 -0.074442 -0.079942 -0.083487 -0.096765 -0.122440 -0.134674 -0.124991 -0.068960 -0.048047 -0.036259 -0.061256 -0.085771 -0.085771 -0.085771 -0.100018 -0.100018 -0.100018 -0.100018 -0.100018 -0.100018 -0.100018 -0.100018 -0.100018 -0.111153 -0.111153 -0.111153 -0.111153 -0.111153 -0.111153 -0.111153 -0.111153 -0.111153 -0.111153 -0.111153 -0.111153 -0.111153 -0.111153 -0.111153 -0.111153 -0.111153
0.000000 0.000000 0.000000 0.000000 0.000000 0.000000 0.000000 0.000000 0.000000 0.000000 0.000000 0.000000 0.000000 0.000000 0.000000 0.000000 0.000000 0.000000 0.000000 0.000000 0.000000 0.000000 0.000000 0.000000 0.000000 0.000000 0.000000 0.000000 0.000000 0.000000 0.000000 0.000000 0.000000 0.000000 0.000000 0.000000 0.000000 0.000000 0.000000 0.000000 0.000000 0.000000 0.000000 0.000000 0.000000 0.000000 0.000000 0.000000 0.000000 0.000000 0.000000 0.000000 0.180334 0.180334 0.180334 0.199007 0.199007 0.199007 0.199007 0.199007 0.199007 0.199007 0.199007 0.199007 0.199007 0.199007 0.199007 0.199007 0.199007 0.199007 0.199007 0.199007 0.199007 0.199007 0.199007 0.199007 0.199007 0.199007 0.199007 0.199007 0.199007 0.199007 0.199007 0.199007 0.199007 0.199007 0.199007 0.199007 0.199007 0.199007 0.199007 0.199007 0.199007 0.199007 0.199007 0.199007 0.230940 0.230940 0.230940 0.230940 0.230940 0.230940 0.230940 0.230940 0.230940 0.230940 0.230940 0.230940 0.230940 0.230940 0.230940 0.230940 0.230940 0.230940 0.230940 0.230940 0.230940 0.230940 0.230940 0.230940 0.230940 0.230940 0.230940 0.230940 0.244339 0.244339 0.244339 0.244339 0.244339 0.244339 0.244339 0.244339 0.244339 0.244339 0.244339 0.244339 0.244339 0.244339 0.244339 0.244339 0.244339 0.244339 0.244339 0.244339 0.244339 0.244339 0.244339 0.256074 0.256074 0.256074 0.256074 0.256074 0.256074 0.256074 0.256074 0.256074 0.256074 0.256074 0.256074 0.256074 0.256074 0.256074 0.256074 0.256074 0.256074 0.256074 0.256074 0.256074 0.256074 0.256074 0.256074 0.256074 0.256074 0.256074 0.256074 0.256074 0.256074 0.256074 0.256074 0.256074 0.256074 0.256074 0.256074 0.256074 0.264906 0.264906 0.264906 0.264906 0.264906 0.264906 0.264906 0.264906 0.264906 0.264906 0.264906 0.264906 0.264906 0.264906 0.264906 0.264906 0.264906 0.264906 0.264906 0.264906 0.264906 0.264906 0.264906 0.264906 0.264906 0.264906 0.264906 0.264906 0.264906 0.264906 0.264906 0.264906 0.264906 0.264906 0.264906 0.264906 0.264906 0.264906 0.264906 0.264906 0.264906 0.264906 0.264906 0.264906 0.264906 0.264906 0.264906 0.264906 0.264906 0.264906 0.264906 0.264906 0.264906 0.264906 0.264906 0.264906 0.264906 0.264906 0.269680 0.269680 0.269680 0.269680 0.269680 0.269680 0.269680 0.269680 0.269680 0.269680 0.269680 0.269680 0.264906 0.264906 0.264906 0.264906 0.264906 0.264906 0.264906 0.264906 0.264906 0.264906 0.264906 0.264906 0.269680 0.269680 0.269680 0.269680 0.269680 0.269680 0.269680 0.269680 0.269680 0.269680 0.269680 0.264906 0.264906 0.264906 0.264906 0.264906 0.264906 0.264906 0.264906 0.264906 0.264906 0.264906 0.256074 0.256074 0.256074 0.256074 0.256074 0.256074 0.256074 0.256074 0.256074 0.256074 0.256074 0.264906 0.264906 0.264906 0.264906 0.264906 0.264906 0.264906 0.264906 0.264906 0.264906 0.260378 0.260378 0.260378 0.260378 0.260378 0.260378 0.260378 0.260378 0.260378 0.260378 0.264906 0.264906 0.264906 0.264906 0.264906 0.264906 0.264906 0.264906 0.264906 0.260378 0.260378 0.260378 0.260378 0.260378 0.260378 0.260378 0.260378 0.260378 0.256074 0.256074 0.256074 0.256074 0.256074 0.256074 0.256074 0.256074 0.256074 0.251976 0.251976 0.251976 0.251976 0.251976 0.251976 0.251976 0.251976 0.251976 0.251976 0.251976 0.251976 0.251976 0.251976 0.251976 0.251976 0.251976
