# Output from CTFFind version 4.1.9, run on 2019-11-03 20:02:47
# Input file: stack11_bm3d_averaged_1_7.0_0_50_half.mrc ; Number of micrographs: 1
# Pixel size: 3.000 Angstroms ; acceleration voltage: 300.0 keV ; spherical aberration: 0.00 mm ; amplitude contrast: 0.07
# Box size: 512 pixels ; min. res.: 30.0 Angstroms ; max. res.: 5.0 Angstroms ; min. def.: 5000.0 um; max. def. 50000.0 um; num. frames averaged: 1
# 6 lines per micrograph: #1 - spatial frequency (1/Angstroms); #2 - 1D rotational average of spectrum (assuming no astigmatism); #3 - 1D rotational average of spectrum; #4 - CTF fit; #5 - cross-correlation between spectrum and CTF fit; #6 - 2sigma of expected cross correlation of noise
0.000000 0.000651 0.001302 0.001953 0.002604 0.003255 0.003906 0.004557 0.005208 0.005859 0.006510 0.007161 0.007812 0.008464 0.009115 0.009766 0.010417 0.011068 0.011719 0.012370 0.013021 0.013672 0.014323 0.014974 0.015625 0.016276 0.016927 0.017578 0.018229 0.018880 0.019531 0.020182 0.020833 0.021484 0.022135 0.022786 0.023438 0.024089 0.024740 0.025391 0.026042 0.026693 0.027344 0.027995 0.028646 0.029297 0.029948 0.030599 0.031250 0.031901 0.032552 0.033203 0.033854 0.034505 0.035156 0.035807 0.036458 0.037109 0.037760 0.038411 0.039062 0.039714 0.040365 0.041016 0.041667 0.042318 0.042969 0.043620 0.044271 0.044922 0.045573 0.046224 0.046875 0.047526 0.048177 0.048828 0.049479 0.050130 0.050781 0.051432 0.052083 0.052734 0.053385 0.054036 0.054688 0.055339 0.055990 0.056641 0.057292 0.057943 0.058594 0.059245 0.059896 0.060547 0.061198 0.061849 0.062500 0.063151 0.063802 0.064453 0.065104 0.065755 0.066406 0.067057 0.067708 0.068359 0.069010 0.069661 0.070312 0.070964 0.071615 0.072266 0.072917 0.073568 0.074219 0.074870 0.075521 0.076172 0.076823 0.077474 0.078125 0.078776 0.079427 0.080078 0.080729 0.081380 0.082031 0.082682 0.083333 0.083984 0.084635 0.085286 0.085938 0.086589 0.087240 0.087891 0.088542 0.089193 0.089844 0.090495 0.091146 0.091797 0.092448 0.093099 0.093750 0.094401 0.095052 0.095703 0.096354 0.097005 0.097656 0.098307 0.098958 0.099609 0.100260 0.100911 0.101562 0.102214 0.102865 0.103516 0.104167 0.104818 0.105469 0.106120 0.106771 0.107422 0.108073 0.108724 0.109375 0.110026 0.110677 0.111328 0.111979 0.112630 0.113281 0.113932 0.114583 0.115234 0.115885 0.116536 0.117188 0.117839 0.118490 0.119141 0.119792 0.120443 0.121094 0.121745 0.122396 0.123047 0.123698 0.124349 0.125000 0.125651 0.126302 0.126953 0.127604 0.128255 0.128906 0.129557 0.130208 0.130859 0.131510 0.132161 0.132812 0.133464 0.134115 0.134766 0.135417 0.136068 0.136719 0.137370 0.138021 0.138672 0.139323 0.139974 0.140625 0.141276 0.141927 0.142578 0.143229 0.143880 0.144531 0.145182 0.145833 0.146484 0.147135 0.147786 0.148438 0.149089 0.149740 0.150391 0.151042 0.151693 0.152344 0.152995 0.153646 0.154297 0.154948 0.155599 0.156250 0.156901 0.157552 0.158203 0.158854 0.159505 0.160156 0.160807 0.161458 0.162109 0.162760 0.163411 0.164062 0.164714 0.165365 0.166016 0.166667 0.167318 0.167969 0.168620 0.169271 0.169922 0.170573 0.171224 0.171875 0.172526 0.173177 0.173828 0.174479 0.175130 0.175781 0.176432 0.177083 0.177734 0.178385 0.179036 0.179688 0.180339 0.180990 0.181641 0.182292 0.182943 0.183594 0.184245 0.184896 0.185547 0.186198 0.186849 0.187500 0.188151 0.188802 0.189453 0.190104 0.190755 0.191406 0.192057 0.192708 0.193359 0.194010 0.194661 0.195312 0.195964 0.196615 0.197266 0.197917 0.198568 0.199219 0.199870 0.200521 0.201172 0.201823 0.202474 0.203125 0.203776 0.204427 0.205078 0.205729 0.206380 0.207031 0.207682 0.208333 0.208984 0.209635 0.210286 0.210938 0.211589 0.212240 0.212891 0.213542 0.214193 0.214844 0.215495 0.216146 0.216797 0.217448 0.218099 0.218750 0.219401 0.220052 0.220703 0.221354 0.222005 0.222656 0.223307 0.223958 0.224609 0.225260 0.225911 0.226562 0.227214 0.227865 0.228516 0.229167 0.229818 0.230469 0.231120 0.231771 0.232422 0.233073 0.233724 0.234375 0.235026 0.235677
       0.34558        0.34558        0.34558        0.34558        0.34558        0.34558        0.34558        0.34558        0.34558        0.34558        0.34558        0.34558        0.34558        0.34558        0.34558        0.34558        0.34558        0.34558        0.34558        0.34558        0.34558        0.34558        0.34558        0.34558        0.34558        0.34558        0.34558        0.34558        0.34558        0.34558        0.34558        0.34558        0.34558        0.34558        0.34558        0.34558        0.34558        0.34558        0.34558        0.34558        0.34558        0.34558        0.34558        0.34558        0.34558        0.34558        0.34558        0.34558        0.34558        0.34558        0.34558        0.69926        0.85733        0.53833        0.10532       -0.02907       -0.38459       -0.17966       -0.28838       -0.11634       -0.05500       -0.11299       -0.05342       -0.16547       -0.20512       -0.21307       -0.30644       -0.31778       -0.44295       -0.36172       -0.42490       -0.42010       -0.39282       -0.40503       -0.44487       -0.50599       -0.55799       -0.54803       -0.52200       -0.35523       -0.32432       -0.28975       -0.26970       -0.18522       -0.16898        0.06225        0.14340        0.17696        0.26731        0.38147        0.45793        0.52333        0.60206        0.59910        0.58517        0.70070        0.80279        0.70232        0.74445        0.61864        0.56857        0.48376        0.43347        0.51253        0.39845        0.27364        0.11788        0.11508        0.09583       -0.01161        0.04738        0.05437        0.01374        0.02845        0.03284        0.23672        0.27181        0.29666        0.43601        0.45417        0.41526        0.60147        0.61770        0.63369        0.72314        0.67555        0.64731        0.65561        0.56010        0.46008        0.41902        0.30467        0.27230        0.18620        0.13725        0.05267        0.06783        0.07805        0.10079        0.16158        0.24685        0.30005        0.42468        0.46604        0.48160        0.56346        0.60173        0.63655        0.61423        0.55774        0.46272        0.47344        0.37896        0.27917        0.21337        0.15659        0.17421        0.15440        0.16343        0.19330        0.32508        0.33987        0.40945        0.44810        0.42533        0.47948        0.56366        0.55583        0.50411        0.45769        0.41472        0.37457        0.34359        0.31106        0.26688        0.24788        0.25743        0.25807        0.22734        0.31139        0.36584        0.38481        0.43936        0.45609        0.46732        0.42849        0.41363        0.40241        0.36402        0.34014        0.27545        0.28339        0.27016        0.24905        0.29762        0.29501        0.35344        0.38433        0.43685        0.47689        0.40686        0.42268        0.43288        0.41269        0.35126        0.33027        0.29330        0.32828        0.27734        0.32551        0.31723        0.33490        0.34313        0.36610        0.31323        0.38795        0.41195        0.38158        0.35294        0.36959        0.32004        0.29659        0.30954        0.32015        0.30882        0.32111        0.34672        0.35917        0.34162        0.36421        0.36262        0.42525        0.39181        0.34113        0.35031        0.30065        0.29582        0.32781        0.32097        0.33149        0.34458        0.34492        0.38903        0.33153        0.33064        0.33940        0.35078        0.30527        0.31357        0.28362        0.30365        0.33284        0.30476        0.33335        0.36025        0.37274        0.30044        0.34526        0.30088        0.29275        0.27980        0.24808        0.30927        0.30886        0.34353        0.34059        0.34626        0.32888        0.35003        0.31633        0.34667        0.30598        0.32727        0.29440        0.33829        0.33310        0.37498        0.33313        0.33732        0.33711        0.29368        0.27717        0.31386        0.25160        0.23071        0.34123        0.32472        0.36915        0.34854        0.36466        0.33735        0.33442        0.35297        0.26720        0.27137        0.32048        0.30169        0.31178        0.31426        0.33986        0.32943        0.28889        0.29193        0.34619        0.32300        0.32385        0.30097        0.32189        0.33785        0.39264        0.36532        0.32177        0.28413        0.30387        0.29081        0.30941        0.28000        0.27340        0.31310        0.32901        0.34611        0.35688        0.33318        0.29694        0.30228        0.27257        0.28020        0.25773        0.30646        0.25996        0.25052        0.28805        0.28316        0.26246        0.29422        0.22126        0.21773        0.23827        0.19524        0.27565        0.35058        0.25476        0.24677        0.31917        0.30065        0.30912        0.31429        0.27521        0.25365        0.19506        0.21111        0.21042        0.28708        0.23711        0.28420        0.36611        0.37424        0.25716        0.18421        0.13213       -0.01508       -0.13728       -0.62942
2.812056 2.782205 2.752516 2.722990 2.693627 2.664426 2.635388 2.606512 2.577799 2.549248 2.520861 2.492635 2.464573 2.436672 2.408935 2.381360 2.353947 2.326698 2.299610 2.272686 2.245924 2.219324 2.192887 2.166613 2.140501 2.114552 2.088766 2.063142 2.037680 2.012381 1.987245 1.962272 1.937461 1.912812 1.888326 1.864003 1.839842 1.815844 1.792008 1.768336 1.744825 1.721477 1.698292 1.675269 1.652409 1.629712 1.607177 1.584805 1.562595 1.540548 1.518663 1.737064 2.164382 1.718778 1.195177 1.057548 0.456580 0.853263 0.562589 0.848057 0.818805 0.821362 0.759724 0.759409 0.599420 0.563251 0.503331 0.428408 0.250529 0.364773 0.199456 0.331424 0.218614 0.211875 0.186282 0.041949 0.000661 0.018866 -0.070430 0.133823 0.234204 0.189375 0.180552 0.324818 0.184144 0.524440 0.628124 0.638836 0.655658 0.881092 0.839781 0.948413 0.946272 1.042667 1.012961 1.094961 1.177581 1.049272 1.173498 0.914230 0.934313 0.800695 0.657623 0.813799 0.698181 0.500739 0.335395 0.252723 0.271977 0.150069 0.139588 0.167543 0.110144 0.118775 0.083941 0.248907 0.350907 0.342462 0.479509 0.547352 0.418445 0.597903 0.735584 0.646161 0.722410 0.712783 0.722332 0.648056 0.598467 0.490988 0.367901 0.278109 0.220880 0.093268 0.116522 -0.118794 -0.049511 -0.063609 -0.085426 -0.017934 0.128626 0.071864 0.244107 0.308911 0.337593 0.373361 0.496935 0.466344 0.480093 0.491195 0.305753 0.293937 0.287514 0.086552 0.046126 -0.082988 -0.016331 -0.063270 -0.097724 -0.069412 0.040748 0.095776 0.127270 0.227247 0.223110 0.219718 0.315837 0.342371 0.447723 0.256614 0.232797 0.227962 0.143984 0.145905 0.120271 -0.004598 0.014899 0.078347 -0.011059 0.044754 0.134214 0.135653 0.213152 0.233916 0.253226 0.167494 0.212129 0.128995 0.125293 0.115880 0.026710 -0.026641 -0.001301 -0.020688 -0.051961 0.055913 0.003760 0.106922 0.138625 0.195026 0.163377 0.117103 0.140368 0.159475 0.109968 0.035340 -0.026287 0.027677 0.029759 -0.044704 0.039120 0.019752 0.048100 0.039663 0.055250 0.018253 0.139052 0.117457 0.046203 0.036306 0.041459 0.004706 -0.031024 0.008147 0.003183 -0.005030 0.002277 0.058269 0.053768 0.038423 0.072826 0.061692 0.165861 0.064547 0.042418 0.044026 -0.034837 0.013018 0.048304 0.008196 0.032934 0.056892 0.078423 0.058840 0.042390 0.008588 0.080678 0.028877 0.020817 0.025937 -0.005119 0.032614 0.027845 0.021508 0.070982 0.076004 0.080890 0.042923 0.054804 0.023106 0.018770 -0.026774 -0.023918 0.038441 0.053676 0.081412 0.081752 0.067548 0.071602 0.097660 0.043448 0.090150 0.056757 0.046115 0.018718 0.105591 0.063974 0.127162 0.063934 0.070973 0.095578 0.030033 0.002984 0.085657 -0.039764 -0.029548 0.092368 0.043533 0.159601 0.091687 0.088572 0.065260 0.029331 0.089656 -0.028141 -0.024882 0.046313 0.031092 0.031131 0.015453 0.101527 0.028973 -0.014735 0.049038 0.039329 0.053311 0.055630 -0.009212 0.055268 0.048139 0.115641 0.059863 0.027891 -0.030149 -0.030088 -0.004573 0.008968 -0.058158 -0.020856 -0.000383 0.006339 0.042577 0.060063 0.004865 -0.032355 -0.028951 -0.018532 -0.065843 -0.045573 -0.036650 -0.131273 -0.095059 -0.062238 -0.097523 -0.107600 -0.028454 -0.154041 -0.104012 -0.116785 -0.196533 -0.070696 0.061410 -0.075749 -0.135129 0.050355 0.025008 -0.028465 0.070848 -0.024574 -0.004096 -0.085044 -0.041846 0.048761 0.133435 0.052152 0.137096 0.166834 0.441230 0.241523 0.331915 0.168008 -0.020634 -0.705751
0.072396 0.072899 0.074408 0.076923 0.080443 0.084967 0.090494 0.097022 0.104549 0.113073 0.122589 0.133095 0.144583 0.157049 0.170483 0.184878 0.200221 0.216500 0.233701 0.251804 0.270792 0.290640 0.311322 0.332810 0.355069 0.378063 0.401750 0.426084 0.451014 0.476484 0.502433 0.528793 0.555492 0.582451 0.609583 0.636797 0.663995 0.691071 0.717912 0.744401 0.770410 0.795807 0.820453 0.844203 0.866905 0.888401 0.908529 0.927121 0.944008 0.959013 0.971962 0.982674 0.990973 0.996680 0.999621 0.999623 0.996522 0.990156 0.980377 0.967044 0.950029 0.929221 0.904522 0.875857 0.843170 0.806427 0.765624 0.720780 0.671946 0.619207 0.562678 0.502513 0.438901 0.372070 0.302289 0.229865 0.155147 0.078524 0.000424 0.078684 0.158294 0.237868 0.316830 0.394579 0.470487 0.543906 0.614171 0.680610 0.742546 0.799306 0.850232 0.894683 0.932048 0.961754 0.983277 0.996147 0.999964 0.994400 0.979217 0.954267 0.919507 0.875003 0.820938 0.757615 0.685466 0.605048 0.517048 0.422285 0.321696 0.216344 0.107399 0.003864 0.116080 0.227812 0.337563 0.443798 0.544964 0.639517 0.725941 0.802779 0.868660 0.922323 0.962647 0.988680 0.999661 0.995047 0.974532 0.938068 0.885882 0.818482 0.736666 0.641522 0.534424 0.417019 0.291210 0.159131 0.023119 0.114328 0.250586 0.382963 0.508744 0.625256 0.729918 0.820310 0.894232 0.949764 0.985324 0.999718 0.992192 0.962466 0.910766 0.837840 0.744966 0.633946 0.507083 0.367148 0.217327 0.061163 0.097526 0.254735 0.406366 0.548344 0.676722 0.787799 0.878237 0.945168 0.986297 0.999997 0.985382 0.942362 0.871686 0.774949 0.654582 0.513805 0.356567 0.187443 0.011518 0.165763 0.338751 0.501781 0.649352 0.776327 0.878117 0.950864 0.991604 0.998407 0.970481 0.908250 0.813378 0.688763 0.538467 0.367616 0.182238 0.010927 0.204671 0.391567 0.564271 0.715806 0.839852 0.931041 0.985194 0.999551 0.972923 0.905807 0.800419 0.660660 0.492007 0.301324 0.096608 0.113328 0.319224 0.511783 0.682090 0.822039 0.924742 0.984890 0.999061 0.965942 0.886465 0.763833 0.603436 0.412657 0.200553 0.022528 0.245458 0.456861 0.645703 0.801878 0.916775 0.983779 0.998692 0.960032 0.869201 0.730493 0.550943 0.340017 0.109149 0.128850 0.360492 0.572366 0.751935 0.888288 0.972846 0.999939 0.967235 0.875976 0.731009 0.540587 0.315955 0.070721 0.179924 0.420150 0.634467 0.808756 0.931225 0.993245 0.990014 0.920985 0.790019 0.605243 0.378608 0.125176 0.137849 0.392266 0.620131 0.805032 0.933324 0.995163 0.985338 0.903765 0.755633 0.551152 0.304925 0.034962 0.238608 0.495009 0.714396 0.879444 0.976726 0.997903 0.940489 0.808208 0.610850 0.363622 0.086055 0.199486 0.469605 0.701754 0.876181 0.977637 0.996789 0.931161 0.785515 0.571602 0.307323 0.015294 0.279043 0.549616 0.772021 0.925796 0.996345 0.976416 0.866946 0.677152 0.423877 0.130176 0.176703 0.467821 0.715279 0.894912 0.988720 0.986764 0.888323 0.702168 0.445904 0.144416 0.172482 0.472943 0.726293 0.906200 0.993477 0.978232 0.861105 0.653432 0.376269 0.058386 0.266672 0.564070 0.801430 0.952416 0.999743 0.937276 0.770944 0.518335 0.206966 0.128606 0.450573 0.722120 0.911669 0.996640 0.966266 0.823085 0.582925 0.273298 0.069643 0.405223 0.693082 0.898041 0.994498 0.969744 0.825798 0.579435 0.260415 0.092013 0.433838 0.721773 0.918781 0.998934 0.950966 0.780018 0.507292 0.167575 0.195042
1.000000 1.000000 1.000000 1.000000 1.000000 1.000000 1.000000 1.000000 1.000000 1.000000 1.000000 1.000000 1.000000 1.000000 1.000000 1.000000 1.000000 1.000000 1.000000 1.000000 1.000000 1.000000 1.000000 1.000000 1.000000 1.000000 1.000000 1.000000 1.000000 1.000000 1.000000 1.000000 1.000000 1.000000 1.000000 1.000000 1.000000 1.000000 1.000000 1.000000 1.000000 1.000000 1.000000 1.000000 1.000000 1.000000 1.000000 1.000000 1.000000 1.000000 1.000000 1.000000 0.914517 0.914517 0.914517 0.911236 0.911236 0.911236 0.911236 0.911236 0.911236 0.911236 0.911236 0.911236 0.911236 0.911236 0.911236 0.911236 0.911236 0.911236 0.911236 0.911236 0.911236 0.911236 0.911236 0.911236 0.911236 0.911236 0.911236 0.911236 0.911236 0.911236 0.911236 0.911236 0.911236 0.911236 0.911236 0.911236 0.911236 0.911236 0.911236 0.911236 0.911236 0.911236 0.911236 0.911236 0.939682 0.941115 0.949465 0.948994 0.948450 0.946467 0.945203 0.944991 0.944904 0.945257 0.945993 0.946989 0.953208 0.954146 0.958555 0.961275 0.961247 0.962987 0.964956 0.964596 0.956295 0.956050 0.954614 0.953889 0.956000 0.954638 0.953406 0.953879 0.951522 0.955898 0.955462 0.954250 0.952605 0.951007 0.947408 0.946982 0.946726 0.947545 0.947636 0.949239 0.952287 0.952457 0.952198 0.949453 0.949060 0.950268 0.949786 0.951598 0.939411 0.938692 0.937156 0.937114 0.939629 0.939518 0.939405 0.940313 0.940011 0.939931 0.940081 0.935269 0.935015 0.928127 0.924701 0.923477 0.918170 0.914107 0.916713 0.919306 0.920474 0.920833 0.911650 0.908848 0.909922 0.908685 0.910101 0.909739 0.910840 0.911231 0.911135 0.905941 0.896238 0.894672 0.886376 0.889089 0.885584 0.882916 0.879966 0.871196 0.862610 0.874758 0.861661 0.818820 0.822408 0.826625 0.818425 0.814191 0.818430 0.819194 0.823874 0.818105 0.816925 0.810838 0.797381 0.792712 0.785032 0.770948 0.767956 0.758749 0.748501 0.742511 0.765945 0.759586 0.771374 0.775611 0.775100 0.771373 0.761879 0.750669 0.750262 0.749295 0.745396 0.722097 0.713329 0.713329 0.710690 0.697492 0.700665 0.688798 0.689340 0.676894 0.682128 0.688091 0.691683 0.687281 0.681084 0.672696 0.667510 0.681398 0.694984 0.687181 0.683496 0.691067 0.681773 0.676499 0.668637 0.672525 0.664680 0.657999 0.659960 0.694783 0.667478 0.657170 0.664516 0.665678 0.662948 0.663162 0.642406 0.635999 0.612977 0.630421 0.635980 0.652776 0.654656 0.657651 0.668660 0.674476 0.685126 0.689692 0.687924 0.647850 0.652024 0.670062 0.678071 0.667388 0.657626 0.652375 0.644007 0.680612 0.665830 0.623639 0.619605 0.620135 0.575260 0.554588 0.553060 0.554763 0.581721 0.578608 0.561425 0.535511 0.537474 0.538094 0.535539 0.534773 0.514249 0.524639 0.508465 0.485397 0.497945 0.506024 0.504444 0.488539 0.482184 0.495608 0.474912 0.501083 0.478183 0.460365 0.477023 0.475961 0.464183 0.392895 0.400010 0.390100 0.375596 0.332179 0.341548 0.351327 0.332021 0.256815 0.251064 0.251919 0.248325 0.227576 0.203716 0.190417 0.180278 0.157739 0.097673 0.048731 0.050756 0.054512 0.080792 0.040184 0.095243 0.164166 0.161634 0.161634 0.161634 0.161634 0.161634 0.161634 0.161634 0.161634 0.137688 0.137688 0.137688 0.137688 0.137688 0.137688 0.137688 0.137688 0.137688 0.161634 0.161634 0.161634 0.161634 0.161634 0.161634 0.161634 0.161634 0.161634 0.161634 0.161634 0.161634 0.161634 0.161634
0.000000 0.000000 0.000000 0.000000 0.000000 0.000000 0.000000 0.000000 0.000000 0.000000 0.000000 0.000000 0.000000 0.000000 0.000000 0.000000 0.000000 0.000000 0.000000 0.000000 0.000000 0.000000 0.000000 0.000000 0.000000 0.000000 0.000000 0.000000 0.000000 0.000000 0.000000 0.000000 0.000000 0.000000 0.000000 0.000000 0.000000 0.000000 0.000000 0.000000 0.000000 0.000000 0.000000 0.000000 0.000000 0.000000 0.000000 0.000000 0.000000 0.000000 0.000000 0.000000 0.180334 0.180334 0.180334 0.199007 0.199007 0.199007 0.199007 0.199007 0.199007 0.199007 0.199007 0.199007 0.199007 0.199007 0.199007 0.199007 0.199007 0.199007 0.199007 0.199007 0.199007 0.199007 0.199007 0.199007 0.199007 0.199007 0.199007 0.199007 0.199007 0.199007 0.199007 0.199007 0.199007 0.199007 0.199007 0.199007 0.199007 0.199007 0.199007 0.199007 0.199007 0.199007 0.199007 0.199007 0.225018 0.225018 0.225018 0.225018 0.225018 0.225018 0.225018 0.225018 0.225018 0.225018 0.225018 0.225018 0.225018 0.225018 0.225018 0.225018 0.225018 0.225018 0.225018 0.225018 0.225018 0.225018 0.225018 0.225018 0.225018 0.225018 0.225018 0.225018 0.225018 0.244339 0.244339 0.244339 0.244339 0.244339 0.244339 0.244339 0.244339 0.244339 0.244339 0.244339 0.244339 0.244339 0.244339 0.244339 0.244339 0.244339 0.244339 0.244339 0.244339 0.244339 0.244339 0.244339 0.256074 0.256074 0.256074 0.256074 0.256074 0.256074 0.256074 0.256074 0.256074 0.256074 0.256074 0.256074 0.256074 0.256074 0.256074 0.256074 0.256074 0.256074 0.256074 0.256074 0.256074 0.256074 0.256074 0.256074 0.256074 0.256074 0.256074 0.256074 0.256074 0.256074 0.256074 0.256074 0.256074 0.256074 0.256074 0.256074 0.256074 0.264906 0.264906 0.264906 0.264906 0.264906 0.264906 0.264906 0.264906 0.264906 0.264906 0.264906 0.264906 0.264906 0.264906 0.264906 0.264906 0.264906 0.264906 0.264906 0.264906 0.264906 0.264906 0.264906 0.264906 0.264906 0.264906 0.264906 0.264906 0.264906 0.264906 0.264906 0.264906 0.264906 0.264906 0.264906 0.264906 0.264906 0.264906 0.264906 0.264906 0.264906 0.264906 0.264906 0.264906 0.264906 0.264906 0.264906 0.264906 0.264906 0.264906 0.264906 0.264906 0.264906 0.264906 0.264906 0.264906 0.264906 0.264906 0.260378 0.260378 0.260378 0.260378 0.260378 0.260378 0.260378 0.260378 0.260378 0.260378 0.260378 0.260378 0.260378 0.264906 0.264906 0.264906 0.264906 0.264906 0.264906 0.264906 0.264906 0.264906 0.264906 0.264906 0.264906 0.269680 0.269680 0.269680 0.269680 0.269680 0.269680 0.269680 0.269680 0.269680 0.269680 0.269680 0.264906 0.264906 0.264906 0.264906 0.264906 0.264906 0.264906 0.264906 0.264906 0.264906 0.264906 0.256074 0.256074 0.256074 0.256074 0.256074 0.256074 0.256074 0.256074 0.256074 0.256074 0.256074 0.264906 0.264906 0.264906 0.264906 0.264906 0.264906 0.264906 0.264906 0.264906 0.264906 0.260378 0.260378 0.260378 0.260378 0.260378 0.260378 0.260378 0.260378 0.260378 0.260378 0.264906 0.264906 0.264906 0.264906 0.264906 0.264906 0.264906 0.264906 0.264906 0.251976 0.251976 0.251976 0.251976 0.251976 0.251976 0.251976 0.251976 0.251976 0.251976 0.256074 0.256074 0.256074 0.256074 0.256074 0.256074 0.256074 0.256074 0.256074 0.251976 0.251976 0.251976 0.251976 0.251976 0.251976 0.251976 0.251976 0.251976 0.251976 0.251976 0.251976 0.251976 0.251976
