# Output from CTFFind version 4.1.9, run on 2019-11-02 17:47:43
# Input file: stack11_bm3d_averaged_1_0.75_0_1500_half.mrc ; Number of micrographs: 1
# Pixel size: 3.000 Angstroms ; acceleration voltage: 300.0 keV ; spherical aberration: 0.00 mm ; amplitude contrast: 0.07
# Box size: 512 pixels ; min. res.: 30.0 Angstroms ; max. res.: 5.0 Angstroms ; min. def.: 5000.0 um; max. def. 50000.0 um; num. frames averaged: 1
# 6 lines per micrograph: #1 - spatial frequency (1/Angstroms); #2 - 1D rotational average of spectrum (assuming no astigmatism); #3 - 1D rotational average of spectrum; #4 - CTF fit; #5 - cross-correlation between spectrum and CTF fit; #6 - 2sigma of expected cross correlation of noise
0.000000 0.000651 0.001302 0.001953 0.002604 0.003255 0.003906 0.004557 0.005208 0.005859 0.006510 0.007161 0.007812 0.008464 0.009115 0.009766 0.010417 0.011068 0.011719 0.012370 0.013021 0.013672 0.014323 0.014974 0.015625 0.016276 0.016927 0.017578 0.018229 0.018880 0.019531 0.020182 0.020833 0.021484 0.022135 0.022786 0.023438 0.024089 0.024740 0.025391 0.026042 0.026693 0.027344 0.027995 0.028646 0.029297 0.029948 0.030599 0.031250 0.031901 0.032552 0.033203 0.033854 0.034505 0.035156 0.035807 0.036458 0.037109 0.037760 0.038411 0.039062 0.039714 0.040365 0.041016 0.041667 0.042318 0.042969 0.043620 0.044271 0.044922 0.045573 0.046224 0.046875 0.047526 0.048177 0.048828 0.049479 0.050130 0.050781 0.051432 0.052083 0.052734 0.053385 0.054036 0.054688 0.055339 0.055990 0.056641 0.057292 0.057943 0.058594 0.059245 0.059896 0.060547 0.061198 0.061849 0.062500 0.063151 0.063802 0.064453 0.065104 0.065755 0.066406 0.067057 0.067708 0.068359 0.069010 0.069661 0.070312 0.070964 0.071615 0.072266 0.072917 0.073568 0.074219 0.074870 0.075521 0.076172 0.076823 0.077474 0.078125 0.078776 0.079427 0.080078 0.080729 0.081380 0.082031 0.082682 0.083333 0.083984 0.084635 0.085286 0.085938 0.086589 0.087240 0.087891 0.088542 0.089193 0.089844 0.090495 0.091146 0.091797 0.092448 0.093099 0.093750 0.094401 0.095052 0.095703 0.096354 0.097005 0.097656 0.098307 0.098958 0.099609 0.100260 0.100911 0.101562 0.102214 0.102865 0.103516 0.104167 0.104818 0.105469 0.106120 0.106771 0.107422 0.108073 0.108724 0.109375 0.110026 0.110677 0.111328 0.111979 0.112630 0.113281 0.113932 0.114583 0.115234 0.115885 0.116536 0.117188 0.117839 0.118490 0.119141 0.119792 0.120443 0.121094 0.121745 0.122396 0.123047 0.123698 0.124349 0.125000 0.125651 0.126302 0.126953 0.127604 0.128255 0.128906 0.129557 0.130208 0.130859 0.131510 0.132161 0.132812 0.133464 0.134115 0.134766 0.135417 0.136068 0.136719 0.137370 0.138021 0.138672 0.139323 0.139974 0.140625 0.141276 0.141927 0.142578 0.143229 0.143880 0.144531 0.145182 0.145833 0.146484 0.147135 0.147786 0.148438 0.149089 0.149740 0.150391 0.151042 0.151693 0.152344 0.152995 0.153646 0.154297 0.154948 0.155599 0.156250 0.156901 0.157552 0.158203 0.158854 0.159505 0.160156 0.160807 0.161458 0.162109 0.162760 0.163411 0.164062 0.164714 0.165365 0.166016 0.166667 0.167318 0.167969 0.168620 0.169271 0.169922 0.170573 0.171224 0.171875 0.172526 0.173177 0.173828 0.174479 0.175130 0.175781 0.176432 0.177083 0.177734 0.178385 0.179036 0.179688 0.180339 0.180990 0.181641 0.182292 0.182943 0.183594 0.184245 0.184896 0.185547 0.186198 0.186849 0.187500 0.188151 0.188802 0.189453 0.190104 0.190755 0.191406 0.192057 0.192708 0.193359 0.194010 0.194661 0.195312 0.195964 0.196615 0.197266 0.197917 0.198568 0.199219 0.199870 0.200521 0.201172 0.201823 0.202474 0.203125 0.203776 0.204427 0.205078 0.205729 0.206380 0.207031 0.207682 0.208333 0.208984 0.209635 0.210286 0.210938 0.211589 0.212240 0.212891 0.213542 0.214193 0.214844 0.215495 0.216146 0.216797 0.217448 0.218099 0.218750 0.219401 0.220052 0.220703 0.221354 0.222005 0.222656 0.223307 0.223958 0.224609 0.225260 0.225911 0.226562 0.227214 0.227865 0.228516 0.229167 0.229818 0.230469 0.231120 0.231771 0.232422 0.233073 0.233724 0.234375 0.235026 0.235677
       0.31658        0.31658        0.31658        0.31658        0.31658        0.31658        0.31658        0.31658        0.31658        0.31658        0.31658        0.31658        0.31658        0.31658        0.31658        0.31658        0.31658        0.31658        0.31658        0.31658        0.31658        0.31658        0.31658        0.31658        0.31658        0.31658        0.31658        0.31658        0.31658        0.31658        0.31658        0.31658        0.31658        0.31658        0.31658        0.31658        0.31658        0.31658        0.31658        0.31658        0.31658        0.31658        0.31658        0.31658        0.31658        0.31658        0.31658        0.31658        0.31658        0.31658        0.31658        0.68460        0.87207        0.52211        0.08622       -0.06704       -0.42556       -0.20844       -0.29674       -0.11794       -0.07840       -0.11898       -0.06907       -0.20994       -0.23789       -0.26054       -0.33026       -0.33745       -0.49236       -0.38441       -0.46801       -0.45101       -0.42172       -0.47168       -0.54890       -0.56459       -0.58974       -0.62921       -0.58045       -0.41784       -0.37911       -0.33035       -0.31663       -0.21464       -0.20116        0.01835        0.06784        0.10191        0.22320        0.37183        0.44186        0.51609        0.55896        0.55377        0.57158        0.69904        0.81454        0.74565        0.73454        0.67397        0.58291        0.48607        0.40687        0.49243        0.37262        0.20135        0.07679        0.04519        0.00755       -0.06093       -0.04115       -0.02786       -0.07530       -0.00709       -0.02228        0.20941        0.24829        0.29194        0.43055        0.46686        0.40388        0.53313        0.63096        0.70362        0.76776        0.69085        0.66017        0.70089        0.58847        0.50661        0.41853        0.28852        0.18394        0.15688        0.10752        0.03699        0.01274       -0.00244        0.07507        0.13191        0.20268        0.28378        0.40267        0.41653        0.51217        0.60292        0.63640        0.61368        0.63093        0.55331        0.44563        0.44292        0.35057        0.22907        0.18424        0.14865        0.10435        0.11853        0.06377        0.09785        0.22051        0.26232        0.34030        0.34635        0.45241        0.51208        0.53657        0.55143        0.46898        0.42716        0.39273        0.37473        0.30705        0.25054        0.20049        0.18478        0.16053        0.19030        0.17715        0.26850        0.33259        0.36373        0.42182        0.46158        0.47887        0.44634        0.39327        0.41402        0.37520        0.29075        0.27480        0.22786        0.21238        0.19388        0.21149        0.23029        0.32900        0.37211        0.36482        0.45790        0.43925        0.43917        0.42991        0.39541        0.34346        0.32868        0.27713        0.23428        0.23543        0.26871        0.26900        0.29940        0.29922        0.34006        0.32868        0.41058        0.41716        0.37412        0.34289        0.36315        0.28039        0.28065        0.26252        0.27676        0.25902        0.27978        0.29225        0.31468        0.35241        0.35817        0.35904        0.33169        0.35124        0.28585        0.32278        0.26742        0.24855        0.28211        0.28073        0.30667        0.31477        0.33212        0.32541        0.31222        0.31673        0.28659        0.28629        0.25979        0.28139        0.26832        0.31083        0.28320        0.26201        0.30788        0.31115        0.31660        0.29084        0.29906        0.29273        0.24405        0.23830        0.22045        0.27820        0.27208        0.30775        0.31674        0.32027        0.31463        0.30265        0.27576        0.28209        0.33051        0.27351        0.26699        0.29440        0.29606        0.34078        0.33833        0.36238        0.33207        0.31241        0.28011        0.26444        0.26288        0.22624        0.26638        0.29936        0.29582        0.27676        0.29456        0.26996        0.32244        0.33034        0.24989        0.21655        0.27020        0.33766        0.27792        0.31540        0.32633        0.32793        0.29791        0.32085        0.34233        0.29765        0.29518        0.26365        0.27620        0.35190        0.35123        0.25678        0.26784        0.25445        0.27987        0.22676        0.29007        0.22003        0.25198        0.32832        0.31737        0.34361        0.29695        0.23956        0.23957        0.24272        0.24292        0.18232        0.21961        0.25845        0.29358        0.28029        0.30162        0.29153        0.28016        0.28283        0.20971        0.17964        0.18697        0.23445        0.20121        0.22036        0.23145        0.20980        0.24748        0.33166        0.29332        0.30518        0.21993        0.25916        0.23690        0.28570        0.30354        0.14727        0.21342        0.22104        0.13076        0.23182        0.10793        0.17039        0.18163        0.12750       -0.11763       -0.62379
2.586526 2.559530 2.532681 2.505977 2.479420 2.453009 2.426745 2.400627 2.374655 2.348830 2.323151 2.297618 2.272231 2.246991 2.221897 2.196950 2.172148 2.147494 2.122985 2.098623 2.074407 2.050337 2.026413 2.002636 1.979006 1.955521 1.932183 1.908991 1.885946 1.863047 1.840294 1.817688 1.795227 1.772913 1.750746 1.728725 1.706850 1.685121 1.663539 1.642103 1.620813 1.599670 1.578673 1.557822 1.537117 1.516559 1.496147 1.475882 1.455763 1.435790 1.415963 1.638082 2.044018 1.615982 1.129068 0.986915 0.424672 0.811384 0.563449 0.835572 0.773224 0.787073 0.753589 0.710496 0.561544 0.511938 0.487293 0.446826 0.205387 0.380504 0.204113 0.305541 0.239740 0.180725 0.129491 0.004297 0.043315 -0.016272 -0.055011 0.104159 0.207295 0.198001 0.154463 0.330774 0.197682 0.497779 0.573667 0.546807 0.591060 0.877958 0.807812 0.946115 0.888857 0.973197 0.940697 1.080493 1.141619 1.079468 1.125501 0.955516 0.944459 0.785162 0.652402 0.768880 0.703112 0.461753 0.307206 0.253618 0.211882 0.148606 0.089372 0.125010 0.065668 0.154168 0.050620 0.260896 0.377353 0.360174 0.479027 0.584741 0.469401 0.542173 0.699590 0.748121 0.781729 0.734413 0.733124 0.718164 0.627834 0.573010 0.430048 0.285111 0.205400 0.076628 0.132825 -0.044039 -0.027597 -0.082132 -0.037905 0.006593 0.142481 0.092628 0.303250 0.277397 0.366355 0.454931 0.524541 0.507908 0.519035 0.505836 0.332471 0.307266 0.275362 0.101229 0.046629 -0.001226 -0.037019 -0.042643 -0.093862 -0.104486 -0.017977 0.054744 0.135541 0.135640 0.226277 0.332389 0.305305 0.411191 0.396774 0.282188 0.231911 0.249616 0.208865 0.100528 0.072361 0.017094 0.002476 0.004150 -0.018108 0.057819 0.147072 0.142968 0.223719 0.251848 0.304692 0.262409 0.220015 0.188662 0.209024 0.151157 0.045670 0.048096 -0.009624 -0.010538 -0.031999 0.015928 0.015739 0.172625 0.122302 0.181561 0.236289 0.201271 0.191992 0.197965 0.136216 0.104342 0.065069 0.044155 -0.040632 0.006932 0.021310 0.052059 0.047533 0.078932 0.097491 0.119763 0.138033 0.185885 0.075835 0.096088 0.069756 0.000835 0.005545 0.008885 -0.011400 0.018197 0.002597 0.030673 0.070213 0.082464 0.115868 0.049674 0.096467 0.054720 0.011531 0.062419 -0.036019 -0.014392 0.020578 -0.000761 0.051215 0.055074 0.049224 0.052221 0.050399 0.045253 0.019042 -0.000717 0.004304 0.015166 -0.013550 0.068944 -0.015938 0.006325 0.054282 0.046912 0.032525 0.042857 0.036619 0.016327 -0.026358 -0.046678 -0.017766 0.015238 0.018050 0.057029 0.060167 0.055191 0.077806 0.059076 0.019434 0.059554 0.084141 0.019296 0.022071 0.056054 0.054065 0.100337 0.108857 0.115776 0.109861 0.062590 0.040495 0.029728 0.005500 -0.005681 0.044843 0.074839 0.043397 0.029184 0.026028 0.025746 0.085083 0.062898 -0.048991 -0.054435 0.029869 0.093075 0.008606 0.034096 0.057276 0.089577 0.020909 0.056256 0.082940 0.032736 0.040822 -0.034561 0.014206 0.110561 0.066688 -0.059323 -0.019197 -0.050232 0.016118 -0.103785 0.033619 -0.111347 -0.032435 0.051139 0.025055 0.027329 -0.045069 -0.064019 -0.090733 -0.080554 -0.067809 -0.130982 -0.100088 -0.039873 0.013845 -0.028446 0.032641 -0.021635 -0.041492 0.053073 -0.112468 -0.093049 -0.098331 -0.007362 -0.053375 -0.038448 0.000888 0.013542 0.012279 0.173246 -0.010269 0.141613 0.002430 0.266248 0.252539 0.325135 0.280580 0.112432 0.216415 0.264249 0.051558 0.256836 0.114253 0.151839 0.232268 0.129853 -0.643710
0.072396 0.072899 0.074406 0.076917 0.080432 0.084951 0.090470 0.096990 0.104508 0.113021 0.122525 0.133017 0.144491 0.156940 0.170358 0.184734 0.200058 0.216317 0.233496 0.251578 0.270542 0.290366 0.311024 0.332487 0.354720 0.377688 0.401349 0.425656 0.450560 0.476005 0.501929 0.528265 0.554940 0.581877 0.608989 0.636185 0.663367 0.690429 0.717260 0.743742 0.769748 0.795147 0.819799 0.843560 0.866278 0.887797 0.907955 0.926584 0.943514 0.958571 0.971579 0.982360 0.990736 0.996530 0.999567 0.999675 0.996689 0.990449 0.980805 0.967616 0.950755 0.930109 0.905582 0.877096 0.844594 0.808044 0.767437 0.722794 0.674164 0.621628 0.565302 0.505336 0.441918 0.375275 0.305671 0.233413 0.158845 0.082355 0.004369 0.074649 0.154196 0.233734 0.312692 0.390471 0.466446 0.539969 0.610380 0.677007 0.739174 0.796210 0.847456 0.892272 0.930045 0.960203 0.982217 0.995617 0.999997 0.995026 0.980461 0.956148 0.922036 0.878186 0.824771 0.762087 0.690555 0.610723 0.523270 0.429002 0.328847 0.223858 0.115195 0.004124 0.107999 0.219744 0.329620 0.436098 0.537629 0.632669 0.719702 0.797271 0.863997 0.918613 0.959990 0.987161 0.999352 0.996003 0.976788 0.941640 0.890760 0.824633 0.744031 0.650017 0.543938 0.427415 0.302327 0.170785 0.035105 0.102230 0.238614 0.371362 0.497764 0.615145 0.720920 0.812656 0.888134 0.945410 0.982870 0.999287 0.993863 0.966273 0.916692 0.845818 0.754874 0.645610 0.520275 0.381591 0.232700 0.077106 0.081406 0.238851 0.391145 0.534213 0.664097 0.777073 0.869765 0.939256 0.983193 0.999874 0.988334 0.948396 0.880715 0.786791 0.668960 0.530354 0.374837 0.206909 0.031596 0.145699 0.319354 0.483705 0.633236 0.762764 0.867640 0.943918 0.988527 0.999413 0.975646 0.917502 0.826494 0.705366 0.558040 0.389506 0.205684 0.013221 0.180728 0.368767 0.543536 0.698011 0.825785 0.921365 0.980418 0.999993 0.978696 0.916803 0.816300 0.680866 0.515771 0.327693 0.124484 0.085149 0.292002 0.486776 0.660494 0.804936 0.913035 0.979259 0.999914 0.973391 0.900302 0.783530 0.628158 0.441289 0.231750 0.009711 0.213797 0.427424 0.620068 0.781473 0.902796 0.977113 0.999858 0.969139 0.885924 0.754073 0.580216 0.373464 0.144965 0.092659 0.326000 0.541614 0.726797 0.870367 0.963358 0.999629 0.976312 0.894079 0.757212 0.573433 0.353526 0.110750 0.139927 0.382742 0.602114 0.783658 0.915171 0.987471 0.995108 0.936820 0.815736 0.639281 0.418799 0.168858 0.093646 0.350634 0.584059 0.777198 0.915877 0.989561 0.992212 0.922844 0.785736 0.590242 0.350239 0.083190 0.191075 0.451826 0.678983 0.854685 0.964757 0.999898 0.956540 0.837284 0.650839 0.411481 0.138015 0.147630 0.422146 0.662727 0.849008 0.964822 0.999672 0.949766 0.818506 0.616364 0.360143 0.071656 0.224074 0.500966 0.734167 0.902343 0.989667 0.987407 0.894885 0.719727 0.477352 0.189704 0.116662 0.412977 0.670972 0.865591 0.977475 0.994987 0.915517 0.745944 0.502170 0.207730 0.108392 0.414576 0.679698 0.876352 0.983724 0.989902 0.893312 0.703100 0.438409 0.126561 0.199686 0.505515 0.757797 0.928699 0.998851 0.959653 0.814453 0.578423 0.277124 0.056172 0.384083 0.669274 0.878760 0.987778 0.982837 0.863522 0.642807 0.345803 0.007025 0.333539 0.635100 0.861000 0.983218 0.985981 0.867939 0.642622 0.337050 0.011355 0.359283 0.662876 0.883280 0.991715 0.973355 0.829523 0.577826 0.250179 0.111110
1.000000 1.000000 1.000000 1.000000 1.000000 1.000000 1.000000 1.000000 1.000000 1.000000 1.000000 1.000000 1.000000 1.000000 1.000000 1.000000 1.000000 1.000000 1.000000 1.000000 1.000000 1.000000 1.000000 1.000000 1.000000 1.000000 1.000000 1.000000 1.000000 1.000000 1.000000 1.000000 1.000000 1.000000 1.000000 1.000000 1.000000 1.000000 1.000000 1.000000 1.000000 1.000000 1.000000 1.000000 1.000000 1.000000 1.000000 1.000000 1.000000 1.000000 1.000000 1.000000 0.933107 0.933107 0.933107 0.923930 0.923930 0.923930 0.923930 0.923930 0.923930 0.923930 0.923930 0.923930 0.923930 0.923930 0.923930 0.923930 0.923930 0.923930 0.923930 0.923930 0.923930 0.923930 0.923930 0.923930 0.923930 0.923930 0.923930 0.923930 0.923930 0.923930 0.923930 0.923930 0.923930 0.923930 0.923930 0.923930 0.923930 0.923930 0.923930 0.923930 0.923930 0.923930 0.923930 0.923930 0.949823 0.951038 0.958893 0.958723 0.958215 0.956105 0.955194 0.954066 0.953615 0.953889 0.954497 0.955332 0.967083 0.968103 0.969640 0.970442 0.971148 0.971800 0.971651 0.972438 0.971684 0.971145 0.970641 0.966686 0.967314 0.967900 0.968065 0.969110 0.968994 0.971218 0.971345 0.970768 0.969930 0.969233 0.968563 0.968168 0.967895 0.968385 0.968654 0.969920 0.973064 0.972480 0.972170 0.972328 0.972431 0.972600 0.972996 0.973770 0.969871 0.968363 0.966688 0.964500 0.968695 0.965830 0.965613 0.966976 0.967360 0.967762 0.966779 0.962835 0.957393 0.956682 0.954327 0.945360 0.944247 0.944923 0.947153 0.947535 0.946116 0.938834 0.939393 0.932473 0.934358 0.937604 0.931696 0.931600 0.932742 0.932270 0.931203 0.930638 0.927854 0.925309 0.923809 0.923505 0.926443 0.926331 0.927468 0.927334 0.921751 0.913887 0.901864 0.900028 0.895152 0.898136 0.886795 0.886473 0.886337 0.882444 0.885812 0.885320 0.886219 0.883031 0.866720 0.849700 0.843176 0.847279 0.852148 0.848179 0.846760 0.839749 0.850973 0.830216 0.842713 0.853889 0.851048 0.851290 0.850663 0.849071 0.843136 0.843966 0.845898 0.847334 0.845459 0.843983 0.843801 0.825133 0.826760 0.762865 0.745329 0.736311 0.742036 0.748899 0.751090 0.750057 0.756145 0.761025 0.751754 0.733836 0.726362 0.720075 0.724235 0.722713 0.724941 0.708165 0.676241 0.671718 0.642341 0.660282 0.670547 0.632153 0.656607 0.667855 0.667088 0.665515 0.659237 0.657048 0.652847 0.655405 0.661887 0.674189 0.691592 0.714422 0.710825 0.701279 0.699168 0.680317 0.671886 0.667257 0.681178 0.660077 0.656295 0.674211 0.673618 0.658096 0.636680 0.627109 0.620335 0.614240 0.624161 0.611951 0.606692 0.597309 0.572914 0.566415 0.600459 0.616318 0.638195 0.607156 0.593711 0.581415 0.561753 0.574198 0.519053 0.518909 0.540381 0.548165 0.526765 0.517067 0.528973 0.534058 0.534170 0.524030 0.511359 0.501937 0.518880 0.554961 0.543656 0.524844 0.526633 0.525611 0.517340 0.426791 0.420055 0.394067 0.360443 0.303798 0.282451 0.275309 0.258617 0.246957 0.211066 0.207231 0.217691 0.223297 0.237165 0.239485 0.220726 0.230254 0.225871 0.212234 0.149383 0.139250 0.131492 0.121174 0.119074 0.096056 0.121704 0.190125 0.192373 0.192373 0.192373 0.192373 0.192373 0.192373 0.201414 0.201414 0.201414 0.201414 0.201414 0.201414 0.201414 0.201414 0.201414 0.211628 0.211628 0.211628 0.211628 0.211628 0.211628 0.211628 0.211628 0.211628 0.211628 0.211628 0.211628 0.211628 0.211628
0.000000 0.000000 0.000000 0.000000 0.000000 0.000000 0.000000 0.000000 0.000000 0.000000 0.000000 0.000000 0.000000 0.000000 0.000000 0.000000 0.000000 0.000000 0.000000 0.000000 0.000000 0.000000 0.000000 0.000000 0.000000 7.000000 4.000000 0.000000 0.000000 0.000000 0.000000 0.000000 0.000000 0.000000 0.000000 0.000000 0.000000 0.000000 0.000000 0.000000 0.000000 0.000000 0.000000 0.000000 0.000000 0.000000 0.000000 0.000000 0.000000 0.000000 0.000000 0.000000 0.180334 0.180334 0.180334 0.199007 0.199007 0.199007 0.199007 0.199007 0.199007 0.199007 0.199007 0.199007 0.199007 0.199007 0.199007 0.199007 0.199007 0.199007 0.199007 0.199007 0.199007 0.199007 0.199007 0.199007 0.199007 0.199007 0.199007 0.199007 0.199007 0.199007 0.199007 0.199007 0.199007 0.199007 0.199007 0.199007 0.199007 0.199007 0.199007 0.199007 0.199007 0.199007 0.199007 0.199007 0.225018 0.225018 0.225018 0.225018 0.225018 0.225018 0.225018 0.225018 0.225018 0.225018 0.225018 0.225018 0.225018 0.225018 0.225018 0.225018 0.225018 0.225018 0.225018 0.225018 0.225018 0.225018 0.225018 0.225018 0.225018 0.225018 0.225018 0.225018 0.225018 0.244339 0.244339 0.244339 0.244339 0.244339 0.244339 0.244339 0.244339 0.244339 0.244339 0.244339 0.244339 0.244339 0.244339 0.244339 0.244339 0.244339 0.244339 0.244339 0.244339 0.244339 0.244339 0.244339 0.251976 0.251976 0.251976 0.251976 0.251976 0.251976 0.251976 0.251976 0.251976 0.251976 0.251976 0.251976 0.251976 0.251976 0.251976 0.251976 0.251976 0.251976 0.251976 0.251976 0.264906 0.264906 0.264906 0.264906 0.264906 0.264906 0.264906 0.264906 0.264906 0.264906 0.264906 0.264906 0.264906 0.264906 0.264906 0.264906 0.264906 0.264906 0.264906 0.264906 0.264906 0.264906 0.264906 0.264906 0.264906 0.264906 0.264906 0.264906 0.264906 0.264906 0.264906 0.264906 0.264906 0.264906 0.264906 0.264906 0.264906 0.264906 0.264906 0.264906 0.264906 0.264906 0.264906 0.264906 0.264906 0.264906 0.264906 0.264906 0.264906 0.264906 0.264906 0.264906 0.264906 0.264906 0.264906 0.264906 0.264906 0.264906 0.264906 0.264906 0.264906 0.264906 0.256074 0.256074 0.256074 0.256074 0.256074 0.256074 0.256074 0.256074 0.256074 0.256074 0.256074 0.256074 0.256074 0.256074 0.269680 0.269680 0.269680 0.269680 0.269680 0.269680 0.269680 0.269680 0.269680 0.269680 0.269680 0.269680 0.264906 0.264906 0.264906 0.264906 0.264906 0.264906 0.264906 0.264906 0.264906 0.264906 0.264906 0.264906 0.269680 0.269680 0.269680 0.269680 0.269680 0.269680 0.269680 0.269680 0.269680 0.269680 0.269680 0.264906 0.264906 0.264906 0.264906 0.264906 0.264906 0.264906 0.264906 0.264906 0.264906 0.264906 0.256074 0.256074 0.256074 0.256074 0.256074 0.256074 0.256074 0.256074 0.256074 0.256074 0.256074 0.264906 0.264906 0.264906 0.264906 0.264906 0.264906 0.264906 0.264906 0.264906 0.264906 0.260378 0.260378 0.260378 0.260378 0.260378 0.260378 0.260378 0.260378 0.260378 0.260378 0.256074 0.256074 0.256074 0.256074 0.256074 0.256074 0.256074 0.256074 0.256074 0.256074 0.260378 0.260378 0.260378 0.260378 0.260378 0.260378 0.260378 0.260378 0.260378 0.256074 0.256074 0.256074 0.256074 0.256074 0.256074 0.256074 0.256074 0.256074 0.251976 0.251976 0.251976 0.251976 0.251976 0.251976 0.251976 0.251976 0.251976 0.251976 0.251976 0.251976 0.251976 0.251976
