# Output from CTFFind version 4.1.9, run on 2019-11-02 17:44:32
# Input file: stack16_bm3d_averaged_1_0.75_0_250_half.mrc ; Number of micrographs: 1
# Pixel size: 3.000 Angstroms ; acceleration voltage: 300.0 keV ; spherical aberration: 0.00 mm ; amplitude contrast: 0.07
# Box size: 512 pixels ; min. res.: 30.0 Angstroms ; max. res.: 5.0 Angstroms ; min. def.: 5000.0 um; max. def. 50000.0 um; num. frames averaged: 1
# 6 lines per micrograph: #1 - spatial frequency (1/Angstroms); #2 - 1D rotational average of spectrum (assuming no astigmatism); #3 - 1D rotational average of spectrum; #4 - CTF fit; #5 - cross-correlation between spectrum and CTF fit; #6 - 2sigma of expected cross correlation of noise
0.000000 0.000651 0.001302 0.001953 0.002604 0.003255 0.003906 0.004557 0.005208 0.005859 0.006510 0.007161 0.007812 0.008464 0.009115 0.009766 0.010417 0.011068 0.011719 0.012370 0.013021 0.013672 0.014323 0.014974 0.015625 0.016276 0.016927 0.017578 0.018229 0.018880 0.019531 0.020182 0.020833 0.021484 0.022135 0.022786 0.023438 0.024089 0.024740 0.025391 0.026042 0.026693 0.027344 0.027995 0.028646 0.029297 0.029948 0.030599 0.031250 0.031901 0.032552 0.033203 0.033854 0.034505 0.035156 0.035807 0.036458 0.037109 0.037760 0.038411 0.039062 0.039714 0.040365 0.041016 0.041667 0.042318 0.042969 0.043620 0.044271 0.044922 0.045573 0.046224 0.046875 0.047526 0.048177 0.048828 0.049479 0.050130 0.050781 0.051432 0.052083 0.052734 0.053385 0.054036 0.054688 0.055339 0.055990 0.056641 0.057292 0.057943 0.058594 0.059245 0.059896 0.060547 0.061198 0.061849 0.062500 0.063151 0.063802 0.064453 0.065104 0.065755 0.066406 0.067057 0.067708 0.068359 0.069010 0.069661 0.070312 0.070964 0.071615 0.072266 0.072917 0.073568 0.074219 0.074870 0.075521 0.076172 0.076823 0.077474 0.078125 0.078776 0.079427 0.080078 0.080729 0.081380 0.082031 0.082682 0.083333 0.083984 0.084635 0.085286 0.085938 0.086589 0.087240 0.087891 0.088542 0.089193 0.089844 0.090495 0.091146 0.091797 0.092448 0.093099 0.093750 0.094401 0.095052 0.095703 0.096354 0.097005 0.097656 0.098307 0.098958 0.099609 0.100260 0.100911 0.101562 0.102214 0.102865 0.103516 0.104167 0.104818 0.105469 0.106120 0.106771 0.107422 0.108073 0.108724 0.109375 0.110026 0.110677 0.111328 0.111979 0.112630 0.113281 0.113932 0.114583 0.115234 0.115885 0.116536 0.117188 0.117839 0.118490 0.119141 0.119792 0.120443 0.121094 0.121745 0.122396 0.123047 0.123698 0.124349 0.125000 0.125651 0.126302 0.126953 0.127604 0.128255 0.128906 0.129557 0.130208 0.130859 0.131510 0.132161 0.132812 0.133464 0.134115 0.134766 0.135417 0.136068 0.136719 0.137370 0.138021 0.138672 0.139323 0.139974 0.140625 0.141276 0.141927 0.142578 0.143229 0.143880 0.144531 0.145182 0.145833 0.146484 0.147135 0.147786 0.148438 0.149089 0.149740 0.150391 0.151042 0.151693 0.152344 0.152995 0.153646 0.154297 0.154948 0.155599 0.156250 0.156901 0.157552 0.158203 0.158854 0.159505 0.160156 0.160807 0.161458 0.162109 0.162760 0.163411 0.164062 0.164714 0.165365 0.166016 0.166667 0.167318 0.167969 0.168620 0.169271 0.169922 0.170573 0.171224 0.171875 0.172526 0.173177 0.173828 0.174479 0.175130 0.175781 0.176432 0.177083 0.177734 0.178385 0.179036 0.179688 0.180339 0.180990 0.181641 0.182292 0.182943 0.183594 0.184245 0.184896 0.185547 0.186198 0.186849 0.187500 0.188151 0.188802 0.189453 0.190104 0.190755 0.191406 0.192057 0.192708 0.193359 0.194010 0.194661 0.195312 0.195964 0.196615 0.197266 0.197917 0.198568 0.199219 0.199870 0.200521 0.201172 0.201823 0.202474 0.203125 0.203776 0.204427 0.205078 0.205729 0.206380 0.207031 0.207682 0.208333 0.208984 0.209635 0.210286 0.210938 0.211589 0.212240 0.212891 0.213542 0.214193 0.214844 0.215495 0.216146 0.216797 0.217448 0.218099 0.218750 0.219401 0.220052 0.220703 0.221354 0.222005 0.222656 0.223307 0.223958 0.224609 0.225260 0.225911 0.226562 0.227214 0.227865 0.228516 0.229167 0.229818 0.230469 0.231120 0.231771 0.232422 0.233073 0.233724 0.234375 0.235026 0.235677
       0.34106        0.34106        0.34106        0.34106        0.34106        0.34106        0.34106        0.34106        0.34106        0.34106        0.34106        0.34106        0.34106        0.34106        0.34107        0.34106        0.34107        0.34106        0.34106        0.34107        0.34106        0.34106        0.34106        0.34107        0.34106        0.34106        0.34106        0.34106        0.34106        0.34107        0.34106        0.34106        0.34106        0.34106        0.34106        0.34106        0.34107        0.34106        0.34106        0.34106        0.34106        0.34106        0.34106        0.34107        0.34106        0.34106        0.34107        0.34107        0.34106        0.34106        0.34106        0.48758        0.70071        0.45482       -0.11454       -0.41368       -0.57403       -0.66550       -0.74764       -0.76585       -0.87062       -0.91691       -0.76048       -0.92662       -0.87371       -1.02575       -1.10004       -0.99054       -0.96488       -0.88530       -0.86224       -0.75225       -0.64264       -0.50227       -0.42703       -0.22117       -0.11786       -0.02193        0.20259        0.24292        0.30662        0.38134        0.43638        0.51394        0.57722        0.59365        0.58908        0.49923        0.54274        0.48558        0.39049        0.31912        0.20335        0.16880        0.10056       -0.06122       -0.11020       -0.09435        0.00882       -0.01738        0.01347        0.02599        0.20775        0.21793        0.39061        0.45460        0.55805        0.69428        0.75703        0.72945        0.70210        0.69774        0.58037        0.53862        0.39855        0.27011        0.19062        0.14393        0.06669        0.02390        0.02088        0.06194        0.07508        0.26831        0.41635        0.50639        0.58831        0.63748        0.70174        0.65848        0.64937        0.66817        0.60698        0.47867        0.28370        0.23530        0.20624        0.12762        0.04124        0.08929        0.12122        0.24852        0.33854        0.41443        0.49966        0.53659        0.65977        0.60771        0.55486        0.51108        0.36307        0.20931        0.21246        0.15067        0.11377        0.12176        0.21575        0.24996        0.35447        0.43989        0.43773        0.55935        0.50747        0.44759        0.45384        0.37996        0.32239        0.27424        0.21481        0.23454        0.20846        0.20572        0.31949        0.44970        0.48264        0.47935        0.55040        0.49407        0.45392        0.39212        0.29418        0.22391        0.23064        0.24200        0.26446        0.27636        0.32338        0.44080        0.49876        0.48521        0.45845        0.41340        0.38619        0.36070        0.24795        0.22193        0.24370        0.29192        0.35413        0.35944        0.38759        0.41134        0.44173        0.36981        0.34697        0.31197        0.30370        0.26671        0.25713        0.30378        0.34389        0.41309        0.41353        0.39405        0.39292        0.40378        0.34744        0.28709        0.29126        0.27908        0.30689        0.35722        0.36834        0.41611        0.35652        0.36638        0.38758        0.34549        0.31711        0.27930        0.29412        0.33856        0.32650        0.32260        0.37155        0.38949        0.32931        0.35034        0.29711        0.30668        0.28469        0.28205        0.29875        0.33055        0.38323        0.36339        0.34474        0.32415        0.28221        0.27504        0.29511        0.28135        0.31170        0.36516        0.39288        0.33554        0.31675        0.30746        0.29734        0.28194        0.28053        0.29882        0.33761        0.33758        0.33908        0.31315        0.34614        0.32042        0.28749        0.31546        0.32004        0.33206        0.34152        0.31854        0.31339        0.30384        0.32476        0.30938        0.33429        0.38366        0.32815        0.36132        0.31846        0.31107        0.29091        0.30889        0.29017        0.30624        0.31323        0.34718        0.35710        0.31382        0.32153        0.31583        0.29100        0.28764        0.28981        0.32714        0.34493        0.35369        0.33016        0.32079        0.25968        0.25976        0.31508        0.34328        0.32349        0.29935        0.28157        0.28593        0.32315        0.30866        0.31178        0.33403        0.34113        0.30403        0.23843        0.28955        0.28147        0.28428        0.32181        0.31962        0.34038        0.33932        0.28025        0.26805        0.29482        0.27392        0.29183        0.27472        0.24870        0.26081        0.24733        0.28121        0.28176        0.27573        0.26140        0.31842        0.32317        0.31173        0.27637        0.29629        0.24280        0.26521        0.25485        0.33497        0.34860        0.23054        0.24975        0.26496        0.23928        0.24390        0.29647        0.22514        0.14179        0.17476        0.24377        0.27053        0.22600        0.12546        0.04455       -0.43491       -0.78092
3.160244 3.120561 3.081134 3.041963 3.003048 2.964390 2.925988 2.887843 2.849954 2.812321 2.774945 2.737824 2.700961 2.664353 2.628002 2.591907 2.556069 2.520487 2.485161 2.450092 2.415279 2.380722 2.346422 2.312378 2.278590 2.245059 2.211784 2.178765 2.146003 2.113497 2.081247 2.049254 2.017517 1.986036 1.954812 1.923844 1.893132 1.862677 1.832478 1.802536 1.772849 1.743419 1.714246 1.685329 1.656668 1.628263 1.600115 1.572223 1.544588 1.517208 1.490086 1.548105 1.735777 1.648027 0.990636 0.707781 0.497264 0.447983 0.339901 0.278986 0.215528 0.032587 0.212083 0.092991 0.002712 -0.047834 -0.193247 -0.145536 -0.085265 -0.085754 -0.091869 0.016460 0.036156 0.241412 0.153492 0.369908 0.453319 0.486986 0.724312 0.707958 0.715275 0.844388 0.827962 0.860289 0.927015 0.898658 0.944547 0.754662 0.839404 0.844371 0.624523 0.604926 0.454372 0.432721 0.381884 0.206584 0.117523 0.092780 0.200147 0.139669 0.190912 0.103371 0.296599 0.289376 0.451971 0.408888 0.575294 0.635181 0.756303 0.690600 0.656189 0.658532 0.521923 0.496549 0.357916 0.282774 0.104859 0.132760 -0.008304 -0.025110 -0.052884 -0.040893 -0.016162 0.016619 0.264512 0.321049 0.375561 0.389495 0.456442 0.485039 0.438371 0.484009 0.379426 0.368820 0.130593 0.047833 0.052004 -0.026661 -0.151713 -0.069271 -0.134146 -0.005786 0.112848 0.136000 0.234574 0.235769 0.363030 0.440692 0.330465 0.370357 0.259000 0.101511 0.027327 0.025834 -0.011315 -0.020866 -0.014790 0.084616 0.102549 0.240071 0.215918 0.285566 0.348276 0.219225 0.232504 0.203167 0.117074 0.067576 0.034837 0.013724 0.025675 -0.030709 0.011976 0.174702 0.213646 0.235185 0.273191 0.231113 0.255354 0.151937 0.115242 -0.012719 -0.012575 0.005424 0.023486 0.020719 0.039044 0.114239 0.202723 0.216464 0.212087 0.137452 0.145021 0.079551 0.058112 -0.062261 -0.018636 -0.006392 0.055702 0.066347 0.073832 0.150659 0.087070 0.173419 0.069251 0.048486 0.050004 0.028643 0.004321 0.005910 0.051683 0.085220 0.131795 0.134655 0.074323 0.134059 0.100287 0.017846 0.010167 0.008550 -0.002658 0.056803 0.062614 0.103969 0.097306 0.079406 0.067170 0.081584 0.037345 0.017838 -0.015157 0.013090 0.057464 0.026198 0.036979 0.089315 0.082120 0.056517 0.032275 0.012967 0.016181 -0.006826 -0.007743 0.013865 0.061692 0.098095 0.064700 0.057330 0.039556 -0.013965 -0.001274 0.016433 0.014231 0.028390 0.105707 0.058879 0.024506 0.044690 0.001947 0.028595 -0.010925 0.002563 0.022384 0.062987 0.043174 0.042899 0.029082 0.056208 0.027240 -0.002893 0.033474 0.041713 0.042127 0.043340 0.025943 0.004243 -0.009766 0.029448 0.005707 0.047562 0.072354 0.043659 0.027973 0.005552 0.001550 -0.004903 0.007770 0.002738 0.009061 -0.006930 0.073864 0.047497 0.034103 0.041535 0.002647 0.009063 0.002839 -0.006991 0.055384 0.059442 0.081355 0.042201 0.046654 -0.027491 0.004454 0.038675 0.076010 0.035567 0.021005 0.002765 0.002152 0.047941 0.048391 0.038791 0.068640 0.066263 0.047668 -0.024520 0.021411 0.040623 0.022981 0.046574 0.067313 0.080890 0.067125 0.017857 0.007318 0.019779 0.004747 0.023891 -0.016671 -0.021634 -0.014267 -0.051382 0.006223 -0.004660 0.006029 -0.059679 -0.004633 0.012347 -0.000454 -0.043695 0.021433 -0.090810 -0.025757 -0.040314 0.038247 0.071683 -0.107110 -0.027565 0.031328 0.007201 -0.045453 0.043580 0.023349 -0.008790 -0.045271 0.068320 0.236697 0.204497 0.072763 0.042998 -0.691958
0.072396 0.073046 0.074994 0.078240 0.082783 0.088621 0.095753 0.104176 0.113884 0.124875 0.137139 0.150671 0.165458 0.181490 0.198749 0.217219 0.236877 0.257696 0.279647 0.302695 0.326797 0.351909 0.377975 0.404936 0.432724 0.461263 0.490467 0.520243 0.550488 0.581086 0.611915 0.642839 0.673712 0.704376 0.734663 0.764392 0.793372 0.821400 0.848263 0.873737 0.897591 0.919582 0.939463 0.956979 0.971872 0.983881 0.992744 0.998202 0.999998 0.997886 0.991627 0.980997 0.965789 0.945816 0.920918 0.890960 0.855843 0.815505 0.769923 0.719122 0.663175 0.602209 0.536409 0.466018 0.391343 0.312757 0.230699 0.145675 0.058259 0.030908 0.121122 0.211618 0.301573 0.390115 0.476328 0.559260 0.637935 0.711364 0.778557 0.838536 0.890353 0.933105 0.965949 0.988124 0.998964 0.997920 0.984578 0.958672 0.920105 0.868961 0.805516 0.730252 0.643860 0.547248 0.441537 0.328058 0.208343 0.084112 0.042747 0.170200 0.296101 0.418221 0.534289 0.642034 0.739235 0.823765 0.893648 0.947108 0.982622 0.998969 0.995281 0.971078 0.926311 0.861388 0.777190 0.675085 0.556916 0.424992 0.282057 0.131239 0.024001 0.179940 0.332687 0.478266 0.612729 0.732264 0.833314 0.912687 0.967677 0.996165 0.996718 0.968668 0.912176 0.828269 0.718859 0.586721 0.435459 0.269417 0.093590 0.086530 0.265096 0.436111 0.593615 0.731907 0.845762 0.930644 0.982909 0.999984 0.980517 0.924488 0.833273 0.709657 0.557787 0.383074 0.192024 0.007976 0.208928 0.402535 0.580540 0.735091 0.859101 0.946601 0.993051 0.995617 0.953370 0.867418 0.740937 0.579111 0.388965 0.179103 0.040648 0.259684 0.467123 0.652346 0.805559 0.918339 0.984132 0.998676 0.960329 0.870257 0.732486 0.553788 0.343411 0.112644 0.125749 0.358211 0.571164 0.751805 0.888915 0.973587 0.999865 0.965220 0.870835 0.721671 0.526285 0.296412 0.046324 0.208025 0.449988 0.663325 0.833302 0.947767 0.998064 0.979772 0.893153 0.743302 0.539950 0.296913 0.031233 0.237979 0.490888 0.708405 0.873656 0.973347 0.998913 0.947340 0.821585 0.630538 0.388499 0.114207 0.170552 0.442639 0.679434 0.860752 0.970622 0.998782 0.941741 0.803294 0.594417 0.332517 0.040091 0.257148 0.532495 0.760655 0.920126 0.995298 0.978100 0.868981 0.677126 0.419833 0.121071 0.190652 0.484966 0.732594 0.908310 0.993604 0.978746 0.864043 0.660087 0.386951 0.072342 0.251096 0.549137 0.789598 0.945874 1.000000 0.944857 0.785267 0.537772 0.229103 0.106577 0.431379 0.707930 0.903732 0.995080 0.970087 0.830406 0.591390 0.280604 0.065189 0.404283 0.695028 0.900981 0.995594 0.965805 0.814032 0.558257 0.230126 0.128812 0.472260 0.755120 0.939484 0.999857 0.926871 0.728959 0.431636 0.074437 0.294173 0.623331 0.866774 0.989493 0.972928 0.818025 0.545560 0.193609 0.187558 0.542574 0.818972 0.975071 0.986422 0.849900 0.584663 0.229758 0.161398 0.528934 0.815670 0.976100 0.983830 0.836176 0.555135 0.184410 0.217139 0.584722 0.858069 0.991426 0.961462 0.771638 0.452210 0.055746 0.351336 0.699769 0.929276 0.999187 0.895914 0.635917 0.263464 0.156630 0.550083 0.846275 0.991029 0.956787 0.748200 0.401949 0.019361 0.438263 0.776614 0.970232 0.981318 0.806189 0.476671 0.054713 0.378967 0.740225 0.957851 0.987862 0.822732 0.493641 0.064986 0.377881 0.745537 0.962613 0.983459 0.802166 0.454551 0.011517 0.435089 0.791400 0.981348 0.963204 0.739154 0.355689 0.105619 0.545167
1.000000 1.000000 1.000000 1.000000 1.000000 1.000000 1.000000 1.000000 1.000000 1.000000 1.000000 1.000000 1.000000 1.000000 1.000000 1.000000 1.000000 1.000000 1.000000 1.000000 1.000000 1.000000 1.000000 1.000000 1.000000 1.000000 1.000000 1.000000 1.000000 1.000000 1.000000 1.000000 1.000000 1.000000 1.000000 1.000000 1.000000 1.000000 1.000000 1.000000 1.000000 1.000000 1.000000 1.000000 1.000000 1.000000 1.000000 1.000000 1.000000 1.000000 1.000000 1.000000 0.943561 0.943561 0.943561 0.943561 0.943561 0.943561 0.943561 0.943561 0.943561 0.943561 0.943561 0.943561 0.943561 0.943561 0.943561 0.943561 0.943561 0.943561 0.943561 0.943561 0.943561 0.943561 0.943561 0.943561 0.943561 0.943561 0.943561 0.943561 0.943561 0.943561 0.943561 0.943561 0.943561 0.924802 0.926237 0.929168 0.930228 0.930193 0.929743 0.929422 0.929620 0.931307 0.933593 0.950265 0.952370 0.953018 0.954326 0.954781 0.957762 0.956678 0.959598 0.968566 0.967572 0.967836 0.968266 0.969755 0.970128 0.970103 0.968892 0.969182 0.968806 0.967998 0.967171 0.966874 0.966583 0.968193 0.968510 0.968430 0.968843 0.968605 0.968273 0.964617 0.963318 0.964617 0.966343 0.966006 0.972228 0.972519 0.979835 0.979672 0.978111 0.978019 0.978115 0.978239 0.968149 0.962699 0.957532 0.946183 0.937102 0.934440 0.936673 0.937499 0.936360 0.931739 0.930875 0.928875 0.924308 0.923565 0.922614 0.924161 0.919266 0.915292 0.897704 0.895804 0.898121 0.897898 0.896027 0.888201 0.883442 0.884094 0.887076 0.889997 0.887138 0.889564 0.886289 0.887666 0.888572 0.890340 0.893485 0.890151 0.888435 0.883900 0.880583 0.875433 0.876884 0.862730 0.866175 0.858432 0.845520 0.837608 0.841078 0.851342 0.860352 0.868481 0.867248 0.867566 0.867496 0.861629 0.862870 0.853644 0.854462 0.859618 0.865832 0.861951 0.859585 0.864693 0.862646 0.866069 0.868851 0.865299 0.863138 0.854102 0.854646 0.855180 0.872420 0.871440 0.859182 0.852209 0.842049 0.848839 0.853721 0.852394 0.853055 0.847294 0.849523 0.840112 0.826191 0.828654 0.834010 0.831421 0.833239 0.832339 0.836636 0.837158 0.836700 0.833172 0.831813 0.838564 0.815013 0.823697 0.828520 0.823418 0.827316 0.821311 0.814194 0.809353 0.808305 0.807836 0.816768 0.813762 0.783851 0.778322 0.786491 0.766281 0.756949 0.753750 0.754714 0.738449 0.718924 0.692333 0.684864 0.670105 0.674159 0.667691 0.650042 0.639098 0.624636 0.616607 0.631096 0.632942 0.600819 0.600450 0.592134 0.588290 0.583683 0.578190 0.572600 0.579504 0.586727 0.551078 0.547239 0.551218 0.525639 0.523326 0.523610 0.516793 0.489994 0.498871 0.497976 0.518431 0.534285 0.500618 0.495977 0.508751 0.525753 0.538633 0.540030 0.523397 0.499072 0.508397 0.481424 0.465103 0.479379 0.486213 0.469544 0.489809 0.485246 0.520182 0.513857 0.491388 0.514890 0.528558 0.531293 0.530952 0.544584 0.525961 0.529604 0.515629 0.465554 0.484527 0.466806 0.416321 0.421451 0.434022 0.426702 0.426609 0.400807 0.401303 0.379607 0.347924 0.355094 0.349095 0.316778 0.278183 0.280396 0.283030 0.250273 0.221248 0.241564 0.190893 0.181052 0.197242 0.207109 0.202394 0.201683 0.224535 0.224535 0.224535 0.224535 0.224535 0.224535 0.224535 0.224535 0.224535 0.224535 0.224535 0.224535 0.224535 0.224535 0.250955 0.250955 0.250955 0.250955 0.250955 0.250955 0.250955 0.250955 0.250955 0.250955 0.250955 0.250955
0.000000 0.000000 0.000000 0.000000 0.000000 0.000000 0.000000 0.000000 0.000000 0.000000 0.000000 0.000000 0.000000 0.000000 0.000000 0.000000 0.000000 0.000000 0.000000 0.000000 0.000000 0.000000 0.000000 0.000000 0.000000 0.000000 0.000000 0.000000 0.000000 0.000000 0.000000 0.000000 0.000000 0.000000 0.000000 0.000000 0.000000 0.000000 0.000000 0.000000 0.000000 0.000000 0.000000 0.000000 0.000000 0.000000 0.000000 0.000000 0.000000 0.000000 0.000000 0.000000 0.209657 0.209657 0.209657 0.209657 0.209657 0.209657 0.209657 0.209657 0.209657 0.209657 0.209657 0.209657 0.209657 0.209657 0.209657 0.209657 0.209657 0.209657 0.209657 0.209657 0.209657 0.209657 0.209657 0.209657 0.209657 0.209657 0.209657 0.209657 0.209657 0.209657 0.209657 0.209657 0.209657 0.244339 0.244339 0.244339 0.244339 0.244339 0.244339 0.244339 0.244339 0.244339 0.244339 0.244339 0.244339 0.244339 0.244339 0.244339 0.244339 0.244339 0.244339 0.244339 0.244339 0.244339 0.244339 0.244339 0.244339 0.244339 0.260378 0.260378 0.260378 0.260378 0.260378 0.260378 0.260378 0.260378 0.260378 0.260378 0.260378 0.260378 0.260378 0.260378 0.260378 0.260378 0.260378 0.260378 0.260378 0.260378 0.269680 0.269680 0.269680 0.269680 0.269680 0.269680 0.269680 0.269680 0.269680 0.269680 0.269680 0.269680 0.269680 0.269680 0.269680 0.269680 0.269680 0.269680 0.269680 0.269680 0.269680 0.269680 0.269680 0.269680 0.269680 0.269680 0.269680 0.269680 0.269680 0.269680 0.269680 0.269680 0.269680 0.280056 0.280056 0.280056 0.280056 0.280056 0.280056 0.280056 0.280056 0.280056 0.280056 0.280056 0.280056 0.280056 0.280056 0.280056 0.280056 0.280056 0.280056 0.280056 0.280056 0.280056 0.280056 0.280056 0.280056 0.280056 0.280056 0.280056 0.274721 0.274721 0.274721 0.274721 0.274721 0.274721 0.274721 0.274721 0.274721 0.274721 0.274721 0.274721 0.274721 0.285714 0.285714 0.285714 0.285714 0.285714 0.285714 0.285714 0.285714 0.285714 0.285714 0.285714 0.280056 0.280056 0.280056 0.280056 0.280056 0.280056 0.280056 0.280056 0.280056 0.280056 0.280056 0.274721 0.274721 0.274721 0.274721 0.274721 0.274721 0.274721 0.274721 0.274721 0.274721 0.274721 0.280056 0.280056 0.280056 0.280056 0.280056 0.280056 0.280056 0.280056 0.280056 0.280056 0.285714 0.285714 0.285714 0.285714 0.285714 0.285714 0.285714 0.285714 0.285714 0.269680 0.269680 0.269680 0.269680 0.269680 0.269680 0.269680 0.269680 0.269680 0.269680 0.274721 0.274721 0.274721 0.274721 0.274721 0.274721 0.274721 0.274721 0.274721 0.285714 0.285714 0.285714 0.285714 0.285714 0.285714 0.285714 0.285714 0.264906 0.264906 0.264906 0.264906 0.264906 0.264906 0.264906 0.264906 0.264906 0.274721 0.274721 0.274721 0.274721 0.274721 0.274721 0.274721 0.274721 0.269680 0.269680 0.269680 0.269680 0.269680 0.269680 0.269680 0.269680 0.269680 0.269680 0.269680 0.269680 0.269680 0.269680 0.269680 0.269680 0.280056 0.280056 0.280056 0.280056 0.280056 0.280056 0.280056 0.260378 0.260378 0.260378 0.260378 0.260378 0.260378 0.260378 0.260378 0.269680 0.269680 0.269680 0.269680 0.269680 0.269680 0.269680 0.264906 0.264906 0.264906 0.264906 0.264906 0.264906 0.264906 0.264906 0.264906 0.264906 0.264906 0.264906 0.264906 0.264906 0.260378 0.260378 0.260378 0.260378 0.260378 0.260378 0.260378 0.260378 0.260378 0.260378 0.260378 0.260378
