# Output from CTFFind version 4.1.9, run on 2019-11-02 17:50:19
# Input file: stack11_bm3d_averaged_1_0.5_0_3000_half.mrc ; Number of micrographs: 1
# Pixel size: 3.000 Angstroms ; acceleration voltage: 300.0 keV ; spherical aberration: 0.00 mm ; amplitude contrast: 0.07
# Box size: 512 pixels ; min. res.: 30.0 Angstroms ; max. res.: 5.0 Angstroms ; min. def.: 5000.0 um; max. def. 50000.0 um; num. frames averaged: 1
# 6 lines per micrograph: #1 - spatial frequency (1/Angstroms); #2 - 1D rotational average of spectrum (assuming no astigmatism); #3 - 1D rotational average of spectrum; #4 - CTF fit; #5 - cross-correlation between spectrum and CTF fit; #6 - 2sigma of expected cross correlation of noise
0.000000 0.000651 0.001302 0.001953 0.002604 0.003255 0.003906 0.004557 0.005208 0.005859 0.006510 0.007161 0.007812 0.008464 0.009115 0.009766 0.010417 0.011068 0.011719 0.012370 0.013021 0.013672 0.014323 0.014974 0.015625 0.016276 0.016927 0.017578 0.018229 0.018880 0.019531 0.020182 0.020833 0.021484 0.022135 0.022786 0.023438 0.024089 0.024740 0.025391 0.026042 0.026693 0.027344 0.027995 0.028646 0.029297 0.029948 0.030599 0.031250 0.031901 0.032552 0.033203 0.033854 0.034505 0.035156 0.035807 0.036458 0.037109 0.037760 0.038411 0.039062 0.039714 0.040365 0.041016 0.041667 0.042318 0.042969 0.043620 0.044271 0.044922 0.045573 0.046224 0.046875 0.047526 0.048177 0.048828 0.049479 0.050130 0.050781 0.051432 0.052083 0.052734 0.053385 0.054036 0.054688 0.055339 0.055990 0.056641 0.057292 0.057943 0.058594 0.059245 0.059896 0.060547 0.061198 0.061849 0.062500 0.063151 0.063802 0.064453 0.065104 0.065755 0.066406 0.067057 0.067708 0.068359 0.069010 0.069661 0.070312 0.070964 0.071615 0.072266 0.072917 0.073568 0.074219 0.074870 0.075521 0.076172 0.076823 0.077474 0.078125 0.078776 0.079427 0.080078 0.080729 0.081380 0.082031 0.082682 0.083333 0.083984 0.084635 0.085286 0.085938 0.086589 0.087240 0.087891 0.088542 0.089193 0.089844 0.090495 0.091146 0.091797 0.092448 0.093099 0.093750 0.094401 0.095052 0.095703 0.096354 0.097005 0.097656 0.098307 0.098958 0.099609 0.100260 0.100911 0.101562 0.102214 0.102865 0.103516 0.104167 0.104818 0.105469 0.106120 0.106771 0.107422 0.108073 0.108724 0.109375 0.110026 0.110677 0.111328 0.111979 0.112630 0.113281 0.113932 0.114583 0.115234 0.115885 0.116536 0.117188 0.117839 0.118490 0.119141 0.119792 0.120443 0.121094 0.121745 0.122396 0.123047 0.123698 0.124349 0.125000 0.125651 0.126302 0.126953 0.127604 0.128255 0.128906 0.129557 0.130208 0.130859 0.131510 0.132161 0.132812 0.133464 0.134115 0.134766 0.135417 0.136068 0.136719 0.137370 0.138021 0.138672 0.139323 0.139974 0.140625 0.141276 0.141927 0.142578 0.143229 0.143880 0.144531 0.145182 0.145833 0.146484 0.147135 0.147786 0.148438 0.149089 0.149740 0.150391 0.151042 0.151693 0.152344 0.152995 0.153646 0.154297 0.154948 0.155599 0.156250 0.156901 0.157552 0.158203 0.158854 0.159505 0.160156 0.160807 0.161458 0.162109 0.162760 0.163411 0.164062 0.164714 0.165365 0.166016 0.166667 0.167318 0.167969 0.168620 0.169271 0.169922 0.170573 0.171224 0.171875 0.172526 0.173177 0.173828 0.174479 0.175130 0.175781 0.176432 0.177083 0.177734 0.178385 0.179036 0.179688 0.180339 0.180990 0.181641 0.182292 0.182943 0.183594 0.184245 0.184896 0.185547 0.186198 0.186849 0.187500 0.188151 0.188802 0.189453 0.190104 0.190755 0.191406 0.192057 0.192708 0.193359 0.194010 0.194661 0.195312 0.195964 0.196615 0.197266 0.197917 0.198568 0.199219 0.199870 0.200521 0.201172 0.201823 0.202474 0.203125 0.203776 0.204427 0.205078 0.205729 0.206380 0.207031 0.207682 0.208333 0.208984 0.209635 0.210286 0.210938 0.211589 0.212240 0.212891 0.213542 0.214193 0.214844 0.215495 0.216146 0.216797 0.217448 0.218099 0.218750 0.219401 0.220052 0.220703 0.221354 0.222005 0.222656 0.223307 0.223958 0.224609 0.225260 0.225911 0.226562 0.227214 0.227865 0.228516 0.229167 0.229818 0.230469 0.231120 0.231771 0.232422 0.233073 0.233724 0.234375 0.235026 0.235677
       0.31551        0.31551        0.31551        0.31551        0.31551        0.31551        0.31551        0.31551        0.31551        0.31551        0.31551        0.31551        0.31551        0.31551        0.31551        0.31551        0.31551        0.31551        0.31551        0.31551        0.31551        0.31551        0.31551        0.31552        0.31551        0.31551        0.31551        0.31551        0.31551        0.31551        0.31551        0.31551        0.31551        0.31552        0.31551        0.31551        0.31551        0.31551        0.31552        0.31551        0.31551        0.31551        0.31551        0.31551        0.31551        0.31551        0.31551        0.31551        0.31551        0.31551        0.31551        0.68408        0.87257        0.52000        0.08354       -0.07131       -0.42996       -0.21002       -0.29885       -0.12007       -0.08122       -0.11949       -0.07223       -0.21299       -0.24121       -0.26360       -0.33296       -0.33948       -0.49703       -0.38705       -0.47020       -0.45486       -0.42387       -0.47341       -0.55339       -0.56815       -0.59150       -0.63136       -0.58282       -0.41976       -0.38083       -0.33189       -0.32001       -0.21573       -0.20089        0.01963        0.06425        0.09858        0.22006        0.37066        0.44107        0.51601        0.55807        0.55273        0.57177        0.69802        0.81511        0.74830        0.73430        0.67605        0.58219        0.48676        0.40527        0.49113        0.36839        0.19588        0.07537        0.04182        0.00239       -0.06178       -0.04412       -0.03118       -0.07712       -0.00689       -0.02440        0.20752        0.24667        0.29161        0.42900        0.46756        0.40312        0.52852        0.63148        0.70455        0.76913        0.69076        0.66393        0.70168        0.58904        0.50773        0.41762        0.28837        0.18336        0.15602        0.10818        0.03363        0.01107       -0.00251        0.07439        0.13099        0.20047        0.28326        0.40412        0.41465        0.50969        0.60077        0.63671        0.60981        0.62983        0.55160        0.44369        0.43911        0.34988        0.22902        0.18550        0.14889        0.10031        0.11644        0.06110        0.09721        0.21590        0.26210        0.33717        0.34247        0.45257        0.51037        0.53563        0.55133        0.46658        0.42437        0.39338        0.37940        0.30951        0.24936        0.19906        0.18111        0.16035        0.19014        0.17540        0.26765        0.33205        0.36151        0.41845        0.46223        0.47629        0.44523        0.39079        0.41019        0.37619        0.29188        0.27529        0.22995        0.21046        0.19128        0.20864        0.22959        0.32692        0.37047        0.36516        0.45503        0.43739        0.43979        0.43026        0.39379        0.34110        0.32972        0.27797        0.23103        0.23283        0.26449        0.26781        0.29743        0.29415        0.33887        0.32803        0.41001        0.41486        0.37201        0.34218        0.36145        0.27951        0.27754        0.26268        0.27565        0.25776        0.28099        0.29461        0.31689        0.35296        0.35678        0.35863        0.33054        0.35004        0.28744        0.32360        0.26546        0.24832        0.27921        0.27934        0.30483        0.31536        0.33115        0.32142        0.31020        0.31803        0.28687        0.28217        0.25833        0.28204        0.27072        0.31155        0.28216        0.25709        0.30594        0.31019        0.31395        0.29229        0.29612        0.29417        0.24115        0.23530        0.21734        0.27429        0.26803        0.30220        0.31759        0.32019        0.31003        0.29988        0.27571        0.28176        0.33212        0.27625        0.27057        0.29260        0.29715        0.34263        0.34025        0.36255        0.32977        0.31032        0.28023        0.26118        0.26177        0.22392        0.26345        0.29752        0.29670        0.27663        0.29427        0.27017        0.32160        0.33645        0.25011        0.21469        0.26276        0.33625        0.27937        0.31370        0.32603        0.32829        0.29634        0.31713        0.34666        0.29611        0.29580        0.26222        0.27266        0.34629        0.34912        0.25602        0.26867        0.25321        0.26936        0.22923        0.28974        0.22168        0.25230        0.32133        0.31426        0.34093        0.29889        0.23274        0.23626        0.24299        0.24487        0.17578        0.21370        0.25791        0.28563        0.28158        0.29851        0.28662        0.28008        0.28486        0.20908        0.18224        0.18044        0.23317        0.20009        0.22545        0.23300        0.20930        0.25012        0.33058        0.29073        0.30204        0.21743        0.27061        0.23344        0.27827        0.30245        0.14997        0.20940        0.22765        0.14209        0.24153        0.11368        0.17691        0.19769        0.13721       -0.12561       -0.66118
2.529565 2.503437 2.477450 2.451604 2.425898 2.400333 2.374909 2.349625 2.324482 2.299480 2.274618 2.249897 2.225317 2.200878 2.176579 2.152421 2.128403 2.104526 2.080790 2.057195 2.033740 2.010426 1.987253 1.964220 1.941328 1.918577 1.895966 1.873496 1.851167 1.828978 1.806930 1.785023 1.763257 1.741631 1.720146 1.698801 1.677598 1.656535 1.635612 1.614831 1.594190 1.573689 1.553330 1.533111 1.513033 1.493095 1.473298 1.453642 1.434127 1.414752 1.395518 1.618773 2.023604 1.595467 1.109458 0.968227 0.405962 0.796285 0.547760 0.821214 0.757286 0.774635 0.739074 0.697797 0.547423 0.498749 0.475478 0.437573 0.193185 0.370448 0.196070 0.295401 0.231106 0.174234 0.121637 -0.004201 0.038289 -0.020614 -0.059261 0.099467 0.202401 0.195247 0.149517 0.328524 0.196148 0.499197 0.568741 0.542418 0.586433 0.876680 0.805631 0.945796 0.888159 0.972675 0.938892 1.081227 1.142630 1.083786 1.126287 0.960192 0.945253 0.788874 0.654141 0.770870 0.703631 0.460809 0.310153 0.257800 0.211883 0.153872 0.092977 0.129906 0.069551 0.164578 0.054915 0.266989 0.382225 0.369090 0.483379 0.593155 0.478475 0.544649 0.706221 0.759666 0.786823 0.743191 0.745051 0.728728 0.636105 0.582858 0.440222 0.293558 0.215920 0.085926 0.143208 -0.033561 -0.018418 -0.072327 -0.026286 0.017871 0.150518 0.103368 0.315672 0.286929 0.376697 0.460419 0.535794 0.525381 0.532303 0.520466 0.348887 0.320891 0.291646 0.118482 0.064703 0.018858 -0.022225 -0.026881 -0.079307 -0.084769 -0.005839 0.069149 0.153547 0.146480 0.241832 0.348522 0.317374 0.434127 0.411697 0.298319 0.249162 0.271858 0.232837 0.117432 0.087919 0.034024 0.018342 0.023462 -0.002650 0.074782 0.163715 0.156909 0.238041 0.264600 0.320104 0.271546 0.230112 0.197784 0.218934 0.165608 0.056494 0.064558 0.000808 -0.002161 -0.022050 0.023076 0.026717 0.179660 0.129350 0.195319 0.240246 0.199464 0.192749 0.196086 0.128754 0.103199 0.063235 0.039077 -0.047724 0.001146 0.012801 0.046745 0.039259 0.069447 0.093658 0.109112 0.143883 0.181203 0.075168 0.096277 0.068324 -0.000944 0.003416 0.009264 -0.010946 0.015784 0.005721 0.033907 0.072279 0.090995 0.096467 0.052554 0.092004 0.055598 0.014631 0.061543 -0.036754 -0.015752 0.016835 -0.000138 0.047217 0.057761 0.044142 0.055512 0.042906 0.046549 0.015716 -0.006379 0.000382 0.017803 -0.013888 0.067498 -0.017892 0.001754 0.050459 0.042153 0.033109 0.044718 0.037212 0.017309 -0.028440 -0.047912 -0.021101 0.013538 0.014304 0.053837 0.062572 0.050635 0.083724 0.059427 0.024875 0.063006 0.089746 0.026115 0.030048 0.057063 0.060531 0.105767 0.114824 0.119694 0.111791 0.064334 0.048709 0.033404 0.010778 -0.003221 0.048500 0.079998 0.051995 0.035718 0.034983 0.029036 0.085227 0.077247 -0.045154 -0.052290 0.029984 0.095310 0.017013 0.037438 0.069430 0.087344 0.020087 0.057693 0.093367 0.034346 0.043654 -0.023658 0.009072 0.107019 0.068133 -0.053264 -0.024571 -0.050947 -0.003341 -0.097338 0.031143 -0.113974 -0.035221 0.037274 0.019333 0.027143 -0.045605 -0.072722 -0.097149 -0.079679 -0.066455 -0.140671 -0.101989 -0.041261 -0.002479 -0.030734 0.026375 -0.028668 -0.044035 0.051778 -0.115387 -0.094326 -0.108485 -0.009349 -0.064786 -0.023864 -0.013828 0.008326 0.012110 0.165221 -0.013390 0.134072 -0.011428 0.277159 0.243326 0.317864 0.277574 0.117431 0.211690 0.273769 0.067152 0.264716 0.117713 0.165352 0.251184 0.139336 -0.680299
0.072396 0.072898 0.074405 0.076916 0.080431 0.084948 0.090467 0.096986 0.104502 0.113013 0.122516 0.133006 0.144477 0.156925 0.170340 0.184714 0.200035 0.216291 0.233467 0.251545 0.270506 0.290327 0.310981 0.332440 0.354670 0.377634 0.401291 0.425595 0.450495 0.475936 0.501856 0.528188 0.554861 0.581794 0.608903 0.636096 0.663276 0.690336 0.717166 0.743647 0.769653 0.795051 0.819705 0.843467 0.866188 0.887710 0.907872 0.926506 0.943443 0.958507 0.971524 0.982315 0.990702 0.996508 0.999559 0.999683 0.996713 0.990491 0.980866 0.967698 0.950859 0.930237 0.905734 0.877274 0.844799 0.808277 0.767698 0.723084 0.674483 0.621976 0.565679 0.505742 0.442353 0.375737 0.306159 0.233924 0.159378 0.082907 0.004937 0.074068 0.153605 0.233138 0.312095 0.389879 0.465862 0.539401 0.609833 0.676486 0.738686 0.795762 0.847054 0.891922 0.929754 0.959977 0.982062 0.995538 0.999999 0.995114 0.980637 0.956415 0.922398 0.878642 0.825320 0.762728 0.691285 0.611539 0.524165 0.429968 0.329876 0.224939 0.116318 0.005276 0.106833 0.218580 0.328473 0.434986 0.536568 0.631677 0.718799 0.796471 0.863319 0.918072 0.959599 0.986934 0.999300 0.996132 0.977105 0.942146 0.891455 0.825511 0.745085 0.651235 0.545304 0.428909 0.303925 0.172463 0.036832 0.100486 0.236885 0.369685 0.496174 0.613679 0.719613 0.811541 0.887242 0.944768 0.982502 0.999209 0.994087 0.966805 0.917531 0.846952 0.756289 0.647279 0.522167 0.383665 0.234911 0.079402 0.079081 0.236557 0.388943 0.532165 0.662262 0.775508 0.868522 0.938380 0.982719 0.999830 0.988732 0.949238 0.881990 0.788475 0.671013 0.532724 0.377457 0.209708 0.034489 0.142802 0.316547 0.481082 0.630890 0.760781 0.866097 0.942880 0.988045 0.999518 0.976351 0.918796 0.828348 0.707728 0.560835 0.392645 0.209054 0.016702 0.177268 0.365461 0.540520 0.695408 0.823714 0.919920 0.979675 1.000000 0.979472 0.918333 0.818539 0.683737 0.519164 0.331473 0.128495 0.081081 0.288059 0.483138 0.657336 0.802414 0.911282 0.978374 0.999962 0.974389 0.902225 0.786306 0.631670 0.445378 0.236227 0.014357 0.209215 0.423143 0.616316 0.778460 0.900696 0.976059 0.999929 0.970356 0.888245 0.757395 0.584376 0.378245 0.150111 0.087432 0.320992 0.537118 0.723090 0.867682 0.961876 0.999464 0.977500 0.896578 0.760894 0.578094 0.358896 0.116507 0.134144 0.377298 0.597364 0.779931 0.912725 0.986494 0.995695 0.938961 0.819316 0.644088 0.424527 0.175130 0.087260 0.344575 0.578762 0.773052 0.913203 0.988580 0.993025 0.925428 0.789930 0.595768 0.356705 0.090129 0.184188 0.445512 0.673740 0.850940 0.962832 0.999975 0.958650 0.841295 0.656463 0.418288 0.145473 0.140122 0.415204 0.656943 0.844889 0.962741 0.999842 0.952213 0.823056 0.622661 0.367665 0.079766 0.216089 0.493814 0.728508 0.898710 0.988426 0.988711 0.898656 0.725657 0.484923 0.198229 0.107966 0.404939 0.664376 0.861089 0.975541 0.995850 0.919139 0.752011 0.510115 0.216789 0.099112 0.406011 0.672737 0.871731 0.981959 0.991221 0.897625 0.710000 0.447203 0.136343 0.189946 0.496870 0.751201 0.924900 0.998312 0.962481 0.820384 0.586847 0.287126 0.045700 0.374320 0.661351 0.873616 0.986047 0.984773 0.868952 0.651140 0.356098 0.018079 0.323032 0.626421 0.855222 0.981090 0.987816 0.873566 0.651397 0.347927 0.000287 0.348333 0.654014 0.877666 0.990115 0.976032 0.836190 0.587665 0.261949 0.098932
1.000000 1.000000 1.000000 1.000000 1.000000 1.000000 1.000000 1.000000 1.000000 1.000000 1.000000 1.000000 1.000000 1.000000 1.000000 1.000000 1.000000 1.000000 1.000000 1.000000 1.000000 1.000000 1.000000 1.000000 1.000000 1.000000 1.000000 1.000000 1.000000 1.000000 1.000000 1.000000 1.000000 1.000000 1.000000 1.000000 1.000000 1.000000 1.000000 1.000000 1.000000 1.000000 1.000000 1.000000 1.000000 1.000000 1.000000 1.000000 1.000000 1.000000 1.000000 1.000000 0.935034 0.935034 0.935034 0.924121 0.924121 0.924121 0.924121 0.924121 0.924121 0.924121 0.924121 0.924121 0.924121 0.924121 0.924121 0.924121 0.924121 0.924121 0.924121 0.924121 0.924121 0.924121 0.924121 0.924121 0.924121 0.924121 0.924121 0.924121 0.924121 0.924121 0.924121 0.924121 0.924121 0.924121 0.924121 0.924121 0.924121 0.924121 0.924121 0.924121 0.924121 0.924121 0.924121 0.924121 0.949802 0.951032 0.958881 0.958703 0.958187 0.956043 0.955145 0.953993 0.953549 0.953818 0.954424 0.955259 0.967100 0.968114 0.969660 0.970524 0.971343 0.972157 0.972215 0.973313 0.972778 0.972273 0.971617 0.971298 0.971968 0.972822 0.973283 0.973761 0.972412 0.975947 0.976109 0.975948 0.975486 0.974231 0.972403 0.972078 0.971828 0.971834 0.972235 0.973459 0.976574 0.975953 0.975643 0.975800 0.975901 0.976052 0.976392 0.977058 0.973155 0.971793 0.970227 0.968050 0.972446 0.969480 0.969285 0.970644 0.970982 0.971348 0.970149 0.965961 0.960133 0.959350 0.957219 0.948068 0.947188 0.947674 0.949900 0.950270 0.948711 0.941835 0.942396 0.935436 0.937960 0.941289 0.935156 0.935586 0.936641 0.936461 0.935890 0.935438 0.932578 0.930437 0.929158 0.928800 0.931515 0.931041 0.932400 0.932942 0.928769 0.923261 0.916438 0.903549 0.900690 0.901244 0.888428 0.890104 0.888972 0.883945 0.887194 0.886646 0.887622 0.884301 0.869272 0.853839 0.848210 0.852574 0.857277 0.856953 0.853912 0.847105 0.858457 0.831726 0.843598 0.852882 0.848779 0.848927 0.847183 0.845704 0.840715 0.842388 0.843717 0.844786 0.841739 0.838785 0.839199 0.817634 0.818262 0.759859 0.742575 0.730977 0.735665 0.743315 0.745123 0.743894 0.751781 0.756350 0.749655 0.734262 0.728044 0.724686 0.728969 0.721413 0.723347 0.702669 0.670388 0.665946 0.638645 0.656097 0.664837 0.628425 0.652675 0.663563 0.664455 0.663333 0.657031 0.654516 0.649276 0.650878 0.655031 0.666384 0.683524 0.706197 0.699433 0.689651 0.683600 0.666114 0.659674 0.654606 0.675502 0.651207 0.647801 0.667687 0.666403 0.648516 0.622787 0.611903 0.607774 0.604478 0.614562 0.599524 0.593725 0.584434 0.562446 0.557023 0.590260 0.605080 0.629232 0.604719 0.592635 0.581254 0.564794 0.574815 0.510053 0.510791 0.532404 0.540539 0.519873 0.507178 0.517688 0.519631 0.516423 0.507021 0.502140 0.493356 0.511081 0.550475 0.536329 0.517513 0.518195 0.517782 0.509690 0.418088 0.413083 0.390067 0.356549 0.297813 0.281864 0.273372 0.257214 0.241420 0.204206 0.201431 0.210816 0.211994 0.226234 0.228613 0.210927 0.223938 0.221208 0.207464 0.144127 0.132726 0.124829 0.113818 0.111138 0.085561 0.113889 0.187851 0.189977 0.189977 0.189977 0.189977 0.189977 0.189977 0.195282 0.195282 0.195282 0.195282 0.195282 0.195282 0.195282 0.195282 0.195282 0.208554 0.208554 0.208554 0.208554 0.208554 0.208554 0.208554 0.208554 0.208554 0.208554 0.208554 0.208554 0.208554 0.208554
0.000000 0.000000 0.000000 0.000000 0.000000 0.000000 0.000000 0.000000 0.000000 0.000000 0.000000 0.000000 0.000000 0.000000 0.000000 0.000000 0.000000 0.000000 0.000000 0.000000 0.000000 0.000000 0.000000 0.000000 0.000000 0.000000 0.000000 0.000000 0.000000 0.000000 0.000000 0.000000 0.000000 0.000000 0.000000 0.000000 0.000000 0.000000 0.000000 0.000000 0.000000 0.000000 0.000000 0.000000 0.000000 0.000000 0.000000 0.000000 0.000000 0.000000 0.000000 0.000000 0.180334 0.180334 0.180334 0.199007 0.199007 0.199007 0.199007 0.199007 0.199007 0.199007 0.199007 0.199007 0.199007 0.199007 0.199007 0.199007 0.199007 0.199007 0.199007 0.199007 0.199007 0.199007 0.199007 0.199007 0.199007 0.199007 0.199007 0.199007 0.199007 0.199007 0.199007 0.199007 0.199007 0.199007 0.199007 0.199007 0.199007 0.199007 0.199007 0.199007 0.199007 0.199007 0.199007 0.199007 0.225018 0.225018 0.225018 0.225018 0.225018 0.225018 0.225018 0.225018 0.225018 0.225018 0.225018 0.225018 0.225018 0.225018 0.225018 0.225018 0.225018 0.225018 0.225018 0.225018 0.225018 0.225018 0.225018 0.225018 0.225018 0.225018 0.225018 0.225018 0.225018 0.244339 0.244339 0.244339 0.244339 0.244339 0.244339 0.244339 0.244339 0.244339 0.244339 0.244339 0.244339 0.244339 0.244339 0.244339 0.244339 0.244339 0.244339 0.244339 0.244339 0.244339 0.244339 0.244339 0.251976 0.251976 0.251976 0.251976 0.251976 0.251976 0.251976 0.251976 0.251976 0.251976 0.251976 0.251976 0.251976 0.251976 0.251976 0.251976 0.251976 0.251976 0.251976 0.251976 0.264906 0.264906 0.264906 0.264906 0.264906 0.264906 0.264906 0.264906 0.264906 0.264906 0.264906 0.264906 0.264906 0.264906 0.264906 0.264906 0.264906 0.264906 0.264906 0.264906 0.264906 0.264906 0.264906 0.264906 0.264906 0.264906 0.264906 0.264906 0.264906 0.264906 0.264906 0.264906 0.264906 0.264906 0.264906 0.264906 0.264906 0.264906 0.264906 0.264906 0.264906 0.264906 0.264906 0.264906 0.264906 0.264906 0.264906 0.264906 0.264906 0.264906 0.264906 0.264906 0.264906 0.264906 0.264906 0.264906 0.264906 0.264906 0.264906 0.264906 0.264906 0.264906 0.256074 0.256074 0.256074 0.256074 0.256074 0.256074 0.256074 0.256074 0.256074 0.256074 0.256074 0.256074 0.256074 0.256074 0.269680 0.269680 0.269680 0.269680 0.269680 0.269680 0.269680 0.269680 0.269680 0.269680 0.269680 0.269680 0.264906 0.264906 0.264906 0.264906 0.264906 0.264906 0.264906 0.264906 0.264906 0.264906 0.264906 0.264906 0.269680 0.269680 0.269680 0.269680 0.269680 0.269680 0.269680 0.269680 0.269680 0.269680 0.269680 0.264906 0.264906 0.264906 0.264906 0.264906 0.264906 0.264906 0.264906 0.264906 0.264906 0.264906 0.256074 0.256074 0.256074 0.256074 0.256074 0.256074 0.256074 0.256074 0.256074 0.256074 0.256074 0.264906 0.264906 0.264906 0.264906 0.264906 0.264906 0.264906 0.264906 0.264906 0.264906 0.260378 0.260378 0.260378 0.260378 0.260378 0.260378 0.260378 0.260378 0.260378 0.260378 0.256074 0.256074 0.256074 0.256074 0.256074 0.256074 0.256074 0.256074 0.256074 0.256074 0.260378 0.260378 0.260378 0.260378 0.260378 0.260378 0.260378 0.260378 0.260378 0.256074 0.256074 0.256074 0.256074 0.256074 0.256074 0.256074 0.256074 0.256074 0.251976 0.251976 0.251976 0.251976 0.251976 0.251976 0.251976 0.251976 0.251976 0.251976 0.251976 0.251976 0.251976 0.251976
