# Output from CTFFind version 4.1.9, run on 2019-11-03 19:00:07
# Input file: stack1_bm3d_averaged_1_2.25_0_3000_half.mrc ; Number of micrographs: 1
# Pixel size: 3.000 Angstroms ; acceleration voltage: 300.0 keV ; spherical aberration: 0.00 mm ; amplitude contrast: 0.07
# Box size: 512 pixels ; min. res.: 30.0 Angstroms ; max. res.: 5.0 Angstroms ; min. def.: 5000.0 um; max. def. 50000.0 um; num. frames averaged: 1
# 6 lines per micrograph: #1 - spatial frequency (1/Angstroms); #2 - 1D rotational average of spectrum (assuming no astigmatism); #3 - 1D rotational average of spectrum; #4 - CTF fit; #5 - cross-correlation between spectrum and CTF fit; #6 - 2sigma of expected cross correlation of noise
0.000000 0.000651 0.001302 0.001953 0.002604 0.003255 0.003906 0.004557 0.005208 0.005859 0.006510 0.007161 0.007812 0.008464 0.009115 0.009766 0.010417 0.011068 0.011719 0.012370 0.013021 0.013672 0.014323 0.014974 0.015625 0.016276 0.016927 0.017578 0.018229 0.018880 0.019531 0.020182 0.020833 0.021484 0.022135 0.022786 0.023438 0.024089 0.024740 0.025391 0.026042 0.026693 0.027344 0.027995 0.028646 0.029297 0.029948 0.030599 0.031250 0.031901 0.032552 0.033203 0.033854 0.034505 0.035156 0.035807 0.036458 0.037109 0.037760 0.038411 0.039062 0.039714 0.040365 0.041016 0.041667 0.042318 0.042969 0.043620 0.044271 0.044922 0.045573 0.046224 0.046875 0.047526 0.048177 0.048828 0.049479 0.050130 0.050781 0.051432 0.052083 0.052734 0.053385 0.054036 0.054688 0.055339 0.055990 0.056641 0.057292 0.057943 0.058594 0.059245 0.059896 0.060547 0.061198 0.061849 0.062500 0.063151 0.063802 0.064453 0.065104 0.065755 0.066406 0.067057 0.067708 0.068359 0.069010 0.069661 0.070312 0.070964 0.071615 0.072266 0.072917 0.073568 0.074219 0.074870 0.075521 0.076172 0.076823 0.077474 0.078125 0.078776 0.079427 0.080078 0.080729 0.081380 0.082031 0.082682 0.083333 0.083984 0.084635 0.085286 0.085938 0.086589 0.087240 0.087891 0.088542 0.089193 0.089844 0.090495 0.091146 0.091797 0.092448 0.093099 0.093750 0.094401 0.095052 0.095703 0.096354 0.097005 0.097656 0.098307 0.098958 0.099609 0.100260 0.100911 0.101562 0.102214 0.102865 0.103516 0.104167 0.104818 0.105469 0.106120 0.106771 0.107422 0.108073 0.108724 0.109375 0.110026 0.110677 0.111328 0.111979 0.112630 0.113281 0.113932 0.114583 0.115234 0.115885 0.116536 0.117188 0.117839 0.118490 0.119141 0.119792 0.120443 0.121094 0.121745 0.122396 0.123047 0.123698 0.124349 0.125000 0.125651 0.126302 0.126953 0.127604 0.128255 0.128906 0.129557 0.130208 0.130859 0.131510 0.132161 0.132812 0.133464 0.134115 0.134766 0.135417 0.136068 0.136719 0.137370 0.138021 0.138672 0.139323 0.139974 0.140625 0.141276 0.141927 0.142578 0.143229 0.143880 0.144531 0.145182 0.145833 0.146484 0.147135 0.147786 0.148438 0.149089 0.149740 0.150391 0.151042 0.151693 0.152344 0.152995 0.153646 0.154297 0.154948 0.155599 0.156250 0.156901 0.157552 0.158203 0.158854 0.159505 0.160156 0.160807 0.161458 0.162109 0.162760 0.163411 0.164062 0.164714 0.165365 0.166016 0.166667 0.167318 0.167969 0.168620 0.169271 0.169922 0.170573 0.171224 0.171875 0.172526 0.173177 0.173828 0.174479 0.175130 0.175781 0.176432 0.177083 0.177734 0.178385 0.179036 0.179688 0.180339 0.180990 0.181641 0.182292 0.182943 0.183594 0.184245 0.184896 0.185547 0.186198 0.186849 0.187500 0.188151 0.188802 0.189453 0.190104 0.190755 0.191406 0.192057 0.192708 0.193359 0.194010 0.194661 0.195312 0.195964 0.196615 0.197266 0.197917 0.198568 0.199219 0.199870 0.200521 0.201172 0.201823 0.202474 0.203125 0.203776 0.204427 0.205078 0.205729 0.206380 0.207031 0.207682 0.208333 0.208984 0.209635 0.210286 0.210938 0.211589 0.212240 0.212891 0.213542 0.214193 0.214844 0.215495 0.216146 0.216797 0.217448 0.218099 0.218750 0.219401 0.220052 0.220703 0.221354 0.222005 0.222656 0.223307 0.223958 0.224609 0.225260 0.225911 0.226562 0.227214 0.227865 0.228516 0.229167 0.229818 0.230469 0.231120 0.231771 0.232422 0.233073 0.233724 0.234375 0.235026 0.235677
       0.34491        0.34491        0.34491        0.34491        0.34491        0.34491        0.34491        0.34491        0.34491        0.34491        0.34491        0.34491        0.34491        0.34491        0.34491        0.34491        0.34491        0.34491        0.34491        0.34491        0.34491        0.34491        0.34491        0.34491        0.34491        0.34491        0.34491        0.34491        0.34491        0.34491        0.34491        0.34491        0.34491        0.34491        0.34491        0.34491        0.34491        0.34491        0.34491        0.34491        0.34491        0.34491        0.34491        0.34491        0.34491        0.34491        0.34491        0.34491        0.34491        0.34491        0.34491        0.50902        0.72434        0.42829        0.20496       -0.06207       -0.24700       -0.05919       -0.11687       -0.06053        0.00962       -0.13802       -0.10183       -0.03003        0.01403       -0.14333       -0.21486       -0.32419       -0.46261       -0.57456       -0.52438       -0.45894       -0.36434       -0.55356       -0.44254       -0.60648       -0.49317       -0.46928       -0.39442       -0.36301       -0.31965       -0.22848       -0.15745       -0.12826        0.03466       -0.00895        0.12434        0.18711        0.32999        0.43374        0.49084        0.51637        0.55759        0.56872        0.71376        0.66640        0.69227        0.59563        0.56967        0.65887        0.53201        0.45858        0.42105        0.31186        0.25599        0.28053        0.26365        0.11073        0.09586        0.01417        0.00249        0.03406       -0.00707        0.07841        0.09552        0.22717        0.29125        0.30504        0.41068        0.57598        0.55994        0.57889        0.67645        0.68905        0.64042        0.66117        0.65229        0.54213        0.57135        0.39603        0.36958        0.28249        0.19579        0.09262        0.15378        0.12491        0.12685        0.13957        0.21526        0.19599        0.32276        0.35802        0.41223        0.50866        0.55973        0.55531        0.56860        0.62003        0.55412        0.48620        0.48847        0.33490        0.26789        0.26673        0.26060        0.16407        0.16059        0.16688        0.23982        0.28170        0.34838        0.39267        0.42020        0.45877        0.45411        0.48585        0.44810        0.48507        0.45219        0.39766        0.37216        0.38604        0.35006        0.30532        0.22199        0.23188        0.23563        0.28266        0.27196        0.36147        0.39342        0.37379        0.42476        0.45788        0.45121        0.44056        0.44148        0.35793        0.35092        0.29852        0.26407        0.30540        0.27509        0.30613        0.32260        0.36207        0.34162        0.41768        0.40504        0.44543        0.40435        0.46832        0.42103        0.38031        0.29317        0.29201        0.29509        0.28781        0.29262        0.35425        0.37244        0.34119        0.37017        0.38189        0.36059        0.42427        0.41534        0.37330        0.36054        0.30965        0.30885        0.32761        0.32163        0.32171        0.30577        0.34608        0.36809        0.38993        0.35725        0.34190        0.33928        0.35991        0.32685        0.30696        0.33398        0.33288        0.33238        0.34055        0.35103        0.37941        0.34230        0.33045        0.35711        0.32832        0.28000        0.27072        0.28759        0.31259        0.32660        0.36291        0.30309        0.31612        0.34103        0.30964        0.33780        0.30744        0.29182        0.28604        0.28593        0.29338        0.35196        0.32461        0.33607        0.32022        0.35740        0.35744        0.32343        0.33264        0.33763        0.28231        0.32069        0.33357        0.29797        0.34427        0.33510        0.33866        0.32587        0.35950        0.35073        0.29268        0.25406        0.29704        0.35878        0.36779        0.36178        0.30993        0.31011        0.30060        0.31218        0.27333        0.30752        0.31667        0.34283        0.32028        0.31009        0.27856        0.35065        0.33920        0.34110        0.29766        0.31261        0.32398        0.40834        0.35206        0.35520        0.34241        0.30814        0.29734        0.32184        0.32297        0.28873        0.23374        0.27909        0.31393        0.31419        0.30314        0.28609        0.26807        0.25052        0.24312        0.28651        0.32814        0.31162        0.32704        0.32750        0.36900        0.23873        0.20894        0.27791        0.26904        0.29205        0.30512        0.32707        0.27268        0.30336        0.27867        0.23621        0.28291        0.27867        0.23607        0.20257        0.26417        0.26770        0.23720        0.30712        0.28780        0.36417        0.34229        0.28960        0.29871        0.24083        0.27536        0.30764        0.26897        0.16695        0.21843        0.25888        0.20911        0.27035        0.18239        0.14044       -0.50549       -0.85908
2.674765 2.646383 2.618154 2.590079 2.562158 2.534391 2.506778 2.479319 2.452014 2.424863 2.397865 2.371022 2.344332 2.317796 2.291414 2.265186 2.239112 2.213192 2.187425 2.161813 2.136354 2.111050 2.085899 2.060902 2.036059 2.011370 1.986835 1.962453 1.938226 1.914152 1.890232 1.866467 1.842855 1.819397 1.796093 1.772942 1.749946 1.727104 1.704415 1.681880 1.659499 1.637273 1.615200 1.593280 1.571515 1.549904 1.528446 1.507143 1.485993 1.464997 1.444155 1.504710 1.813038 1.493993 1.181641 0.936026 0.543448 0.903977 0.639894 0.840390 0.907764 0.594705 0.669906 0.782641 0.823717 0.609423 0.524343 0.362182 0.092853 0.051128 0.029872 0.040981 0.293469 -0.042676 0.060243 -0.119715 -0.025103 -0.014820 0.051761 0.076662 0.110415 0.182016 0.275117 0.246830 0.463128 0.385756 0.532385 0.532172 0.778148 0.781614 0.883226 0.938235 0.919307 0.951540 1.095605 0.990080 1.118440 0.925321 0.847413 0.999739 0.830660 0.759859 0.655901 0.562035 0.456657 0.429609 0.497793 0.256661 0.202686 0.164243 0.011729 0.184527 -0.022314 0.118125 0.157727 0.236818 0.329234 0.335509 0.434870 0.540881 0.679416 0.518967 0.723253 0.828219 0.613921 0.715371 0.678152 0.565615 0.519881 0.440428 0.311049 0.214835 0.123206 -0.020620 -0.021540 0.044544 -0.065410 -0.038865 0.069346 0.029343 0.093029 0.211445 0.227842 0.313546 0.422572 0.429620 0.442475 0.446837 0.462320 0.334027 0.327011 0.236083 0.054899 0.065864 0.019516 -0.030273 -0.091170 -0.084132 -0.026573 -0.007719 0.085872 0.141424 0.154284 0.244897 0.217319 0.248905 0.264545 0.224297 0.230162 0.216689 0.128566 0.122544 0.131766 0.037089 0.022805 -0.103081 -0.026326 0.001446 0.000111 0.024239 0.114893 0.082354 0.139298 0.207224 0.254770 0.166401 0.207106 0.109182 0.137757 0.040107 -0.024375 0.021680 0.003051 0.013958 0.007982 0.070016 0.072726 0.075188 0.165744 0.137887 0.162637 0.110011 0.205383 0.103363 0.026584 -0.024416 -0.018280 -0.015597 -0.037652 -0.008746 0.087692 0.071834 0.003026 0.114845 0.088814 0.075699 0.165588 0.092560 0.098856 0.067678 -0.015792 0.035252 0.020851 0.025350 0.036858 0.025029 0.059846 0.082174 0.086270 0.053613 0.052589 0.014446 0.092675 0.006171 0.015640 0.037690 0.030313 0.055500 0.057983 0.066176 0.089568 0.041681 0.024070 0.056782 0.014193 -0.049900 -0.022245 -0.005340 0.000780 0.023871 0.101050 -0.024244 0.043930 0.060494 0.008372 0.059678 0.023410 -0.001756 0.004483 0.017741 0.015405 0.089954 0.018676 0.074232 0.044098 0.115082 0.083480 0.076125 0.085495 0.059091 0.001552 0.086034 0.066233 0.034223 0.115008 0.059969 0.051023 0.057416 0.093224 0.049600 0.008824 -0.062573 0.035297 0.111362 0.092065 0.080418 0.028405 0.009079 0.026409 0.024811 -0.037066 0.042519 0.034116 0.072898 0.064782 -0.017884 0.050775 0.001525 0.047438 0.023915 0.005787 -0.021997 0.069787 0.126930 0.035095 0.039153 0.064894 0.005641 -0.051208 0.012705 -0.006566 -0.056658 -0.107281 -0.035177 -0.027465 0.006618 -0.035788 -0.040736 -0.027007 -0.058699 -0.034165 -0.048176 0.051824 0.029643 0.030931 0.042254 0.115423 -0.087367 -0.069498 -0.002883 -0.030461 0.033067 0.012629 0.075116 -0.038965 0.020482 0.007650 -0.042844 0.022596 0.025436 -0.047306 -0.116748 -0.000689 0.032596 -0.057256 0.042389 0.013241 0.156707 0.063623 0.041324 0.058118 -0.025726 0.009823 0.329961 0.317585 0.204492 0.263828 0.281191 0.253422 0.302956 0.098814 0.170830 -0.996216
0.072396 0.072911 0.074454 0.077025 0.080624 0.085251 0.090902 0.097577 0.105274 0.113990 0.123720 0.134461 0.146207 0.158950 0.172683 0.187397 0.203078 0.219714 0.237289 0.255783 0.275177 0.295444 0.316559 0.338488 0.361197 0.384647 0.408792 0.433584 0.458969 0.484887 0.511273 0.538056 0.565157 0.592492 0.619972 0.647497 0.674964 0.702261 0.729269 0.755861 0.781905 0.807259 0.831778 0.855308 0.877689 0.898756 0.918338 0.936260 0.952343 0.966406 0.978265 0.987735 0.994633 0.998775 0.999984 0.998084 0.992908 0.984297 0.972102 0.956187 0.936428 0.912722 0.884983 0.853145 0.817167 0.777036 0.732764 0.684397 0.632010 0.575718 0.515669 0.452050 0.385090 0.315057 0.242262 0.167057 0.089839 0.011045 0.068846 0.149319 0.229816 0.309750 0.388500 0.465419 0.539837 0.611070 0.678420 0.741190 0.798683 0.850217 0.895130 0.932791 0.962608 0.984039 0.996602 0.999887 0.993561 0.977382 0.951209 0.915005 0.868852 0.812953 0.747640 0.673376 0.590759 0.500520 0.403527 0.300777 0.193387 0.082594 0.030264 0.143757 0.256382 0.366578 0.472753 0.573299 0.666626 0.751182 0.825484 0.888149 0.937916 0.973685 0.994536 0.999763 0.988893 0.961712 0.918283 0.858956 0.784384 0.695522 0.593626 0.480248 0.357216 0.226617 0.090764 0.047839 0.186536 0.322571 0.453141 0.575452 0.686788 0.784566 0.866408 0.930202 0.974165 0.996902 0.997456 0.975354 0.930642 0.863906 0.776288 0.669477 0.545698 0.407676 0.258589 0.102006 0.058192 0.217904 0.372905 0.518966 0.651968 0.768020 0.863588 0.935606 0.981594 0.999748 0.989030 0.949232 0.881012 0.785917 0.666368 0.525620 0.367696 0.197281 0.019606 0.159715 0.334847 0.499927 0.649265 0.777546 0.880028 0.952736 0.992634 0.997769 0.967384 0.901994 0.803416 0.674747 0.520301 0.345482 0.156621 0.039234 0.234583 0.421744 0.593158 0.741711 0.861029 0.945781 0.991937 0.996983 0.960084 0.882180 0.766010 0.616050 0.438378 0.240459 0.030845 0.181162 0.385933 0.573933 0.736184 0.864704 0.952924 0.996055 0.991381 0.938457 0.839212 0.697925 0.521093 0.317159 0.096154 0.130782 0.351947 0.555675 0.730963 0.868078 0.959137 0.998585 0.983579 0.914233 0.793698 0.628084 0.426192 0.199100 0.040421 0.278599 0.501445 0.695586 0.849075 0.952171 0.997986 0.983006 0.907399 0.775115 0.593749 0.374161 0.129874 0.123722 0.370320 0.593739 0.779004 0.913369 0.987248 0.994944 0.935155 0.811176 0.630809 0.405930 0.151779 0.114042 0.372762 0.605751 0.795882 0.928834 0.994203 0.986398 0.905174 0.755801 0.548804 0.299296 0.025945 0.250397 0.508258 0.727222 0.889567 0.981771 0.995682 0.929333 0.787252 0.580260 0.324729 0.041357 0.246452 0.514508 0.739874 0.902856 0.988784 0.989415 0.903812 0.738595 0.507556 0.230581 0.067974 0.361393 0.622964 0.828445 0.958346 0.999869 0.948253 0.807418 0.589799 0.315348 0.009803 0.297665 0.577225 0.801285 0.947263 0.999950 0.953193 0.810724 0.586002 0.301067 0.015519 0.331495 0.614130 0.833665 0.966487 0.997765 0.923230 0.749861 0.495371 0.186547 0.143506 0.458835 0.724561 0.910768 0.995964 0.969668 0.833841 0.602923 0.302443 0.033670 0.366869 0.658361 0.873657 0.986734 0.983298 0.862734 0.638460 0.336606 0.006910 0.350551 0.652167 0.874184 0.988364 0.979532 0.847743 0.608584 0.291509 0.063654 0.411620 0.707388 0.912105 0.998273 0.953581 0.782841 0.507686 0.164001 0.202632 0.542875 0.810325 0.967864 0.992963
1.000000 1.000000 1.000000 1.000000 1.000000 1.000000 1.000000 1.000000 1.000000 1.000000 1.000000 1.000000 1.000000 1.000000 1.000000 1.000000 1.000000 1.000000 1.000000 1.000000 1.000000 1.000000 1.000000 1.000000 1.000000 1.000000 1.000000 1.000000 1.000000 1.000000 1.000000 1.000000 1.000000 1.000000 1.000000 1.000000 1.000000 1.000000 1.000000 1.000000 1.000000 1.000000 1.000000 1.000000 1.000000 1.000000 1.000000 1.000000 1.000000 1.000000 1.000000 1.000000 0.913756 0.913756 0.903026 0.903026 0.903026 0.903026 0.903026 0.903026 0.903026 0.903026 0.903026 0.903026 0.903026 0.903026 0.903026 0.903026 0.903026 0.903026 0.903026 0.903026 0.903026 0.903026 0.903026 0.903026 0.903026 0.903026 0.903026 0.903026 0.903026 0.903026 0.903026 0.903026 0.903026 0.903026 0.903026 0.903026 0.903026 0.903026 0.903026 0.903026 0.903026 0.903026 0.903026 0.898533 0.903707 0.906261 0.904920 0.908450 0.908494 0.906620 0.906023 0.905694 0.906071 0.907515 0.917981 0.928941 0.939872 0.941300 0.946537 0.950720 0.954140 0.954939 0.958742 0.969096 0.966418 0.965975 0.966640 0.967989 0.970015 0.970191 0.971535 0.970815 0.971425 0.971504 0.971089 0.970519 0.969968 0.969757 0.969426 0.969542 0.970939 0.971411 0.970999 0.971062 0.971202 0.969318 0.968083 0.962963 0.965679 0.966988 0.966925 0.965724 0.963564 0.967358 0.967872 0.967687 0.967718 0.967415 0.967698 0.957609 0.955392 0.955478 0.951149 0.950179 0.947260 0.945800 0.945288 0.945950 0.945986 0.946609 0.942920 0.929832 0.921032 0.906146 0.925054 0.918109 0.902325 0.881717 0.879821 0.875051 0.874230 0.867954 0.858611 0.855580 0.853073 0.855481 0.859884 0.863831 0.859628 0.850400 0.853474 0.845814 0.807046 0.797237 0.785848 0.776986 0.775376 0.776481 0.771833 0.765640 0.774303 0.768024 0.764641 0.755611 0.742040 0.718228 0.706438 0.715286 0.722611 0.736777 0.731684 0.708722 0.657338 0.673140 0.686828 0.688457 0.690408 0.688715 0.682926 0.684364 0.685599 0.681286 0.676465 0.676926 0.676633 0.687084 0.687878 0.671936 0.668527 0.659285 0.648043 0.623005 0.629835 0.640984 0.618858 0.613704 0.606409 0.602721 0.612799 0.621975 0.627509 0.603555 0.581166 0.575957 0.562016 0.566147 0.571788 0.572298 0.565314 0.586194 0.579039 0.604689 0.570565 0.566366 0.565876 0.578792 0.558988 0.559688 0.556890 0.555614 0.557131 0.581811 0.586988 0.573140 0.561631 0.556338 0.557392 0.542551 0.549658 0.584784 0.563615 0.514893 0.479470 0.476306 0.436788 0.425974 0.390813 0.372421 0.336052 0.323901 0.313793 0.297374 0.297193 0.259980 0.221813 0.210878 0.213352 0.227691 0.246489 0.249389 0.236421 0.270554 0.309382 0.306583 0.295408 0.238834 0.233801 0.232393 0.213944 0.185605 0.172046 0.155702 0.181463 0.129952 0.124200 0.118954 0.113888 0.125305 0.121775 0.123181 0.077538 0.076021 0.100875 0.121070 0.105281 0.101137 0.056867 0.024350 0.026843 0.037804 0.005755 -0.001675 0.018893 0.028778 0.047729 -0.005306 0.000861 0.007601 0.007706 -0.007249 -0.007180 0.031282 0.073218 0.074748 0.079597 0.114722 0.099009 0.097482 0.092306 0.047410 0.031307 -0.019940 -0.042549 -0.042549 -0.025054 -0.025054 -0.025054 -0.025054 -0.025054 -0.025054 -0.025054 -0.025054 -0.025054 -0.028326 -0.028326 -0.028326 -0.028326 -0.028326 -0.028326 -0.028326 -0.028326 -0.028326 -0.020396 -0.020396 -0.020396 -0.020396 -0.020396 -0.020396 -0.020396 -0.020396 -0.020396
0.000000 0.000000 0.000000 0.000000 0.000000 0.000000 0.000000 0.000000 0.000000 0.000000 0.000000 0.000000 0.000000 0.000000 0.000000 0.000000 0.000000 0.000000 0.000000 0.000000 0.000000 0.000000 0.000000 0.000000 0.000000 0.000000 0.000000 0.000000 0.000000 0.000000 0.000000 0.000000 0.000000 0.000000 0.000000 0.000000 0.000000 0.000000 0.000000 0.000000 0.000000 0.000000 0.000000 0.000000 0.000000 0.000000 0.000000 0.000000 0.000000 0.000000 0.000000 0.000000 0.181818 0.181818 0.199007 0.199007 0.199007 0.199007 0.199007 0.199007 0.199007 0.199007 0.199007 0.199007 0.199007 0.199007 0.199007 0.199007 0.199007 0.199007 0.199007 0.199007 0.199007 0.199007 0.199007 0.199007 0.199007 0.199007 0.199007 0.199007 0.199007 0.199007 0.199007 0.199007 0.199007 0.199007 0.199007 0.199007 0.199007 0.199007 0.199007 0.199007 0.199007 0.199007 0.199007 0.230940 0.230940 0.230940 0.230940 0.230940 0.230940 0.230940 0.230940 0.230940 0.230940 0.230940 0.230940 0.230940 0.230940 0.230940 0.230940 0.230940 0.230940 0.230940 0.230940 0.230940 0.230940 0.230940 0.230940 0.230940 0.230940 0.230940 0.230940 0.244339 0.244339 0.244339 0.244339 0.244339 0.244339 0.244339 0.244339 0.244339 0.244339 0.244339 0.244339 0.244339 0.244339 0.244339 0.244339 0.244339 0.244339 0.244339 0.244339 0.244339 0.244339 0.244339 0.251976 0.251976 0.251976 0.251976 0.251976 0.251976 0.251976 0.251976 0.251976 0.251976 0.251976 0.251976 0.251976 0.251976 0.251976 0.251976 0.251976 0.251976 0.251976 0.251976 0.264906 0.264906 0.264906 0.264906 0.264906 0.264906 0.264906 0.264906 0.264906 0.264906 0.264906 0.264906 0.264906 0.264906 0.264906 0.264906 0.264906 0.264906 0.264906 0.264906 0.264906 0.264906 0.264906 0.264906 0.264906 0.264906 0.264906 0.264906 0.264906 0.264906 0.264906 0.264906 0.264906 0.264906 0.264906 0.264906 0.264906 0.264906 0.264906 0.264906 0.264906 0.264906 0.264906 0.264906 0.264906 0.264906 0.264906 0.264906 0.264906 0.264906 0.264906 0.264906 0.264906 0.264906 0.264906 0.264906 0.264906 0.264906 0.264906 0.264906 0.264906 0.264906 0.264906 0.264906 0.264906 0.264906 0.264906 0.264906 0.264906 0.264906 0.264906 0.264906 0.264906 0.264906 0.264906 0.269680 0.269680 0.269680 0.269680 0.269680 0.269680 0.269680 0.269680 0.269680 0.269680 0.269680 0.269680 0.264906 0.264906 0.264906 0.264906 0.264906 0.264906 0.264906 0.264906 0.264906 0.264906 0.264906 0.264906 0.269680 0.269680 0.269680 0.269680 0.269680 0.269680 0.269680 0.269680 0.269680 0.269680 0.269680 0.264906 0.264906 0.264906 0.264906 0.264906 0.264906 0.264906 0.264906 0.264906 0.264906 0.264906 0.269680 0.269680 0.269680 0.269680 0.269680 0.269680 0.269680 0.269680 0.269680 0.269680 0.251976 0.251976 0.251976 0.251976 0.251976 0.251976 0.251976 0.251976 0.251976 0.251976 0.251976 0.269680 0.269680 0.269680 0.269680 0.269680 0.269680 0.269680 0.269680 0.269680 0.256074 0.256074 0.256074 0.256074 0.256074 0.256074 0.256074 0.256074 0.256074 0.256074 0.260378 0.260378 0.260378 0.260378 0.260378 0.260378 0.260378 0.260378 0.260378 0.256074 0.256074 0.256074 0.256074 0.256074 0.256074 0.256074 0.256074 0.256074 0.251976 0.251976 0.251976 0.251976 0.251976 0.251976 0.251976 0.251976 0.251976 0.264906 0.264906 0.264906 0.264906 0.264906 0.264906 0.264906 0.264906 0.264906
