# Output from CTFFind version 4.1.9, run on 2019-11-03 20:09:27
# Input file: stack1_bm3d_averaged_1_6.5_0_2500_half.mrc ; Number of micrographs: 1
# Pixel size: 3.000 Angstroms ; acceleration voltage: 300.0 keV ; spherical aberration: 0.00 mm ; amplitude contrast: 0.07
# Box size: 512 pixels ; min. res.: 30.0 Angstroms ; max. res.: 5.0 Angstroms ; min. def.: 5000.0 um; max. def. 50000.0 um; num. frames averaged: 1
# 6 lines per micrograph: #1 - spatial frequency (1/Angstroms); #2 - 1D rotational average of spectrum (assuming no astigmatism); #3 - 1D rotational average of spectrum; #4 - CTF fit; #5 - cross-correlation between spectrum and CTF fit; #6 - 2sigma of expected cross correlation of noise
0.000000 0.000651 0.001302 0.001953 0.002604 0.003255 0.003906 0.004557 0.005208 0.005859 0.006510 0.007161 0.007812 0.008464 0.009115 0.009766 0.010417 0.011068 0.011719 0.012370 0.013021 0.013672 0.014323 0.014974 0.015625 0.016276 0.016927 0.017578 0.018229 0.018880 0.019531 0.020182 0.020833 0.021484 0.022135 0.022786 0.023438 0.024089 0.024740 0.025391 0.026042 0.026693 0.027344 0.027995 0.028646 0.029297 0.029948 0.030599 0.031250 0.031901 0.032552 0.033203 0.033854 0.034505 0.035156 0.035807 0.036458 0.037109 0.037760 0.038411 0.039062 0.039714 0.040365 0.041016 0.041667 0.042318 0.042969 0.043620 0.044271 0.044922 0.045573 0.046224 0.046875 0.047526 0.048177 0.048828 0.049479 0.050130 0.050781 0.051432 0.052083 0.052734 0.053385 0.054036 0.054688 0.055339 0.055990 0.056641 0.057292 0.057943 0.058594 0.059245 0.059896 0.060547 0.061198 0.061849 0.062500 0.063151 0.063802 0.064453 0.065104 0.065755 0.066406 0.067057 0.067708 0.068359 0.069010 0.069661 0.070312 0.070964 0.071615 0.072266 0.072917 0.073568 0.074219 0.074870 0.075521 0.076172 0.076823 0.077474 0.078125 0.078776 0.079427 0.080078 0.080729 0.081380 0.082031 0.082682 0.083333 0.083984 0.084635 0.085286 0.085938 0.086589 0.087240 0.087891 0.088542 0.089193 0.089844 0.090495 0.091146 0.091797 0.092448 0.093099 0.093750 0.094401 0.095052 0.095703 0.096354 0.097005 0.097656 0.098307 0.098958 0.099609 0.100260 0.100911 0.101562 0.102214 0.102865 0.103516 0.104167 0.104818 0.105469 0.106120 0.106771 0.107422 0.108073 0.108724 0.109375 0.110026 0.110677 0.111328 0.111979 0.112630 0.113281 0.113932 0.114583 0.115234 0.115885 0.116536 0.117188 0.117839 0.118490 0.119141 0.119792 0.120443 0.121094 0.121745 0.122396 0.123047 0.123698 0.124349 0.125000 0.125651 0.126302 0.126953 0.127604 0.128255 0.128906 0.129557 0.130208 0.130859 0.131510 0.132161 0.132812 0.133464 0.134115 0.134766 0.135417 0.136068 0.136719 0.137370 0.138021 0.138672 0.139323 0.139974 0.140625 0.141276 0.141927 0.142578 0.143229 0.143880 0.144531 0.145182 0.145833 0.146484 0.147135 0.147786 0.148438 0.149089 0.149740 0.150391 0.151042 0.151693 0.152344 0.152995 0.153646 0.154297 0.154948 0.155599 0.156250 0.156901 0.157552 0.158203 0.158854 0.159505 0.160156 0.160807 0.161458 0.162109 0.162760 0.163411 0.164062 0.164714 0.165365 0.166016 0.166667 0.167318 0.167969 0.168620 0.169271 0.169922 0.170573 0.171224 0.171875 0.172526 0.173177 0.173828 0.174479 0.175130 0.175781 0.176432 0.177083 0.177734 0.178385 0.179036 0.179688 0.180339 0.180990 0.181641 0.182292 0.182943 0.183594 0.184245 0.184896 0.185547 0.186198 0.186849 0.187500 0.188151 0.188802 0.189453 0.190104 0.190755 0.191406 0.192057 0.192708 0.193359 0.194010 0.194661 0.195312 0.195964 0.196615 0.197266 0.197917 0.198568 0.199219 0.199870 0.200521 0.201172 0.201823 0.202474 0.203125 0.203776 0.204427 0.205078 0.205729 0.206380 0.207031 0.207682 0.208333 0.208984 0.209635 0.210286 0.210938 0.211589 0.212240 0.212891 0.213542 0.214193 0.214844 0.215495 0.216146 0.216797 0.217448 0.218099 0.218750 0.219401 0.220052 0.220703 0.221354 0.222005 0.222656 0.223307 0.223958 0.224609 0.225260 0.225911 0.226562 0.227214 0.227865 0.228516 0.229167 0.229818 0.230469 0.231120 0.231771 0.232422 0.233073 0.233724 0.234375 0.235026 0.235677
       0.34818        0.34818        0.34818        0.34818        0.34818        0.34818        0.34818        0.34818        0.34818        0.34818        0.34818        0.34818        0.34818        0.34818        0.34818        0.34818        0.34818        0.34818        0.34818        0.34818        0.34818        0.34818        0.34818        0.34818        0.34818        0.34818        0.34818        0.34818        0.34818        0.34818        0.34818        0.34818        0.34818        0.34818        0.34818        0.34818        0.34818        0.34818        0.34818        0.34818        0.34818        0.34818        0.34818        0.34818        0.34818        0.34818        0.34818        0.34818        0.34818        0.34818        0.34818        0.35965        0.51520        0.23768        0.08902       -0.00107       -0.27133       -0.11121       -0.16521       -0.22158        0.01323       -0.14135       -0.08308       -0.06090       -0.04328       -0.12720       -0.15838       -0.26379       -0.32790       -0.44247       -0.37748       -0.27617       -0.23566       -0.33437       -0.25165       -0.32185       -0.28698       -0.31340       -0.14623       -0.15412       -0.21803       -0.04720        0.01399       -0.03167        0.07905        0.03223        0.22325        0.24344        0.33931        0.35476        0.39998        0.43865        0.51162        0.57186        0.59284        0.52162        0.49286        0.51156        0.46573        0.53704        0.45761        0.41535        0.41537        0.34872        0.29771        0.30932        0.33752        0.23189        0.19723        0.12290        0.14716        0.15952        0.18495        0.15667        0.22547        0.27571        0.31339        0.29906        0.37694        0.46792        0.40153        0.48981        0.60971        0.57402        0.53036        0.55912        0.59881        0.42007        0.48689        0.38947        0.32006        0.29929        0.28026        0.25646        0.18738        0.18354        0.14713        0.20989        0.26157        0.29100        0.34879        0.30943        0.41463        0.44136        0.46349        0.47692        0.48933        0.52640        0.47032        0.44191        0.41346        0.34254        0.33052        0.30639        0.31828        0.25028        0.23958        0.26315        0.24747        0.27194        0.32739        0.43277        0.44824        0.42594        0.41730        0.48117        0.47348        0.46879        0.46143        0.38053        0.37049        0.40726        0.37008        0.30685        0.29538        0.32583        0.29127        0.30312        0.29823        0.31971        0.35723        0.38406        0.44559        0.46326        0.37200        0.45401        0.42964        0.36466        0.30468        0.35817        0.33117        0.31124        0.33005        0.27643        0.27300        0.32216        0.33881        0.44526        0.41494        0.37312        0.38481        0.42678        0.36181        0.35922        0.33725        0.33961        0.29345        0.29096        0.29694        0.37028        0.37686        0.34191        0.35022        0.40069        0.39769        0.45653        0.40560        0.35983        0.33931        0.34383        0.33051        0.31992        0.34343        0.39248        0.36332        0.36833        0.33222        0.44128        0.36909        0.34958        0.33527        0.37826        0.37709        0.32138        0.32130        0.28985        0.31277        0.33387        0.31333        0.33258        0.34298        0.36126        0.34928        0.33949        0.30327        0.29936        0.28727        0.33785        0.33174        0.35248        0.31020        0.34908        0.35328        0.33949        0.33681        0.30843        0.28498        0.32627        0.32662        0.32847        0.31915        0.31199        0.32454        0.32894        0.33611        0.34386        0.37550        0.34380        0.28347        0.32579        0.32017        0.33191        0.33510        0.27993        0.32452        0.29546        0.32228        0.31272        0.38299        0.33215        0.30684        0.27857        0.29523        0.37679        0.35634        0.32723        0.33404        0.31131        0.31728        0.33355        0.33086        0.28953        0.32175        0.26582        0.27231        0.29639        0.30387        0.30329        0.31955        0.23330        0.29458        0.34379        0.35946        0.35349        0.32506        0.31616        0.29960        0.31929        0.31522        0.25731        0.29792        0.28588        0.32533        0.33215        0.36475        0.35864        0.31557        0.31552        0.34308        0.32861        0.31918        0.33569        0.34057        0.27549        0.29489        0.33275        0.32645        0.24484        0.19975        0.22587        0.28581        0.30479        0.30396        0.26106        0.29625        0.28696        0.24328        0.26425        0.27456        0.22381        0.27259        0.28764        0.25515        0.20404        0.24323        0.32298        0.40119        0.28853        0.24914        0.18475        0.20347        0.29999        0.29916        0.38942        0.23137        0.20843        0.27016        0.34797        0.25042        0.10277       -0.08305       -0.54138       -0.76570
2.503354 2.477689 2.452160 2.426769 2.401513 2.376395 2.351414 2.326570 2.301862 2.277291 2.252857 2.228560 2.204399 2.180376 2.156489 2.132739 2.109126 2.085650 2.062310 2.039107 2.016042 1.993113 1.970320 1.947665 1.925146 1.902765 1.880520 1.858412 1.836440 1.814606 1.792908 1.771348 1.749924 1.728636 1.707486 1.686472 1.665596 1.644856 1.624253 1.603787 1.583457 1.563265 1.543209 1.523290 1.503508 1.483862 1.464354 1.444982 1.425747 1.406649 1.387688 1.301546 1.691008 1.385467 0.916463 0.648513 -0.104062 0.519600 0.089224 0.235119 0.571737 0.301643 0.259341 0.416918 0.350789 0.293881 0.124537 -0.029300 -0.219466 -0.425162 -0.411531 -0.292763 0.092468 -0.403932 -0.173406 -0.304752 -0.196230 -0.403887 -0.029259 -0.097366 -0.195846 0.044600 0.266131 0.048055 0.273514 0.177936 0.607195 0.482080 0.752174 0.746461 0.739097 0.993451 0.881626 1.203031 1.139444 1.063300 0.919502 0.984678 0.917148 0.884379 0.926594 0.732931 0.682427 0.611036 0.566589 0.420101 0.527279 0.401795 0.238432 0.124135 0.065794 0.120643 0.180283 0.108224 0.131875 0.323002 0.338872 0.360488 0.473530 0.539075 0.574778 0.428586 0.907013 0.878595 0.728176 0.720001 0.847281 0.579340 0.493090 0.540810 0.222471 0.270558 0.116908 0.210182 -0.015245 -0.017375 -0.098954 -0.096169 0.160315 0.051237 0.183166 0.238932 0.240917 0.404014 0.421323 0.420894 0.484891 0.518357 0.449593 0.363576 0.330588 0.214083 0.176434 0.109795 0.074056 0.049747 -0.052513 -0.031363 -0.012232 -0.042201 -0.009054 0.205843 0.397078 0.262858 0.297559 0.310943 0.499973 0.301805 0.371375 0.320287 0.185881 0.153451 0.340820 0.011456 0.055740 0.040990 0.082841 0.006235 0.105925 -0.014118 0.164718 -0.012376 0.256718 0.353760 0.257861 0.273252 0.263376 0.194767 0.060522 0.097567 0.121630 0.022533 0.018365 0.068237 -0.099165 -0.028577 0.028075 0.144497 0.336553 0.154791 0.121118 0.232498 0.170488 0.117676 0.082132 0.039408 0.064179 -0.068286 -0.018392 0.039000 0.131552 0.119170 0.037575 0.109190 0.168719 0.190412 0.329265 0.117720 0.089998 0.069480 0.031461 0.067402 0.025230 0.103189 0.182451 0.086398 0.100810 0.050037 0.290963 0.048579 0.056675 0.046266 0.124061 0.086169 -0.015170 0.016177 -0.062240 -0.011255 0.037007 0.006348 -0.001859 0.074750 0.029740 0.017736 -0.003278 -0.081525 -0.051334 -0.062788 -0.018122 0.022839 0.004607 -0.008351 0.022778 0.057037 -0.046035 0.033186 -0.068054 -0.064648 0.007336 -0.011960 0.018128 -0.000055 -0.029537 -0.010840 0.007201 0.044281 0.040215 0.141923 -0.043294 -0.059254 0.013139 0.001851 0.023591 0.022487 -0.082380 0.027732 -0.078591 0.021301 -0.002459 0.144980 -0.004030 -0.063455 -0.080333 -0.030745 0.127637 0.048563 -0.018232 0.022981 -0.021113 -0.021509 0.006520 -0.001322 -0.064182 0.014568 -0.133259 -0.096811 -0.050029 -0.016107 -0.067927 -0.075313 -0.282771 -0.014832 0.044940 0.015016 -0.007846 0.030078 -0.094783 -0.062461 -0.059870 -0.065163 -0.124393 -0.092654 -0.129563 -0.028521 0.017234 0.030407 0.013258 -0.036434 -0.012075 -0.035404 0.045095 -0.082397 0.023789 0.022808 -0.100670 -0.033127 0.023540 -0.029303 -0.155564 -0.263164 -0.134174 0.063045 0.021947 -0.050618 -0.073515 0.066872 0.010537 -0.192502 0.015252 -0.013206 -0.126638 0.041423 0.025599 -0.001351 -0.139032 0.014545 0.033932 0.330962 0.057056 0.063410 -0.194379 -0.044559 0.158765 0.101257 0.345123 0.327501 0.452298 0.535139 0.717819 0.362221 0.135099 -0.148465 -1.459111
0.072396 0.072905 0.074433 0.076979 0.080542 0.085122 0.090717 0.097326 0.104946 0.113574 0.123208 0.133842 0.145471 0.158089 0.171687 0.186256 0.201784 0.218259 0.235664 0.253982 0.273191 0.293269 0.314188 0.335918 0.358424 0.381667 0.405605 0.430191 0.455371 0.481087 0.507276 0.533868 0.560789 0.587955 0.615279 0.642666 0.670014 0.697214 0.724149 0.750698 0.776730 0.802108 0.826690 0.850325 0.872857 0.894124 0.913960 0.932194 0.948649 0.963147 0.975508 0.985550 0.993092 0.997953 0.999956 0.998928 0.994702 0.987119 0.976028 0.961292 0.942785 0.920400 0.894046 0.863651 0.829169 0.790576 0.747876 0.701104 0.650323 0.595634 0.537170 0.475102 0.409641 0.341038 0.269582 0.195607 0.119486 0.041634 0.037491 0.117397 0.197549 0.277382 0.356295 0.433661 0.508831 0.581134 0.649889 0.714407 0.774000 0.827991 0.875716 0.916539 0.949859 0.975117 0.991811 0.999502 0.997824 0.986496 0.965328 0.934234 0.893236 0.842472 0.782206 0.712827 0.634856 0.548945 0.455880 0.356573 0.252065 0.143511 0.032176 0.080579 0.193311 0.304511 0.412628 0.516082 0.613294 0.702710 0.782827 0.852220 0.909572 0.953702 0.983592 0.998416 0.997563 0.980664 0.947607 0.898558 0.833970 0.754592 0.661473 0.555953 0.439655 0.314471 0.182534 0.046189 0.092043 0.229510 0.363475 0.491175 0.609874 0.716929 0.809848 0.886359 0.944468 0.982519 0.999253 0.993852 0.965982 0.915826 0.844099 0.752062 0.641511 0.514758 0.374599 0.224258 0.067327 0.092316 0.250594 0.403338 0.546392 0.675735 0.787593 0.878563 0.945725 0.986748 0.999982 0.984539 0.940353 0.868212 0.769773 0.647548 0.504858 0.345764 0.174961 0.002341 0.180574 0.353976 0.516785 0.663423 0.788704 0.888025 0.957553 0.994384 0.996691 0.963827 0.896394 0.796270 0.666586 0.511659 0.336867 0.148489 0.046511 0.240730 0.426599 0.596684 0.743986 0.862247 0.946233 0.991985 0.997033 0.960554 0.883466 0.768444 0.619874 0.443712 0.247279 0.038973 0.172065 0.376352 0.564483 0.727574 0.857696 0.948285 0.994495 0.993499 0.944685 0.849762 0.712750 0.539858 0.339236 0.120625 0.105092 0.326421 0.531833 0.710376 0.852277 0.949500 0.996233 0.989284 0.928329 0.816022 0.657936 0.462342 0.239814 0.002691 0.235577 0.461190 0.660798 0.822305 0.935630 0.993378 0.991368 0.928985 0.809316 0.639072 0.428269 0.189682 0.061880 0.310482 0.540054 0.735444 0.883445 0.973720 0.999576 0.958521 0.852546 0.688116 0.475837 0.229850 0.033081 0.294684 0.536412 0.740798 0.892724 0.980596 0.997276 0.940743 0.814362 0.626789 0.391443 0.125621 0.150741 0.416514 0.651011 0.835614 0.955279 0.999841 0.964941 0.852527 0.670855 0.433979 0.160721 0.126739 0.404658 0.649668 0.840776 0.961195 0.999900 0.952716 0.822846 0.620773 0.363514 0.073254 0.224487 0.503090 0.737223 0.905158 0.990871 0.985650 0.889074 0.709249 0.462246 0.170756 0.137911 0.434355 0.689871 0.879267 0.983404 0.991220 0.901016 0.720835 0.467881 0.166964 0.151821 0.456086 0.714421 0.899673 0.991879 0.980514 0.865811 0.658979 0.381233 0.061737 0.265378 0.564634 0.803056 0.953862 0.999565 0.934129 0.763883 0.507075 0.192044 0.145799 0.467892 0.736928 0.921196 0.998432 0.958624 0.805452 0.556132 0.239637 0.106564 0.440846 0.722451 0.916468 0.998272 0.956783 0.796114 0.535367 0.206520 0.149371 0.487216 0.763611 0.942455 0.999777 0.927101 0.732874 0.441652 0.091193 0.272338 0.600382 0.848507
1.000000 1.000000 1.000000 1.000000 1.000000 1.000000 1.000000 1.000000 1.000000 1.000000 1.000000 1.000000 1.000000 1.000000 1.000000 1.000000 1.000000 1.000000 1.000000 1.000000 1.000000 1.000000 1.000000 1.000000 1.000000 1.000000 1.000000 1.000000 1.000000 1.000000 1.000000 1.000000 1.000000 1.000000 1.000000 1.000000 1.000000 1.000000 1.000000 1.000000 1.000000 1.000000 1.000000 1.000000 1.000000 1.000000 1.000000 1.000000 1.000000 1.000000 1.000000 1.000000 0.798240 0.798240 0.798240 0.784320 0.784320 0.784320 0.784320 0.784320 0.784320 0.784320 0.784320 0.784320 0.784320 0.784320 0.784320 0.784320 0.784320 0.784320 0.784320 0.784320 0.784320 0.784320 0.784320 0.784320 0.784320 0.784320 0.784320 0.784320 0.784320 0.784320 0.784320 0.784320 0.784320 0.784320 0.784320 0.784320 0.784320 0.784320 0.784320 0.784320 0.784320 0.784320 0.784320 0.784320 0.813064 0.822458 0.826206 0.829916 0.830915 0.827757 0.826306 0.825439 0.825275 0.826613 0.833716 0.858910 0.876622 0.880663 0.893041 0.896690 0.900987 0.902801 0.916037 0.915333 0.955566 0.954691 0.954787 0.956249 0.954578 0.950467 0.948398 0.948805 0.956356 0.951776 0.948216 0.946516 0.944849 0.941281 0.942409 0.942090 0.941199 0.941731 0.935874 0.936517 0.936642 0.934349 0.931883 0.920737 0.914742 0.914575 0.914605 0.892731 0.884586 0.872380 0.858752 0.879145 0.871695 0.854384 0.853100 0.830717 0.833330 0.833323 0.826931 0.823991 0.820886 0.815855 0.805981 0.806622 0.805483 0.815391 0.818824 0.821041 0.812897 0.794953 0.771846 0.756384 0.755664 0.756471 0.746717 0.751749 0.753279 0.751586 0.749106 0.747499 0.740835 0.750698 0.752082 0.748186 0.741202 0.738951 0.723886 0.721127 0.712439 0.691342 0.675630 0.669344 0.670318 0.654082 0.643773 0.644490 0.649618 0.656017 0.665738 0.659784 0.655373 0.635007 0.612183 0.571161 0.586061 0.590262 0.569002 0.557973 0.544178 0.582508 0.605585 0.627747 0.646188 0.651762 0.656515 0.634397 0.598742 0.601109 0.602501 0.603201 0.603014 0.592012 0.596079 0.613080 0.586478 0.549364 0.545693 0.541433 0.550125 0.566940 0.534840 0.531707 0.492829 0.476182 0.454341 0.438518 0.396151 0.388063 0.388676 0.396523 0.371264 0.365963 0.370862 0.396075 0.384753 0.385443 0.374827 0.367112 0.338715 0.330425 0.332067 0.321487 0.309837 0.256291 0.220898 0.206269 0.224798 0.227584 0.270692 0.288937 0.280911 0.251479 0.255665 0.289889 0.310583 0.322469 0.331688 0.309330 0.293025 0.195465 0.228649 0.222374 0.235211 0.248636 0.273972 0.222360 0.207213 0.174389 0.131907 0.103759 0.079894 0.054350 0.090605 0.059211 0.028548 0.062801 0.042898 0.061274 0.041113 0.036958 0.044852 0.044473 0.002786 0.002817 0.011385 0.018787 0.001261 -0.029267 0.007629 0.009925 0.011305 0.025142 -0.009563 0.008671 -0.019390 -0.053011 -0.058982 -0.072688 -0.092409 -0.066042 -0.056454 -0.034764 -0.044313 -0.055244 -0.046947 -0.060779 -0.140526 -0.202110 -0.194414 -0.197125 -0.181581 -0.213190 -0.196872 -0.217948 -0.220895 -0.227415 -0.141526 -0.158024 -0.168479 -0.170205 -0.190854 -0.213604 -0.164217 -0.143312 -0.139393 -0.172326 -0.163296 -0.163296 -0.163296 -0.163296 -0.163296 -0.163296 -0.155351 -0.155351 -0.155351 -0.155351 -0.155351 -0.155351 -0.155351 -0.155351 -0.155351 -0.091477 -0.091477 -0.091477 -0.091477 -0.091477 -0.091477 -0.091477 -0.091477 -0.091477 -0.091477 -0.091477 -0.091477 -0.091477 -0.091477 -0.091477 -0.091477
0.000000 0.000000 0.000000 0.000000 0.000000 0.000000 0.000000 0.000000 0.000000 0.000000 0.000000 0.000000 0.000000 0.000000 0.000000 0.000000 0.000000 0.000000 0.000000 0.000000 0.000000 0.000000 0.000000 0.000000 0.000000 0.000000 0.000000 0.000000 0.000000 0.000000 0.000000 0.000000 0.000000 0.000000 0.000000 0.000000 0.000000 0.000000 0.000000 0.000000 0.000000 0.000000 0.000000 0.000000 0.000000 0.000000 0.000000 0.000000 0.000000 0.000000 0.000000 0.000000 0.180334 0.180334 0.180334 0.199007 0.199007 0.199007 0.199007 0.199007 0.199007 0.199007 0.199007 0.199007 0.199007 0.199007 0.199007 0.199007 0.199007 0.199007 0.199007 0.199007 0.199007 0.199007 0.199007 0.199007 0.199007 0.199007 0.199007 0.199007 0.199007 0.199007 0.199007 0.199007 0.199007 0.199007 0.199007 0.199007 0.199007 0.199007 0.199007 0.199007 0.199007 0.199007 0.199007 0.199007 0.230940 0.230940 0.230940 0.230940 0.230940 0.230940 0.230940 0.230940 0.230940 0.230940 0.230940 0.230940 0.230940 0.230940 0.230940 0.230940 0.230940 0.230940 0.230940 0.230940 0.230940 0.230940 0.230940 0.230940 0.230940 0.230940 0.230940 0.230940 0.244339 0.244339 0.244339 0.244339 0.244339 0.244339 0.244339 0.244339 0.244339 0.244339 0.244339 0.244339 0.244339 0.244339 0.244339 0.244339 0.244339 0.244339 0.244339 0.244339 0.244339 0.244339 0.244339 0.256074 0.256074 0.256074 0.256074 0.256074 0.256074 0.256074 0.256074 0.256074 0.256074 0.256074 0.256074 0.256074 0.256074 0.256074 0.256074 0.256074 0.256074 0.256074 0.256074 0.256074 0.256074 0.256074 0.256074 0.256074 0.256074 0.256074 0.256074 0.256074 0.256074 0.256074 0.256074 0.256074 0.256074 0.256074 0.256074 0.256074 0.264906 0.264906 0.264906 0.264906 0.264906 0.264906 0.264906 0.264906 0.264906 0.264906 0.264906 0.264906 0.264906 0.264906 0.264906 0.264906 0.264906 0.264906 0.264906 0.264906 0.264906 0.264906 0.264906 0.264906 0.264906 0.264906 0.264906 0.264906 0.264906 0.264906 0.264906 0.264906 0.264906 0.264906 0.264906 0.264906 0.264906 0.264906 0.264906 0.264906 0.264906 0.264906 0.264906 0.264906 0.264906 0.264906 0.264906 0.264906 0.264906 0.264906 0.264906 0.264906 0.264906 0.264906 0.264906 0.264906 0.264906 0.264906 0.269680 0.269680 0.269680 0.269680 0.269680 0.269680 0.269680 0.269680 0.269680 0.269680 0.269680 0.269680 0.264906 0.264906 0.264906 0.264906 0.264906 0.264906 0.264906 0.264906 0.264906 0.264906 0.264906 0.264906 0.260378 0.260378 0.260378 0.260378 0.260378 0.260378 0.260378 0.260378 0.260378 0.260378 0.260378 0.260378 0.274721 0.274721 0.274721 0.274721 0.274721 0.274721 0.274721 0.274721 0.274721 0.274721 0.256074 0.256074 0.256074 0.256074 0.256074 0.256074 0.256074 0.256074 0.256074 0.256074 0.256074 0.264906 0.264906 0.264906 0.264906 0.264906 0.264906 0.264906 0.264906 0.264906 0.264906 0.260378 0.260378 0.260378 0.260378 0.260378 0.260378 0.260378 0.260378 0.260378 0.260378 0.264906 0.264906 0.264906 0.264906 0.264906 0.264906 0.264906 0.264906 0.264906 0.251976 0.251976 0.251976 0.251976 0.251976 0.251976 0.251976 0.251976 0.251976 0.251976 0.256074 0.256074 0.256074 0.256074 0.256074 0.256074 0.256074 0.256074 0.256074 0.269680 0.269680 0.269680 0.269680 0.269680 0.269680 0.269680 0.269680 0.269680 0.269680 0.269680 0.269680 0.269680 0.269680 0.269680 0.269680
