# Output from CTFFind version 4.1.9, run on 2019-11-03 20:03:51
# Input file: stack6_bm3d_averaged_1_6.0_0_250_half.mrc ; Number of micrographs: 1
# Pixel size: 3.000 Angstroms ; acceleration voltage: 300.0 keV ; spherical aberration: 0.00 mm ; amplitude contrast: 0.07
# Box size: 512 pixels ; min. res.: 30.0 Angstroms ; max. res.: 5.0 Angstroms ; min. def.: 5000.0 um; max. def. 50000.0 um; num. frames averaged: 1
# 6 lines per micrograph: #1 - spatial frequency (1/Angstroms); #2 - 1D rotational average of spectrum (assuming no astigmatism); #3 - 1D rotational average of spectrum; #4 - CTF fit; #5 - cross-correlation between spectrum and CTF fit; #6 - 2sigma of expected cross correlation of noise
0.000000 0.000651 0.001302 0.001953 0.002604 0.003255 0.003906 0.004557 0.005208 0.005859 0.006510 0.007161 0.007812 0.008464 0.009115 0.009766 0.010417 0.011068 0.011719 0.012370 0.013021 0.013672 0.014323 0.014974 0.015625 0.016276 0.016927 0.017578 0.018229 0.018880 0.019531 0.020182 0.020833 0.021484 0.022135 0.022786 0.023438 0.024089 0.024740 0.025391 0.026042 0.026693 0.027344 0.027995 0.028646 0.029297 0.029948 0.030599 0.031250 0.031901 0.032552 0.033203 0.033854 0.034505 0.035156 0.035807 0.036458 0.037109 0.037760 0.038411 0.039062 0.039714 0.040365 0.041016 0.041667 0.042318 0.042969 0.043620 0.044271 0.044922 0.045573 0.046224 0.046875 0.047526 0.048177 0.048828 0.049479 0.050130 0.050781 0.051432 0.052083 0.052734 0.053385 0.054036 0.054688 0.055339 0.055990 0.056641 0.057292 0.057943 0.058594 0.059245 0.059896 0.060547 0.061198 0.061849 0.062500 0.063151 0.063802 0.064453 0.065104 0.065755 0.066406 0.067057 0.067708 0.068359 0.069010 0.069661 0.070312 0.070964 0.071615 0.072266 0.072917 0.073568 0.074219 0.074870 0.075521 0.076172 0.076823 0.077474 0.078125 0.078776 0.079427 0.080078 0.080729 0.081380 0.082031 0.082682 0.083333 0.083984 0.084635 0.085286 0.085938 0.086589 0.087240 0.087891 0.088542 0.089193 0.089844 0.090495 0.091146 0.091797 0.092448 0.093099 0.093750 0.094401 0.095052 0.095703 0.096354 0.097005 0.097656 0.098307 0.098958 0.099609 0.100260 0.100911 0.101562 0.102214 0.102865 0.103516 0.104167 0.104818 0.105469 0.106120 0.106771 0.107422 0.108073 0.108724 0.109375 0.110026 0.110677 0.111328 0.111979 0.112630 0.113281 0.113932 0.114583 0.115234 0.115885 0.116536 0.117188 0.117839 0.118490 0.119141 0.119792 0.120443 0.121094 0.121745 0.122396 0.123047 0.123698 0.124349 0.125000 0.125651 0.126302 0.126953 0.127604 0.128255 0.128906 0.129557 0.130208 0.130859 0.131510 0.132161 0.132812 0.133464 0.134115 0.134766 0.135417 0.136068 0.136719 0.137370 0.138021 0.138672 0.139323 0.139974 0.140625 0.141276 0.141927 0.142578 0.143229 0.143880 0.144531 0.145182 0.145833 0.146484 0.147135 0.147786 0.148438 0.149089 0.149740 0.150391 0.151042 0.151693 0.152344 0.152995 0.153646 0.154297 0.154948 0.155599 0.156250 0.156901 0.157552 0.158203 0.158854 0.159505 0.160156 0.160807 0.161458 0.162109 0.162760 0.163411 0.164062 0.164714 0.165365 0.166016 0.166667 0.167318 0.167969 0.168620 0.169271 0.169922 0.170573 0.171224 0.171875 0.172526 0.173177 0.173828 0.174479 0.175130 0.175781 0.176432 0.177083 0.177734 0.178385 0.179036 0.179688 0.180339 0.180990 0.181641 0.182292 0.182943 0.183594 0.184245 0.184896 0.185547 0.186198 0.186849 0.187500 0.188151 0.188802 0.189453 0.190104 0.190755 0.191406 0.192057 0.192708 0.193359 0.194010 0.194661 0.195312 0.195964 0.196615 0.197266 0.197917 0.198568 0.199219 0.199870 0.200521 0.201172 0.201823 0.202474 0.203125 0.203776 0.204427 0.205078 0.205729 0.206380 0.207031 0.207682 0.208333 0.208984 0.209635 0.210286 0.210938 0.211589 0.212240 0.212891 0.213542 0.214193 0.214844 0.215495 0.216146 0.216797 0.217448 0.218099 0.218750 0.219401 0.220052 0.220703 0.221354 0.222005 0.222656 0.223307 0.223958 0.224609 0.225260 0.225911 0.226562 0.227214 0.227865 0.228516 0.229167 0.229818 0.230469 0.231120 0.231771 0.232422 0.233073 0.233724 0.234375 0.235026 0.235677
       0.32085        0.32085        0.32085        0.32085        0.32085        0.32085        0.32085        0.32085        0.32085        0.32085        0.32085        0.32085        0.32085        0.32085        0.32085        0.32085        0.32085        0.32085        0.32085        0.32085        0.32085        0.32085        0.32085        0.32085        0.32085        0.32085        0.32085        0.32085        0.32085        0.32085        0.32085        0.32085        0.32085        0.32085        0.32085        0.32085        0.32085        0.32085        0.32085        0.32085        0.32085        0.32085        0.32085        0.32085        0.32085        0.32085        0.32085        0.32085        0.32085        0.32085        0.32085        0.59790        0.71680        0.36053        0.17833        0.13222       -0.13967        0.10970        0.03509        0.03774        0.09148        0.30784        0.31680        0.24379        0.14410       -0.03862       -0.01249        0.04550       -0.11121       -0.11811       -0.07710       -0.08987       -0.20025       -0.13006       -0.24239       -0.26008       -0.25731       -0.31928       -0.39423       -0.32910       -0.23638       -0.20452       -0.30796       -0.22675       -0.27606       -0.21694       -0.14691       -0.09162       -0.05859        0.00441        0.04495        0.13684        0.17940        0.22062        0.34043        0.40732        0.35768        0.47080        0.54592        0.55453        0.63488        0.56487        0.59639        0.60080        0.60788        0.60631        0.55588        0.58324        0.54593        0.39284        0.33874        0.37033        0.34409        0.20172        0.18014        0.15270        0.09982        0.10198        0.02232        0.08231        0.06252        0.02288        0.11312        0.17249        0.26689        0.35246        0.35346        0.38092        0.45103        0.48601        0.41846        0.64543        0.54277        0.48264        0.57190        0.49979        0.54529        0.50742        0.37679        0.31345        0.29193        0.24297        0.23328        0.20473        0.18447        0.15173        0.23471        0.21516        0.24795        0.21612        0.26924        0.32419        0.33608        0.44569        0.43883        0.41834        0.42177        0.47331        0.43738        0.42598        0.39795        0.40020        0.33627        0.28449        0.25661        0.25728        0.25557        0.20168        0.17877        0.23435        0.24613        0.27957        0.34827        0.36966        0.41943        0.40244        0.43015        0.47066        0.46173        0.42780        0.38757        0.41458        0.37257        0.32656        0.33497        0.31992        0.26129        0.27861        0.27663        0.24316        0.31052        0.28672        0.30242        0.32670        0.38470        0.41493        0.40763        0.43333        0.37963        0.42091        0.39492        0.31525        0.29133        0.25442        0.27016        0.23509        0.20994        0.30031        0.35864        0.32541        0.29750        0.35205        0.27488        0.33421        0.38778        0.37661        0.36110        0.38209        0.33444        0.35195        0.33268        0.29410        0.28406        0.25077        0.30226        0.31511        0.33035        0.34780        0.38337        0.37380        0.37375        0.32630        0.35164        0.34882        0.33186        0.32389        0.29198        0.28707        0.25989        0.33040        0.33237        0.33157        0.30179        0.33839        0.34630        0.33346        0.35067        0.33255        0.29983        0.29635        0.29864        0.27103        0.25565        0.24657        0.24813        0.26667        0.25552        0.29591        0.28207        0.32069        0.33739        0.26426        0.29785        0.27798        0.22453        0.27596        0.25764        0.25671        0.28873        0.31350        0.31272        0.30416        0.30589        0.30312        0.32639        0.34249        0.28825        0.32057        0.31493        0.36455        0.28458        0.27226        0.27455        0.31175        0.32450        0.33978        0.35269        0.30813        0.23194        0.29314        0.25593        0.25296        0.25180        0.25655        0.29080        0.22680        0.29769        0.31856        0.35663        0.31405        0.29785        0.26219        0.28272        0.28537        0.24365        0.26758        0.27567        0.30488        0.34148        0.32689        0.29293        0.29284        0.32330        0.26486        0.23287        0.18910        0.30952        0.33630        0.34097        0.32294        0.29675        0.23362        0.21205        0.25517        0.25271        0.25324        0.27508        0.28457        0.24595        0.25720        0.24574        0.29369        0.25968        0.25838        0.26617        0.25418        0.19407        0.24853        0.24622        0.23011        0.28641        0.25013        0.25380        0.21357        0.21291        0.26716        0.24088        0.24493        0.16624        0.15242        0.31480        0.20787        0.21928        0.28030        0.17125        0.16789        0.15952        0.25289        0.21221        0.14784       -0.05550       -0.59160       -0.93633
2.339008 2.319152 2.299384 2.279705 2.260114 2.240612 2.221197 2.201872 2.182634 2.163485 2.144425 2.125452 2.106569 2.087773 2.069066 2.050447 2.031917 2.013475 1.995121 1.976856 1.958679 1.940591 1.922591 1.904679 1.886856 1.869121 1.851474 1.833916 1.816446 1.799065 1.781772 1.764567 1.747451 1.730423 1.713484 1.696632 1.679870 1.663195 1.646609 1.630112 1.613702 1.597381 1.581149 1.565005 1.548949 1.532982 1.517103 1.501312 1.485610 1.469996 1.454471 1.813765 2.147415 1.487216 1.324801 1.082515 0.520714 0.914261 0.814782 0.832998 0.699697 1.383997 1.196769 1.211753 0.975535 0.618294 0.480203 0.744961 0.578157 0.258842 0.290146 0.480093 0.232678 0.255087 0.110323 0.001801 -0.016529 -0.011455 -0.305254 -0.164648 -0.000639 -0.024148 -0.093712 -0.016903 -0.125411 -0.105727 0.065039 0.173364 0.241472 0.274556 0.363774 0.606486 0.550955 0.634216 0.819943 1.027003 0.797400 1.218019 1.166909 1.236120 1.339844 1.239235 1.173059 1.333229 1.213295 1.338643 1.174396 1.141071 1.195699 0.953516 0.674400 0.731118 0.780394 0.481813 0.415845 0.359239 0.215449 0.194901 0.040492 0.197277 0.158206 0.030540 0.118149 0.228215 0.347825 0.605220 0.599737 0.583511 0.699992 0.875159 0.583280 1.019847 1.022743 0.761649 0.915627 0.757389 0.849110 0.885139 0.615758 0.393888 0.406113 0.346285 0.214844 0.202031 0.171384 -0.011729 0.212939 0.182655 0.243144 0.132016 0.257556 0.323412 0.283090 0.490687 0.593506 0.522888 0.361912 0.667537 0.552485 0.458081 0.516294 0.440678 0.293508 0.328684 0.124138 0.195976 0.037986 0.202874 -0.063843 0.052225 0.046058 0.248234 0.079397 0.384210 0.327656 0.386565 0.394498 0.401019 0.566184 0.403232 0.369672 0.421679 0.216542 0.334174 0.141569 0.266193 0.075334 0.111215 0.094993 0.078348 0.047033 0.160288 0.066400 0.150775 0.238705 0.278890 0.340811 0.269128 0.339933 0.259609 0.295083 0.180554 0.101001 0.031638 -0.011603 0.020335 -0.081831 -0.060459 0.112703 0.208459 0.066597 0.108977 0.108767 0.018046 0.176163 0.238471 0.182752 0.210980 0.136924 0.143711 0.112123 0.104581 0.051710 -0.076153 -0.021381 0.138617 0.018338 0.137580 0.114945 0.228206 0.208346 0.182567 0.124595 0.190035 0.101965 0.125938 0.110154 0.042771 -0.007261 0.010535 0.129834 0.132789 0.115694 0.055309 0.149606 0.124590 0.062433 0.135850 0.039409 -0.009227 0.025771 -0.001182 -0.047922 -0.070821 -0.104760 -0.037668 -0.057362 -0.081353 0.016620 -0.001592 0.074958 0.081513 -0.070698 0.053735 -0.047329 -0.111404 0.029692 -0.059710 -0.074354 0.039635 0.077564 0.028185 0.057555 -0.032103 0.047367 0.145539 -0.008597 -0.021617 0.092106 0.041374 0.127951 -0.061862 -0.033477 -0.032707 0.092843 0.042227 0.074863 0.148547 0.003505 -0.093269 0.008651 -0.053204 -0.055983 -0.052509 -0.055054 0.021150 -0.152892 0.107248 0.080416 0.179947 0.039935 0.007500 -0.002318 0.019881 0.064750 -0.066282 0.030315 0.013729 0.102664 0.118529 0.150788 0.071060 0.097274 0.176352 -0.029676 0.001682 -0.136739 0.184608 0.163836 0.178135 0.146628 0.058472 -0.042113 -0.078912 -0.015731 -0.000555 -0.007052 0.034160 0.077364 -0.036687 0.001148 0.047774 0.077230 0.051678 0.046389 0.068555 -0.015576 -0.037832 0.029416 0.039334 -0.012812 0.131461 0.040367 -0.001894 0.029350 0.006159 0.095218 0.128332 0.064525 -0.067817 -0.206665 0.370156 0.454743 0.367875 0.550490 0.260998 0.311226 0.259773 0.533334 0.399865 0.258093 0.180342 -0.857504
0.072396 0.072838 0.074163 0.076371 0.079462 0.083435 0.088289 0.094022 0.100634 0.108122 0.116484 0.125716 0.135815 0.146776 0.158594 0.171262 0.184772 0.199116 0.214282 0.230259 0.247032 0.264586 0.282903 0.301961 0.321739 0.342209 0.363344 0.385111 0.407474 0.430396 0.453833 0.477738 0.502061 0.526747 0.551735 0.576960 0.602354 0.627843 0.653346 0.678779 0.704051 0.729069 0.753731 0.777931 0.801559 0.824499 0.846629 0.867825 0.887956 0.906890 0.924488 0.940610 0.955112 0.967851 0.978680 0.987451 0.994019 0.998237 0.999964 0.999060 0.995388 0.988821 0.979236 0.966518 0.950564 0.931282 0.908590 0.882425 0.852736 0.819493 0.782682 0.742313 0.698416 0.651047 0.600285 0.546238 0.489041 0.428857 0.365881 0.300336 0.232478 0.162594 0.091002 0.018050 0.055883 0.130388 0.205031 0.279348 0.352856 0.425047 0.495396 0.563366 0.628407 0.689964 0.747479 0.800402 0.848190 0.890315 0.926273 0.955588 0.977820 0.992569 0.999485 0.998277 0.988713 0.970632 0.943948 0.908657 0.864842 0.812675 0.752424 0.684454 0.609231 0.527317 0.439375 0.346165 0.248540 0.147440 0.043885 0.061028 0.166143 0.270251 0.372106 0.470437 0.563965 0.651424 0.731572 0.803218 0.865233 0.916578 0.956321 0.983654 0.997916 0.998607 0.985407 0.958192 0.917039 0.862242 0.794319 0.714007 0.622269 0.520285 0.409446 0.291336 0.167716 0.040506 0.088250 0.216406 0.341757 0.462066 0.575119 0.678750 0.770902 0.849658 0.913296 0.960323 0.989521 0.999980 0.991137 0.962795 0.915150 0.848800 0.764752 0.664419 0.549605 0.422480 0.285552 0.141622 0.006269 0.154897 0.300927 0.440980 0.571721 0.689935 0.792613 0.877034 0.940842 0.982127 0.999484 0.992074 0.959665 0.902665 0.822136 0.719788 0.597962 0.459586 0.308120 0.147478 0.018066 0.183983 0.345614 0.498297 0.637510 0.759000 0.858929 0.934004 0.981593 0.999836 0.987727 0.945176 0.873050 0.773168 0.648289 0.502048 0.338864 0.163824 0.017463 0.199040 0.374797 0.538674 0.684877 0.808085 0.903659 0.967832 0.997874 0.992225 0.950588 0.873990 0.764777 0.626575 0.464192 0.283467 0.091080 0.105682 0.299199 0.481803 0.646095 0.785242 0.893285 0.965408 0.998170 0.989698 0.939809 0.850073 0.723801 0.565943 0.382939 0.182460 0.026882 0.235900 0.435226 0.615737 0.768976 0.887568 0.965597 0.998919 0.985421 0.925170 0.820481 0.675864 0.497862 0.294798 0.076395 0.146661 0.363236 0.562304 0.733521 0.867767 0.957665 0.998014 0.986118 0.922006 0.808499 0.651135 0.457938 0.239048 0.006209 0.227834 0.450029 0.647754 0.809529 0.925727 0.989163 0.995583 0.943987 0.836772 0.679681 0.481538 0.253798 0.009912 0.235431 0.467203 0.670938 0.833664 0.944749 0.996643 0.985427 0.911160 0.777971 0.593885 0.370404 0.121820 0.135662 0.384967 0.609279 0.793179 0.923751 0.991510 0.991152 0.922021 0.788260 0.598637 0.366026 0.106581 0.161341 0.418481 0.646035 0.827068 0.947796 0.998685 0.975268 0.878586 0.715243 0.497021 0.240102 0.036101 0.310362 0.561273 0.768927 0.916516 0.991754 0.987952 0.904681 0.747947 0.529842 0.267673 0.017345 0.301778 0.561874 0.775578 0.924413 0.995148 0.981031 0.882517 0.707374 0.470168 0.191118 0.105567 0.393759 0.647693 0.844311 0.965377 0.999256 0.942097 0.798357 0.580554 0.308267 0.006448 0.296823 0.572914 0.795383 0.942524 0.999570 0.960250 0.827572 0.613716 0.339009 0.030078 0.282680 0.568056 0.797160 0.946401 0.999962
1.000000 1.000000 1.000000 1.000000 1.000000 1.000000 1.000000 1.000000 1.000000 1.000000 1.000000 1.000000 1.000000 1.000000 1.000000 1.000000 1.000000 1.000000 1.000000 1.000000 1.000000 1.000000 1.000000 1.000000 1.000000 1.000000 1.000000 1.000000 1.000000 1.000000 1.000000 1.000000 1.000000 1.000000 1.000000 1.000000 1.000000 1.000000 1.000000 1.000000 1.000000 1.000000 1.000000 1.000000 1.000000 1.000000 1.000000 1.000000 1.000000 1.000000 1.000000 1.000000 0.779218 0.779218 0.779218 0.779218 0.779218 0.779218 0.779218 0.764002 0.764002 0.764002 0.764002 0.764002 0.764002 0.764002 0.764002 0.764002 0.764002 0.764002 0.764002 0.764002 0.764002 0.764002 0.764002 0.764002 0.764002 0.764002 0.764002 0.764002 0.764002 0.764002 0.764002 0.764002 0.764002 0.764002 0.764002 0.764002 0.764002 0.764002 0.764002 0.764002 0.764002 0.764002 0.764002 0.764002 0.764002 0.764002 0.764002 0.764002 0.764002 0.764002 0.764002 0.907033 0.908401 0.911254 0.906592 0.908456 0.906361 0.899866 0.902817 0.902631 0.902461 0.903466 0.905025 0.906929 0.911985 0.920787 0.922617 0.930464 0.933878 0.935115 0.935098 0.932770 0.940302 0.937928 0.936185 0.924301 0.927577 0.927205 0.927357 0.926171 0.926290 0.927567 0.927486 0.925370 0.923538 0.921335 0.919538 0.921280 0.920877 0.921064 0.921228 0.921409 0.921315 0.921898 0.918041 0.920300 0.919180 0.915606 0.912253 0.911800 0.912915 0.906046 0.902675 0.893359 0.894569 0.893502 0.898736 0.893687 0.893427 0.894656 0.895419 0.896080 0.893742 0.893795 0.891354 0.893152 0.889604 0.885343 0.881095 0.881340 0.883172 0.890529 0.893174 0.892200 0.888588 0.881432 0.871697 0.869251 0.855584 0.825196 0.826248 0.829751 0.831633 0.832669 0.831951 0.829736 0.825163 0.816190 0.807447 0.812195 0.811929 0.804002 0.795640 0.796196 0.794864 0.802461 0.805645 0.797193 0.799900 0.797876 0.794690 0.795114 0.795168 0.793741 0.788855 0.791562 0.800269 0.800906 0.789026 0.783337 0.779760 0.761502 0.765411 0.772055 0.778322 0.779486 0.775517 0.762628 0.771009 0.765305 0.781262 0.793665 0.792160 0.788163 0.768902 0.727438 0.715310 0.702557 0.705345 0.706586 0.687867 0.682219 0.683274 0.687903 0.635298 0.620171 0.608570 0.607385 0.614984 0.620403 0.612836 0.579667 0.598284 0.596072 0.579994 0.576512 0.546099 0.530186 0.493164 0.495424 0.492642 0.474066 0.454936 0.446682 0.461544 0.471729 0.469373 0.467467 0.438811 0.420743 0.423314 0.419476 0.423124 0.423818 0.430002 0.381351 0.357877 0.341517 0.365233 0.366527 0.366005 0.376958 0.377350 0.374708 0.354609 0.336955 0.324420 0.338390 0.357558 0.365431 0.367543 0.332500 0.317372 0.297616 0.303564 0.346234 0.334982 0.340448 0.336541 0.341043 0.362870 0.343606 0.321457 0.299308 0.341379 0.337180 0.325342 0.301660 0.308883 0.328315 0.329612 0.324295 0.315945 0.362120 0.392833 0.384121 0.389019 0.362813 0.394210 0.438194 0.427394 0.425607 0.443084 0.438143 0.427060 0.392473 0.375922 0.375351 0.350524 0.344541 0.325718 0.311177 0.302744 0.310323 0.333055 0.339007 0.372815 0.348809 0.316626 0.220678 0.294373 0.211499 0.215646 0.215646 0.215646 0.215646 0.215646 0.215646 0.215646 0.215646 0.234531 0.234531 0.234531 0.234531 0.234531 0.234531 0.234531 0.234531 0.234531 0.234531 0.234531 0.234531 0.234531 0.234531 0.234531 0.234531 0.234531 0.234531 0.234531 0.234531 0.234531
0.000000 0.000000 0.000000 0.000000 0.000000 0.000000 0.000000 0.000000 0.000000 0.000000 0.000000 0.000000 0.000000 0.000000 0.000000 0.000000 0.000000 0.000000 0.000000 0.000000 0.000000 0.000000 0.000000 0.000000 0.000000 0.000000 0.000000 0.000000 0.000000 0.000000 0.000000 0.000000 0.000000 0.000000 0.000000 0.000000 0.000000 0.000000 0.000000 0.000000 0.000000 0.000000 0.000000 0.000000 0.000000 0.000000 0.000000 0.000000 0.000000 0.000000 0.000000 0.000000 0.173422 0.173422 0.173422 0.173422 0.173422 0.173422 0.173422 0.191565 0.191565 0.191565 0.191565 0.191565 0.191565 0.191565 0.191565 0.191565 0.191565 0.191565 0.191565 0.191565 0.191565 0.191565 0.191565 0.191565 0.191565 0.191565 0.191565 0.191565 0.191565 0.191565 0.191565 0.191565 0.191565 0.191565 0.191565 0.191565 0.191565 0.191565 0.191565 0.191565 0.191565 0.191565 0.191565 0.191565 0.191565 0.191565 0.191565 0.191565 0.191565 0.191565 0.191565 0.222222 0.222222 0.222222 0.222222 0.222222 0.222222 0.222222 0.222222 0.222222 0.222222 0.222222 0.222222 0.222222 0.222222 0.222222 0.222222 0.222222 0.222222 0.222222 0.222222 0.222222 0.222222 0.222222 0.222222 0.222222 0.222222 0.222222 0.222222 0.222222 0.222222 0.234082 0.234082 0.234082 0.234082 0.234082 0.234082 0.234082 0.234082 0.234082 0.234082 0.234082 0.234082 0.234082 0.234082 0.234082 0.234082 0.234082 0.234082 0.234082 0.234082 0.234082 0.234082 0.234082 0.234082 0.234082 0.244339 0.244339 0.244339 0.244339 0.244339 0.244339 0.244339 0.244339 0.244339 0.244339 0.244339 0.244339 0.244339 0.244339 0.244339 0.244339 0.244339 0.244339 0.244339 0.244339 0.244339 0.248069 0.248069 0.248069 0.248069 0.248069 0.248069 0.248069 0.248069 0.248069 0.248069 0.248069 0.248069 0.248069 0.248069 0.248069 0.248069 0.248069 0.248069 0.248069 0.256074 0.256074 0.256074 0.256074 0.256074 0.256074 0.256074 0.256074 0.256074 0.256074 0.256074 0.256074 0.256074 0.256074 0.256074 0.256074 0.256074 0.256074 0.256074 0.256074 0.256074 0.256074 0.256074 0.256074 0.256074 0.256074 0.256074 0.256074 0.256074 0.256074 0.256074 0.256074 0.256074 0.256074 0.256074 0.256074 0.256074 0.256074 0.256074 0.256074 0.256074 0.256074 0.256074 0.256074 0.256074 0.256074 0.256074 0.256074 0.256074 0.256074 0.256074 0.256074 0.256074 0.256074 0.256074 0.256074 0.256074 0.256074 0.256074 0.256074 0.256074 0.256074 0.260378 0.260378 0.260378 0.260378 0.260378 0.260378 0.260378 0.260378 0.260378 0.260378 0.260378 0.260378 0.260378 0.256074 0.256074 0.256074 0.256074 0.256074 0.256074 0.256074 0.256074 0.256074 0.256074 0.256074 0.256074 0.256074 0.260378 0.260378 0.260378 0.260378 0.260378 0.260378 0.260378 0.260378 0.260378 0.260378 0.260378 0.260378 0.251976 0.251976 0.251976 0.251976 0.251976 0.251976 0.251976 0.251976 0.251976 0.251976 0.251976 0.251976 0.256074 0.256074 0.256074 0.256074 0.256074 0.256074 0.256074 0.256074 0.256074 0.256074 0.256074 0.251976 0.251976 0.251976 0.251976 0.251976 0.251976 0.251976 0.251976 0.251976 0.251976 0.251976 0.260378 0.260378 0.260378 0.260378 0.260378 0.260378 0.260378 0.260378 0.260378 0.260378 0.244339 0.244339 0.244339 0.244339 0.244339 0.244339 0.244339 0.244339 0.244339 0.244339 0.244339 0.244339 0.244339 0.244339 0.244339 0.244339 0.244339 0.244339 0.244339 0.244339 0.244339
