# Output from CTFFind version 4.1.9, run on 2019-11-03 19:02:22
# Input file: stack16_bm3d_averaged_1_3.25_0_3000_half.mrc ; Number of micrographs: 1
# Pixel size: 3.000 Angstroms ; acceleration voltage: 300.0 keV ; spherical aberration: 0.00 mm ; amplitude contrast: 0.07
# Box size: 512 pixels ; min. res.: 30.0 Angstroms ; max. res.: 5.0 Angstroms ; min. def.: 5000.0 um; max. def. 50000.0 um; num. frames averaged: 1
# 6 lines per micrograph: #1 - spatial frequency (1/Angstroms); #2 - 1D rotational average of spectrum (assuming no astigmatism); #3 - 1D rotational average of spectrum; #4 - CTF fit; #5 - cross-correlation between spectrum and CTF fit; #6 - 2sigma of expected cross correlation of noise
0.000000 0.000651 0.001302 0.001953 0.002604 0.003255 0.003906 0.004557 0.005208 0.005859 0.006510 0.007161 0.007812 0.008464 0.009115 0.009766 0.010417 0.011068 0.011719 0.012370 0.013021 0.013672 0.014323 0.014974 0.015625 0.016276 0.016927 0.017578 0.018229 0.018880 0.019531 0.020182 0.020833 0.021484 0.022135 0.022786 0.023438 0.024089 0.024740 0.025391 0.026042 0.026693 0.027344 0.027995 0.028646 0.029297 0.029948 0.030599 0.031250 0.031901 0.032552 0.033203 0.033854 0.034505 0.035156 0.035807 0.036458 0.037109 0.037760 0.038411 0.039062 0.039714 0.040365 0.041016 0.041667 0.042318 0.042969 0.043620 0.044271 0.044922 0.045573 0.046224 0.046875 0.047526 0.048177 0.048828 0.049479 0.050130 0.050781 0.051432 0.052083 0.052734 0.053385 0.054036 0.054688 0.055339 0.055990 0.056641 0.057292 0.057943 0.058594 0.059245 0.059896 0.060547 0.061198 0.061849 0.062500 0.063151 0.063802 0.064453 0.065104 0.065755 0.066406 0.067057 0.067708 0.068359 0.069010 0.069661 0.070312 0.070964 0.071615 0.072266 0.072917 0.073568 0.074219 0.074870 0.075521 0.076172 0.076823 0.077474 0.078125 0.078776 0.079427 0.080078 0.080729 0.081380 0.082031 0.082682 0.083333 0.083984 0.084635 0.085286 0.085938 0.086589 0.087240 0.087891 0.088542 0.089193 0.089844 0.090495 0.091146 0.091797 0.092448 0.093099 0.093750 0.094401 0.095052 0.095703 0.096354 0.097005 0.097656 0.098307 0.098958 0.099609 0.100260 0.100911 0.101562 0.102214 0.102865 0.103516 0.104167 0.104818 0.105469 0.106120 0.106771 0.107422 0.108073 0.108724 0.109375 0.110026 0.110677 0.111328 0.111979 0.112630 0.113281 0.113932 0.114583 0.115234 0.115885 0.116536 0.117188 0.117839 0.118490 0.119141 0.119792 0.120443 0.121094 0.121745 0.122396 0.123047 0.123698 0.124349 0.125000 0.125651 0.126302 0.126953 0.127604 0.128255 0.128906 0.129557 0.130208 0.130859 0.131510 0.132161 0.132812 0.133464 0.134115 0.134766 0.135417 0.136068 0.136719 0.137370 0.138021 0.138672 0.139323 0.139974 0.140625 0.141276 0.141927 0.142578 0.143229 0.143880 0.144531 0.145182 0.145833 0.146484 0.147135 0.147786 0.148438 0.149089 0.149740 0.150391 0.151042 0.151693 0.152344 0.152995 0.153646 0.154297 0.154948 0.155599 0.156250 0.156901 0.157552 0.158203 0.158854 0.159505 0.160156 0.160807 0.161458 0.162109 0.162760 0.163411 0.164062 0.164714 0.165365 0.166016 0.166667 0.167318 0.167969 0.168620 0.169271 0.169922 0.170573 0.171224 0.171875 0.172526 0.173177 0.173828 0.174479 0.175130 0.175781 0.176432 0.177083 0.177734 0.178385 0.179036 0.179688 0.180339 0.180990 0.181641 0.182292 0.182943 0.183594 0.184245 0.184896 0.185547 0.186198 0.186849 0.187500 0.188151 0.188802 0.189453 0.190104 0.190755 0.191406 0.192057 0.192708 0.193359 0.194010 0.194661 0.195312 0.195964 0.196615 0.197266 0.197917 0.198568 0.199219 0.199870 0.200521 0.201172 0.201823 0.202474 0.203125 0.203776 0.204427 0.205078 0.205729 0.206380 0.207031 0.207682 0.208333 0.208984 0.209635 0.210286 0.210938 0.211589 0.212240 0.212891 0.213542 0.214193 0.214844 0.215495 0.216146 0.216797 0.217448 0.218099 0.218750 0.219401 0.220052 0.220703 0.221354 0.222005 0.222656 0.223307 0.223958 0.224609 0.225260 0.225911 0.226562 0.227214 0.227865 0.228516 0.229167 0.229818 0.230469 0.231120 0.231771 0.232422 0.233073 0.233724 0.234375 0.235026 0.235677
       0.33445        0.33445        0.33445        0.33445        0.33445        0.33445        0.33445        0.33445        0.33445        0.33445        0.33445        0.33445        0.33445        0.33445        0.33445        0.33445        0.33445        0.33445        0.33445        0.33445        0.33445        0.33445        0.33445        0.33445        0.33445        0.33445        0.33445        0.33445        0.33445        0.33445        0.33445        0.33445        0.33445        0.33445        0.33445        0.33445        0.33445        0.33445        0.33445        0.33445        0.33445        0.33445        0.33445        0.33445        0.33445        0.33445        0.33445        0.33445        0.33445        0.33445        0.33445        0.43923        0.60766        0.39642       -0.14259       -0.44124       -0.56983       -0.66004       -0.73639       -0.75973       -0.89412       -0.92968       -0.74333       -0.92245       -0.87135       -1.01865       -1.07087       -0.95776       -0.91722       -0.84136       -0.78944       -0.69319       -0.60743       -0.50934       -0.42882       -0.22761       -0.10610       -0.01865        0.20250        0.22524        0.30455        0.36808        0.39895        0.48794        0.56128        0.59049        0.56512        0.49270        0.53857        0.49065        0.40478        0.31729        0.18138        0.17508        0.11452       -0.06138       -0.08451       -0.06931        0.01986       -0.01329        0.02304        0.02726        0.15375        0.19356        0.39771        0.46760        0.56900        0.68189        0.75791        0.72320        0.67391        0.64668        0.55460        0.46496        0.37290        0.27309        0.19717        0.18070        0.07860        0.01803       -0.00150        0.03223        0.07948        0.27111        0.40144        0.49856        0.55628        0.60000        0.67740        0.63989        0.64818        0.62907        0.58117        0.47546        0.27541        0.24971        0.19958        0.11357        0.05377        0.09424        0.11824        0.25854        0.34326        0.41108        0.47630        0.54202        0.63981        0.58570        0.52516        0.49883        0.37307        0.20734        0.21131        0.15571        0.12015        0.15127        0.22009        0.25766        0.33781        0.42431        0.42862        0.52651        0.47267        0.45463        0.45541        0.37485        0.31582        0.26645        0.20781        0.20622        0.21487        0.21825        0.30373        0.42678        0.45667        0.48316        0.53627        0.47493        0.43831        0.37503        0.29850        0.23275        0.22235        0.23944        0.25779        0.28183        0.32154        0.42830        0.48562        0.47352        0.45594        0.37340        0.37143        0.35903        0.21870        0.23419        0.26321        0.29235        0.34729        0.35726        0.40731        0.43044        0.43313        0.37493        0.35012        0.30656        0.32192        0.26711        0.25581        0.28162        0.33027        0.38924        0.40399        0.39628        0.37381        0.39732        0.35306        0.28530        0.28553        0.28242        0.30560        0.36083        0.34602        0.40972        0.34812        0.37315        0.37437        0.32614        0.30534        0.26868        0.28853        0.33015        0.33120        0.32554        0.33474        0.36909        0.33086        0.35807        0.29200        0.30609        0.25793        0.27806        0.28913        0.33922        0.38625        0.36201        0.34231        0.30227        0.26205        0.26024        0.29162        0.27279        0.31877        0.35892        0.37320        0.33520        0.31051        0.28886        0.29419        0.29670        0.28442        0.30090        0.34271        0.33868        0.31113        0.28905        0.33245        0.30333        0.29180        0.31073        0.30951        0.31080        0.34551        0.31163        0.31228        0.28348        0.29395        0.30002        0.31761        0.40119        0.32459        0.36129        0.30545        0.30690        0.29219        0.30217        0.29017        0.28158        0.28549        0.33278        0.33824        0.29662        0.30213        0.28405        0.28941        0.30528        0.31568        0.31466        0.34578        0.35790        0.31008        0.30146        0.28752        0.24724        0.31761        0.33473        0.30763        0.29233        0.26559        0.28162        0.32185        0.32580        0.30316        0.29473        0.31713        0.30596        0.23067        0.28808        0.30004        0.27689        0.32297        0.28720        0.33939        0.37349        0.28569        0.26492        0.25495        0.27675        0.29123        0.27988        0.27028        0.24099        0.25235        0.29667        0.30532        0.28091        0.24364        0.33576        0.31867        0.27323        0.23730        0.20864        0.23779        0.22545        0.23165        0.27154        0.35907        0.25117        0.22850        0.26174        0.24980        0.19042        0.28337        0.23718        0.20100        0.16798        0.24512        0.31370        0.27831        0.08009        0.11862       -0.38340       -0.74764
2.893043 2.857429 2.822042 2.786883 2.751951 2.717247 2.682770 2.648521 2.614499 2.580705 2.547138 2.513799 2.480688 2.447803 2.415147 2.382717 2.350516 2.318542 2.286795 2.255276 2.223984 2.192920 2.162084 2.131475 2.101093 2.070939 2.041012 2.011313 1.981842 1.952598 1.923581 1.894792 1.866231 1.837897 1.809790 1.781911 1.754260 1.726836 1.699639 1.672670 1.645929 1.619415 1.593128 1.567069 1.541238 1.515634 1.490258 1.465109 1.440187 1.415493 1.391027 1.431324 1.559769 1.505875 0.883161 0.587797 0.421480 0.361701 0.275818 0.198528 0.125023 -0.059339 0.163360 0.022984 -0.064899 -0.114834 -0.246240 -0.174791 -0.098835 -0.094697 -0.099053 0.017994 0.024863 0.192548 0.109997 0.321380 0.433079 0.448059 0.692068 0.672007 0.669743 0.812581 0.784450 0.798936 0.917659 0.865127 0.910225 0.730620 0.822899 0.835804 0.634440 0.579803 0.452270 0.413512 0.390823 0.178492 0.145258 0.112896 0.216747 0.136289 0.206211 0.101985 0.275343 0.255201 0.463885 0.423744 0.611693 0.633419 0.757027 0.748771 0.636002 0.643236 0.505061 0.456215 0.325122 0.305625 0.134782 0.185124 0.016676 -0.004597 -0.046207 -0.053187 -0.009161 0.049892 0.279668 0.338656 0.401663 0.356008 0.482699 0.499360 0.494838 0.477132 0.391664 0.397725 0.144763 0.116844 0.069008 0.015411 -0.133158 -0.023705 -0.092680 0.029936 0.148869 0.170211 0.277312 0.246400 0.378095 0.473583 0.365437 0.393085 0.310230 0.144877 0.051199 0.075881 0.027701 0.023749 0.063285 0.111804 0.135775 0.256447 0.255006 0.293179 0.362700 0.239442 0.261259 0.222614 0.128416 0.086194 0.039330 0.015012 0.028793 0.002802 0.038560 0.171103 0.207790 0.219327 0.299955 0.222562 0.241053 0.126942 0.107496 -0.010268 -0.017147 -0.010522 0.004893 0.027217 0.014745 0.103615 0.187678 0.189149 0.214597 0.138105 0.094741 0.105671 0.039410 -0.073009 0.000307 0.024950 0.039729 0.049776 0.107982 0.151578 0.130881 0.165461 0.063424 0.062363 0.039627 0.054527 -0.008298 0.007145 0.021787 0.075759 0.115039 0.136590 0.079377 0.121483 0.108338 0.028539 0.000749 0.013146 0.000990 0.053229 0.073117 0.082348 0.103724 0.072100 0.098879 0.065528 0.042603 0.019768 -0.017537 0.025406 0.059740 0.042934 0.050900 0.015181 0.072696 0.069903 0.041149 0.006623 0.015797 -0.046398 -0.004323 0.007840 0.049586 0.105240 0.071441 0.047446 -0.005746 -0.029524 -0.013333 0.000611 -0.004149 0.036412 0.069282 0.070466 0.006988 0.028760 -0.030081 0.014339 -0.002954 -0.027367 0.021519 0.050345 -0.017429 0.013830 -0.015643 0.032430 -0.018062 -0.000635 0.004204 0.014916 0.027766 0.002882 0.019485 -0.001934 -0.041213 0.010469 -0.003950 0.030311 0.099597 0.014084 0.048088 -0.000822 0.014385 -0.028423 0.020613 -0.003895 -0.011590 -0.023757 0.036785 0.032433 0.008123 0.018557 -0.041477 -0.000639 0.003937 0.013037 0.033359 0.056125 0.048803 0.033369 0.028724 -0.018586 -0.020378 0.017044 0.061393 0.011128 0.014157 -0.026772 -0.009449 0.032131 0.040288 0.018609 0.011640 0.033459 0.013227 -0.052733 -0.004541 0.039203 -0.012308 0.036864 0.027367 0.083653 0.099414 0.029799 0.017739 -0.012053 0.007353 0.074116 -0.050418 0.017397 -0.030406 -0.038385 0.027668 0.032381 -0.027306 -0.052661 0.045097 0.005412 -0.045945 -0.068131 -0.074390 -0.050500 -0.062226 -0.072187 -0.021925 0.089424 -0.063546 -0.027381 0.041464 0.011054 -0.076329 0.071206 0.057484 0.094640 0.029843 0.202704 0.291066 0.225831 -0.015359 0.109833 -0.668410
0.072396 0.073047 0.075000 0.078254 0.082809 0.088662 0.095812 0.104256 0.113989 0.125007 0.137303 0.150868 0.165692 0.181764 0.199066 0.217581 0.237286 0.258156 0.280160 0.303262 0.327420 0.352589 0.378713 0.405733 0.433580 0.462176 0.491437 0.521269 0.551566 0.582213 0.613087 0.644051 0.674958 0.705649 0.735954 0.765692 0.794670 0.822684 0.849520 0.874953 0.898750 0.920666 0.940455 0.957859 0.972618 0.984472 0.993157 0.998413 0.999984 0.997621 0.991087 0.980157 0.964624 0.944303 0.919034 0.888686 0.853159 0.812395 0.766374 0.715124 0.658724 0.597304 0.531053 0.460222 0.385124 0.306138 0.223710 0.138354 0.050652 0.038748 0.129132 0.219729 0.309706 0.398185 0.484241 0.566918 0.645235 0.718196 0.784808 0.844094 0.895105 0.936938 0.968756 0.989804 0.999425 0.997082 0.982373 0.955049 0.915033 0.862428 0.797536 0.720862 0.633128 0.535266 0.428428 0.313975 0.193468 0.068655 0.058550 0.186090 0.311798 0.433429 0.548700 0.655337 0.751118 0.833927 0.901802 0.952993 0.986007 0.999666 0.993148 0.966031 0.918327 0.850512 0.763539 0.658850 0.538366 0.404470 0.259973 0.108074 0.047710 0.203615 0.355711 0.500007 0.632551 0.749552 0.847487 0.923224 0.974132 0.998189 0.994078 0.961260 0.900037 0.811589 0.697982 0.562145 0.407827 0.239513 0.062309 0.118195 0.296091 0.465349 0.620019 0.754445 0.863494 0.942759 0.988767 0.999150 0.972791 0.909928 0.812210 0.682694 0.525796 0.347171 0.153539 0.047542 0.247962 0.439369 0.613530 0.762684 0.879919 0.959503 0.997210 0.990570 0.939064 0.844233 0.709693 0.541050 0.345719 0.132625 0.088161 0.305892 0.509651 0.688912 0.834101 0.937133 0.991902 0.994691 0.944469 0.843052 0.695118 0.508058 0.291667 0.057673 0.180864 0.410263 0.616999 0.788527 0.914068 0.985331 0.997120 0.947772 0.839391 0.677854 0.472578 0.236034 0.016954 0.270100 0.506694 0.710706 0.867900 0.966884 0.999987 0.963937 0.860239 0.695238 0.479827 0.228814 0.040034 0.307204 0.552841 0.758227 0.907258 0.987756 0.992556 0.920228 0.775379 0.568483 0.315231 0.035428 0.248505 0.513289 0.736712 0.899525 0.987176 0.991198 0.910136 0.749896 0.523445 0.249892 0.047040 0.341010 0.605369 0.815604 0.951667 0.999982 0.954911 0.819532 0.605604 0.332681 0.026459 0.283580 0.566966 0.795247 0.944910 0.999898 0.953471 0.809162 0.580710 0.290901 0.030564 0.350040 0.633419 0.849807 0.974968 0.994169 0.904061 0.713374 0.442262 0.120341 0.216435 0.529712 0.783118 0.946552 0.999878 0.935574 0.759962 0.492816 0.165322 0.183416 0.510966 0.776733 0.947051 0.999583 0.926436 0.735535 0.450006 0.105591 0.253706 0.581122 0.833277 0.975990 0.989077 0.869425 0.631827 0.307414 0.060227 0.420781 0.724051 0.926991 0.999979 0.931333 0.729428 0.421961 0.052401 0.325993 0.657772 0.893443 0.997003 0.951638 0.762719 0.457502 0.081466 0.308271 0.651539 0.894431 0.997902 0.944291 0.740608 0.417967 0.027132 0.369287 0.706773 0.929447 0.999507 0.903894 0.657039 0.299023 0.110617 0.502656 0.809788 0.978328 0.977787 0.806723 0.493612 0.092445 0.326294 0.687942 0.926956 0.999019 0.889530 0.616923 0.229957 0.200691 0.595167 0.879200 0.998284 0.928395 0.681231 0.302687 0.135311 0.548249 0.855293 0.995248 0.939052 0.696203 0.313638 0.132961 0.553897 0.863427 0.997375 0.926752 0.664456 0.263408 0.193724 0.611360 0.900932 0.999863 0.885474 0.580599 0.149556 0.315077 0.712111
1.000000 1.000000 1.000000 1.000000 1.000000 1.000000 1.000000 1.000000 1.000000 1.000000 1.000000 1.000000 1.000000 1.000000 1.000000 1.000000 1.000000 1.000000 1.000000 1.000000 1.000000 1.000000 1.000000 1.000000 1.000000 1.000000 1.000000 1.000000 1.000000 1.000000 1.000000 1.000000 1.000000 1.000000 1.000000 1.000000 1.000000 1.000000 1.000000 1.000000 1.000000 1.000000 1.000000 1.000000 1.000000 1.000000 1.000000 1.000000 1.000000 1.000000 1.000000 1.000000 0.931302 0.931302 0.931302 0.931302 0.931302 0.931302 0.931302 0.931302 0.931302 0.931302 0.931302 0.931302 0.931302 0.931302 0.931302 0.931302 0.931302 0.931302 0.931302 0.931302 0.931302 0.931302 0.931302 0.931302 0.931302 0.931302 0.931302 0.931302 0.931302 0.931302 0.931302 0.931302 0.931302 0.914766 0.916412 0.919416 0.920459 0.920361 0.919865 0.919561 0.919853 0.921348 0.923232 0.944660 0.946933 0.948082 0.949168 0.947928 0.950420 0.948146 0.952431 0.967425 0.966688 0.967595 0.961802 0.962749 0.962313 0.961704 0.962626 0.962429 0.961062 0.959444 0.958096 0.957734 0.957376 0.958970 0.959346 0.959262 0.959677 0.959638 0.959524 0.957017 0.954900 0.956147 0.957508 0.956422 0.961915 0.961862 0.970140 0.971276 0.971984 0.972713 0.972886 0.973029 0.964348 0.961390 0.957674 0.946092 0.937980 0.934695 0.937424 0.940238 0.937145 0.931414 0.930326 0.928103 0.921889 0.921427 0.918895 0.919877 0.911778 0.908397 0.898287 0.898761 0.901113 0.901874 0.899305 0.886263 0.880415 0.881416 0.884543 0.878779 0.876223 0.892437 0.889795 0.892376 0.895803 0.898303 0.904565 0.890640 0.884402 0.881105 0.876299 0.875510 0.877625 0.880476 0.882136 0.881004 0.878846 0.874188 0.865980 0.873787 0.879274 0.878403 0.878036 0.878507 0.878098 0.873865 0.870172 0.874371 0.873126 0.868204 0.865493 0.862549 0.864160 0.866515 0.866739 0.865999 0.866968 0.864595 0.867029 0.862281 0.865719 0.861151 0.862584 0.862151 0.867490 0.855211 0.849621 0.838370 0.829647 0.835519 0.837937 0.801935 0.799989 0.796974 0.793859 0.798571 0.804248 0.799970 0.802377 0.797672 0.803334 0.811414 0.805927 0.801764 0.802189 0.804094 0.785651 0.794617 0.793583 0.776364 0.779746 0.761330 0.758030 0.758707 0.760715 0.692592 0.689745 0.658907 0.641756 0.658115 0.652546 0.641147 0.627275 0.625569 0.616833 0.580052 0.565351 0.548782 0.550641 0.544282 0.546280 0.549120 0.526695 0.541343 0.537202 0.536405 0.549499 0.514623 0.501503 0.486802 0.470851 0.490084 0.496252 0.505502 0.514082 0.504538 0.504927 0.499055 0.490173 0.504758 0.483880 0.449823 0.463942 0.438437 0.417646 0.429629 0.425555 0.425443 0.447946 0.420744 0.401714 0.419841 0.428114 0.433578 0.440624 0.451314 0.434577 0.482021 0.469274 0.468895 0.475171 0.454828 0.426499 0.428044 0.404476 0.417683 0.407778 0.413165 0.440283 0.411005 0.404399 0.416408 0.425901 0.361059 0.389089 0.409155 0.390347 0.421416 0.385203 0.376745 0.314138 0.312930 0.290213 0.289938 0.323140 0.244739 0.227973 0.209153 0.202597 0.186194 0.206100 0.203089 0.173857 0.130300 0.114956 0.100406 0.110346 0.116904 0.098448 0.091808 0.091808 0.091808 0.091808 0.103668 0.103668 0.103668 0.103668 0.103668 0.103668 0.103668 0.103668 0.103668 0.103668 0.103668 0.103668 0.103668 0.103668 0.035704 0.035704 0.035704 0.035704 0.035704 0.035704 0.035704 0.035704 0.035704 0.035704 0.035704 0.035704
0.000000 0.000000 0.000000 0.000000 0.000000 0.000000 0.000000 0.000000 0.000000 0.000000 0.000000 0.000000 0.000000 0.000000 0.000000 0.000000 0.000000 0.000000 0.000000 0.000000 0.000000 0.000000 0.000000 0.000000 0.000000 7.000000 4.000000 0.000000 0.000000 0.000000 0.000000 0.000000 0.000000 0.000000 0.000000 0.000000 0.000000 0.000000 0.000000 0.000000 0.000000 0.000000 0.000000 0.000000 0.000000 0.000000 0.000000 0.000000 0.000000 0.000000 0.000000 0.000000 0.209657 0.209657 0.209657 0.209657 0.209657 0.209657 0.209657 0.209657 0.209657 0.209657 0.209657 0.209657 0.209657 0.209657 0.209657 0.209657 0.209657 0.209657 0.209657 0.209657 0.209657 0.209657 0.209657 0.209657 0.209657 0.209657 0.209657 0.209657 0.209657 0.209657 0.209657 0.209657 0.209657 0.244339 0.244339 0.244339 0.244339 0.244339 0.244339 0.244339 0.244339 0.244339 0.244339 0.244339 0.244339 0.244339 0.244339 0.244339 0.244339 0.244339 0.244339 0.244339 0.244339 0.244339 0.244339 0.244339 0.244339 0.244339 0.260378 0.260378 0.260378 0.260378 0.260378 0.260378 0.260378 0.260378 0.260378 0.260378 0.260378 0.260378 0.260378 0.260378 0.260378 0.260378 0.260378 0.260378 0.260378 0.260378 0.269680 0.269680 0.269680 0.269680 0.269680 0.269680 0.269680 0.269680 0.269680 0.269680 0.269680 0.269680 0.269680 0.269680 0.269680 0.269680 0.269680 0.269680 0.269680 0.269680 0.269680 0.269680 0.269680 0.269680 0.269680 0.269680 0.269680 0.269680 0.269680 0.269680 0.269680 0.269680 0.269680 0.280056 0.280056 0.280056 0.280056 0.280056 0.280056 0.280056 0.280056 0.280056 0.280056 0.280056 0.280056 0.280056 0.280056 0.280056 0.280056 0.280056 0.280056 0.280056 0.280056 0.280056 0.280056 0.280056 0.280056 0.280056 0.280056 0.280056 0.285714 0.285714 0.285714 0.285714 0.285714 0.285714 0.285714 0.285714 0.285714 0.285714 0.285714 0.285714 0.274721 0.274721 0.274721 0.274721 0.274721 0.274721 0.274721 0.274721 0.274721 0.274721 0.274721 0.274721 0.280056 0.280056 0.280056 0.280056 0.280056 0.280056 0.280056 0.280056 0.280056 0.280056 0.280056 0.274721 0.274721 0.274721 0.274721 0.274721 0.274721 0.274721 0.274721 0.274721 0.274721 0.274721 0.280056 0.280056 0.280056 0.280056 0.280056 0.280056 0.280056 0.280056 0.280056 0.280056 0.285714 0.285714 0.285714 0.285714 0.285714 0.285714 0.285714 0.285714 0.285714 0.280056 0.280056 0.280056 0.280056 0.280056 0.280056 0.280056 0.280056 0.280056 0.274721 0.274721 0.274721 0.274721 0.274721 0.274721 0.274721 0.274721 0.274721 0.269680 0.269680 0.269680 0.269680 0.269680 0.269680 0.269680 0.269680 0.269680 0.264906 0.264906 0.264906 0.264906 0.264906 0.264906 0.264906 0.264906 0.264906 0.274721 0.274721 0.274721 0.274721 0.274721 0.274721 0.274721 0.274721 0.269680 0.269680 0.269680 0.269680 0.269680 0.269680 0.269680 0.269680 0.285714 0.285714 0.285714 0.285714 0.285714 0.285714 0.285714 0.264906 0.264906 0.264906 0.264906 0.264906 0.264906 0.264906 0.264906 0.274721 0.274721 0.274721 0.274721 0.274721 0.274721 0.274721 0.256074 0.256074 0.256074 0.256074 0.256074 0.256074 0.256074 0.256074 0.264906 0.264906 0.264906 0.264906 0.264906 0.264906 0.264906 0.264906 0.264906 0.264906 0.264906 0.264906 0.264906 0.264906 0.280056 0.280056 0.280056 0.280056 0.280056 0.280056 0.280056 0.280056 0.280056 0.280056 0.280056 0.280056
