# Output from CTFFind version 4.1.9, run on 2019-11-03 19:50:20
# Input file: stack16_bm3d_averaged_1_5.25_0_3000_half.mrc ; Number of micrographs: 1
# Pixel size: 3.000 Angstroms ; acceleration voltage: 300.0 keV ; spherical aberration: 0.00 mm ; amplitude contrast: 0.07
# Box size: 512 pixels ; min. res.: 30.0 Angstroms ; max. res.: 5.0 Angstroms ; min. def.: 5000.0 um; max. def. 50000.0 um; num. frames averaged: 1
# 6 lines per micrograph: #1 - spatial frequency (1/Angstroms); #2 - 1D rotational average of spectrum (assuming no astigmatism); #3 - 1D rotational average of spectrum; #4 - CTF fit; #5 - cross-correlation between spectrum and CTF fit; #6 - 2sigma of expected cross correlation of noise
0.000000 0.000651 0.001302 0.001953 0.002604 0.003255 0.003906 0.004557 0.005208 0.005859 0.006510 0.007161 0.007812 0.008464 0.009115 0.009766 0.010417 0.011068 0.011719 0.012370 0.013021 0.013672 0.014323 0.014974 0.015625 0.016276 0.016927 0.017578 0.018229 0.018880 0.019531 0.020182 0.020833 0.021484 0.022135 0.022786 0.023438 0.024089 0.024740 0.025391 0.026042 0.026693 0.027344 0.027995 0.028646 0.029297 0.029948 0.030599 0.031250 0.031901 0.032552 0.033203 0.033854 0.034505 0.035156 0.035807 0.036458 0.037109 0.037760 0.038411 0.039062 0.039714 0.040365 0.041016 0.041667 0.042318 0.042969 0.043620 0.044271 0.044922 0.045573 0.046224 0.046875 0.047526 0.048177 0.048828 0.049479 0.050130 0.050781 0.051432 0.052083 0.052734 0.053385 0.054036 0.054688 0.055339 0.055990 0.056641 0.057292 0.057943 0.058594 0.059245 0.059896 0.060547 0.061198 0.061849 0.062500 0.063151 0.063802 0.064453 0.065104 0.065755 0.066406 0.067057 0.067708 0.068359 0.069010 0.069661 0.070312 0.070964 0.071615 0.072266 0.072917 0.073568 0.074219 0.074870 0.075521 0.076172 0.076823 0.077474 0.078125 0.078776 0.079427 0.080078 0.080729 0.081380 0.082031 0.082682 0.083333 0.083984 0.084635 0.085286 0.085938 0.086589 0.087240 0.087891 0.088542 0.089193 0.089844 0.090495 0.091146 0.091797 0.092448 0.093099 0.093750 0.094401 0.095052 0.095703 0.096354 0.097005 0.097656 0.098307 0.098958 0.099609 0.100260 0.100911 0.101562 0.102214 0.102865 0.103516 0.104167 0.104818 0.105469 0.106120 0.106771 0.107422 0.108073 0.108724 0.109375 0.110026 0.110677 0.111328 0.111979 0.112630 0.113281 0.113932 0.114583 0.115234 0.115885 0.116536 0.117188 0.117839 0.118490 0.119141 0.119792 0.120443 0.121094 0.121745 0.122396 0.123047 0.123698 0.124349 0.125000 0.125651 0.126302 0.126953 0.127604 0.128255 0.128906 0.129557 0.130208 0.130859 0.131510 0.132161 0.132812 0.133464 0.134115 0.134766 0.135417 0.136068 0.136719 0.137370 0.138021 0.138672 0.139323 0.139974 0.140625 0.141276 0.141927 0.142578 0.143229 0.143880 0.144531 0.145182 0.145833 0.146484 0.147135 0.147786 0.148438 0.149089 0.149740 0.150391 0.151042 0.151693 0.152344 0.152995 0.153646 0.154297 0.154948 0.155599 0.156250 0.156901 0.157552 0.158203 0.158854 0.159505 0.160156 0.160807 0.161458 0.162109 0.162760 0.163411 0.164062 0.164714 0.165365 0.166016 0.166667 0.167318 0.167969 0.168620 0.169271 0.169922 0.170573 0.171224 0.171875 0.172526 0.173177 0.173828 0.174479 0.175130 0.175781 0.176432 0.177083 0.177734 0.178385 0.179036 0.179688 0.180339 0.180990 0.181641 0.182292 0.182943 0.183594 0.184245 0.184896 0.185547 0.186198 0.186849 0.187500 0.188151 0.188802 0.189453 0.190104 0.190755 0.191406 0.192057 0.192708 0.193359 0.194010 0.194661 0.195312 0.195964 0.196615 0.197266 0.197917 0.198568 0.199219 0.199870 0.200521 0.201172 0.201823 0.202474 0.203125 0.203776 0.204427 0.205078 0.205729 0.206380 0.207031 0.207682 0.208333 0.208984 0.209635 0.210286 0.210938 0.211589 0.212240 0.212891 0.213542 0.214193 0.214844 0.215495 0.216146 0.216797 0.217448 0.218099 0.218750 0.219401 0.220052 0.220703 0.221354 0.222005 0.222656 0.223307 0.223958 0.224609 0.225260 0.225911 0.226562 0.227214 0.227865 0.228516 0.229167 0.229818 0.230469 0.231120 0.231771 0.232422 0.233073 0.233724 0.234375 0.235026 0.235677
       0.33446        0.33446        0.33446        0.33446        0.33446        0.33446        0.33446        0.33446        0.33446        0.33446        0.33446        0.33446        0.33446        0.33446        0.33446        0.33446        0.33446        0.33446        0.33446        0.33446        0.33446        0.33446        0.33446        0.33446        0.33446        0.33446        0.33446        0.33446        0.33446        0.33446        0.33446        0.33446        0.33446        0.33446        0.33446        0.33446        0.33446        0.33446        0.33446        0.33446        0.33446        0.33446        0.33446        0.33446        0.33446        0.33446        0.33446        0.33446        0.33446        0.33446        0.33446        0.41784        0.55622        0.34235       -0.20726       -0.45947       -0.55740       -0.65439       -0.72671       -0.74050       -0.84096       -0.90617       -0.70249       -0.86158       -0.83850       -0.98818       -1.02373       -0.90559       -0.86455       -0.81431       -0.73700       -0.66561       -0.57834       -0.48281       -0.41473       -0.18725       -0.08285        0.01242        0.23882        0.24454        0.30154        0.36542        0.39149        0.50136        0.53206        0.56838        0.52926        0.46767        0.50469        0.50806        0.42892        0.32084        0.19720        0.16777        0.10115       -0.01587       -0.03103       -0.03858        0.03674        0.00005        0.05592        0.03196        0.14647        0.18494        0.39830        0.45332        0.54674        0.65366        0.68888        0.71135        0.63127        0.60973        0.52697        0.43164        0.37827        0.26019        0.20410        0.19496        0.08508        0.08653        0.07280        0.06799        0.08368        0.29620        0.40475        0.50791        0.53119        0.57177        0.60802        0.58561        0.57585        0.57952        0.55902        0.45881        0.29018        0.25024        0.23166        0.12776        0.07497        0.14476        0.17449        0.26784        0.34506        0.41297        0.46567        0.52567        0.59746        0.54359        0.50542        0.48726        0.34845        0.24915        0.23993        0.16273        0.16246        0.20634        0.25375        0.26861        0.30766        0.41369        0.44388        0.49797        0.45032        0.44122        0.47257        0.37661        0.31904        0.27428        0.24121        0.21603        0.22005        0.22947        0.32490        0.42806        0.41931        0.48420        0.54612        0.43673        0.40758        0.35001        0.29590        0.24940        0.26262        0.26201        0.27859        0.32111        0.33408        0.41779        0.46518        0.43060        0.44583        0.35656        0.36867        0.34944        0.25111        0.23288        0.23206        0.30369        0.36482        0.36207        0.38447        0.42789        0.42945        0.36082        0.33209        0.31012        0.33815        0.29563        0.26562        0.26839        0.33621        0.35825        0.37147        0.38500        0.37469        0.40317        0.38427        0.29984        0.27762        0.30777        0.33529        0.35670        0.35146        0.39856        0.33304        0.36565        0.38403        0.32273        0.34331        0.30417        0.28723        0.33111        0.32694        0.31637        0.33354        0.35501        0.31679        0.33648        0.30424        0.30378        0.27814        0.30470        0.29772        0.32324        0.35917        0.35528        0.33686        0.29488        0.28042        0.27628        0.31698        0.29304        0.30399        0.35699        0.35579        0.33076        0.30258        0.29789        0.30398        0.26529        0.29035        0.30212        0.31755        0.35600        0.33035        0.28528        0.32157        0.31511        0.30875        0.34860        0.33538        0.30110        0.32627        0.28413        0.31617        0.28034        0.29999        0.28691        0.31156        0.35873        0.32530        0.34490        0.29675        0.30782        0.32849        0.32306        0.29728        0.29301        0.32761        0.31682        0.31300        0.30606        0.30698        0.29328        0.29893        0.31302        0.31600        0.33159        0.33387        0.32977        0.28584        0.27064        0.26286        0.26051        0.35132        0.30387        0.34999        0.28852        0.25623        0.28046        0.35065        0.29729        0.27634        0.27737        0.30520        0.28350        0.26733        0.30757        0.26771        0.26496        0.29636        0.30934        0.32787        0.31937        0.29126        0.26287        0.25379        0.25194        0.25931        0.28165        0.34366        0.27611        0.19935        0.29161        0.26527        0.30082        0.22817        0.30118        0.30398        0.31670        0.27939        0.26312        0.26528        0.22863        0.28461        0.33708        0.35624        0.23425        0.26554        0.21107        0.21399        0.19841        0.32993        0.24068        0.21821        0.13609        0.23416        0.27466        0.21156        0.16705        0.04805       -0.59402       -0.78699
3.104491 3.065481 3.026723 2.988218 2.949964 2.911962 2.874212 2.836714 2.799468 2.762474 2.725732 2.689242 2.653004 2.617018 2.581284 2.545802 2.510572 2.475594 2.440867 2.406393 2.372171 2.338201 2.304483 2.271016 2.237802 2.204840 2.172130 2.139671 2.107465 2.075510 2.043808 2.012358 1.981159 1.950213 1.919518 1.889076 1.858885 1.828947 1.799260 1.769826 1.740643 1.711712 1.683034 1.654607 1.626432 1.598510 1.570839 1.543420 1.516254 1.489339 1.462676 1.496832 1.589999 1.529409 0.848351 0.586840 0.446224 0.379228 0.285225 0.205240 0.166117 -0.056415 0.192987 0.057146 -0.039400 -0.123171 -0.244344 -0.152995 -0.068421 -0.094774 -0.084219 0.028671 0.023308 0.217286 0.102897 0.348674 0.457944 0.477990 0.756498 0.685817 0.685748 0.830446 0.797899 0.831538 0.920372 0.863194 0.895758 0.729156 0.804167 0.845523 0.676962 0.605157 0.441387 0.424316 0.351843 0.183735 0.180562 0.117154 0.211879 0.118907 0.212582 0.107761 0.225577 0.235541 0.455517 0.413332 0.589558 0.627936 0.668945 0.730838 0.623157 0.603872 0.471392 0.419454 0.305612 0.273183 0.105645 0.165762 -0.019288 0.039575 -0.034655 -0.037628 -0.037921 0.039021 0.287616 0.303000 0.381672 0.327054 0.407005 0.419096 0.447060 0.427742 0.368399 0.352920 0.139425 0.091119 0.067829 -0.004506 -0.149782 -0.035583 -0.068813 0.044289 0.094321 0.169572 0.238108 0.245743 0.337342 0.424716 0.314689 0.374298 0.258915 0.142069 0.069662 0.053096 0.006857 0.042301 0.074692 0.109358 0.119895 0.189859 0.245455 0.311034 0.300245 0.232275 0.264860 0.232669 0.114604 0.083114 0.046931 0.037185 0.008806 0.001399 0.042386 0.175499 0.191900 0.200085 0.313545 0.196037 0.209833 0.090166 0.078157 -0.004599 -0.004750 0.006095 0.003394 0.042436 0.052032 0.094423 0.159624 0.152106 0.216826 0.127207 0.078837 0.105252 0.049443 -0.063914 -0.025596 0.015266 0.054733 0.074943 0.082786 0.157233 0.129349 0.151884 0.038997 0.058392 0.047382 0.050664 0.021612 -0.021277 0.037331 0.044533 0.085597 0.110853 0.094534 0.106653 0.127401 0.070308 0.010489 0.001270 0.034266 0.081856 0.061697 0.102840 0.097617 0.053886 0.112771 0.070084 0.041344 0.079855 -0.021939 0.023119 0.060809 0.038031 0.042504 0.049191 0.067924 0.053477 0.056957 0.010859 0.019079 -0.006643 0.039531 0.001160 0.050406 0.069473 0.068332 0.036947 -0.014444 -0.011928 -0.015198 0.029360 -0.003763 0.014806 0.068602 0.059183 -0.011593 0.010726 -0.010902 0.010373 -0.044854 -0.012556 -0.005312 0.028815 0.043987 0.015427 -0.023146 0.007185 -0.002234 0.001368 0.043352 0.013712 -0.013201 0.045852 -0.039022 -0.013435 -0.047876 -0.013645 -0.032264 0.016518 0.051287 0.003009 0.008827 -0.006293 0.007103 0.017358 0.026703 -0.010634 -0.005010 0.018810 0.042265 0.009229 0.010954 0.046055 -0.011711 -0.000150 0.026403 0.005693 0.071446 0.056603 0.029157 0.004156 -0.007366 -0.033462 -0.000900 0.075629 -0.009553 0.078609 -0.019231 -0.023447 -0.017273 0.090306 -0.008398 -0.008484 0.003901 0.038926 0.005200 0.005198 0.030919 0.004860 0.004178 0.020255 0.062544 0.084375 0.052627 0.030195 0.006772 -0.012646 0.001931 -0.021009 0.001530 0.105492 -0.027161 -0.090559 0.057375 -0.018150 0.042147 -0.060927 0.019780 0.015607 0.015299 -0.005140 -0.023102 -0.010016 -0.075386 0.019889 0.051523 0.073654 -0.121233 0.000418 -0.047149 -0.017023 -0.115535 0.115175 0.016927 0.038376 -0.061627 0.146718 0.261898 0.161840 0.122277 0.053258 -0.744657
0.072396 0.073047 0.074998 0.078250 0.082802 0.088651 0.095796 0.104233 0.113960 0.124970 0.137257 0.150812 0.165627 0.181687 0.198977 0.217479 0.237171 0.258027 0.280016 0.303102 0.327245 0.352398 0.378506 0.405510 0.433340 0.461920 0.491165 0.520981 0.551263 0.581897 0.612758 0.643711 0.674608 0.705292 0.735592 0.765327 0.794306 0.822324 0.849168 0.874613 0.898425 0.920363 0.940177 0.957613 0.972410 0.984307 0.993042 0.998355 0.999989 0.997697 0.991240 0.980394 0.964953 0.944730 0.919565 0.889326 0.853915 0.813270 0.767372 0.716249 0.659975 0.598682 0.532558 0.461850 0.386871 0.307997 0.225672 0.140409 0.052787 0.036548 0.126886 0.217454 0.307426 0.395923 0.482025 0.564774 0.643192 0.716285 0.783062 0.842543 0.893781 0.935873 0.967981 0.989346 0.999309 0.997331 0.983006 0.956081 0.916471 0.864276 0.799790 0.723511 0.636152 0.538639 0.432116 0.317934 0.197647 0.072994 0.054117 0.181636 0.307401 0.429173 0.544672 0.651624 0.747807 0.831103 0.899545 0.951376 0.985094 0.999509 0.993787 0.967487 0.920607 0.853602 0.767405 0.663438 0.543598 0.410249 0.266185 0.114582 0.041059 0.196983 0.349271 0.493936 0.627029 0.744751 0.843568 0.920333 0.972392 0.997697 0.994897 0.963416 0.903519 0.816340 0.703902 0.569093 0.415620 0.247928 0.071094 0.109320 0.287423 0.457193 0.612677 0.748206 0.858619 0.939473 0.987246 0.999512 0.975087 0.914138 0.818235 0.690359 0.534852 0.357300 0.164365 0.036445 0.237046 0.429103 0.604374 0.755073 0.874234 0.956059 0.996231 0.992178 0.943266 0.850912 0.718610 0.551849 0.357934 0.145703 0.074843 0.292991 0.497834 0.678816 0.826298 0.932098 0.989982 0.996078 0.949181 0.850926 0.705809 0.521047 0.306281 0.073122 0.165449 0.395782 0.604333 0.778482 0.907319 0.982378 0.998247 0.953017 0.848532 0.690416 0.487842 0.253080 0.000806 0.252782 0.490985 0.697706 0.858566 0.961948 0.999904 0.968832 0.869890 0.709072 0.496948 0.248054 0.020041 0.287925 0.535737 0.744647 0.898323 0.984266 0.994912 0.928382 0.788820 0.586259 0.336006 0.057578 0.226767 0.493780 0.721112 0.889244 0.983208 0.994025 0.919666 0.765442 0.543772 0.273293 0.022599 0.317714 0.585375 0.800825 0.943587 0.999502 0.962238 0.834136 0.626233 0.357467 0.053072 0.257728 0.544456 0.778400 0.935543 0.999117 0.961533 0.825414 0.603621 0.318202 0.001672 0.322609 0.610429 0.833836 0.967903 0.996961 0.916595 0.734440 0.469652 0.151066 0.185821 0.502738 0.762990 0.935755 0.999862 0.946545 0.780815 0.521222 0.197975 0.150428 0.481707 0.754904 0.935516 0.999985 0.938943 0.758770 0.481174 0.140791 0.218984 0.551462 0.812695 0.967390 0.993827 0.887119 0.660286 0.342926 0.022443 0.385938 0.697074 0.911819 0.998969 0.944874 0.755821 0.457605 0.092257 0.287700 0.626727 0.874387 0.992988 0.963520 0.788962 0.494338 0.123413 0.267623 0.618540 0.874375 0.994165 0.957731 0.769355 0.457650 0.071508 0.327373 0.674226 0.911788 0.999900 0.922560 0.691129 0.343022 0.064047 0.461441 0.781115 0.967358 0.986707 0.834276 0.535220 0.140942 0.279467 0.651229 0.907155 0.999983 0.911398 0.655984 0.279236 0.150223 0.552942 0.853305 0.993868 0.946620 0.718935 0.352881 0.082183 0.502514 0.826036 0.988482 0.956446 0.734633 0.365689 0.077606 0.506435 0.833665 0.991676 0.946636 0.706156 0.318522 0.136591 0.564240 0.873970 0.999102 0.911440 0.628060 0.208500 0.257352 0.668290
1.000000 1.000000 1.000000 1.000000 1.000000 1.000000 1.000000 1.000000 1.000000 1.000000 1.000000 1.000000 1.000000 1.000000 1.000000 1.000000 1.000000 1.000000 1.000000 1.000000 1.000000 1.000000 1.000000 1.000000 1.000000 1.000000 1.000000 1.000000 1.000000 1.000000 1.000000 1.000000 1.000000 1.000000 1.000000 1.000000 1.000000 1.000000 1.000000 1.000000 1.000000 1.000000 1.000000 1.000000 1.000000 1.000000 1.000000 1.000000 1.000000 1.000000 1.000000 1.000000 0.928649 0.928649 0.928649 0.928649 0.928649 0.928649 0.928649 0.928649 0.928649 0.928649 0.928649 0.928649 0.928649 0.928649 0.928649 0.928649 0.928649 0.928649 0.928649 0.928649 0.928649 0.928649 0.928649 0.928649 0.928649 0.928649 0.928649 0.928649 0.928649 0.928649 0.928649 0.928649 0.928649 0.916550 0.914592 0.915694 0.916835 0.916748 0.916219 0.915875 0.916907 0.918420 0.920387 0.941979 0.944957 0.946064 0.947330 0.948789 0.951332 0.949427 0.957279 0.963999 0.963090 0.964008 0.957847 0.959062 0.958463 0.957751 0.959490 0.959499 0.957952 0.956141 0.954739 0.954277 0.954002 0.955703 0.956131 0.956391 0.956871 0.956802 0.956640 0.956581 0.956868 0.959067 0.958160 0.957246 0.962918 0.961448 0.963345 0.963310 0.964024 0.964737 0.964954 0.965141 0.961521 0.961245 0.960585 0.949562 0.942626 0.940324 0.942611 0.945643 0.942931 0.938854 0.940378 0.943052 0.942335 0.941860 0.932776 0.929677 0.909105 0.898574 0.886585 0.887009 0.889329 0.891122 0.888867 0.880488 0.870782 0.866967 0.868396 0.863552 0.858330 0.874929 0.870134 0.870068 0.874099 0.876826 0.882046 0.877171 0.872910 0.868563 0.864745 0.860447 0.862770 0.867266 0.870692 0.858426 0.851088 0.854356 0.843622 0.836397 0.843509 0.845548 0.842386 0.841156 0.842015 0.840655 0.833587 0.829407 0.831753 0.841056 0.840461 0.829508 0.825187 0.819759 0.819714 0.814365 0.816473 0.815873 0.812366 0.805839 0.819886 0.788109 0.812172 0.810214 0.797030 0.782178 0.770302 0.779018 0.790699 0.793590 0.786625 0.777408 0.776321 0.771987 0.746873 0.751853 0.759163 0.757616 0.746690 0.723039 0.730272 0.738006 0.731041 0.725462 0.727641 0.729016 0.698926 0.712142 0.715542 0.699885 0.714723 0.715750 0.706748 0.705812 0.708218 0.710208 0.703618 0.665056 0.666824 0.668122 0.657434 0.606903 0.605892 0.606821 0.565027 0.567970 0.533070 0.516119 0.515780 0.514744 0.557389 0.531941 0.513545 0.542752 0.491331 0.402800 0.416577 0.409414 0.417855 0.427243 0.402015 0.400830 0.391424 0.363295 0.372189 0.387842 0.400615 0.376167 0.375572 0.371089 0.340548 0.315537 0.325959 0.329514 0.350300 0.352476 0.328312 0.361088 0.390822 0.335156 0.308814 0.296114 0.263799 0.278655 0.283534 0.273250 0.233450 0.238053 0.195153 0.218851 0.203698 0.197409 0.211083 0.243990 0.237031 0.243050 0.256135 0.217341 0.230318 0.232155 0.221448 0.223141 0.235585 0.233178 0.219392 0.236217 0.201416 0.215089 0.192794 0.171168 0.232179 0.217719 0.188030 0.187495 0.193418 0.206999 0.176118 0.133716 0.112667 0.123741 0.059616 0.039734 0.038796 0.032093 -0.013733 -0.041724 -0.058536 -0.095389 -0.094737 -0.093351 -0.054079 -0.086480 -0.055627 -0.045479 -0.045479 -0.045479 -0.045479 -0.045479 -0.045479 -0.045479 -0.045479 -0.045479 -0.045479 -0.045479 -0.045479 -0.045479 -0.045479 -0.022983 -0.022983 -0.022983 -0.022983 -0.022983 -0.022983 -0.022983 -0.022983 -0.022983 -0.022983 -0.022983 -0.022983
0.000000 0.000000 0.000000 0.000000 0.000000 0.000000 0.000000 0.000000 0.000000 0.000000 0.000000 0.000000 0.000000 0.000000 0.000000 0.000000 0.000000 0.000000 0.000000 0.000000 0.000000 0.000000 0.000000 0.000000 0.000000 7.000000 4.000000 0.000000 0.000000 0.000000 0.000000 0.000000 0.000000 0.000000 0.000000 0.000000 0.000000 0.000000 0.000000 0.000000 0.000000 0.000000 0.000000 0.000000 0.000000 0.000000 0.000000 0.000000 0.000000 0.000000 0.000000 0.000000 0.209657 0.209657 0.209657 0.209657 0.209657 0.209657 0.209657 0.209657 0.209657 0.209657 0.209657 0.209657 0.209657 0.209657 0.209657 0.209657 0.209657 0.209657 0.209657 0.209657 0.209657 0.209657 0.209657 0.209657 0.209657 0.209657 0.209657 0.209657 0.209657 0.209657 0.209657 0.209657 0.209657 0.244339 0.244339 0.244339 0.244339 0.244339 0.244339 0.244339 0.244339 0.244339 0.244339 0.244339 0.244339 0.244339 0.244339 0.244339 0.244339 0.244339 0.244339 0.244339 0.244339 0.244339 0.244339 0.244339 0.244339 0.244339 0.260378 0.260378 0.260378 0.260378 0.260378 0.260378 0.260378 0.260378 0.260378 0.260378 0.260378 0.260378 0.260378 0.260378 0.260378 0.260378 0.260378 0.260378 0.260378 0.260378 0.269680 0.269680 0.269680 0.269680 0.269680 0.269680 0.269680 0.269680 0.269680 0.269680 0.269680 0.269680 0.269680 0.269680 0.269680 0.269680 0.269680 0.269680 0.269680 0.269680 0.269680 0.269680 0.269680 0.269680 0.269680 0.269680 0.269680 0.269680 0.269680 0.269680 0.269680 0.269680 0.269680 0.280056 0.280056 0.280056 0.280056 0.280056 0.280056 0.280056 0.280056 0.280056 0.280056 0.280056 0.280056 0.280056 0.280056 0.280056 0.280056 0.280056 0.280056 0.280056 0.280056 0.280056 0.280056 0.280056 0.280056 0.280056 0.280056 0.280056 0.274721 0.274721 0.274721 0.274721 0.274721 0.274721 0.274721 0.274721 0.274721 0.274721 0.274721 0.274721 0.274721 0.285714 0.285714 0.285714 0.285714 0.285714 0.285714 0.285714 0.285714 0.285714 0.285714 0.285714 0.280056 0.280056 0.280056 0.280056 0.280056 0.280056 0.280056 0.280056 0.280056 0.280056 0.280056 0.274721 0.274721 0.274721 0.274721 0.274721 0.274721 0.274721 0.274721 0.274721 0.274721 0.274721 0.280056 0.280056 0.280056 0.280056 0.280056 0.280056 0.280056 0.280056 0.280056 0.280056 0.285714 0.285714 0.285714 0.285714 0.285714 0.285714 0.285714 0.285714 0.285714 0.269680 0.269680 0.269680 0.269680 0.269680 0.269680 0.269680 0.269680 0.269680 0.269680 0.274721 0.274721 0.274721 0.274721 0.274721 0.274721 0.274721 0.274721 0.274721 0.285714 0.285714 0.285714 0.285714 0.285714 0.285714 0.285714 0.285714 0.264906 0.264906 0.264906 0.264906 0.264906 0.264906 0.264906 0.264906 0.264906 0.274721 0.274721 0.274721 0.274721 0.274721 0.274721 0.274721 0.274721 0.269680 0.269680 0.269680 0.269680 0.269680 0.269680 0.269680 0.269680 0.269680 0.269680 0.269680 0.269680 0.269680 0.269680 0.269680 0.269680 0.280056 0.280056 0.280056 0.280056 0.280056 0.280056 0.280056 0.260378 0.260378 0.260378 0.260378 0.260378 0.260378 0.260378 0.260378 0.269680 0.269680 0.269680 0.269680 0.269680 0.269680 0.269680 0.264906 0.264906 0.264906 0.264906 0.264906 0.264906 0.264906 0.264906 0.264906 0.264906 0.264906 0.264906 0.264906 0.264906 0.260378 0.260378 0.260378 0.260378 0.260378 0.260378 0.260378 0.260378 0.260378 0.260378 0.260378 0.260378
