# Output from CTFFind version 4.1.9, run on 2019-11-02 17:59:17
# Input file: stack16_bm3d_averaged_1_1.75_0_1250_half.mrc ; Number of micrographs: 1
# Pixel size: 3.000 Angstroms ; acceleration voltage: 300.0 keV ; spherical aberration: 0.00 mm ; amplitude contrast: 0.07
# Box size: 512 pixels ; min. res.: 30.0 Angstroms ; max. res.: 5.0 Angstroms ; min. def.: 5000.0 um; max. def. 50000.0 um; num. frames averaged: 1
# 6 lines per micrograph: #1 - spatial frequency (1/Angstroms); #2 - 1D rotational average of spectrum (assuming no astigmatism); #3 - 1D rotational average of spectrum; #4 - CTF fit; #5 - cross-correlation between spectrum and CTF fit; #6 - 2sigma of expected cross correlation of noise
0.000000 0.000651 0.001302 0.001953 0.002604 0.003255 0.003906 0.004557 0.005208 0.005859 0.006510 0.007161 0.007812 0.008464 0.009115 0.009766 0.010417 0.011068 0.011719 0.012370 0.013021 0.013672 0.014323 0.014974 0.015625 0.016276 0.016927 0.017578 0.018229 0.018880 0.019531 0.020182 0.020833 0.021484 0.022135 0.022786 0.023438 0.024089 0.024740 0.025391 0.026042 0.026693 0.027344 0.027995 0.028646 0.029297 0.029948 0.030599 0.031250 0.031901 0.032552 0.033203 0.033854 0.034505 0.035156 0.035807 0.036458 0.037109 0.037760 0.038411 0.039062 0.039714 0.040365 0.041016 0.041667 0.042318 0.042969 0.043620 0.044271 0.044922 0.045573 0.046224 0.046875 0.047526 0.048177 0.048828 0.049479 0.050130 0.050781 0.051432 0.052083 0.052734 0.053385 0.054036 0.054688 0.055339 0.055990 0.056641 0.057292 0.057943 0.058594 0.059245 0.059896 0.060547 0.061198 0.061849 0.062500 0.063151 0.063802 0.064453 0.065104 0.065755 0.066406 0.067057 0.067708 0.068359 0.069010 0.069661 0.070312 0.070964 0.071615 0.072266 0.072917 0.073568 0.074219 0.074870 0.075521 0.076172 0.076823 0.077474 0.078125 0.078776 0.079427 0.080078 0.080729 0.081380 0.082031 0.082682 0.083333 0.083984 0.084635 0.085286 0.085938 0.086589 0.087240 0.087891 0.088542 0.089193 0.089844 0.090495 0.091146 0.091797 0.092448 0.093099 0.093750 0.094401 0.095052 0.095703 0.096354 0.097005 0.097656 0.098307 0.098958 0.099609 0.100260 0.100911 0.101562 0.102214 0.102865 0.103516 0.104167 0.104818 0.105469 0.106120 0.106771 0.107422 0.108073 0.108724 0.109375 0.110026 0.110677 0.111328 0.111979 0.112630 0.113281 0.113932 0.114583 0.115234 0.115885 0.116536 0.117188 0.117839 0.118490 0.119141 0.119792 0.120443 0.121094 0.121745 0.122396 0.123047 0.123698 0.124349 0.125000 0.125651 0.126302 0.126953 0.127604 0.128255 0.128906 0.129557 0.130208 0.130859 0.131510 0.132161 0.132812 0.133464 0.134115 0.134766 0.135417 0.136068 0.136719 0.137370 0.138021 0.138672 0.139323 0.139974 0.140625 0.141276 0.141927 0.142578 0.143229 0.143880 0.144531 0.145182 0.145833 0.146484 0.147135 0.147786 0.148438 0.149089 0.149740 0.150391 0.151042 0.151693 0.152344 0.152995 0.153646 0.154297 0.154948 0.155599 0.156250 0.156901 0.157552 0.158203 0.158854 0.159505 0.160156 0.160807 0.161458 0.162109 0.162760 0.163411 0.164062 0.164714 0.165365 0.166016 0.166667 0.167318 0.167969 0.168620 0.169271 0.169922 0.170573 0.171224 0.171875 0.172526 0.173177 0.173828 0.174479 0.175130 0.175781 0.176432 0.177083 0.177734 0.178385 0.179036 0.179688 0.180339 0.180990 0.181641 0.182292 0.182943 0.183594 0.184245 0.184896 0.185547 0.186198 0.186849 0.187500 0.188151 0.188802 0.189453 0.190104 0.190755 0.191406 0.192057 0.192708 0.193359 0.194010 0.194661 0.195312 0.195964 0.196615 0.197266 0.197917 0.198568 0.199219 0.199870 0.200521 0.201172 0.201823 0.202474 0.203125 0.203776 0.204427 0.205078 0.205729 0.206380 0.207031 0.207682 0.208333 0.208984 0.209635 0.210286 0.210938 0.211589 0.212240 0.212891 0.213542 0.214193 0.214844 0.215495 0.216146 0.216797 0.217448 0.218099 0.218750 0.219401 0.220052 0.220703 0.221354 0.222005 0.222656 0.223307 0.223958 0.224609 0.225260 0.225911 0.226562 0.227214 0.227865 0.228516 0.229167 0.229818 0.230469 0.231120 0.231771 0.232422 0.233073 0.233724 0.234375 0.235026 0.235677
       0.34373        0.34373        0.34373        0.34373        0.34373        0.34373        0.34373        0.34373        0.34373        0.34373        0.34373        0.34373        0.34373        0.34373        0.34373        0.34373        0.34373        0.34373        0.34373        0.34373        0.34373        0.34373        0.34373        0.34373        0.34373        0.34373        0.34373        0.34373        0.34373        0.34373        0.34373        0.34373        0.34373        0.34373        0.34373        0.34373        0.34373        0.34373        0.34373        0.34373        0.34373        0.34373        0.34373        0.34373        0.34373        0.34373        0.34373        0.34373        0.34373        0.34373        0.34373        0.48735        0.69660        0.45680       -0.11100       -0.41050       -0.56960       -0.65914       -0.74042       -0.75796       -0.87038       -0.91576       -0.75723       -0.92494       -0.87150       -1.02502       -1.09763       -0.98693       -0.95823       -0.88178       -0.84874       -0.74535       -0.63738       -0.49713       -0.42060       -0.21975       -0.11522       -0.02329        0.19896        0.24174        0.30838        0.38213        0.43424        0.51094        0.58056        0.60176        0.58939        0.50134        0.54830        0.48454        0.39467        0.32830        0.20366        0.17163        0.09728       -0.05294       -0.11341       -0.08688        0.01676       -0.01629        0.02160        0.02741        0.20209        0.21711        0.39279        0.45784        0.56473        0.70247        0.76570        0.73617        0.70199        0.69361        0.58304        0.53705        0.39654        0.28038        0.19789        0.15517        0.07096        0.03237        0.02275        0.06459        0.08492        0.27893        0.41499        0.50624        0.58913        0.63808        0.70176        0.65777        0.65584        0.66984        0.60500        0.48722        0.28979        0.24250        0.20731        0.12652        0.04158        0.09362        0.10930        0.25278        0.35229        0.41811        0.50571        0.54469        0.65243        0.60059        0.55198        0.51296        0.36314        0.20378        0.21354        0.15900        0.12821        0.12550        0.21487        0.25622        0.35853        0.44099        0.43429        0.54850        0.51044        0.46021        0.46052        0.38093        0.32686        0.26956        0.20880        0.23022        0.21545        0.20919        0.31367        0.45226        0.48441        0.48578        0.55330        0.50041        0.45110        0.40055        0.29913        0.23283        0.23644        0.23819        0.26194        0.27771        0.33220        0.44159        0.50506        0.49666        0.46307        0.41123        0.38701        0.35837        0.24738        0.22519        0.25400        0.29671        0.36048        0.36414        0.39472        0.41833        0.44522        0.37801        0.34926        0.31783        0.31677        0.27112        0.25965        0.30478        0.34864        0.41178        0.41960        0.39344        0.38846        0.40245        0.34830        0.28863        0.30090        0.29184        0.30626        0.35816        0.37740        0.41392        0.35690        0.36240        0.38884        0.34623        0.30951        0.28469        0.28819        0.33637        0.32809        0.32613        0.36789        0.39586        0.33949        0.35532        0.30267        0.30597        0.28194        0.28092        0.30370        0.32924        0.38392        0.36384        0.34807        0.32223        0.28372        0.27461        0.29762        0.28396        0.31729        0.36768        0.39683        0.33567        0.32218        0.30758        0.30453        0.30037        0.28017        0.31315        0.33933        0.32979        0.34130        0.32136        0.35435        0.32826        0.29233        0.31223        0.32476        0.35047        0.34946        0.31923        0.31612        0.29909        0.32369        0.31122        0.33665        0.39391        0.33149        0.35883        0.31149        0.30892        0.29447        0.31110        0.29506        0.31225        0.32219        0.34353        0.35720        0.30139        0.32389        0.32103        0.30096        0.29198        0.30070        0.32397        0.34697        0.35355        0.33313        0.31170        0.27399        0.25008        0.31250        0.35048        0.31622        0.29588        0.27950        0.29243        0.32786        0.31576        0.29877        0.34524        0.32953        0.30748        0.24137        0.28143        0.29069        0.29001        0.33472        0.32891        0.34988        0.34913        0.28880        0.28255        0.29776        0.28069        0.30741        0.27170        0.25822        0.26465        0.28000        0.29425        0.29168        0.29076        0.26748        0.31640        0.32441        0.31439        0.26755        0.26527        0.22948        0.25664        0.24380        0.29969        0.35678        0.23467        0.23976        0.28996        0.23629        0.23111        0.31763        0.25652        0.12650        0.17125        0.21657        0.29036        0.27191        0.12404        0.06232       -0.40387       -0.78801
3.062058 3.023929 2.986046 2.948408 2.911015 2.873868 2.836966 2.800309 2.763898 2.727732 2.691812 2.656137 2.620708 2.585524 2.550585 2.515892 2.481444 2.447242 2.413285 2.379573 2.346107 2.312886 2.279910 2.247181 2.214696 2.182457 2.150463 2.118715 2.087212 2.055954 2.024942 1.994176 1.963654 1.933378 1.903348 1.873563 1.844023 1.814729 1.785680 1.756876 1.728318 1.700006 1.671939 1.644117 1.616540 1.589209 1.562124 1.535284 1.508689 1.482340 1.456236 1.515096 1.692860 1.614697 0.965419 0.683346 0.477248 0.429861 0.325107 0.265930 0.198799 0.016170 0.197813 0.079372 -0.011861 -0.061414 -0.202327 -0.154870 -0.088329 -0.093619 -0.089929 0.010574 0.034821 0.230366 0.151688 0.362822 0.443773 0.477057 0.708999 0.697221 0.707008 0.834599 0.817164 0.842410 0.921182 0.898466 0.935394 0.749137 0.836973 0.836473 0.625094 0.606785 0.454975 0.435884 0.373266 0.214261 0.118720 0.098156 0.211807 0.140369 0.204295 0.113402 0.299386 0.282774 0.457499 0.411963 0.583155 0.644226 0.760735 0.704952 0.660177 0.659410 0.524423 0.503609 0.355236 0.296765 0.121853 0.152507 0.004027 -0.006050 -0.040173 -0.030324 -0.000897 0.037243 0.276192 0.325768 0.389613 0.392180 0.465083 0.513634 0.475024 0.504621 0.391884 0.395246 0.155097 0.075130 0.076734 -0.008658 -0.129565 -0.043636 -0.119491 0.012969 0.141323 0.162217 0.255247 0.263931 0.375072 0.459807 0.349256 0.393467 0.286560 0.122466 0.048857 0.055268 0.027368 0.010400 0.010705 0.111511 0.125784 0.270400 0.234826 0.297536 0.362094 0.248265 0.251153 0.222248 0.130239 0.085871 0.040273 0.024942 0.038883 -0.011752 0.026547 0.180922 0.224182 0.251275 0.284172 0.235199 0.239932 0.146543 0.113872 -0.016207 -0.009730 -0.009392 0.012367 0.009097 0.032424 0.105061 0.192664 0.206536 0.229370 0.134483 0.139818 0.078234 0.057237 -0.063975 -0.014982 0.006710 0.055061 0.067671 0.076122 0.151748 0.097539 0.163466 0.064347 0.048034 0.048805 0.029624 0.003051 0.001997 0.041210 0.085330 0.123219 0.134752 0.060640 0.118041 0.094061 0.005958 0.011116 0.010406 -0.001474 0.042658 0.060176 0.101185 0.092660 0.053584 0.071443 0.078257 0.031818 0.008385 -0.010157 -0.000333 0.059264 0.021108 0.033042 0.077567 0.084496 0.063503 0.033636 0.014284 0.008786 -0.010037 -0.010309 0.012460 0.050640 0.107855 0.057777 0.060562 0.027377 -0.012170 -0.004382 0.019602 0.012231 0.029010 0.104030 0.068516 0.013204 0.048669 0.000119 0.032966 -0.002572 -0.003375 0.036585 0.053880 0.024963 0.041919 0.025993 0.058444 0.021049 -0.005352 0.020973 0.037665 0.052169 0.044727 0.019750 -0.006555 -0.013796 0.017614 0.005557 0.043865 0.072742 0.031951 0.023769 -0.000666 0.000644 -0.012876 0.009730 0.000521 0.010877 -0.001974 0.063238 0.038335 0.015968 0.035843 0.002159 0.009356 -0.002158 -0.001436 0.037930 0.061434 0.070143 0.042156 0.030476 -0.020452 -0.012304 0.020687 0.071503 0.022792 0.035644 -0.013212 0.008864 0.043007 0.049635 0.012563 0.065941 0.047823 0.036050 -0.041135 0.004630 0.037686 0.005417 0.037084 0.073346 0.066282 0.056109 0.005791 0.007390 0.002545 -0.008118 0.028192 -0.039376 -0.023151 -0.034815 -0.025856 -0.005632 -0.016971 0.010869 -0.094187 -0.007611 -0.009773 -0.019578 -0.077988 -0.034498 -0.119594 -0.045407 -0.081128 -0.021114 0.064059 -0.114594 -0.055631 0.029990 -0.021943 -0.069538 0.048647 0.031163 -0.064513 -0.056729 0.023327 0.259727 0.254892 0.054246 0.057744 -0.692950
0.072396 0.073046 0.074995 0.078242 0.082788 0.088629 0.095764 0.104190 0.113903 0.124898 0.137168 0.150706 0.165500 0.181539 0.198806 0.217284 0.236950 0.257778 0.279739 0.302796 0.326908 0.352030 0.378107 0.405078 0.432877 0.461426 0.490640 0.520426 0.550680 0.581287 0.612124 0.643055 0.673934 0.704603 0.734893 0.764624 0.793604 0.821629 0.848487 0.873954 0.897798 0.919776 0.939640 0.957136 0.972006 0.983987 0.992819 0.998240 0.999997 0.997840 0.991532 0.980848 0.965583 0.945548 0.920583 0.890556 0.855366 0.814952 0.769292 0.718411 0.662383 0.601336 0.535456 0.464986 0.390236 0.311578 0.229454 0.144370 0.056903 0.032306 0.122551 0.213065 0.303025 0.391556 0.477741 0.560628 0.639240 0.712587 0.779677 0.839533 0.891208 0.933796 0.966459 0.988433 0.999056 0.997781 0.984195 0.958037 0.919212 0.867807 0.804103 0.728587 0.641956 0.545120 0.439207 0.325552 0.205694 0.081357 0.045565 0.173036 0.298906 0.420941 0.536870 0.644420 0.741371 0.825597 0.895124 0.948182 0.983252 0.999122 0.994929 0.970207 0.924917 0.859477 0.774782 0.672213 0.553628 0.421348 0.278130 0.127114 0.028229 0.184169 0.336806 0.482164 0.616292 0.735383 0.835883 0.914613 0.968880 0.996581 0.996304 0.967404 0.910067 0.825347 0.715182 0.582378 0.430561 0.264104 0.088018 0.092182 0.270644 0.441359 0.598371 0.735987 0.848996 0.932886 0.984042 0.999928 0.979233 0.921983 0.829601 0.704922 0.552142 0.376713 0.185183 0.015033 0.215913 0.409152 0.586494 0.740105 0.862926 0.949029 0.993929 0.994856 0.950956 0.863411 0.735477 0.572411 0.381313 0.170844 0.049129 0.267971 0.474789 0.658984 0.810797 0.921863 0.985705 0.998160 0.957691 0.865582 0.725974 0.545750 0.334255 0.102863 0.135610 0.367580 0.579476 0.758539 0.893622 0.975929 0.999635 0.962363 0.865462 0.714054 0.516851 0.285726 0.035049 0.219162 0.460243 0.671985 0.839740 0.951485 0.998738 0.977277 0.887587 0.734987 0.529415 0.284871 0.018529 0.250421 0.502133 0.717575 0.880003 0.976316 0.998195 0.942905 0.813696 0.619742 0.375599 0.100201 0.184543 0.455458 0.689985 0.868097 0.974063 0.997937 0.936589 0.794187 0.582069 0.317951 0.024562 0.272263 0.545811 0.770911 0.926305 0.996738 0.974563 0.860699 0.664789 0.404545 0.104257 0.207373 0.499940 0.744289 0.915487 0.995440 0.974946 0.854883 0.646409 0.370095 0.054023 0.268964 0.564630 0.800996 0.951854 0.999800 0.938378 0.773107 0.521188 0.209881 0.126301 0.449346 0.722027 0.912243 0.996900 0.964873 0.818646 0.574374 0.260292 0.086383 0.423777 0.710375 0.910196 0.997408 0.959853 0.800928 0.539554 0.208137 0.151289 0.492290 0.770016 0.947177 0.999189 0.917785 0.712537 0.409991 0.050460 0.317211 0.642196 0.878748 0.992762 0.966879 0.803364 0.524253 0.168639 0.212606 0.564008 0.833566 0.980527 0.981770 0.835672 0.562866 0.203605 0.187952 0.551777 0.831171 0.981708 0.978495 0.820570 0.531589 0.156596 0.244781 0.607677 0.872490 0.994795 0.953042 0.752650 0.425690 0.026063 0.379161 0.720939 0.940031 0.997495 0.881881 0.611819 0.233410 0.187383 0.576038 0.862689 0.994777 0.946996 0.726460 0.372095 0.051909 0.467476 0.796957 0.977729 0.974354 0.785882 0.446727 0.020781 0.410349 0.762883 0.967206 0.981867 0.802362 0.462755 0.029657 0.410566 0.768902 0.971734 0.976262 0.779909 0.421648 0.025291 0.468114 0.813602 0.987856 0.952407 0.713133 0.319859 0.143595 0.577022
1.000000 1.000000 1.000000 1.000000 1.000000 1.000000 1.000000 1.000000 1.000000 1.000000 1.000000 1.000000 1.000000 1.000000 1.000000 1.000000 1.000000 1.000000 1.000000 1.000000 1.000000 1.000000 1.000000 1.000000 1.000000 1.000000 1.000000 1.000000 1.000000 1.000000 1.000000 1.000000 1.000000 1.000000 1.000000 1.000000 1.000000 1.000000 1.000000 1.000000 1.000000 1.000000 1.000000 1.000000 1.000000 1.000000 1.000000 1.000000 1.000000 1.000000 1.000000 1.000000 0.936653 0.936653 0.936653 0.936653 0.936653 0.936653 0.936653 0.936653 0.936653 0.936653 0.936653 0.936653 0.936653 0.936653 0.936653 0.936653 0.936653 0.936653 0.936653 0.936653 0.936653 0.936653 0.936653 0.936653 0.936653 0.936653 0.936653 0.936653 0.936653 0.936653 0.936653 0.936653 0.936653 0.929071 0.930435 0.933177 0.934165 0.934139 0.933732 0.933455 0.933670 0.935322 0.937533 0.954103 0.956079 0.956556 0.957794 0.956542 0.959545 0.958012 0.957957 0.968674 0.967580 0.968132 0.961111 0.962585 0.961683 0.960756 0.961556 0.961731 0.959882 0.957855 0.956268 0.955681 0.955332 0.957044 0.957466 0.957434 0.957959 0.957797 0.957517 0.954129 0.952702 0.954117 0.956041 0.955320 0.961163 0.959479 0.962783 0.963571 0.962165 0.962072 0.962281 0.962487 0.954986 0.950235 0.945728 0.933959 0.925375 0.921980 0.924781 0.926592 0.925545 0.920638 0.919601 0.917391 0.912765 0.911963 0.911626 0.913034 0.908150 0.904826 0.888474 0.887886 0.891047 0.891428 0.889162 0.881033 0.877092 0.878167 0.881116 0.878945 0.875734 0.891983 0.886034 0.890500 0.893423 0.896559 0.900399 0.895605 0.892652 0.888898 0.885393 0.879753 0.880769 0.874014 0.876740 0.869992 0.859481 0.852989 0.855938 0.864918 0.873075 0.880982 0.880054 0.880737 0.879939 0.867442 0.869477 0.855555 0.856322 0.860267 0.865909 0.864279 0.861663 0.865909 0.863970 0.861382 0.864595 0.861112 0.859161 0.849154 0.849603 0.852442 0.867982 0.869508 0.855763 0.845198 0.832633 0.839683 0.843233 0.842691 0.844348 0.839252 0.841190 0.832671 0.820396 0.821783 0.827200 0.820138 0.823803 0.824211 0.829428 0.831171 0.829823 0.825347 0.824118 0.827991 0.793371 0.801143 0.802448 0.794652 0.799114 0.791983 0.784503 0.782778 0.779476 0.763998 0.775746 0.770656 0.737236 0.736984 0.743879 0.734732 0.723745 0.722352 0.723394 0.712797 0.699813 0.670124 0.666937 0.657847 0.653764 0.658184 0.642906 0.634635 0.623809 0.588434 0.599916 0.604469 0.591937 0.592443 0.584321 0.578610 0.569489 0.559289 0.556348 0.563110 0.565503 0.532492 0.526499 0.537717 0.508908 0.507005 0.506906 0.497021 0.480746 0.486376 0.477615 0.504452 0.514350 0.477466 0.465969 0.480741 0.498403 0.508833 0.510490 0.496317 0.476396 0.501103 0.479720 0.463241 0.478245 0.479119 0.470708 0.478879 0.472234 0.500481 0.488752 0.459687 0.486968 0.466704 0.463446 0.473025 0.466464 0.464891 0.462996 0.461694 0.410420 0.427360 0.406144 0.346529 0.365636 0.366265 0.354935 0.351499 0.326449 0.327770 0.298163 0.276639 0.274829 0.269837 0.229157 0.183086 0.189662 0.191271 0.161419 0.130574 0.138442 0.096039 0.088295 0.110638 0.112129 0.111536 0.110750 0.135701 0.135701 0.135701 0.135701 0.135701 0.135701 0.135701 0.135701 0.135701 0.135701 0.135701 0.135701 0.135701 0.135701 0.162030 0.162030 0.162030 0.162030 0.162030 0.162030 0.162030 0.162030 0.162030 0.162030 0.162030 0.162030
0.000000 0.000000 0.000000 0.000000 0.000000 0.000000 0.000000 0.000000 0.000000 0.000000 0.000000 0.000000 0.000000 0.000000 0.000000 0.000000 0.000000 0.000000 0.000000 0.000000 0.000000 0.000000 0.000000 0.000000 0.000000 7.000000 4.000000 0.000000 0.000000 0.000000 0.000000 0.000000 0.000000 0.000000 0.000000 0.000000 0.000000 0.000000 0.000000 0.000000 0.000000 0.000000 0.000000 0.000000 0.000000 0.000000 0.000000 0.000000 0.000000 0.000000 0.000000 0.000000 0.209657 0.209657 0.209657 0.209657 0.209657 0.209657 0.209657 0.209657 0.209657 0.209657 0.209657 0.209657 0.209657 0.209657 0.209657 0.209657 0.209657 0.209657 0.209657 0.209657 0.209657 0.209657 0.209657 0.209657 0.209657 0.209657 0.209657 0.209657 0.209657 0.209657 0.209657 0.209657 0.209657 0.244339 0.244339 0.244339 0.244339 0.244339 0.244339 0.244339 0.244339 0.244339 0.244339 0.244339 0.244339 0.244339 0.244339 0.244339 0.244339 0.244339 0.244339 0.244339 0.244339 0.244339 0.244339 0.244339 0.244339 0.244339 0.260378 0.260378 0.260378 0.260378 0.260378 0.260378 0.260378 0.260378 0.260378 0.260378 0.260378 0.260378 0.260378 0.260378 0.260378 0.260378 0.260378 0.260378 0.260378 0.260378 0.269680 0.269680 0.269680 0.269680 0.269680 0.269680 0.269680 0.269680 0.269680 0.269680 0.269680 0.269680 0.269680 0.269680 0.269680 0.269680 0.269680 0.269680 0.269680 0.269680 0.269680 0.269680 0.269680 0.269680 0.269680 0.269680 0.269680 0.269680 0.269680 0.269680 0.269680 0.269680 0.269680 0.280056 0.280056 0.280056 0.280056 0.280056 0.280056 0.280056 0.280056 0.280056 0.280056 0.280056 0.280056 0.280056 0.280056 0.280056 0.280056 0.280056 0.280056 0.280056 0.280056 0.280056 0.280056 0.280056 0.280056 0.280056 0.280056 0.280056 0.274721 0.274721 0.274721 0.274721 0.274721 0.274721 0.274721 0.274721 0.274721 0.274721 0.274721 0.274721 0.274721 0.285714 0.285714 0.285714 0.285714 0.285714 0.285714 0.285714 0.285714 0.285714 0.285714 0.285714 0.280056 0.280056 0.280056 0.280056 0.280056 0.280056 0.280056 0.280056 0.280056 0.280056 0.280056 0.274721 0.274721 0.274721 0.274721 0.274721 0.274721 0.274721 0.274721 0.274721 0.274721 0.274721 0.280056 0.280056 0.280056 0.280056 0.280056 0.280056 0.280056 0.280056 0.280056 0.280056 0.285714 0.285714 0.285714 0.285714 0.285714 0.285714 0.285714 0.285714 0.285714 0.269680 0.269680 0.269680 0.269680 0.269680 0.269680 0.269680 0.269680 0.269680 0.269680 0.274721 0.274721 0.274721 0.274721 0.274721 0.274721 0.274721 0.274721 0.274721 0.285714 0.285714 0.285714 0.285714 0.285714 0.285714 0.285714 0.285714 0.264906 0.264906 0.264906 0.264906 0.264906 0.264906 0.264906 0.264906 0.264906 0.274721 0.274721 0.274721 0.274721 0.274721 0.274721 0.274721 0.274721 0.269680 0.269680 0.269680 0.269680 0.269680 0.269680 0.269680 0.269680 0.269680 0.269680 0.269680 0.269680 0.269680 0.269680 0.269680 0.269680 0.280056 0.280056 0.280056 0.280056 0.280056 0.280056 0.280056 0.260378 0.260378 0.260378 0.260378 0.260378 0.260378 0.260378 0.260378 0.269680 0.269680 0.269680 0.269680 0.269680 0.269680 0.269680 0.264906 0.264906 0.264906 0.264906 0.264906 0.264906 0.264906 0.264906 0.264906 0.264906 0.264906 0.264906 0.264906 0.264906 0.260378 0.260378 0.260378 0.260378 0.260378 0.260378 0.260378 0.260378 0.260378 0.260378 0.260378 0.260378
