# Output from CTFFind version 4.1.9, run on 2019-11-03 20:10:46
# Input file: stack11_bm3d_averaged_1_6.5_0_3000_half.mrc ; Number of micrographs: 1
# Pixel size: 3.000 Angstroms ; acceleration voltage: 300.0 keV ; spherical aberration: 0.00 mm ; amplitude contrast: 0.07
# Box size: 512 pixels ; min. res.: 30.0 Angstroms ; max. res.: 5.0 Angstroms ; min. def.: 5000.0 um; max. def. 50000.0 um; num. frames averaged: 1
# 6 lines per micrograph: #1 - spatial frequency (1/Angstroms); #2 - 1D rotational average of spectrum (assuming no astigmatism); #3 - 1D rotational average of spectrum; #4 - CTF fit; #5 - cross-correlation between spectrum and CTF fit; #6 - 2sigma of expected cross correlation of noise
0.000000 0.000651 0.001302 0.001953 0.002604 0.003255 0.003906 0.004557 0.005208 0.005859 0.006510 0.007161 0.007812 0.008464 0.009115 0.009766 0.010417 0.011068 0.011719 0.012370 0.013021 0.013672 0.014323 0.014974 0.015625 0.016276 0.016927 0.017578 0.018229 0.018880 0.019531 0.020182 0.020833 0.021484 0.022135 0.022786 0.023438 0.024089 0.024740 0.025391 0.026042 0.026693 0.027344 0.027995 0.028646 0.029297 0.029948 0.030599 0.031250 0.031901 0.032552 0.033203 0.033854 0.034505 0.035156 0.035807 0.036458 0.037109 0.037760 0.038411 0.039062 0.039714 0.040365 0.041016 0.041667 0.042318 0.042969 0.043620 0.044271 0.044922 0.045573 0.046224 0.046875 0.047526 0.048177 0.048828 0.049479 0.050130 0.050781 0.051432 0.052083 0.052734 0.053385 0.054036 0.054688 0.055339 0.055990 0.056641 0.057292 0.057943 0.058594 0.059245 0.059896 0.060547 0.061198 0.061849 0.062500 0.063151 0.063802 0.064453 0.065104 0.065755 0.066406 0.067057 0.067708 0.068359 0.069010 0.069661 0.070312 0.070964 0.071615 0.072266 0.072917 0.073568 0.074219 0.074870 0.075521 0.076172 0.076823 0.077474 0.078125 0.078776 0.079427 0.080078 0.080729 0.081380 0.082031 0.082682 0.083333 0.083984 0.084635 0.085286 0.085938 0.086589 0.087240 0.087891 0.088542 0.089193 0.089844 0.090495 0.091146 0.091797 0.092448 0.093099 0.093750 0.094401 0.095052 0.095703 0.096354 0.097005 0.097656 0.098307 0.098958 0.099609 0.100260 0.100911 0.101562 0.102214 0.102865 0.103516 0.104167 0.104818 0.105469 0.106120 0.106771 0.107422 0.108073 0.108724 0.109375 0.110026 0.110677 0.111328 0.111979 0.112630 0.113281 0.113932 0.114583 0.115234 0.115885 0.116536 0.117188 0.117839 0.118490 0.119141 0.119792 0.120443 0.121094 0.121745 0.122396 0.123047 0.123698 0.124349 0.125000 0.125651 0.126302 0.126953 0.127604 0.128255 0.128906 0.129557 0.130208 0.130859 0.131510 0.132161 0.132812 0.133464 0.134115 0.134766 0.135417 0.136068 0.136719 0.137370 0.138021 0.138672 0.139323 0.139974 0.140625 0.141276 0.141927 0.142578 0.143229 0.143880 0.144531 0.145182 0.145833 0.146484 0.147135 0.147786 0.148438 0.149089 0.149740 0.150391 0.151042 0.151693 0.152344 0.152995 0.153646 0.154297 0.154948 0.155599 0.156250 0.156901 0.157552 0.158203 0.158854 0.159505 0.160156 0.160807 0.161458 0.162109 0.162760 0.163411 0.164062 0.164714 0.165365 0.166016 0.166667 0.167318 0.167969 0.168620 0.169271 0.169922 0.170573 0.171224 0.171875 0.172526 0.173177 0.173828 0.174479 0.175130 0.175781 0.176432 0.177083 0.177734 0.178385 0.179036 0.179688 0.180339 0.180990 0.181641 0.182292 0.182943 0.183594 0.184245 0.184896 0.185547 0.186198 0.186849 0.187500 0.188151 0.188802 0.189453 0.190104 0.190755 0.191406 0.192057 0.192708 0.193359 0.194010 0.194661 0.195312 0.195964 0.196615 0.197266 0.197917 0.198568 0.199219 0.199870 0.200521 0.201172 0.201823 0.202474 0.203125 0.203776 0.204427 0.205078 0.205729 0.206380 0.207031 0.207682 0.208333 0.208984 0.209635 0.210286 0.210938 0.211589 0.212240 0.212891 0.213542 0.214193 0.214844 0.215495 0.216146 0.216797 0.217448 0.218099 0.218750 0.219401 0.220052 0.220703 0.221354 0.222005 0.222656 0.223307 0.223958 0.224609 0.225260 0.225911 0.226562 0.227214 0.227865 0.228516 0.229167 0.229818 0.230469 0.231120 0.231771 0.232422 0.233073 0.233724 0.234375 0.235026 0.235677
       0.34461        0.34461        0.34461        0.34461        0.34461        0.34461        0.34461        0.34461        0.34461        0.34461        0.34461        0.34461        0.34461        0.34461        0.34461        0.34461        0.34461        0.34461        0.34461        0.34461        0.34461        0.34461        0.34461        0.34461        0.34461        0.34461        0.34461        0.34461        0.34461        0.34461        0.34461        0.34461        0.34461        0.34461        0.34461        0.34461        0.34461        0.34461        0.34461        0.34461        0.34461        0.34461        0.34461        0.34461        0.34461        0.34461        0.34461        0.34461        0.34461        0.34461        0.34461        0.69881        0.85773        0.53799        0.10542       -0.02913       -0.38661       -0.18023       -0.28831       -0.11570       -0.05515       -0.11240       -0.05316       -0.16710       -0.20580       -0.21404       -0.30713       -0.31855       -0.44426       -0.36204       -0.42623       -0.42117       -0.39403       -0.40780       -0.44766       -0.50816       -0.55875       -0.55042       -0.52472       -0.35684       -0.32661       -0.29169       -0.27164       -0.18570       -0.17012        0.06114        0.14168        0.17462        0.26588        0.38170        0.45789        0.52326        0.60042        0.59776        0.58420        0.70011        0.80350        0.70343        0.74420        0.62002        0.56876        0.48366        0.43250        0.51225        0.39759        0.27093        0.11645        0.11270        0.09308       -0.01399        0.04407        0.05212        0.01102        0.02800        0.03033        0.23726        0.27163        0.29671        0.43518        0.45364        0.41460        0.59964        0.61937        0.63618        0.72480        0.67650        0.64720        0.65674        0.56033        0.46105        0.41907        0.30377        0.26945        0.18439        0.13655        0.05257        0.06527        0.07502        0.09976        0.15943        0.24532        0.29756        0.42156        0.46543        0.48146        0.56523        0.60286        0.63687        0.61560        0.55861        0.46201        0.47383        0.37898        0.27723        0.21215        0.15671        0.17267        0.15354        0.16030        0.18938        0.32280        0.33722        0.40664        0.44603        0.42646        0.48122        0.56351        0.55514        0.50290        0.45776        0.41371        0.37253        0.34188        0.30926        0.26451        0.24732        0.25405        0.25632        0.22609        0.30998        0.36465        0.38494        0.43963        0.45647        0.46816        0.42731        0.41189        0.40232        0.36329        0.33654        0.27489        0.28067        0.26890        0.24593        0.29552        0.29280        0.35221        0.38294        0.43430        0.47681        0.40743        0.42302        0.43285        0.41181        0.35022        0.32856        0.29328        0.32639        0.27577        0.32309        0.31545        0.33320        0.34153        0.36476        0.31472        0.38905        0.41260        0.38106        0.35200        0.37009        0.31901        0.29546        0.30786        0.32063        0.30829        0.32056        0.34467        0.35689        0.34126        0.36482        0.36369        0.42251        0.39031        0.33973        0.34861        0.30000        0.29413        0.32667        0.32041        0.33104        0.34322        0.34239        0.38754        0.33144        0.33048        0.33900        0.34860        0.30522        0.31308        0.28203        0.30352        0.33112        0.30520        0.33192        0.35835        0.36955        0.29880        0.34207        0.29965        0.29447        0.27973        0.24726        0.30721        0.30721        0.34294        0.33980        0.34437        0.32770        0.34997        0.31515        0.34654        0.30756        0.32515        0.29139        0.33686        0.33010        0.37178        0.33034        0.33650        0.33840        0.29387        0.27594        0.31260        0.25034        0.22926        0.34142        0.32331        0.36728        0.34767        0.36335        0.33530        0.33489        0.35084        0.26618        0.26784        0.31906        0.30188        0.31167        0.31607        0.33982        0.32953        0.28982        0.29078        0.34586        0.32248        0.32121        0.29796        0.32259        0.33879        0.39419        0.36200        0.31947        0.28310        0.30416        0.29014        0.30624        0.27803        0.27016        0.31284        0.33076        0.34607        0.35610        0.33168        0.29529        0.30162        0.27082        0.27832        0.25660        0.30770        0.26283        0.24745        0.29227        0.28730        0.26321        0.29495        0.21899        0.21552        0.24027        0.19261        0.27194        0.34837        0.25282        0.24123        0.31853        0.30376        0.31097        0.31464        0.27224        0.25142        0.19275        0.21085        0.20645        0.27729        0.23691        0.28433        0.36404        0.36620        0.25344        0.17350        0.11791       -0.01382       -0.12275       -0.62229
2.800537 2.770823 2.741270 2.711880 2.682652 2.653585 2.624680 2.595937 2.567356 2.538937 2.510679 2.482584 2.454650 2.426878 2.399267 2.371819 2.344532 2.317407 2.290444 2.263643 2.237004 2.210526 2.184210 2.158056 2.132064 2.106234 2.080565 2.055058 2.029714 2.004530 1.979509 1.954650 1.929952 1.905416 1.881042 1.856830 1.832780 1.808891 1.785165 1.761600 1.738196 1.714955 1.691876 1.668958 1.646202 1.623608 1.601176 1.578905 1.556797 1.534850 1.513065 1.731079 2.156798 1.712507 1.192245 1.055684 0.454403 0.851845 0.562880 0.847923 0.816893 0.820816 0.760016 0.756663 0.598371 0.562298 0.502861 0.428997 0.249753 0.366111 0.200063 0.331027 0.220021 0.210435 0.185309 0.041445 0.003169 0.019172 -0.069867 0.133681 0.233510 0.189273 0.179285 0.325955 0.184919 0.522851 0.627027 0.635276 0.652473 0.880125 0.838612 0.947093 0.942097 1.039125 1.008246 1.091773 1.174830 1.048216 1.170014 0.913352 0.933197 0.799055 0.656163 0.811097 0.697872 0.497721 0.334093 0.252513 0.270054 0.149639 0.137072 0.166250 0.109140 0.121113 0.082378 0.250006 0.352612 0.343185 0.478249 0.546686 0.418279 0.595880 0.733936 0.649828 0.722615 0.712867 0.720911 0.648279 0.597786 0.493111 0.369334 0.277240 0.220782 0.091258 0.116879 -0.114867 -0.049330 -0.063348 -0.083600 -0.018869 0.129548 0.070700 0.242257 0.308044 0.337004 0.375375 0.498055 0.466852 0.480968 0.491882 0.305754 0.294858 0.287517 0.086737 0.046070 -0.081076 -0.015045 -0.062582 -0.096550 -0.072723 0.039885 0.094636 0.125932 0.224074 0.224476 0.222062 0.316920 0.358514 0.434836 0.257270 0.233029 0.226388 0.143776 0.145340 0.119486 -0.004297 0.015553 0.075475 -0.010195 0.045603 0.133906 0.135604 0.214725 0.234209 0.259605 0.162651 0.211131 0.128164 0.129293 0.113182 0.027864 -0.026426 -0.000779 -0.020594 -0.052932 0.054828 0.004973 0.106584 0.138766 0.192535 0.169774 0.111782 0.140867 0.160609 0.110590 0.036377 -0.025318 0.030171 0.027596 -0.042703 0.036286 0.021430 0.048030 0.039626 0.050883 0.031050 0.134127 0.120752 0.046739 0.038917 0.043218 0.006063 -0.030871 0.009642 0.005925 -0.003578 0.004377 0.055644 0.053752 0.039314 0.076871 0.060878 0.162458 0.063932 0.040299 0.042959 -0.034397 0.011768 0.046916 0.007909 0.033648 0.055307 0.080153 0.049739 0.042219 0.008660 0.079486 0.025499 0.021529 0.023693 -0.006850 0.033223 0.026149 0.021157 0.069209 0.074387 0.076547 0.041075 0.051418 0.024665 0.016277 -0.023060 -0.024467 0.036571 0.052628 0.081088 0.081742 0.065893 0.069516 0.102046 0.043390 0.092076 0.059525 0.043610 0.018597 0.104068 0.062561 0.123497 0.070287 0.062284 0.101506 0.033753 0.003510 0.086644 -0.039048 -0.026881 0.096345 0.044451 0.160281 0.093610 0.090107 0.066789 0.036656 0.091779 -0.024891 -0.024737 0.050646 0.037038 0.035551 0.022715 0.105454 0.033067 -0.010772 0.051327 0.043949 0.052174 0.060708 -0.008755 0.060490 0.053396 0.119938 0.055161 0.028101 -0.027693 -0.023225 -0.004275 0.006615 -0.054990 -0.022771 0.001981 0.017328 0.035463 0.056356 0.005383 -0.033165 -0.030335 -0.019468 -0.067206 -0.047729 -0.028305 -0.139527 -0.096186 -0.054475 -0.090288 -0.104527 -0.024395 -0.152861 -0.105821 -0.112090 -0.186607 -0.070143 0.061018 -0.071491 -0.139898 0.051582 0.035410 -0.024662 0.075575 -0.023627 -0.001909 -0.088245 -0.035783 0.045631 0.122873 0.055580 0.139575 0.172867 0.429505 0.236016 0.315175 0.149334 -0.019446 -0.694204
0.072396 0.072899 0.074408 0.076922 0.080442 0.084965 0.090492 0.097019 0.104546 0.113068 0.122584 0.133088 0.144575 0.157040 0.170473 0.184866 0.200207 0.216485 0.233683 0.251785 0.270771 0.290617 0.311297 0.332783 0.355040 0.378032 0.401716 0.426048 0.450976 0.476444 0.502391 0.528749 0.555446 0.582402 0.609533 0.636746 0.663942 0.691017 0.717858 0.744345 0.770354 0.795752 0.820399 0.844149 0.866852 0.888350 0.908481 0.927076 0.943966 0.958977 0.971930 0.982648 0.990953 0.996668 0.999617 0.999628 0.996536 0.990181 0.980413 0.967092 0.950090 0.929295 0.904611 0.875961 0.843289 0.806563 0.765776 0.720949 0.672132 0.619410 0.562898 0.502750 0.439154 0.372340 0.302573 0.230163 0.155457 0.078845 0.000755 0.078345 0.157951 0.237521 0.316483 0.394235 0.470149 0.543576 0.613854 0.680308 0.742264 0.799048 0.850000 0.894481 0.931881 0.961625 0.983189 0.996104 0.999968 0.994454 0.979323 0.954426 0.919721 0.875272 0.821261 0.757992 0.685894 0.605525 0.517572 0.422849 0.322297 0.216974 0.108053 0.003194 0.115403 0.227136 0.336898 0.443153 0.544351 0.638944 0.725420 0.802320 0.868272 0.922015 0.962428 0.988557 0.999639 0.995131 0.974725 0.938372 0.886295 0.819002 0.737287 0.642238 0.535225 0.417894 0.292144 0.160110 0.024124 0.113313 0.249583 0.381992 0.507827 0.624412 0.729168 0.819674 0.893727 0.949406 0.985125 0.999689 0.992340 0.962794 0.911271 0.838516 0.745804 0.634930 0.508195 0.368363 0.218619 0.062501 0.096174 0.253405 0.405094 0.547165 0.675670 0.786908 0.877536 0.944683 0.986049 1.000000 0.985642 0.942880 0.872455 0.775954 0.655797 0.515202 0.358105 0.189080 0.013203 0.164082 0.337130 0.500274 0.648011 0.775203 0.877253 0.950298 0.991365 0.998510 0.970934 0.909044 0.814495 0.690169 0.540120 0.369460 0.184210 0.008902 0.202665 0.389664 0.562546 0.714330 0.838693 0.930252 0.984819 0.999614 0.973434 0.906754 0.801773 0.662375 0.494015 0.303545 0.098950 0.110967 0.316951 0.509701 0.680300 0.820631 0.923791 0.984452 0.999168 0.966601 0.887658 0.765515 0.605535 0.415075 0.203180 0.019824 0.242811 0.454409 0.643580 0.800201 0.915642 0.983263 0.998835 0.960841 0.870645 0.732507 0.553426 0.342841 0.112160 0.125820 0.357615 0.569816 0.749865 0.886832 0.972103 0.999969 0.968052 0.877547 0.733252 0.543376 0.319127 0.074085 0.176580 0.417037 0.631791 0.806705 0.929940 0.992828 0.990510 0.922379 0.792236 0.608145 0.382009 0.128853 0.134149 0.388804 0.617152 0.802760 0.931935 0.994775 0.985997 0.905442 0.758224 0.554480 0.308756 0.039011 0.234643 0.491428 0.711491 0.877449 0.975816 0.998168 0.941930 0.810731 0.614269 0.367676 0.090424 0.195156 0.465670 0.698556 0.873999 0.976671 0.997145 0.932831 0.788375 0.575427 0.311796 0.020027 0.274465 0.545600 0.768942 0.923946 0.995914 0.977469 0.869409 0.680818 0.428425 0.135193 0.171688 0.463284 0.711666 0.892582 0.987923 0.987604 0.890742 0.705952 0.450698 0.149755 0.167129 0.468119 0.722501 0.903846 0.992826 0.979380 0.863960 0.657716 0.381554 0.064120 0.261098 0.559257 0.797917 0.950605 0.999860 0.939337 0.774749 0.523483 0.212900 0.122551 0.445085 0.717834 0.909098 0.996109 0.967866 0.826661 0.588084 0.279446 0.063218 0.399296 0.688374 0.895141 0.993786 0.971341 0.829536 0.584885 0.266917 0.085261 0.427686 0.717012 0.916038 0.998590 0.953099 0.784387 0.513354 0.174565 0.188048
1.000000 1.000000 1.000000 1.000000 1.000000 1.000000 1.000000 1.000000 1.000000 1.000000 1.000000 1.000000 1.000000 1.000000 1.000000 1.000000 1.000000 1.000000 1.000000 1.000000 1.000000 1.000000 1.000000 1.000000 1.000000 1.000000 1.000000 1.000000 1.000000 1.000000 1.000000 1.000000 1.000000 1.000000 1.000000 1.000000 1.000000 1.000000 1.000000 1.000000 1.000000 1.000000 1.000000 1.000000 1.000000 1.000000 1.000000 1.000000 1.000000 1.000000 1.000000 1.000000 0.916467 0.916467 0.916467 0.912380 0.912380 0.912380 0.912380 0.912380 0.912380 0.912380 0.912380 0.912380 0.912380 0.912380 0.912380 0.912380 0.912380 0.912380 0.912380 0.912380 0.912380 0.912380 0.912380 0.912380 0.912380 0.912380 0.912380 0.912380 0.912380 0.912380 0.912380 0.912380 0.912380 0.912380 0.912380 0.912380 0.912380 0.912380 0.912380 0.912380 0.912380 0.912380 0.912380 0.912380 0.941211 0.942610 0.950915 0.950453 0.949869 0.947888 0.946655 0.946319 0.946232 0.946575 0.947292 0.948264 0.954473 0.955385 0.959790 0.962492 0.962460 0.964194 0.966159 0.965823 0.957474 0.957255 0.955853 0.955125 0.957239 0.955883 0.954653 0.955125 0.954735 0.957301 0.956842 0.955631 0.953995 0.952407 0.951118 0.950569 0.950337 0.951132 0.951201 0.952758 0.955775 0.955924 0.955649 0.952864 0.952495 0.953696 0.953055 0.952824 0.941086 0.940466 0.939020 0.939013 0.941571 0.941496 0.941391 0.942281 0.941976 0.941896 0.942042 0.935457 0.935130 0.927394 0.923956 0.922366 0.917015 0.912991 0.915617 0.918205 0.919482 0.919947 0.910960 0.907981 0.908917 0.907749 0.909219 0.906939 0.907723 0.908450 0.908274 0.902664 0.892598 0.891072 0.884234 0.887017 0.884224 0.881481 0.878173 0.868744 0.858141 0.872296 0.857068 0.824349 0.828121 0.833115 0.826290 0.823518 0.824705 0.826319 0.831160 0.824075 0.822379 0.816866 0.804521 0.800145 0.793675 0.779950 0.778931 0.769976 0.759535 0.753813 0.777961 0.771689 0.783055 0.787528 0.787306 0.784156 0.775857 0.765616 0.765246 0.761187 0.757803 0.735075 0.726326 0.726560 0.723601 0.711697 0.714909 0.702860 0.702850 0.690754 0.695512 0.700762 0.703749 0.700200 0.695557 0.687396 0.682895 0.695269 0.709350 0.702223 0.697471 0.700338 0.690450 0.683183 0.675024 0.679491 0.672667 0.662316 0.668387 0.695914 0.667851 0.657273 0.664176 0.666163 0.660235 0.661248 0.640960 0.635415 0.613827 0.631039 0.635862 0.651885 0.652854 0.654293 0.665488 0.671057 0.681798 0.686244 0.685255 0.646052 0.649573 0.669189 0.676753 0.665098 0.654855 0.654935 0.649380 0.685195 0.668711 0.625995 0.622348 0.621187 0.581945 0.560022 0.558659 0.560868 0.587152 0.581798 0.562928 0.536512 0.538370 0.540649 0.540757 0.539717 0.523963 0.532375 0.517897 0.494340 0.506127 0.513868 0.512254 0.496682 0.490071 0.504926 0.476037 0.511541 0.481052 0.461676 0.479122 0.477102 0.465309 0.392575 0.403303 0.391610 0.378380 0.334175 0.343905 0.353570 0.337086 0.262554 0.255752 0.256492 0.253355 0.235350 0.215227 0.201600 0.190792 0.168827 0.105808 0.058525 0.058794 0.062508 0.089971 0.050055 0.102553 0.168975 0.167935 0.167935 0.167935 0.167935 0.167935 0.167935 0.167935 0.167935 0.143466 0.143466 0.143466 0.143466 0.143466 0.143466 0.143466 0.143466 0.143466 0.167935 0.167935 0.167935 0.167935 0.167935 0.167935 0.167935 0.167935 0.167935 0.167935 0.167935 0.167935 0.167935 0.167935
0.000000 0.000000 0.000000 0.000000 0.000000 0.000000 0.000000 0.000000 0.000000 0.000000 0.000000 0.000000 0.000000 0.000000 0.000000 0.000000 0.000000 0.000000 0.000000 0.000000 0.000000 0.000000 0.000000 0.000000 0.000000 0.000000 0.000000 0.000000 0.000000 0.000000 0.000000 0.000000 0.000000 0.000000 0.000000 0.000000 0.000000 0.000000 0.000000 0.000000 0.000000 0.000000 0.000000 0.000000 0.000000 0.000000 0.000000 0.000000 0.000000 0.000000 0.000000 0.000000 0.180334 0.180334 0.180334 0.199007 0.199007 0.199007 0.199007 0.199007 0.199007 0.199007 0.199007 0.199007 0.199007 0.199007 0.199007 0.199007 0.199007 0.199007 0.199007 0.199007 0.199007 0.199007 0.199007 0.199007 0.199007 0.199007 0.199007 0.199007 0.199007 0.199007 0.199007 0.199007 0.199007 0.199007 0.199007 0.199007 0.199007 0.199007 0.199007 0.199007 0.199007 0.199007 0.199007 0.199007 0.225018 0.225018 0.225018 0.225018 0.225018 0.225018 0.225018 0.225018 0.225018 0.225018 0.225018 0.225018 0.225018 0.225018 0.225018 0.225018 0.225018 0.225018 0.225018 0.225018 0.225018 0.225018 0.225018 0.225018 0.225018 0.225018 0.225018 0.225018 0.225018 0.244339 0.244339 0.244339 0.244339 0.244339 0.244339 0.244339 0.244339 0.244339 0.244339 0.244339 0.244339 0.244339 0.244339 0.244339 0.244339 0.244339 0.244339 0.244339 0.244339 0.244339 0.244339 0.244339 0.256074 0.256074 0.256074 0.256074 0.256074 0.256074 0.256074 0.256074 0.256074 0.256074 0.256074 0.256074 0.256074 0.256074 0.256074 0.256074 0.256074 0.256074 0.256074 0.256074 0.256074 0.256074 0.256074 0.256074 0.256074 0.256074 0.256074 0.256074 0.256074 0.256074 0.256074 0.256074 0.256074 0.256074 0.256074 0.256074 0.256074 0.264906 0.264906 0.264906 0.264906 0.264906 0.264906 0.264906 0.264906 0.264906 0.264906 0.264906 0.264906 0.264906 0.264906 0.264906 0.264906 0.264906 0.264906 0.264906 0.264906 0.264906 0.264906 0.264906 0.264906 0.264906 0.264906 0.264906 0.264906 0.264906 0.264906 0.264906 0.264906 0.264906 0.264906 0.264906 0.264906 0.264906 0.264906 0.264906 0.264906 0.264906 0.264906 0.264906 0.264906 0.264906 0.264906 0.264906 0.264906 0.264906 0.264906 0.264906 0.264906 0.264906 0.264906 0.264906 0.264906 0.264906 0.264906 0.260378 0.260378 0.260378 0.260378 0.260378 0.260378 0.260378 0.260378 0.260378 0.260378 0.260378 0.260378 0.260378 0.264906 0.264906 0.264906 0.264906 0.264906 0.264906 0.264906 0.264906 0.264906 0.264906 0.264906 0.264906 0.269680 0.269680 0.269680 0.269680 0.269680 0.269680 0.269680 0.269680 0.269680 0.269680 0.269680 0.264906 0.264906 0.264906 0.264906 0.264906 0.264906 0.264906 0.264906 0.264906 0.264906 0.264906 0.256074 0.256074 0.256074 0.256074 0.256074 0.256074 0.256074 0.256074 0.256074 0.256074 0.256074 0.264906 0.264906 0.264906 0.264906 0.264906 0.264906 0.264906 0.264906 0.264906 0.264906 0.260378 0.260378 0.260378 0.260378 0.260378 0.260378 0.260378 0.260378 0.260378 0.260378 0.264906 0.264906 0.264906 0.264906 0.264906 0.264906 0.264906 0.264906 0.264906 0.251976 0.251976 0.251976 0.251976 0.251976 0.251976 0.251976 0.251976 0.251976 0.251976 0.256074 0.256074 0.256074 0.256074 0.256074 0.256074 0.256074 0.256074 0.256074 0.251976 0.251976 0.251976 0.251976 0.251976 0.251976 0.251976 0.251976 0.251976 0.251976 0.251976 0.251976 0.251976 0.251976
