# Output from CTFFind version 4.1.9, run on 2019-11-03 19:00:54
# Input file: stack6_bm3d_averaged_1_2.75_0_1250_half.mrc ; Number of micrographs: 1
# Pixel size: 3.000 Angstroms ; acceleration voltage: 300.0 keV ; spherical aberration: 0.00 mm ; amplitude contrast: 0.07
# Box size: 512 pixels ; min. res.: 30.0 Angstroms ; max. res.: 5.0 Angstroms ; min. def.: 5000.0 um; max. def. 50000.0 um; num. frames averaged: 1
# 6 lines per micrograph: #1 - spatial frequency (1/Angstroms); #2 - 1D rotational average of spectrum (assuming no astigmatism); #3 - 1D rotational average of spectrum; #4 - CTF fit; #5 - cross-correlation between spectrum and CTF fit; #6 - 2sigma of expected cross correlation of noise
0.000000 0.000651 0.001302 0.001953 0.002604 0.003255 0.003906 0.004557 0.005208 0.005859 0.006510 0.007161 0.007812 0.008464 0.009115 0.009766 0.010417 0.011068 0.011719 0.012370 0.013021 0.013672 0.014323 0.014974 0.015625 0.016276 0.016927 0.017578 0.018229 0.018880 0.019531 0.020182 0.020833 0.021484 0.022135 0.022786 0.023438 0.024089 0.024740 0.025391 0.026042 0.026693 0.027344 0.027995 0.028646 0.029297 0.029948 0.030599 0.031250 0.031901 0.032552 0.033203 0.033854 0.034505 0.035156 0.035807 0.036458 0.037109 0.037760 0.038411 0.039062 0.039714 0.040365 0.041016 0.041667 0.042318 0.042969 0.043620 0.044271 0.044922 0.045573 0.046224 0.046875 0.047526 0.048177 0.048828 0.049479 0.050130 0.050781 0.051432 0.052083 0.052734 0.053385 0.054036 0.054688 0.055339 0.055990 0.056641 0.057292 0.057943 0.058594 0.059245 0.059896 0.060547 0.061198 0.061849 0.062500 0.063151 0.063802 0.064453 0.065104 0.065755 0.066406 0.067057 0.067708 0.068359 0.069010 0.069661 0.070312 0.070964 0.071615 0.072266 0.072917 0.073568 0.074219 0.074870 0.075521 0.076172 0.076823 0.077474 0.078125 0.078776 0.079427 0.080078 0.080729 0.081380 0.082031 0.082682 0.083333 0.083984 0.084635 0.085286 0.085938 0.086589 0.087240 0.087891 0.088542 0.089193 0.089844 0.090495 0.091146 0.091797 0.092448 0.093099 0.093750 0.094401 0.095052 0.095703 0.096354 0.097005 0.097656 0.098307 0.098958 0.099609 0.100260 0.100911 0.101562 0.102214 0.102865 0.103516 0.104167 0.104818 0.105469 0.106120 0.106771 0.107422 0.108073 0.108724 0.109375 0.110026 0.110677 0.111328 0.111979 0.112630 0.113281 0.113932 0.114583 0.115234 0.115885 0.116536 0.117188 0.117839 0.118490 0.119141 0.119792 0.120443 0.121094 0.121745 0.122396 0.123047 0.123698 0.124349 0.125000 0.125651 0.126302 0.126953 0.127604 0.128255 0.128906 0.129557 0.130208 0.130859 0.131510 0.132161 0.132812 0.133464 0.134115 0.134766 0.135417 0.136068 0.136719 0.137370 0.138021 0.138672 0.139323 0.139974 0.140625 0.141276 0.141927 0.142578 0.143229 0.143880 0.144531 0.145182 0.145833 0.146484 0.147135 0.147786 0.148438 0.149089 0.149740 0.150391 0.151042 0.151693 0.152344 0.152995 0.153646 0.154297 0.154948 0.155599 0.156250 0.156901 0.157552 0.158203 0.158854 0.159505 0.160156 0.160807 0.161458 0.162109 0.162760 0.163411 0.164062 0.164714 0.165365 0.166016 0.166667 0.167318 0.167969 0.168620 0.169271 0.169922 0.170573 0.171224 0.171875 0.172526 0.173177 0.173828 0.174479 0.175130 0.175781 0.176432 0.177083 0.177734 0.178385 0.179036 0.179688 0.180339 0.180990 0.181641 0.182292 0.182943 0.183594 0.184245 0.184896 0.185547 0.186198 0.186849 0.187500 0.188151 0.188802 0.189453 0.190104 0.190755 0.191406 0.192057 0.192708 0.193359 0.194010 0.194661 0.195312 0.195964 0.196615 0.197266 0.197917 0.198568 0.199219 0.199870 0.200521 0.201172 0.201823 0.202474 0.203125 0.203776 0.204427 0.205078 0.205729 0.206380 0.207031 0.207682 0.208333 0.208984 0.209635 0.210286 0.210938 0.211589 0.212240 0.212891 0.213542 0.214193 0.214844 0.215495 0.216146 0.216797 0.217448 0.218099 0.218750 0.219401 0.220052 0.220703 0.221354 0.222005 0.222656 0.223307 0.223958 0.224609 0.225260 0.225911 0.226562 0.227214 0.227865 0.228516 0.229167 0.229818 0.230469 0.231120 0.231771 0.232422 0.233073 0.233724 0.234375 0.235026 0.235677
       0.30249        0.30249        0.30249        0.30249        0.30249        0.30249        0.30249        0.30249        0.30249        0.30249        0.30249        0.30249        0.30249        0.30249        0.30249        0.30249        0.30249        0.30249        0.30249        0.30249        0.30249        0.30249        0.30249        0.30249        0.30249        0.30249        0.30249        0.30249        0.30249        0.30249        0.30249        0.30249        0.30249        0.30249        0.30249        0.30249        0.30249        0.30249        0.30249        0.30249        0.30249        0.30249        0.30249        0.30249        0.30249        0.30249        0.30249        0.30249        0.30249        0.30249        0.30249        0.62021        0.78011        0.38398        0.26543        0.15978       -0.12333        0.12052        0.02361        0.03634        0.10764        0.34659        0.40343        0.35688        0.20685       -0.02009        0.02960        0.06530       -0.17248       -0.17861       -0.08836       -0.11524       -0.29157       -0.18296       -0.31345       -0.27433       -0.29377       -0.39375       -0.45946       -0.45365       -0.39126       -0.33538       -0.41527       -0.32210       -0.39497       -0.33382       -0.26617       -0.20166       -0.17866       -0.09320       -0.05392        0.05145        0.08818        0.22930        0.31434        0.37766        0.38971        0.50289        0.56857        0.60103        0.68863        0.66486        0.73061        0.62379        0.65380        0.66487        0.60806        0.60436        0.61409        0.40355        0.36992        0.35993        0.33165        0.19574        0.12655        0.05725        0.07471        0.02277       -0.06997       -0.00216       -0.03770       -0.07763        0.05529        0.16328        0.26418        0.31876        0.31846        0.39712        0.50855        0.53941        0.50379        0.65408        0.53814        0.51774        0.57370        0.58596        0.53036        0.48252        0.41455        0.36696        0.23094        0.18830        0.12503        0.13549        0.10630        0.05601        0.08131        0.14778        0.14051        0.15645        0.20905        0.24144        0.33602        0.44485        0.45590        0.45725        0.50960        0.56894        0.53740        0.50912        0.39707        0.40687        0.36097        0.28199        0.23484        0.21223        0.16433        0.18194        0.17638        0.16994        0.13608        0.20212        0.24255        0.34434        0.38143        0.40418        0.46401        0.49542        0.43698        0.45370        0.41178        0.40345        0.40477        0.34601        0.27381        0.26637        0.19430        0.21699        0.21769        0.19271        0.21492        0.21948        0.25208        0.32168        0.38229        0.37675        0.37290        0.37945        0.43950        0.43187        0.41239        0.33306        0.31226        0.27788        0.29423        0.24575        0.20814        0.26609        0.29729        0.28020        0.28843        0.32802        0.31966        0.38092        0.34511        0.34566        0.36005        0.33453        0.32328        0.30076        0.27421        0.28646        0.25857        0.22197        0.26327        0.25870        0.30330        0.30657        0.33956        0.36190        0.32129        0.30476        0.34981        0.34084        0.25676        0.28342        0.28825        0.25408        0.23784        0.28444        0.27567        0.27422        0.30651        0.30160        0.31687        0.32268        0.34054        0.28039        0.29471        0.31261        0.27557        0.25368        0.24757        0.24199        0.24996        0.27086        0.27891        0.27739        0.27317        0.31674        0.34272        0.28211        0.30084        0.25480        0.24454        0.24349        0.24200        0.23784        0.24059        0.28755        0.25676        0.29592        0.28295        0.27801        0.31548        0.26233        0.29784        0.29352        0.29523        0.25736        0.24935        0.23498        0.24667        0.30560        0.29795        0.32322        0.31486        0.31613        0.28795        0.32183        0.26032        0.18732        0.27450        0.27736        0.26080        0.27644        0.30209        0.29782        0.35779        0.28463        0.22183        0.22113        0.24028        0.27464        0.30144        0.29027        0.25955        0.27600        0.25937        0.28595        0.27620        0.25308        0.24857        0.24191        0.29577        0.24651        0.26410        0.31024        0.28403        0.25228        0.28059        0.27592        0.28233        0.20567        0.24738        0.25478        0.28782        0.28262        0.31391        0.26665        0.24517        0.26146        0.23013        0.19978        0.18499        0.22646        0.21099        0.22004        0.21938        0.21267        0.26920        0.24812        0.27173        0.22615        0.17206        0.18597        0.18675        0.15813        0.20699        0.17051        0.19202        0.18891        0.07966        0.22086        0.13978        0.04543        0.17589        0.11262        0.08446        0.13614       -0.21639       -0.50544       -0.84312
2.827313 2.799700 2.772227 2.744896 2.717705 2.690655 2.663745 2.636977 2.610349 2.583862 2.557515 2.531310 2.505245 2.479321 2.453538 2.427896 2.402394 2.377033 2.351813 2.326734 2.301795 2.276998 2.252341 2.227825 2.203449 2.179215 2.155121 2.131168 2.107356 2.083684 2.060153 2.036763 2.013514 1.990406 1.967438 1.944612 1.921926 1.899380 1.876976 1.854712 1.832589 1.810607 1.788766 1.767065 1.745505 1.724086 1.702808 1.681671 1.660674 1.639818 1.619103 1.935128 2.260089 1.670908 1.675285 1.346886 0.880308 1.192824 1.056664 1.091864 0.985748 1.534514 1.499223 1.503354 1.245321 0.928178 0.781862 1.006987 0.715400 0.442440 0.582785 0.658584 0.396546 0.465161 0.291710 0.301778 0.206345 0.170575 -0.065738 -0.011563 0.034914 0.046701 0.034880 0.132915 -0.052720 0.011929 0.111075 0.209216 0.248204 0.285865 0.338547 0.596464 0.460446 0.680961 0.874707 0.902777 0.904251 1.146057 1.136772 1.215081 1.309623 1.191733 1.412558 1.161975 1.150401 1.315981 1.128381 1.068555 1.184695 0.876736 0.711146 0.685339 0.710472 0.447874 0.399568 0.246961 0.225377 0.142274 -0.004607 0.128996 0.008899 -0.064937 0.102557 0.232203 0.354017 0.472089 0.491140 0.532128 0.713846 0.768297 0.619304 0.969523 0.802988 0.680147 0.758910 0.762314 0.725256 0.711786 0.471361 0.534021 0.252337 0.195821 0.118359 -0.006730 0.056627 -0.065558 -0.050902 -0.009865 0.079821 -0.057633 0.218222 0.129268 0.204338 0.397684 0.454699 0.471669 0.401386 0.615044 0.621650 0.493464 0.376041 0.352262 0.328031 0.173327 0.107420 0.039229 0.037025 -0.023866 -0.015912 -0.026996 -0.104525 -0.007821 0.018179 0.126014 0.275537 0.230679 0.375462 0.360829 0.395737 0.358839 0.430284 0.359331 0.257368 0.341632 0.133711 0.191346 0.022447 0.054304 0.035251 0.021661 -0.022058 0.023374 0.072956 0.120912 0.239727 0.294523 0.215952 0.244776 0.349697 0.334218 0.342820 0.204441 0.143366 0.145109 0.094022 0.101137 -0.005444 -0.009848 0.131982 0.060855 0.098351 0.100601 0.133582 0.214340 0.215809 0.178642 0.186903 0.199864 0.147106 0.140303 0.077880 0.076143 0.116208 -0.033156 0.036606 0.073409 0.022797 0.158832 0.104976 0.197254 0.197273 0.126933 0.115357 0.208075 0.121954 0.037590 0.091818 0.058898 0.016966 0.034063 0.088618 0.054545 0.043715 0.147373 0.087230 0.119905 0.132071 0.128198 0.098387 0.059656 0.111274 0.055021 0.011428 0.001138 0.001633 0.010417 0.034626 0.066796 0.068028 0.010599 0.105947 0.138047 -0.003292 0.085031 -0.005452 -0.017788 -0.024513 -0.028531 -0.042887 0.020614 0.038151 -0.045992 0.076403 0.027542 0.026132 0.068045 -0.008639 0.026341 0.067188 -0.007873 0.001698 -0.051806 -0.037738 -0.037094 0.057890 0.054322 0.055718 0.027165 0.120848 0.003032 0.090955 -0.072003 -0.125585 0.024951 -0.005602 -0.007544 -0.025351 0.071875 0.033797 0.090364 -0.040542 -0.131979 -0.082583 -0.090303 0.040906 0.010238 0.002804 -0.040409 -0.032878 -0.047432 0.016036 -0.041644 -0.047865 -0.053436 -0.114072 0.032035 -0.069661 0.000854 0.039337 -0.022362 -0.037515 0.039178 0.024508 0.005875 -0.106266 -0.002673 -0.039554 0.078685 0.079550 0.085706 0.022795 -0.011088 0.035139 0.014320 -0.095178 -0.001398 -0.019851 0.002389 0.009796 0.015502 0.000892 0.114621 0.072960 0.154533 0.022747 0.013608 -0.000150 0.039332 -0.064390 0.075116 -0.047106 0.111382 0.059171 -0.007593 0.325740 0.210057 0.073533 0.313702 0.206967 0.099621 0.335032 -0.316131 -1.234731
0.072396 0.072835 0.074150 0.076342 0.079410 0.083354 0.088172 0.093864 0.100427 0.107860 0.116161 0.125326 0.135351 0.146233 0.157965 0.170541 0.183954 0.198195 0.213253 0.229116 0.245772 0.263203 0.281393 0.300321 0.319965 0.340299 0.361295 0.382922 0.405145 0.427926 0.451224 0.474991 0.499179 0.523734 0.548596 0.573703 0.598986 0.624372 0.649784 0.675139 0.700348 0.725317 0.749949 0.774140 0.797780 0.820755 0.842948 0.864234 0.884486 0.903573 0.921358 0.937705 0.952471 0.965514 0.976689 0.985850 0.992854 0.997555 0.999812 0.999486 0.996443 0.990553 0.981693 0.969749 0.954615 0.936198 0.914415 0.889197 0.860492 0.828265 0.792498 0.753195 0.710379 0.664100 0.614429 0.561465 0.505334 0.446191 0.384218 0.319628 0.252665 0.183604 0.112750 0.040439 0.032964 0.107064 0.181438 0.255636 0.329188 0.401596 0.472350 0.540919 0.606765 0.669338 0.728089 0.782470 0.831939 0.875971 0.914056 0.945714 0.970494 0.987987 0.997829 0.999707 0.993369 0.978630 0.955374 0.923567 0.883255 0.834573 0.777748 0.713103 0.641057 0.562128 0.476929 0.386174 0.290666 0.191300 0.089053 0.015023 0.119809 0.224131 0.326770 0.426478 0.521994 0.612056 0.695422 0.770889 0.837310 0.893613 0.938824 0.972082 0.992661 0.999989 0.993660 0.973455 0.939349 0.891527 0.830388 0.756552 0.670857 0.574362 0.468336 0.354247 0.233750 0.108661 0.019058 0.147336 0.274017 0.396903 0.513787 0.622493 0.720925 0.807101 0.879207 0.935632 0.975012 0.996269 0.998645 0.981732 0.945496 0.890294 0.816883 0.726423 0.620468 0.500952 0.370156 0.230680 0.085393 0.062621 0.210122 0.353788 0.490283 0.616342 0.728853 0.824931 0.902006 0.957897 0.990883 0.999762 0.983907 0.943302 0.878566 0.790964 0.682395 0.555370 0.412959 0.258737 0.096698 0.068841 0.233348 0.392200 0.540814 0.674780 0.789999 0.882817 0.950153 0.989608 0.999569 0.979283 0.928916 0.849576 0.743310 0.613078 0.462680 0.296671 0.120220 0.061022 0.241112 0.413998 0.573728 0.714661 0.831669 0.920342 0.977165 0.999675 0.986586 0.937876 0.854825 0.740013 0.597266 0.431546 0.248805 0.055777 0.140250 0.331706 0.511036 0.670993 0.804946 0.907166 0.973093 0.999555 0.984948 0.929346 0.834555 0.704086 0.543049 0.357989 0.156637 0.052400 0.259991 0.456875 0.634086 0.783359 0.897539 0.970943 0.999667 0.981824 0.917689 0.809749 0.662643 0.483004 0.279183 0.060887 0.161267 0.376254 0.573201 0.741928 0.873505 0.960739 0.998597 0.984538 0.918703 0.803988 0.645962 0.452629 0.234070 0.001935 0.231164 0.452315 0.649044 0.810012 0.925706 0.989025 0.995754 0.944886 0.838761 0.683014 0.486328 0.259980 0.017243 0.227389 0.459038 0.663368 0.827469 0.940718 0.995489 0.987717 0.917246 0.787928 0.607481 0.387071 0.140676 0.115787 0.365449 0.591618 0.778888 0.914228 0.987917 0.994296 0.932256 0.805414 0.621982 0.394283 0.137985 0.128956 0.387516 0.618971 0.806267 0.935287 0.995990 0.983224 0.897238 0.743773 0.533762 0.282604 0.009095 0.265959 0.521296 0.736865 0.895410 0.983909 0.994695 0.926188 0.783157 0.576470 0.322334 0.041099 0.244357 0.510441 0.734833 0.898361 0.986698 0.991682 0.912144 0.754154 0.530650 0.260449 0.033263 0.324898 0.588675 0.800911 0.942184 0.999178 0.966008 0.844913 0.646213 0.387519 0.092258 0.212407 0.498048 0.737618 0.908049 0.992537 0.982272 0.877446 0.687417 0.429975 0.129756 0.184046 0.480480 0.729906 0.906974
1.000000 1.000000 1.000000 1.000000 1.000000 1.000000 1.000000 1.000000 1.000000 1.000000 1.000000 1.000000 1.000000 1.000000 1.000000 1.000000 1.000000 1.000000 1.000000 1.000000 1.000000 1.000000 1.000000 1.000000 1.000000 1.000000 1.000000 1.000000 1.000000 1.000000 1.000000 1.000000 1.000000 1.000000 1.000000 1.000000 1.000000 1.000000 1.000000 1.000000 1.000000 1.000000 1.000000 1.000000 1.000000 1.000000 1.000000 1.000000 1.000000 1.000000 1.000000 1.000000 0.827761 0.827761 0.827761 0.827761 0.827761 0.827761 0.827761 0.806624 0.806624 0.806624 0.806624 0.806624 0.806624 0.806624 0.806624 0.806624 0.806624 0.806624 0.806624 0.806624 0.806624 0.806624 0.806624 0.806624 0.806624 0.806624 0.806624 0.806624 0.806624 0.806624 0.806624 0.806624 0.806624 0.806624 0.806624 0.806624 0.806624 0.806624 0.806624 0.806624 0.806624 0.806624 0.806624 0.806624 0.806624 0.806624 0.806624 0.806624 0.806624 0.806624 0.806624 0.949211 0.950007 0.950325 0.949334 0.947754 0.944233 0.940104 0.939292 0.941724 0.941951 0.942224 0.943176 0.943783 0.945408 0.946436 0.947633 0.948435 0.956486 0.960134 0.959814 0.958917 0.958773 0.968364 0.965423 0.962928 0.963018 0.963204 0.963172 0.963040 0.962921 0.962497 0.961524 0.962073 0.961918 0.961293 0.960420 0.959372 0.958867 0.958233 0.958151 0.959041 0.959151 0.959834 0.961185 0.961160 0.961838 0.960487 0.959691 0.949147 0.946957 0.944673 0.944390 0.945355 0.944953 0.944015 0.942575 0.942649 0.942574 0.941537 0.941447 0.940314 0.932815 0.932979 0.932883 0.933685 0.927510 0.918509 0.915179 0.913201 0.914453 0.917878 0.921698 0.919725 0.918267 0.914587 0.906578 0.899684 0.889550 0.888258 0.884644 0.891984 0.893464 0.894740 0.894698 0.894695 0.893350 0.891854 0.875461 0.879657 0.876831 0.873160 0.868367 0.864705 0.862813 0.864453 0.867443 0.858210 0.841815 0.842159 0.831597 0.804101 0.802112 0.805840 0.815903 0.825407 0.823240 0.821887 0.808957 0.805196 0.789230 0.779762 0.781460 0.784498 0.782055 0.790147 0.794769 0.790062 0.776166 0.771013 0.777194 0.790612 0.800714 0.805227 0.803999 0.800747 0.800848 0.759702 0.758598 0.761149 0.734384 0.738039 0.731918 0.731574 0.738075 0.735238 0.732051 0.738880 0.736343 0.708181 0.714560 0.716103 0.714029 0.716273 0.702591 0.694687 0.657430 0.651656 0.631739 0.641888 0.644885 0.656875 0.645423 0.654977 0.664755 0.663319 0.673065 0.672017 0.656239 0.650653 0.659212 0.664768 0.632987 0.639599 0.639141 0.633315 0.626553 0.618223 0.631862 0.620186 0.599052 0.596258 0.558333 0.538252 0.530123 0.515465 0.498300 0.481048 0.496874 0.500699 0.499071 0.486089 0.461268 0.389238 0.386749 0.384762 0.359451 0.369532 0.357499 0.329640 0.371262 0.378936 0.388002 0.359034 0.338405 0.310756 0.214305 0.195373 0.155184 0.164507 0.168981 0.158289 0.150796 0.153824 0.153970 0.135578 0.146158 0.145391 0.169545 0.155529 0.128099 0.139653 0.134513 0.117731 0.101002 0.096710 0.143139 0.121717 0.130080 0.133570 0.086102 0.055461 -0.004240 0.003208 0.014595 0.046182 0.078851 0.070261 0.045634 -0.041943 -0.010860 0.014872 0.014872 0.014872 0.014872 0.014872 0.014872 0.014872 0.014872 0.014872 0.014872 0.014872 -0.040261 -0.040261 -0.040261 -0.040261 -0.040261 -0.040261 -0.040261 -0.040261 -0.040261 -0.040261 -0.040261 -0.040261 -0.040261 -0.040261 -0.040261 -0.040261 -0.040261 -0.040261 -0.040261
0.000000 0.000000 0.000000 0.000000 0.000000 0.000000 0.000000 0.000000 0.000000 0.000000 0.000000 0.000000 0.000000 0.000000 0.000000 0.000000 0.000000 0.000000 0.000000 0.000000 0.000000 0.000000 0.000000 0.000000 0.000000 0.000000 0.000000 0.000000 0.000000 0.000000 0.000000 0.000000 0.000000 0.000000 0.000000 0.000000 0.000000 0.000000 0.000000 0.000000 0.000000 0.000000 0.000000 0.000000 0.000000 0.000000 0.000000 0.000000 0.000000 0.000000 0.000000 0.000000 0.173422 0.173422 0.173422 0.173422 0.173422 0.173422 0.173422 0.191565 0.191565 0.191565 0.191565 0.191565 0.191565 0.191565 0.191565 0.191565 0.191565 0.191565 0.191565 0.191565 0.191565 0.191565 0.191565 0.191565 0.191565 0.191565 0.191565 0.191565 0.191565 0.191565 0.191565 0.191565 0.191565 0.191565 0.191565 0.191565 0.191565 0.191565 0.191565 0.191565 0.191565 0.191565 0.191565 0.191565 0.191565 0.191565 0.191565 0.191565 0.191565 0.191565 0.191565 0.219529 0.219529 0.219529 0.219529 0.219529 0.219529 0.219529 0.219529 0.219529 0.219529 0.219529 0.219529 0.219529 0.219529 0.219529 0.219529 0.219529 0.219529 0.219529 0.219529 0.219529 0.219529 0.219529 0.219529 0.219529 0.219529 0.219529 0.219529 0.219529 0.219529 0.219529 0.237356 0.237356 0.237356 0.237356 0.237356 0.237356 0.237356 0.237356 0.237356 0.237356 0.237356 0.237356 0.237356 0.237356 0.237356 0.237356 0.237356 0.237356 0.237356 0.237356 0.237356 0.237356 0.237356 0.237356 0.244339 0.244339 0.244339 0.244339 0.244339 0.244339 0.244339 0.244339 0.244339 0.244339 0.244339 0.244339 0.244339 0.244339 0.244339 0.244339 0.244339 0.244339 0.244339 0.244339 0.244339 0.248069 0.248069 0.248069 0.248069 0.248069 0.248069 0.248069 0.248069 0.248069 0.248069 0.248069 0.248069 0.248069 0.248069 0.248069 0.248069 0.248069 0.248069 0.248069 0.248069 0.248069 0.248069 0.248069 0.248069 0.248069 0.248069 0.248069 0.248069 0.248069 0.248069 0.248069 0.248069 0.248069 0.248069 0.248069 0.248069 0.248069 0.256074 0.256074 0.256074 0.256074 0.256074 0.256074 0.256074 0.256074 0.256074 0.256074 0.256074 0.256074 0.256074 0.256074 0.256074 0.256074 0.256074 0.256074 0.256074 0.256074 0.256074 0.256074 0.256074 0.256074 0.256074 0.256074 0.256074 0.256074 0.256074 0.256074 0.256074 0.256074 0.256074 0.256074 0.256074 0.256074 0.256074 0.256074 0.256074 0.256074 0.256074 0.256074 0.256074 0.256074 0.256074 0.260378 0.260378 0.260378 0.260378 0.260378 0.260378 0.260378 0.260378 0.260378 0.260378 0.260378 0.260378 0.260378 0.256074 0.256074 0.256074 0.256074 0.256074 0.256074 0.256074 0.256074 0.256074 0.256074 0.256074 0.256074 0.256074 0.260378 0.260378 0.260378 0.260378 0.260378 0.260378 0.260378 0.260378 0.260378 0.260378 0.260378 0.260378 0.251976 0.251976 0.251976 0.251976 0.251976 0.251976 0.251976 0.251976 0.251976 0.251976 0.251976 0.251976 0.256074 0.256074 0.256074 0.256074 0.256074 0.256074 0.256074 0.256074 0.256074 0.256074 0.256074 0.251976 0.251976 0.251976 0.251976 0.251976 0.251976 0.251976 0.251976 0.251976 0.251976 0.251976 0.248069 0.248069 0.248069 0.248069 0.248069 0.248069 0.248069 0.248069 0.248069 0.248069 0.248069 0.256074 0.256074 0.256074 0.256074 0.256074 0.256074 0.256074 0.256074 0.256074 0.256074 0.256074 0.256074 0.256074 0.256074 0.256074 0.256074 0.256074 0.256074 0.256074
