# Output from CTFFind version 4.1.9, run on 2019-11-03 19:02:25
# Input file: stack16_bm3d_averaged_1_3.25_0_2000_half.mrc ; Number of micrographs: 1
# Pixel size: 3.000 Angstroms ; acceleration voltage: 300.0 keV ; spherical aberration: 0.00 mm ; amplitude contrast: 0.07
# Box size: 512 pixels ; min. res.: 30.0 Angstroms ; max. res.: 5.0 Angstroms ; min. def.: 5000.0 um; max. def. 50000.0 um; num. frames averaged: 1
# 6 lines per micrograph: #1 - spatial frequency (1/Angstroms); #2 - 1D rotational average of spectrum (assuming no astigmatism); #3 - 1D rotational average of spectrum; #4 - CTF fit; #5 - cross-correlation between spectrum and CTF fit; #6 - 2sigma of expected cross correlation of noise
0.000000 0.000651 0.001302 0.001953 0.002604 0.003255 0.003906 0.004557 0.005208 0.005859 0.006510 0.007161 0.007812 0.008464 0.009115 0.009766 0.010417 0.011068 0.011719 0.012370 0.013021 0.013672 0.014323 0.014974 0.015625 0.016276 0.016927 0.017578 0.018229 0.018880 0.019531 0.020182 0.020833 0.021484 0.022135 0.022786 0.023438 0.024089 0.024740 0.025391 0.026042 0.026693 0.027344 0.027995 0.028646 0.029297 0.029948 0.030599 0.031250 0.031901 0.032552 0.033203 0.033854 0.034505 0.035156 0.035807 0.036458 0.037109 0.037760 0.038411 0.039062 0.039714 0.040365 0.041016 0.041667 0.042318 0.042969 0.043620 0.044271 0.044922 0.045573 0.046224 0.046875 0.047526 0.048177 0.048828 0.049479 0.050130 0.050781 0.051432 0.052083 0.052734 0.053385 0.054036 0.054688 0.055339 0.055990 0.056641 0.057292 0.057943 0.058594 0.059245 0.059896 0.060547 0.061198 0.061849 0.062500 0.063151 0.063802 0.064453 0.065104 0.065755 0.066406 0.067057 0.067708 0.068359 0.069010 0.069661 0.070312 0.070964 0.071615 0.072266 0.072917 0.073568 0.074219 0.074870 0.075521 0.076172 0.076823 0.077474 0.078125 0.078776 0.079427 0.080078 0.080729 0.081380 0.082031 0.082682 0.083333 0.083984 0.084635 0.085286 0.085938 0.086589 0.087240 0.087891 0.088542 0.089193 0.089844 0.090495 0.091146 0.091797 0.092448 0.093099 0.093750 0.094401 0.095052 0.095703 0.096354 0.097005 0.097656 0.098307 0.098958 0.099609 0.100260 0.100911 0.101562 0.102214 0.102865 0.103516 0.104167 0.104818 0.105469 0.106120 0.106771 0.107422 0.108073 0.108724 0.109375 0.110026 0.110677 0.111328 0.111979 0.112630 0.113281 0.113932 0.114583 0.115234 0.115885 0.116536 0.117188 0.117839 0.118490 0.119141 0.119792 0.120443 0.121094 0.121745 0.122396 0.123047 0.123698 0.124349 0.125000 0.125651 0.126302 0.126953 0.127604 0.128255 0.128906 0.129557 0.130208 0.130859 0.131510 0.132161 0.132812 0.133464 0.134115 0.134766 0.135417 0.136068 0.136719 0.137370 0.138021 0.138672 0.139323 0.139974 0.140625 0.141276 0.141927 0.142578 0.143229 0.143880 0.144531 0.145182 0.145833 0.146484 0.147135 0.147786 0.148438 0.149089 0.149740 0.150391 0.151042 0.151693 0.152344 0.152995 0.153646 0.154297 0.154948 0.155599 0.156250 0.156901 0.157552 0.158203 0.158854 0.159505 0.160156 0.160807 0.161458 0.162109 0.162760 0.163411 0.164062 0.164714 0.165365 0.166016 0.166667 0.167318 0.167969 0.168620 0.169271 0.169922 0.170573 0.171224 0.171875 0.172526 0.173177 0.173828 0.174479 0.175130 0.175781 0.176432 0.177083 0.177734 0.178385 0.179036 0.179688 0.180339 0.180990 0.181641 0.182292 0.182943 0.183594 0.184245 0.184896 0.185547 0.186198 0.186849 0.187500 0.188151 0.188802 0.189453 0.190104 0.190755 0.191406 0.192057 0.192708 0.193359 0.194010 0.194661 0.195312 0.195964 0.196615 0.197266 0.197917 0.198568 0.199219 0.199870 0.200521 0.201172 0.201823 0.202474 0.203125 0.203776 0.204427 0.205078 0.205729 0.206380 0.207031 0.207682 0.208333 0.208984 0.209635 0.210286 0.210938 0.211589 0.212240 0.212891 0.213542 0.214193 0.214844 0.215495 0.216146 0.216797 0.217448 0.218099 0.218750 0.219401 0.220052 0.220703 0.221354 0.222005 0.222656 0.223307 0.223958 0.224609 0.225260 0.225911 0.226562 0.227214 0.227865 0.228516 0.229167 0.229818 0.230469 0.231120 0.231771 0.232422 0.233073 0.233724 0.234375 0.235026 0.235677
       0.33395        0.33395        0.33395        0.33395        0.33395        0.33395        0.33395        0.33395        0.33395        0.33395        0.33395        0.33395        0.33395        0.33395        0.33395        0.33395        0.33395        0.33395        0.33395        0.33395        0.33395        0.33395        0.33395        0.33395        0.33395        0.33395        0.33395        0.33395        0.33395        0.33395        0.33395        0.33395        0.33395        0.33395        0.33395        0.33395        0.33395        0.33395        0.33395        0.33395        0.33395        0.33395        0.33395        0.33395        0.33395        0.33395        0.33395        0.33395        0.33395        0.33395        0.33395        0.43715        0.60354        0.39265       -0.14690       -0.44268       -0.56988       -0.66093       -0.73663       -0.76082       -0.89245       -0.92973       -0.74119       -0.91956       -0.87027       -1.01681       -1.06868       -0.95580       -0.91482       -0.83983       -0.78690       -0.69149       -0.60624       -0.50997       -0.42985       -0.22594       -0.10471       -0.01687        0.20552        0.22619        0.30430        0.36784        0.39799        0.48865        0.55956        0.58828        0.56256        0.49187        0.53646        0.49165        0.40736        0.31709        0.18014        0.17433        0.11359       -0.06025       -0.08125       -0.06783        0.02027       -0.01387        0.02474        0.02725        0.15107        0.19241        0.39927        0.46717        0.56806        0.67868        0.75202        0.72357        0.67161        0.64439        0.55134        0.46196        0.37387        0.27136        0.19848        0.18153        0.07627        0.02016        0.00145        0.03446        0.07933        0.27318        0.40343        0.50038        0.55676        0.59918        0.67237        0.63551        0.64569        0.62543        0.57940        0.47472        0.27500        0.24965        0.19914        0.11338        0.05417        0.09445        0.11747        0.25915        0.34473        0.41010        0.47712        0.54178        0.63563        0.58345        0.52249        0.49936        0.37156        0.20739        0.21042        0.15426        0.12004        0.15395        0.21928        0.25757        0.33432        0.42428        0.42805        0.52315        0.46905        0.45627        0.45900        0.37637        0.31669        0.26696        0.20759        0.20402        0.21539        0.21938        0.30392        0.42767        0.45166        0.48283        0.53619        0.47492        0.43584        0.37203        0.29742        0.23558        0.22185        0.24082        0.25842        0.28370        0.32207        0.42554        0.48073        0.47005        0.45549        0.36921        0.36811        0.35603        0.21699        0.23341        0.26166        0.29101        0.34700        0.35784        0.40597        0.43137        0.43225        0.37492        0.35195        0.30616        0.32291        0.26993        0.25780        0.28017        0.32886        0.38668        0.40089        0.39618        0.37233        0.39816        0.35542        0.28756        0.28524        0.28207        0.30803        0.36081        0.34446        0.41172        0.34666        0.37290        0.37240        0.32449        0.30979        0.26929        0.28995        0.33117        0.32919        0.32605        0.33439        0.36602        0.32837        0.35633        0.29214        0.30657        0.25958        0.27838        0.28828        0.34063        0.38418        0.36131        0.34172        0.29937        0.26152        0.26119        0.29103        0.27089        0.31631        0.35840        0.37128        0.33406        0.30759        0.28729        0.29500        0.29734        0.28577        0.29784        0.34059        0.33833        0.31148        0.28743        0.33392        0.30239        0.29065        0.31081        0.30907        0.31161        0.34361        0.31112        0.31278        0.27933        0.29577        0.29954        0.31971        0.40053        0.32445        0.35951        0.30335        0.30212        0.29371        0.30760        0.29259        0.28247        0.28724        0.33030        0.33646        0.29813        0.30172        0.28620        0.29316        0.30252        0.31758        0.31484        0.34385        0.35356        0.30692        0.29773        0.28861        0.24517        0.31577        0.33262        0.30673        0.28898        0.26312        0.28262        0.32250        0.32782        0.29874        0.29528        0.31282        0.30408        0.22821        0.28797        0.29923        0.27684        0.32116        0.28700        0.34119        0.37576        0.28469        0.26138        0.24845        0.27247        0.28643        0.27974        0.27448        0.24515        0.25345        0.29761        0.30794        0.28431        0.24266        0.34041        0.31697        0.27416        0.23704        0.20574        0.23933        0.22477        0.23235        0.27927        0.35535        0.25639        0.22925        0.25962        0.25038        0.18997        0.29031        0.24080        0.20248        0.16108        0.24802        0.31934        0.27483        0.05916        0.12764       -0.38352       -0.70283
2.896731 2.861044 2.825585 2.790353 2.755350 2.720576 2.686029 2.651710 2.617620 2.583757 2.550124 2.516717 2.483540 2.450590 2.417869 2.385375 2.353110 2.321073 2.289264 2.257684 2.226331 2.195207 2.164311 2.133642 2.103202 2.072991 2.043007 2.013252 1.983724 1.954425 1.925354 1.896512 1.867897 1.839510 1.811352 1.783422 1.755720 1.728246 1.701000 1.673983 1.647193 1.620632 1.594299 1.568194 1.542317 1.516668 1.491248 1.466056 1.441091 1.416355 1.391848 1.431877 1.557498 1.503953 0.878592 0.585879 0.420359 0.359727 0.274547 0.195179 0.125119 -0.061743 0.163724 0.023198 -0.065191 -0.116009 -0.247641 -0.175208 -0.098268 -0.094818 -0.100316 0.018728 0.023426 0.192272 0.106849 0.321581 0.434195 0.448525 0.696137 0.672164 0.669046 0.813220 0.784768 0.804072 0.920192 0.859334 0.908702 0.730683 0.821654 0.835839 0.637858 0.580570 0.450662 0.412894 0.390099 0.176825 0.147620 0.113789 0.216784 0.134032 0.207529 0.101943 0.271981 0.253019 0.466488 0.423592 0.611785 0.632728 0.750714 0.747627 0.636829 0.642499 0.501643 0.453782 0.324664 0.305372 0.133767 0.186526 0.013756 -0.002911 -0.045749 -0.051283 -0.009533 0.050254 0.283593 0.339198 0.403528 0.357034 0.478669 0.496603 0.493233 0.473938 0.391966 0.396173 0.144782 0.117332 0.068348 0.015742 -0.133599 -0.024516 -0.093797 0.031207 0.149029 0.171623 0.273610 0.252306 0.375741 0.473355 0.362435 0.395404 0.310205 0.145349 0.050591 0.075809 0.027232 0.024930 0.065029 0.112027 0.133846 0.256011 0.256631 0.293317 0.355682 0.242855 0.264547 0.228054 0.128561 0.089718 0.039308 0.017229 0.026870 0.006141 0.040557 0.171910 0.208647 0.223972 0.298682 0.220797 0.243255 0.124224 0.106855 -0.008797 -0.014231 -0.009748 0.007088 0.028410 0.017805 0.103494 0.188935 0.182413 0.218821 0.136232 0.090701 0.103772 0.038346 -0.075619 -0.000114 0.025940 0.038477 0.049728 0.108680 0.151045 0.138927 0.161401 0.064080 0.063836 0.038821 0.056654 -0.007311 0.007768 0.019302 0.073274 0.113057 0.131292 0.082133 0.119260 0.108941 0.032783 0.000063 0.013150 0.000284 0.055229 0.071372 0.080987 0.107262 0.069061 0.096643 0.062856 0.042521 0.022668 -0.019044 0.026861 0.059053 0.040903 0.046961 0.024554 0.069629 0.065965 0.039047 0.007858 0.017202 -0.045254 -0.004644 0.008025 0.050185 0.103747 0.071451 0.044585 -0.006858 -0.029492 -0.012861 -0.000353 -0.005510 0.035000 0.065851 0.072750 0.006807 0.024891 -0.029157 0.012988 -0.001541 -0.025837 0.016468 0.048275 -0.017236 0.013326 -0.011548 0.030686 -0.018293 -0.001498 0.003784 0.013036 0.025939 0.003468 0.017539 -0.003716 -0.047194 0.010890 -0.006697 0.032955 0.097352 0.006621 0.051525 -0.003148 0.008540 -0.024236 0.021374 -0.004070 -0.013546 -0.025665 0.046658 0.025064 0.008654 0.017016 -0.040180 0.002283 -0.002349 0.015031 0.038071 0.050423 0.042384 0.030583 0.024517 -0.019500 -0.025257 0.014064 0.053602 0.011074 0.009638 -0.031149 -0.007128 0.030812 0.041160 0.015404 0.011898 0.024592 0.008707 -0.057401 -0.002850 0.036308 -0.013547 0.028490 0.031512 0.083169 0.097423 0.027121 0.012960 -0.019679 -0.000550 0.072381 -0.044179 0.017615 -0.027912 -0.036543 0.029321 0.036472 -0.005721 -0.068074 0.048550 -0.000460 -0.048954 -0.070736 -0.077837 -0.049286 -0.063439 -0.070030 -0.011984 0.088958 -0.050195 -0.021469 0.037878 0.023645 -0.068805 0.092111 0.074216 0.112880 0.040437 0.208109 0.296314 0.221449 -0.050878 0.118787 -0.629975
0.072396 0.073047 0.075000 0.078253 0.082807 0.088660 0.095808 0.104250 0.113982 0.124998 0.137291 0.150854 0.165676 0.181745 0.199044 0.217556 0.237258 0.258124 0.280124 0.303222 0.327377 0.352541 0.378662 0.405678 0.433520 0.462113 0.491370 0.521197 0.551491 0.582135 0.613006 0.643967 0.674871 0.705560 0.735864 0.765602 0.794580 0.822595 0.849433 0.874869 0.898669 0.920591 0.940386 0.957798 0.972567 0.984431 0.993129 0.998399 0.999985 0.997640 0.991125 0.980215 0.964705 0.944409 0.919166 0.888844 0.853346 0.812612 0.766621 0.715403 0.659034 0.597645 0.531426 0.460625 0.385556 0.306598 0.224195 0.138862 0.051180 0.038204 0.128577 0.219166 0.309142 0.397626 0.483693 0.566388 0.644729 0.717723 0.784377 0.843711 0.894778 0.936675 0.968565 0.989692 0.999398 0.997145 0.982531 0.955306 0.915390 0.862886 0.798094 0.721519 0.633877 0.536101 0.429341 0.314955 0.194502 0.069729 0.057453 0.184988 0.310711 0.432376 0.547705 0.654420 0.750301 0.833230 0.901246 0.952595 0.985784 0.999630 0.993309 0.966394 0.918894 0.851279 0.764499 0.659988 0.539662 0.405901 0.261512 0.109685 0.046065 0.201975 0.354119 0.498507 0.631188 0.748368 0.846522 0.922513 0.973706 0.998073 0.994286 0.961799 0.900904 0.812770 0.699450 0.563868 0.409758 0.241596 0.064482 0.115999 0.293949 0.463335 0.618207 0.752908 0.862295 0.941955 0.988400 0.999249 0.973368 0.910979 0.813709 0.684598 0.528042 0.349681 0.156219 0.044798 0.245264 0.436834 0.611271 0.760811 0.878523 0.958664 0.996982 0.990982 0.940117 0.845898 0.711909 0.543731 0.348747 0.135862 0.084868 0.302705 0.506735 0.686426 0.832187 0.935905 0.991446 0.995054 0.945654 0.845017 0.697777 0.511283 0.295290 0.061497 0.177055 0.406689 0.613880 0.786061 0.912421 0.984625 0.997425 0.949095 0.841676 0.680981 0.476369 0.240259 0.012560 0.265824 0.502823 0.707511 0.865618 0.965694 1.000000 0.965181 0.862657 0.698685 0.484080 0.233584 0.035088 0.302445 0.548630 0.754897 0.905083 0.986933 0.993181 0.922285 0.778738 0.572906 0.320387 0.040911 0.243138 0.508484 0.732888 0.897025 0.986243 0.991948 0.912542 0.753782 0.528503 0.255697 0.040995 0.335262 0.600454 0.811993 0.949725 0.999924 0.956783 0.823196 0.610745 0.338837 0.033048 0.277201 0.561435 0.791133 0.942659 0.999777 0.955536 0.813244 0.586423 0.297679 0.023418 0.343281 0.627779 0.845924 0.973300 0.994943 0.907241 0.718649 0.449079 0.127953 0.208879 0.523086 0.778210 0.943971 0.999971 0.938381 0.765198 0.499897 0.173420 0.175272 0.503780 0.771415 0.944299 0.999793 0.929636 0.741369 0.457773 0.114315 0.245143 0.573850 0.828286 0.973983 0.990377 0.873913 0.638952 0.316243 0.050884 0.412215 0.717472 0.923366 0.999870 0.934817 0.736066 0.430847 0.062273 0.316565 0.650189 0.888866 0.996166 0.954730 0.769337 0.466694 0.091864 0.298264 0.643484 0.889620 0.997151 0.947784 0.747854 0.427864 0.038120 0.358984 0.698849 0.925254 0.999797 0.908692 0.665606 0.309975 0.099115 0.492558 0.802861 0.975819 0.980205 0.813717 0.504020 0.104471 0.314774 0.679009 0.922269 0.999491 0.895153 0.626739 0.242212 0.188253 0.584861 0.873009 0.997444 0.933145 0.690740 0.315196 0.122192 0.537073 0.848287 0.993848 0.943619 0.705914 0.326612 0.119300 0.542309 0.856316 0.996262 0.931954 0.674983 0.277136 0.179641 0.599892 0.894544 0.999998 0.892192 0.592543 0.164197 0.300894 0.701506
1.000000 1.000000 1.000000 1.000000 1.000000 1.000000 1.000000 1.000000 1.000000 1.000000 1.000000 1.000000 1.000000 1.000000 1.000000 1.000000 1.000000 1.000000 1.000000 1.000000 1.000000 1.000000 1.000000 1.000000 1.000000 1.000000 1.000000 1.000000 1.000000 1.000000 1.000000 1.000000 1.000000 1.000000 1.000000 1.000000 1.000000 1.000000 1.000000 1.000000 1.000000 1.000000 1.000000 1.000000 1.000000 1.000000 1.000000 1.000000 1.000000 1.000000 1.000000 1.000000 0.931024 0.931024 0.931024 0.931024 0.931024 0.931024 0.931024 0.931024 0.931024 0.931024 0.931024 0.931024 0.931024 0.931024 0.931024 0.931024 0.931024 0.931024 0.931024 0.931024 0.931024 0.931024 0.931024 0.931024 0.931024 0.931024 0.931024 0.931024 0.931024 0.931024 0.931024 0.931024 0.931024 0.914595 0.916244 0.919276 0.920335 0.920242 0.919744 0.919436 0.919724 0.921209 0.923105 0.944565 0.946832 0.947989 0.949084 0.947837 0.950362 0.948076 0.952306 0.967296 0.966530 0.967417 0.961526 0.962527 0.962054 0.961421 0.962357 0.962207 0.960804 0.959151 0.957774 0.957384 0.957024 0.958627 0.959004 0.958898 0.959325 0.959278 0.959153 0.956576 0.954522 0.954682 0.953970 0.952803 0.958227 0.958075 0.966180 0.967288 0.967995 0.968735 0.968932 0.969097 0.961589 0.959285 0.956377 0.944621 0.936724 0.932985 0.935712 0.938753 0.935924 0.930308 0.929330 0.927322 0.921908 0.921446 0.918637 0.919692 0.910689 0.906940 0.896361 0.896803 0.899389 0.900172 0.897630 0.885004 0.879128 0.880091 0.882866 0.877342 0.874397 0.890741 0.887596 0.889594 0.893225 0.895837 0.902080 0.887701 0.881027 0.877613 0.872767 0.871750 0.873664 0.877633 0.879586 0.878566 0.871262 0.875778 0.866768 0.874369 0.879867 0.878688 0.878169 0.878506 0.878088 0.875299 0.871355 0.875417 0.873201 0.869461 0.866519 0.862623 0.864237 0.865834 0.866108 0.865643 0.866401 0.862297 0.866214 0.860624 0.864294 0.859287 0.861871 0.860945 0.864826 0.858353 0.852589 0.841968 0.833730 0.839044 0.841657 0.804275 0.802537 0.800246 0.798335 0.802933 0.808403 0.804542 0.806184 0.800562 0.805619 0.813577 0.807900 0.803665 0.804134 0.804699 0.784472 0.792812 0.790951 0.776974 0.780959 0.763030 0.759981 0.759091 0.760776 0.692867 0.687749 0.661341 0.645155 0.660728 0.655506 0.644587 0.631286 0.629371 0.620625 0.587568 0.575573 0.559808 0.560641 0.550661 0.553101 0.553980 0.523246 0.538773 0.530923 0.531677 0.545602 0.505789 0.492740 0.475812 0.457498 0.473618 0.481143 0.500965 0.509199 0.500348 0.500164 0.492106 0.488475 0.503758 0.479108 0.441902 0.455622 0.430994 0.412552 0.425275 0.425215 0.425213 0.439480 0.407838 0.386580 0.406007 0.417268 0.422819 0.427506 0.438061 0.413650 0.468715 0.447959 0.442034 0.449494 0.426199 0.403856 0.406009 0.383331 0.395394 0.385812 0.382565 0.409804 0.379833 0.373049 0.388833 0.401722 0.338616 0.371283 0.394777 0.376667 0.406857 0.382627 0.368682 0.314601 0.309408 0.282457 0.281165 0.315235 0.234416 0.226066 0.206333 0.194787 0.176851 0.195862 0.187784 0.157409 0.110365 0.092883 0.078300 0.090566 0.097419 0.083881 0.077121 0.077121 0.077121 0.077121 0.089501 0.089501 0.089501 0.089501 0.089501 0.089501 0.089501 0.089501 0.089501 0.089501 0.089501 0.089501 0.089501 0.089501 0.025488 0.025488 0.025488 0.025488 0.025488 0.025488 0.025488 0.025488 0.025488 0.025488 0.025488 0.025488
0.000000 0.000000 0.000000 0.000000 0.000000 0.000000 0.000000 0.000000 0.000000 0.000000 0.000000 0.000000 0.000000 0.000000 0.000000 0.000000 0.000000 0.000000 0.000000 0.000000 0.000000 0.000000 0.000000 0.000000 0.000000 7.000000 4.000000 0.000000 0.000000 0.000000 0.000000 0.000000 0.000000 0.000000 0.000000 0.000000 0.000000 0.000000 0.000000 0.000000 0.000000 0.000000 0.000000 0.000000 0.000000 0.000000 0.000000 0.000000 0.000000 0.000000 0.000000 0.000000 0.209657 0.209657 0.209657 0.209657 0.209657 0.209657 0.209657 0.209657 0.209657 0.209657 0.209657 0.209657 0.209657 0.209657 0.209657 0.209657 0.209657 0.209657 0.209657 0.209657 0.209657 0.209657 0.209657 0.209657 0.209657 0.209657 0.209657 0.209657 0.209657 0.209657 0.209657 0.209657 0.209657 0.244339 0.244339 0.244339 0.244339 0.244339 0.244339 0.244339 0.244339 0.244339 0.244339 0.244339 0.244339 0.244339 0.244339 0.244339 0.244339 0.244339 0.244339 0.244339 0.244339 0.244339 0.244339 0.244339 0.244339 0.244339 0.260378 0.260378 0.260378 0.260378 0.260378 0.260378 0.260378 0.260378 0.260378 0.260378 0.260378 0.260378 0.260378 0.260378 0.260378 0.260378 0.260378 0.260378 0.260378 0.260378 0.269680 0.269680 0.269680 0.269680 0.269680 0.269680 0.269680 0.269680 0.269680 0.269680 0.269680 0.269680 0.269680 0.269680 0.269680 0.269680 0.269680 0.269680 0.269680 0.269680 0.269680 0.269680 0.269680 0.269680 0.269680 0.269680 0.269680 0.269680 0.269680 0.269680 0.269680 0.269680 0.269680 0.280056 0.280056 0.280056 0.280056 0.280056 0.280056 0.280056 0.280056 0.280056 0.280056 0.280056 0.280056 0.280056 0.280056 0.280056 0.280056 0.280056 0.280056 0.280056 0.280056 0.280056 0.280056 0.280056 0.280056 0.280056 0.280056 0.280056 0.285714 0.285714 0.285714 0.285714 0.285714 0.285714 0.285714 0.285714 0.285714 0.285714 0.285714 0.285714 0.274721 0.274721 0.274721 0.274721 0.274721 0.274721 0.274721 0.274721 0.274721 0.274721 0.274721 0.274721 0.280056 0.280056 0.280056 0.280056 0.280056 0.280056 0.280056 0.280056 0.280056 0.280056 0.280056 0.274721 0.274721 0.274721 0.274721 0.274721 0.274721 0.274721 0.274721 0.274721 0.274721 0.274721 0.280056 0.280056 0.280056 0.280056 0.280056 0.280056 0.280056 0.280056 0.280056 0.280056 0.285714 0.285714 0.285714 0.285714 0.285714 0.285714 0.285714 0.285714 0.285714 0.280056 0.280056 0.280056 0.280056 0.280056 0.280056 0.280056 0.280056 0.280056 0.274721 0.274721 0.274721 0.274721 0.274721 0.274721 0.274721 0.274721 0.274721 0.269680 0.269680 0.269680 0.269680 0.269680 0.269680 0.269680 0.269680 0.269680 0.264906 0.264906 0.264906 0.264906 0.264906 0.264906 0.264906 0.264906 0.264906 0.274721 0.274721 0.274721 0.274721 0.274721 0.274721 0.274721 0.274721 0.269680 0.269680 0.269680 0.269680 0.269680 0.269680 0.269680 0.269680 0.285714 0.285714 0.285714 0.285714 0.285714 0.285714 0.285714 0.264906 0.264906 0.264906 0.264906 0.264906 0.264906 0.264906 0.264906 0.274721 0.274721 0.274721 0.274721 0.274721 0.274721 0.274721 0.256074 0.256074 0.256074 0.256074 0.256074 0.256074 0.256074 0.256074 0.264906 0.264906 0.264906 0.264906 0.264906 0.264906 0.264906 0.264906 0.264906 0.264906 0.264906 0.264906 0.264906 0.264906 0.280056 0.280056 0.280056 0.280056 0.280056 0.280056 0.280056 0.280056 0.280056 0.280056 0.280056 0.280056
