# Output from CTFFind version 4.1.9, run on 2019-11-03 20:03:09
# Input file: stack16_bm3d_averaged_1_7.0_0_50_half.mrc ; Number of micrographs: 1
# Pixel size: 3.000 Angstroms ; acceleration voltage: 300.0 keV ; spherical aberration: 0.00 mm ; amplitude contrast: 0.07
# Box size: 512 pixels ; min. res.: 30.0 Angstroms ; max. res.: 5.0 Angstroms ; min. def.: 5000.0 um; max. def. 50000.0 um; num. frames averaged: 1
# 6 lines per micrograph: #1 - spatial frequency (1/Angstroms); #2 - 1D rotational average of spectrum (assuming no astigmatism); #3 - 1D rotational average of spectrum; #4 - CTF fit; #5 - cross-correlation between spectrum and CTF fit; #6 - 2sigma of expected cross correlation of noise
0.000000 0.000651 0.001302 0.001953 0.002604 0.003255 0.003906 0.004557 0.005208 0.005859 0.006510 0.007161 0.007812 0.008464 0.009115 0.009766 0.010417 0.011068 0.011719 0.012370 0.013021 0.013672 0.014323 0.014974 0.015625 0.016276 0.016927 0.017578 0.018229 0.018880 0.019531 0.020182 0.020833 0.021484 0.022135 0.022786 0.023438 0.024089 0.024740 0.025391 0.026042 0.026693 0.027344 0.027995 0.028646 0.029297 0.029948 0.030599 0.031250 0.031901 0.032552 0.033203 0.033854 0.034505 0.035156 0.035807 0.036458 0.037109 0.037760 0.038411 0.039062 0.039714 0.040365 0.041016 0.041667 0.042318 0.042969 0.043620 0.044271 0.044922 0.045573 0.046224 0.046875 0.047526 0.048177 0.048828 0.049479 0.050130 0.050781 0.051432 0.052083 0.052734 0.053385 0.054036 0.054688 0.055339 0.055990 0.056641 0.057292 0.057943 0.058594 0.059245 0.059896 0.060547 0.061198 0.061849 0.062500 0.063151 0.063802 0.064453 0.065104 0.065755 0.066406 0.067057 0.067708 0.068359 0.069010 0.069661 0.070312 0.070964 0.071615 0.072266 0.072917 0.073568 0.074219 0.074870 0.075521 0.076172 0.076823 0.077474 0.078125 0.078776 0.079427 0.080078 0.080729 0.081380 0.082031 0.082682 0.083333 0.083984 0.084635 0.085286 0.085938 0.086589 0.087240 0.087891 0.088542 0.089193 0.089844 0.090495 0.091146 0.091797 0.092448 0.093099 0.093750 0.094401 0.095052 0.095703 0.096354 0.097005 0.097656 0.098307 0.098958 0.099609 0.100260 0.100911 0.101562 0.102214 0.102865 0.103516 0.104167 0.104818 0.105469 0.106120 0.106771 0.107422 0.108073 0.108724 0.109375 0.110026 0.110677 0.111328 0.111979 0.112630 0.113281 0.113932 0.114583 0.115234 0.115885 0.116536 0.117188 0.117839 0.118490 0.119141 0.119792 0.120443 0.121094 0.121745 0.122396 0.123047 0.123698 0.124349 0.125000 0.125651 0.126302 0.126953 0.127604 0.128255 0.128906 0.129557 0.130208 0.130859 0.131510 0.132161 0.132812 0.133464 0.134115 0.134766 0.135417 0.136068 0.136719 0.137370 0.138021 0.138672 0.139323 0.139974 0.140625 0.141276 0.141927 0.142578 0.143229 0.143880 0.144531 0.145182 0.145833 0.146484 0.147135 0.147786 0.148438 0.149089 0.149740 0.150391 0.151042 0.151693 0.152344 0.152995 0.153646 0.154297 0.154948 0.155599 0.156250 0.156901 0.157552 0.158203 0.158854 0.159505 0.160156 0.160807 0.161458 0.162109 0.162760 0.163411 0.164062 0.164714 0.165365 0.166016 0.166667 0.167318 0.167969 0.168620 0.169271 0.169922 0.170573 0.171224 0.171875 0.172526 0.173177 0.173828 0.174479 0.175130 0.175781 0.176432 0.177083 0.177734 0.178385 0.179036 0.179688 0.180339 0.180990 0.181641 0.182292 0.182943 0.183594 0.184245 0.184896 0.185547 0.186198 0.186849 0.187500 0.188151 0.188802 0.189453 0.190104 0.190755 0.191406 0.192057 0.192708 0.193359 0.194010 0.194661 0.195312 0.195964 0.196615 0.197266 0.197917 0.198568 0.199219 0.199870 0.200521 0.201172 0.201823 0.202474 0.203125 0.203776 0.204427 0.205078 0.205729 0.206380 0.207031 0.207682 0.208333 0.208984 0.209635 0.210286 0.210938 0.211589 0.212240 0.212891 0.213542 0.214193 0.214844 0.215495 0.216146 0.216797 0.217448 0.218099 0.218750 0.219401 0.220052 0.220703 0.221354 0.222005 0.222656 0.223307 0.223958 0.224609 0.225260 0.225911 0.226562 0.227214 0.227865 0.228516 0.229167 0.229818 0.230469 0.231120 0.231771 0.232422 0.233073 0.233724 0.234375 0.235026 0.235677
       0.35732        0.35732        0.35732        0.35732        0.35732        0.35732        0.35732        0.35732        0.35732        0.35732        0.35732        0.35732        0.35732        0.35732        0.35732        0.35732        0.35732        0.35732        0.35732        0.35732        0.35732        0.35732        0.35732        0.35732        0.35732        0.35732        0.35732        0.35732        0.35732        0.35732        0.35732        0.35732        0.35732        0.35732        0.35732        0.35732        0.35733        0.35732        0.35732        0.35732        0.35732        0.35732        0.35732        0.35732        0.35732        0.35732        0.35732        0.35732        0.35732        0.35732        0.35732        0.43491        0.55918        0.34564       -0.21535       -0.44616       -0.53670       -0.63957       -0.70724       -0.71174       -0.80409       -0.88036       -0.67039       -0.82305       -0.80886       -0.94889       -0.98861       -0.87011       -0.82910       -0.78919       -0.69821       -0.62999       -0.53976       -0.44714       -0.38371       -0.15612       -0.05492        0.05081        0.27020        0.26500        0.32404        0.37574        0.40881        0.53217        0.54334        0.57864        0.53633        0.47915        0.51000        0.53725        0.46132        0.33916        0.22586        0.19126        0.11908        0.02560        0.00894       -0.00060        0.06992        0.03664        0.08803        0.06064        0.17814        0.20540        0.41428        0.46526        0.55136        0.65990        0.68645        0.71414        0.64294        0.61465        0.55170        0.44737        0.39513        0.28952        0.22782        0.22541        0.11406        0.12692        0.12962        0.09929        0.10624        0.31084        0.42483        0.53224        0.53737        0.56961        0.60873        0.58992        0.57278        0.58772        0.57243        0.47431        0.31734        0.27550        0.26818        0.16708        0.10279        0.18230        0.22611        0.29702        0.36012        0.43435        0.47984        0.53592        0.60578        0.55063        0.50822        0.51325        0.36282        0.29239        0.27238        0.18696        0.21711        0.25177        0.28890        0.29319        0.33945        0.43785        0.47156        0.50244        0.45784        0.44608        0.49426        0.40405        0.33537        0.29582        0.27233        0.24374        0.23441        0.24664        0.34759        0.45672        0.44170        0.49218        0.55796        0.45806        0.41961        0.36284        0.32712        0.28494        0.29143        0.27833        0.29777        0.36716        0.37352        0.44821        0.47648        0.44781        0.47044        0.38724        0.38548        0.35905        0.28301        0.26419        0.26298        0.34703        0.38764        0.37014        0.39552        0.43773        0.45021        0.39026        0.34454        0.33054        0.36053        0.32528        0.29329        0.29836        0.36742        0.38413        0.40269        0.39381        0.40082        0.42850        0.41486        0.33365        0.29776        0.32002        0.34856        0.39368        0.36931        0.40961        0.35394        0.37684        0.39904        0.34910        0.36151        0.32971        0.31141        0.34494        0.35480        0.33891        0.37077        0.38597        0.33661        0.35691        0.33131        0.32486        0.30955        0.32972        0.33369        0.33439        0.37420        0.38348        0.36814        0.31663        0.31048        0.29516        0.33972        0.32397        0.32320        0.37896        0.36350        0.34822        0.32508        0.31378        0.31294        0.28572        0.32784        0.34226        0.35518        0.37942        0.36251        0.32748        0.34723        0.36608        0.34558        0.36206        0.35436        0.32373        0.34075        0.29936        0.32666        0.30858        0.32327        0.29261        0.32925        0.35666        0.33489        0.36427        0.32287        0.34395        0.36330        0.34883        0.32791        0.33882        0.37560        0.35346        0.35985        0.33921        0.31885        0.33052        0.32325        0.33485        0.33326        0.37186        0.33652        0.33880        0.30458        0.30242        0.27937        0.28438        0.36869        0.31842        0.33646        0.30135        0.27113        0.28030        0.37010        0.31362        0.29255        0.33167        0.32487        0.29995        0.26450        0.30514        0.27594        0.31016        0.31521        0.35109        0.34270        0.32840        0.32331        0.27425        0.29028        0.28995        0.29242        0.30808        0.36591        0.30767        0.21519        0.31050        0.30845        0.34262        0.27368        0.30033        0.28789        0.33307        0.28776        0.27678        0.28063        0.25319        0.31428        0.33722        0.32677        0.26330        0.32380        0.27492        0.24452        0.23026        0.33040        0.25734        0.16013        0.11450        0.20173        0.35167        0.26910        0.19374        0.14992       -0.39368       -0.53400
3.249553 3.208147 3.167011 3.126144 3.085547 3.045218 3.005160 2.965370 2.925850 2.886599 2.847617 2.808905 2.770462 2.732289 2.694384 2.656750 2.619384 2.582288 2.545461 2.508903 2.472615 2.436596 2.400846 2.365366 2.330155 2.295214 2.260541 2.226138 2.192005 2.158141 2.124546 2.091220 2.058164 2.025377 1.992859 1.960611 1.928632 1.896922 1.865482 1.834311 1.803410 1.772777 1.742414 1.712321 1.682496 1.652941 1.623656 1.594639 1.565892 1.537415 1.509206 1.545426 1.614284 1.554771 0.845069 0.602715 0.463739 0.393715 0.296422 0.224574 0.193072 -0.047686 0.213456 0.080021 -0.026104 -0.103526 -0.236288 -0.141689 -0.049171 -0.093968 -0.069881 0.039209 0.040152 0.234536 0.110330 0.359985 0.465595 0.501017 0.777044 0.684265 0.700884 0.823975 0.797051 0.847770 0.919519 0.858479 0.886690 0.726794 0.785343 0.846352 0.692169 0.606323 0.433970 0.429393 0.326714 0.193571 0.188311 0.113193 0.208302 0.119487 0.206967 0.104551 0.214465 0.227127 0.434141 0.398295 0.566535 0.605005 0.624130 0.714939 0.600956 0.569548 0.456879 0.407832 0.282161 0.258970 0.088214 0.147359 -0.032335 0.035046 -0.030977 -0.046568 -0.062958 0.019834 0.257130 0.287942 0.351341 0.288571 0.374391 0.382722 0.404026 0.385224 0.351956 0.320296 0.115660 0.068148 0.059632 -0.025602 -0.154796 -0.060219 -0.065694 0.032667 0.070216 0.143582 0.205821 0.217952 0.310537 0.398933 0.275299 0.359348 0.223074 0.142377 0.063358 0.032005 -0.000270 0.053046 0.068345 0.091225 0.117754 0.167574 0.236836 0.301438 0.263783 0.204553 0.249434 0.223878 0.108140 0.052571 0.055191 0.023269 0.004667 -0.028818 0.028520 0.166486 0.195426 0.186307 0.294056 0.185253 0.192852 0.070605 0.062831 0.015348 -0.006741 -0.006076 -0.012665 0.045808 0.075364 0.101321 0.156399 0.138641 0.222181 0.138647 0.076564 0.098495 0.039859 -0.048029 -0.017484 0.028795 0.070004 0.071861 0.064244 0.150314 0.113276 0.153093 0.036751 0.045667 0.045148 0.044575 0.027450 -0.020143 0.040131 0.052114 0.092274 0.100122 0.083898 0.113060 0.123241 0.079965 0.010665 -0.011656 0.019881 0.074364 0.076198 0.087281 0.086793 0.049775 0.101075 0.066293 0.041465 0.074675 -0.010818 0.010981 0.066917 0.040216 0.043367 0.073445 0.081237 0.047987 0.066947 0.018109 0.018745 0.011302 0.055797 0.016191 0.038894 0.070906 0.080558 0.045390 -0.005278 -0.002115 -0.019464 0.045157 0.001313 0.011994 0.071753 0.047059 0.004527 0.012627 -0.017808 0.004652 -0.038938 0.009066 0.019341 0.046954 0.045065 0.031064 -0.001456 0.006144 0.040997 0.009610 0.035344 0.011967 -0.015322 0.024079 -0.049185 -0.030635 -0.054233 -0.012106 -0.069394 0.006525 0.018051 -0.011764 -0.013466 -0.005447 -0.002034 0.027415 0.010838 -0.012796 0.011810 0.025528 0.029487 0.031577 0.003580 0.009173 0.008833 -0.008026 0.015805 -0.006539 0.092433 0.035587 0.024651 0.004533 -0.007919 -0.027831 0.003849 0.070277 0.003954 0.048498 -0.020011 -0.024481 -0.023719 0.092781 0.002784 -0.025822 0.065571 0.052921 0.005079 0.000532 0.014060 0.004499 0.045146 0.030521 0.105475 0.048597 0.052847 0.045004 -0.006654 0.021526 0.000444 -0.000835 0.019747 0.088071 -0.007051 -0.082752 0.037186 0.014335 0.064846 -0.046906 -0.009045 -0.008465 0.017358 -0.006758 -0.029505 -0.011548 -0.067298 0.048372 0.040096 0.050220 -0.112146 0.035735 0.025887 -0.002665 -0.080434 0.103249 0.025523 -0.051516 -0.125109 0.186595 0.312199 0.216320 0.131815 0.151290 -0.514716
0.072396 0.073047 0.074998 0.078250 0.082801 0.088649 0.095793 0.104230 0.113955 0.124964 0.137249 0.150803 0.165616 0.181674 0.198962 0.217463 0.237152 0.258006 0.279992 0.303076 0.327217 0.352366 0.378472 0.405473 0.433300 0.461878 0.491120 0.520934 0.551213 0.581845 0.612704 0.643655 0.674551 0.705233 0.735532 0.765267 0.794246 0.822265 0.849110 0.874556 0.898371 0.920313 0.940131 0.957572 0.972376 0.984280 0.993024 0.998345 0.999990 0.997709 0.991265 0.980433 0.965007 0.944800 0.919652 0.889431 0.854039 0.813414 0.767537 0.716434 0.660181 0.598909 0.532806 0.462119 0.387158 0.308303 0.225995 0.140748 0.053139 0.036186 0.126515 0.217079 0.307050 0.395551 0.481659 0.564420 0.642855 0.715970 0.782774 0.842287 0.893563 0.935697 0.967852 0.989269 0.999289 0.997371 0.983109 0.956250 0.916707 0.864579 0.800160 0.723946 0.636649 0.539194 0.432723 0.318585 0.198335 0.073709 0.053386 0.180902 0.306677 0.428471 0.544007 0.651011 0.747260 0.830636 0.899171 0.951107 0.984941 0.999481 0.993889 0.967724 0.920980 0.854108 0.768040 0.664191 0.544458 0.411201 0.267207 0.115653 0.039964 0.195890 0.348209 0.492934 0.626116 0.743956 0.842918 0.919851 0.972100 0.997610 0.995026 0.963766 0.904086 0.817118 0.704873 0.570234 0.416901 0.249313 0.072541 0.107857 0.285993 0.455846 0.611462 0.747172 0.857808 0.938923 0.986986 0.999562 0.975456 0.914822 0.819219 0.691614 0.536338 0.358965 0.166146 0.034616 0.235245 0.427407 0.602858 0.753810 0.873285 0.955478 0.996056 0.992429 0.943944 0.852000 0.720069 0.553619 0.359940 0.147853 0.072648 0.290862 0.495879 0.677141 0.824997 0.931251 0.989646 0.996286 0.949938 0.852205 0.707554 0.523175 0.308682 0.075667 0.162905 0.393386 0.602231 0.776807 0.906184 0.981866 0.998406 0.953855 0.850015 0.692465 0.490341 0.255882 0.003732 0.249921 0.488381 0.695543 0.857000 0.961103 0.999856 0.969605 0.871449 0.711325 0.499750 0.251215 0.016746 0.284736 0.532898 0.742379 0.896814 0.983650 0.995258 0.929685 0.790999 0.589160 0.339413 0.061224 0.223177 0.490541 0.718506 0.887505 0.982503 0.994438 0.921187 0.767962 0.547091 0.277133 0.018568 0.313859 0.582045 0.798342 0.942198 0.999361 0.963384 0.836487 0.629591 0.361529 0.057452 0.253450 0.540707 0.775569 0.933931 0.998915 0.962788 0.828028 0.607350 0.322675 0.003089 0.318063 0.606591 0.831135 0.966656 0.997334 0.918580 0.737843 0.474122 0.156114 0.180759 0.498246 0.759602 0.933885 0.999759 0.948257 0.784171 0.525847 0.203334 0.144980 0.476836 0.751224 0.933511 0.999937 0.940895 0.762509 0.486252 0.146575 0.213237 0.546507 0.809202 0.965848 0.994480 0.889918 0.664886 0.348732 0.016214 0.380141 0.692530 0.909190 0.998658 0.946966 0.760056 0.463409 0.098811 0.281348 0.621514 0.871108 0.992165 0.965320 0.793155 0.500325 0.130303 0.260879 0.612994 0.870915 0.993370 0.959772 0.773951 0.464106 0.078803 0.320404 0.668734 0.908698 0.999765 0.925451 0.696606 0.350200 0.056355 0.454550 0.776218 0.965338 0.987960 0.838633 0.541957 0.148906 0.271693 0.645030 0.903676 0.999902 0.914779 0.662255 0.287284 0.141868 0.545847 0.848819 0.992881 0.949374 0.724953 0.361056 0.073405 0.494837 0.820985 0.987087 0.959037 0.740752 0.374159 0.068460 0.498460 0.828506 0.990432 0.949619 0.712807 0.327504 0.127130 0.556291 0.869239 0.998644 0.915411 0.635665 0.218145 0.247748 0.660833
1.000000 1.000000 1.000000 1.000000 1.000000 1.000000 1.000000 1.000000 1.000000 1.000000 1.000000 1.000000 1.000000 1.000000 1.000000 1.000000 1.000000 1.000000 1.000000 1.000000 1.000000 1.000000 1.000000 1.000000 1.000000 1.000000 1.000000 1.000000 1.000000 1.000000 1.000000 1.000000 1.000000 1.000000 1.000000 1.000000 1.000000 1.000000 1.000000 1.000000 1.000000 1.000000 1.000000 1.000000 1.000000 1.000000 1.000000 1.000000 1.000000 1.000000 1.000000 1.000000 0.923235 0.923235 0.923235 0.923235 0.923235 0.923235 0.923235 0.923235 0.923235 0.923235 0.923235 0.923235 0.923235 0.923235 0.923235 0.923235 0.923235 0.923235 0.923235 0.923235 0.923235 0.923235 0.923235 0.923235 0.923235 0.923235 0.923235 0.923235 0.923235 0.923235 0.923235 0.923235 0.923235 0.913300 0.911395 0.912556 0.911113 0.909651 0.909062 0.908671 0.909712 0.911317 0.913391 0.935020 0.938127 0.939370 0.940692 0.942061 0.944342 0.942185 0.949774 0.956283 0.955229 0.956374 0.950230 0.951629 0.950981 0.950248 0.951590 0.951712 0.950023 0.948010 0.946439 0.945892 0.945582 0.949231 0.949720 0.949881 0.950474 0.950422 0.951139 0.951749 0.949913 0.952185 0.944332 0.942990 0.948255 0.946178 0.947556 0.947520 0.948208 0.949015 0.949334 0.949601 0.946343 0.945841 0.944833 0.938369 0.931254 0.931569 0.933602 0.936243 0.933426 0.930945 0.932261 0.934010 0.933045 0.936334 0.927515 0.923273 0.896813 0.883056 0.874369 0.874637 0.878776 0.881405 0.879170 0.873462 0.865253 0.861757 0.860978 0.857467 0.848897 0.863921 0.858218 0.854238 0.857700 0.860919 0.866244 0.864368 0.860291 0.855457 0.850339 0.839484 0.840621 0.843254 0.847459 0.829810 0.818426 0.834767 0.827146 0.818406 0.826083 0.827962 0.825326 0.824088 0.824424 0.821878 0.815255 0.807407 0.811367 0.820376 0.821869 0.812594 0.810350 0.808882 0.808683 0.801040 0.806322 0.808296 0.804738 0.797044 0.814534 0.783349 0.803136 0.804249 0.786354 0.770731 0.758573 0.767088 0.776186 0.772680 0.768674 0.777097 0.776826 0.770166 0.746330 0.734241 0.741224 0.739285 0.728877 0.716400 0.723459 0.720983 0.718154 0.715186 0.718533 0.719237 0.697768 0.711341 0.716036 0.708093 0.721065 0.723930 0.715012 0.718259 0.722381 0.725408 0.727899 0.702797 0.706522 0.642351 0.629047 0.585242 0.581173 0.578523 0.522141 0.526108 0.504105 0.488170 0.489165 0.463679 0.513120 0.416090 0.402793 0.428695 0.356399 0.320821 0.338598 0.340132 0.352956 0.356765 0.355665 0.359142 0.343248 0.316592 0.289376 0.315173 0.330697 0.306762 0.310976 0.289626 0.273794 0.225874 0.239507 0.244015 0.276092 0.278833 0.261389 0.280957 0.329882 0.271052 0.253702 0.231263 0.256956 0.263449 0.257705 0.247496 0.265327 0.205075 0.208823 0.226153 0.229103 0.271617 0.301723 0.323295 0.320109 0.328299 0.357298 0.311350 0.326140 0.332208 0.321816 0.342129 0.345380 0.349244 0.345569 0.386252 0.381843 0.391154 0.392411 0.402411 0.436191 0.412232 0.390440 0.349327 0.360834 0.358013 0.370233 0.313162 0.289656 0.288995 0.257048 0.214014 0.215597 0.215754 0.171678 0.161384 0.145665 0.111524 0.110674 0.120336 0.143965 0.115528 0.129870 0.135721 0.135721 0.135721 0.135721 0.135721 0.135721 0.135721 0.135721 0.135721 0.135721 0.135721 0.135721 0.135721 0.135721 0.157217 0.157217 0.157217 0.157217 0.157217 0.157217 0.157217 0.157217 0.157217 0.157217 0.157217 0.157217
0.000000 0.000000 0.000000 0.000000 0.000000 0.000000 0.000000 0.000000 0.000000 0.000000 0.000000 0.000000 0.000000 0.000000 0.000000 0.000000 0.000000 0.000000 0.000000 0.000000 0.000000 0.000000 0.000000 0.000000 0.000000 0.000000 0.000000 0.000000 0.000000 0.000000 0.000000 0.000000 0.000000 0.000000 0.000000 0.000000 0.000000 0.000000 0.000000 0.000000 0.000000 0.000000 0.000000 0.000000 0.000000 0.000000 0.000000 0.000000 0.000000 0.000000 0.000000 0.000000 0.209657 0.209657 0.209657 0.209657 0.209657 0.209657 0.209657 0.209657 0.209657 0.209657 0.209657 0.209657 0.209657 0.209657 0.209657 0.209657 0.209657 0.209657 0.209657 0.209657 0.209657 0.209657 0.209657 0.209657 0.209657 0.209657 0.209657 0.209657 0.209657 0.209657 0.209657 0.209657 0.209657 0.244339 0.244339 0.244339 0.244339 0.244339 0.244339 0.244339 0.244339 0.244339 0.244339 0.244339 0.244339 0.244339 0.244339 0.244339 0.244339 0.244339 0.244339 0.244339 0.244339 0.244339 0.244339 0.244339 0.244339 0.244339 0.260378 0.260378 0.260378 0.260378 0.260378 0.260378 0.260378 0.260378 0.260378 0.260378 0.260378 0.260378 0.260378 0.260378 0.260378 0.260378 0.260378 0.260378 0.260378 0.260378 0.269680 0.269680 0.269680 0.269680 0.269680 0.269680 0.269680 0.269680 0.269680 0.269680 0.269680 0.269680 0.269680 0.269680 0.269680 0.269680 0.269680 0.269680 0.269680 0.269680 0.269680 0.269680 0.269680 0.269680 0.269680 0.269680 0.269680 0.269680 0.269680 0.269680 0.269680 0.269680 0.269680 0.280056 0.280056 0.280056 0.280056 0.280056 0.280056 0.280056 0.280056 0.280056 0.280056 0.280056 0.280056 0.280056 0.280056 0.280056 0.280056 0.280056 0.280056 0.280056 0.280056 0.280056 0.280056 0.280056 0.280056 0.280056 0.280056 0.280056 0.274721 0.274721 0.274721 0.274721 0.274721 0.274721 0.274721 0.274721 0.274721 0.274721 0.274721 0.274721 0.274721 0.285714 0.285714 0.285714 0.285714 0.285714 0.285714 0.285714 0.285714 0.285714 0.285714 0.285714 0.280056 0.280056 0.280056 0.280056 0.280056 0.280056 0.280056 0.280056 0.280056 0.280056 0.280056 0.274721 0.274721 0.274721 0.274721 0.274721 0.274721 0.274721 0.274721 0.274721 0.274721 0.274721 0.280056 0.280056 0.280056 0.280056 0.280056 0.280056 0.280056 0.280056 0.280056 0.280056 0.285714 0.285714 0.285714 0.285714 0.285714 0.285714 0.285714 0.285714 0.285714 0.269680 0.269680 0.269680 0.269680 0.269680 0.269680 0.269680 0.269680 0.269680 0.269680 0.274721 0.274721 0.274721 0.274721 0.274721 0.274721 0.274721 0.274721 0.274721 0.285714 0.285714 0.285714 0.285714 0.285714 0.285714 0.285714 0.285714 0.264906 0.264906 0.264906 0.264906 0.264906 0.264906 0.264906 0.264906 0.264906 0.274721 0.274721 0.274721 0.274721 0.274721 0.274721 0.274721 0.274721 0.269680 0.269680 0.269680 0.269680 0.269680 0.269680 0.269680 0.269680 0.269680 0.269680 0.269680 0.269680 0.269680 0.269680 0.269680 0.269680 0.280056 0.280056 0.280056 0.280056 0.280056 0.280056 0.280056 0.260378 0.260378 0.260378 0.260378 0.260378 0.260378 0.260378 0.260378 0.269680 0.269680 0.269680 0.269680 0.269680 0.269680 0.269680 0.264906 0.264906 0.264906 0.264906 0.264906 0.264906 0.264906 0.264906 0.264906 0.264906 0.264906 0.264906 0.264906 0.264906 0.260378 0.260378 0.260378 0.260378 0.260378 0.260378 0.260378 0.260378 0.260378 0.260378 0.260378 0.260378
