# Output from CTFFind version 4.1.9, run on 2019-11-02 17:58:44
# Input file: stack6_bm3d_averaged_1_1.75_0_1250_half.mrc ; Number of micrographs: 1
# Pixel size: 3.000 Angstroms ; acceleration voltage: 300.0 keV ; spherical aberration: 0.00 mm ; amplitude contrast: 0.07
# Box size: 512 pixels ; min. res.: 30.0 Angstroms ; max. res.: 5.0 Angstroms ; min. def.: 5000.0 um; max. def. 50000.0 um; num. frames averaged: 1
# 6 lines per micrograph: #1 - spatial frequency (1/Angstroms); #2 - 1D rotational average of spectrum (assuming no astigmatism); #3 - 1D rotational average of spectrum; #4 - CTF fit; #5 - cross-correlation between spectrum and CTF fit; #6 - 2sigma of expected cross correlation of noise
0.000000 0.000651 0.001302 0.001953 0.002604 0.003255 0.003906 0.004557 0.005208 0.005859 0.006510 0.007161 0.007812 0.008464 0.009115 0.009766 0.010417 0.011068 0.011719 0.012370 0.013021 0.013672 0.014323 0.014974 0.015625 0.016276 0.016927 0.017578 0.018229 0.018880 0.019531 0.020182 0.020833 0.021484 0.022135 0.022786 0.023438 0.024089 0.024740 0.025391 0.026042 0.026693 0.027344 0.027995 0.028646 0.029297 0.029948 0.030599 0.031250 0.031901 0.032552 0.033203 0.033854 0.034505 0.035156 0.035807 0.036458 0.037109 0.037760 0.038411 0.039062 0.039714 0.040365 0.041016 0.041667 0.042318 0.042969 0.043620 0.044271 0.044922 0.045573 0.046224 0.046875 0.047526 0.048177 0.048828 0.049479 0.050130 0.050781 0.051432 0.052083 0.052734 0.053385 0.054036 0.054688 0.055339 0.055990 0.056641 0.057292 0.057943 0.058594 0.059245 0.059896 0.060547 0.061198 0.061849 0.062500 0.063151 0.063802 0.064453 0.065104 0.065755 0.066406 0.067057 0.067708 0.068359 0.069010 0.069661 0.070312 0.070964 0.071615 0.072266 0.072917 0.073568 0.074219 0.074870 0.075521 0.076172 0.076823 0.077474 0.078125 0.078776 0.079427 0.080078 0.080729 0.081380 0.082031 0.082682 0.083333 0.083984 0.084635 0.085286 0.085938 0.086589 0.087240 0.087891 0.088542 0.089193 0.089844 0.090495 0.091146 0.091797 0.092448 0.093099 0.093750 0.094401 0.095052 0.095703 0.096354 0.097005 0.097656 0.098307 0.098958 0.099609 0.100260 0.100911 0.101562 0.102214 0.102865 0.103516 0.104167 0.104818 0.105469 0.106120 0.106771 0.107422 0.108073 0.108724 0.109375 0.110026 0.110677 0.111328 0.111979 0.112630 0.113281 0.113932 0.114583 0.115234 0.115885 0.116536 0.117188 0.117839 0.118490 0.119141 0.119792 0.120443 0.121094 0.121745 0.122396 0.123047 0.123698 0.124349 0.125000 0.125651 0.126302 0.126953 0.127604 0.128255 0.128906 0.129557 0.130208 0.130859 0.131510 0.132161 0.132812 0.133464 0.134115 0.134766 0.135417 0.136068 0.136719 0.137370 0.138021 0.138672 0.139323 0.139974 0.140625 0.141276 0.141927 0.142578 0.143229 0.143880 0.144531 0.145182 0.145833 0.146484 0.147135 0.147786 0.148438 0.149089 0.149740 0.150391 0.151042 0.151693 0.152344 0.152995 0.153646 0.154297 0.154948 0.155599 0.156250 0.156901 0.157552 0.158203 0.158854 0.159505 0.160156 0.160807 0.161458 0.162109 0.162760 0.163411 0.164062 0.164714 0.165365 0.166016 0.166667 0.167318 0.167969 0.168620 0.169271 0.169922 0.170573 0.171224 0.171875 0.172526 0.173177 0.173828 0.174479 0.175130 0.175781 0.176432 0.177083 0.177734 0.178385 0.179036 0.179688 0.180339 0.180990 0.181641 0.182292 0.182943 0.183594 0.184245 0.184896 0.185547 0.186198 0.186849 0.187500 0.188151 0.188802 0.189453 0.190104 0.190755 0.191406 0.192057 0.192708 0.193359 0.194010 0.194661 0.195312 0.195964 0.196615 0.197266 0.197917 0.198568 0.199219 0.199870 0.200521 0.201172 0.201823 0.202474 0.203125 0.203776 0.204427 0.205078 0.205729 0.206380 0.207031 0.207682 0.208333 0.208984 0.209635 0.210286 0.210938 0.211589 0.212240 0.212891 0.213542 0.214193 0.214844 0.215495 0.216146 0.216797 0.217448 0.218099 0.218750 0.219401 0.220052 0.220703 0.221354 0.222005 0.222656 0.223307 0.223958 0.224609 0.225260 0.225911 0.226562 0.227214 0.227865 0.228516 0.229167 0.229818 0.230469 0.231120 0.231771 0.232422 0.233073 0.233724 0.234375 0.235026 0.235677
       0.30614        0.30614        0.30614        0.30614        0.30614        0.30614        0.30614        0.30614        0.30614        0.30614        0.30614        0.30614        0.30614        0.30614        0.30614        0.30614        0.30614        0.30614        0.30614        0.30614        0.30614        0.30614        0.30614        0.30614        0.30614        0.30614        0.30614        0.30614        0.30614        0.30614        0.30614        0.30614        0.30614        0.30614        0.30614        0.30614        0.30614        0.30614        0.30614        0.30614        0.30614        0.30614        0.30614        0.30614        0.30614        0.30614        0.30614        0.30614        0.30614        0.30614        0.30614        0.62902        0.80302        0.40676        0.29991        0.18023       -0.11080        0.11094       -0.00159        0.02986        0.11120        0.33618        0.41758        0.39264        0.21856       -0.01791        0.04160        0.06962       -0.17676       -0.18250       -0.08937       -0.11473       -0.30032       -0.19199       -0.30912       -0.26596       -0.28938       -0.41202       -0.47697       -0.47395       -0.42110       -0.34675       -0.43475       -0.36392       -0.41679       -0.35681       -0.27858       -0.20603       -0.19858       -0.13246       -0.08358        0.03920        0.07734        0.25004        0.28819        0.37202        0.39982        0.51305        0.58337        0.60774        0.73137        0.69040        0.73849        0.64781        0.65853        0.68763        0.62920        0.61501        0.60717        0.42818        0.38725        0.34954        0.32664        0.22204        0.12903        0.06086        0.04885       -0.00044       -0.08144       -0.02552       -0.03715       -0.07505        0.06494        0.16129        0.25485        0.31217        0.32880        0.41852        0.53206        0.57834        0.52624        0.67078        0.55760        0.52910        0.60077        0.62075        0.52589        0.46354        0.39829        0.37501        0.23936        0.19748        0.12692        0.11612        0.05699        0.05120        0.09316        0.14655        0.14438        0.17203        0.22157        0.23817        0.32517        0.44260        0.47916        0.48936        0.51596        0.57560        0.57059        0.52339        0.41058        0.38211        0.35954        0.26563        0.23800        0.21097        0.19906        0.18955        0.17307        0.15823        0.12744        0.18612        0.23862        0.33499        0.37492        0.40413        0.46072        0.53123        0.46223        0.48186        0.42700        0.40566        0.37962        0.36308        0.28217        0.24632        0.19675        0.23225        0.21770        0.19598        0.20960        0.21148        0.23941        0.31012        0.39531        0.38380        0.37636        0.39396        0.44892        0.46542        0.43378        0.35377        0.31314        0.27473        0.26785        0.25513        0.21685        0.27873        0.29240        0.29585        0.30938        0.29982        0.32221        0.37397        0.36504        0.36310        0.35154        0.31380        0.32601        0.32014        0.29069        0.28457        0.26490        0.21722        0.26313        0.26930        0.29465        0.31017        0.33476        0.36524        0.32126        0.30460        0.35318        0.35764        0.25576        0.28633        0.30066        0.23510        0.21191        0.26778        0.26620        0.27070        0.29735        0.29646        0.32794        0.33142        0.34754        0.31618        0.32086        0.30496        0.29036        0.26179        0.23645        0.24663        0.25222        0.27500        0.29423        0.28986        0.28307        0.31938        0.33762        0.27360        0.30247        0.26857        0.25404        0.25200        0.24214        0.24927        0.26153        0.31279        0.27538        0.31061        0.29134        0.27014        0.30363        0.28577        0.32171        0.31655        0.29542        0.24821        0.24509        0.25565        0.25985        0.31405        0.30602        0.32745        0.31960        0.30637        0.26538        0.29695        0.22332        0.18563        0.26341        0.27779        0.26163        0.27297        0.30559        0.29159        0.35740        0.29073        0.23719        0.20844        0.23870        0.28877        0.29326        0.29825        0.26968        0.27770        0.26576        0.30568        0.27081        0.24827        0.26518        0.24094        0.28862        0.25167        0.27618        0.32134        0.28954        0.21211        0.25241        0.28833        0.30486        0.23175        0.26158        0.24588        0.29035        0.28260        0.36663        0.28212        0.25319        0.27344        0.24039        0.20485        0.18689        0.23215        0.19881        0.18753        0.16122        0.20348        0.26208        0.21832        0.24337        0.19317        0.22503        0.20275        0.22046        0.18423        0.16659        0.19411        0.24080        0.15133        0.06136        0.21450        0.17205        0.11295        0.21749        0.13309        0.16973        0.18842       -0.11203       -0.50173       -0.84174
2.863034 2.834763 2.806639 2.778660 2.750827 2.723139 2.695597 2.668201 2.640950 2.613845 2.586886 2.560072 2.533404 2.506882 2.480505 2.454274 2.428189 2.402249 2.376455 2.350807 2.325304 2.299947 2.274736 2.249670 2.224750 2.199976 2.175347 2.150864 2.126526 2.102335 2.078289 2.054388 2.030633 2.007024 1.983561 1.960243 1.937071 1.914044 1.891164 1.868429 1.845839 1.823395 1.801097 1.778944 1.756938 1.735076 1.713361 1.691791 1.670367 1.649088 1.627955 1.926460 2.263358 1.695809 1.732730 1.381609 0.937633 1.205528 1.036467 1.082012 1.027154 1.504803 1.514661 1.538833 1.275877 0.946337 0.821839 1.019451 0.716418 0.487123 0.596723 0.678599 0.419060 0.489961 0.327884 0.357123 0.252548 0.160294 -0.039263 0.013737 0.035813 0.074756 0.048636 0.096673 -0.045898 0.026238 0.107874 0.225261 0.278200 0.222854 0.338282 0.565930 0.441210 0.727192 0.819044 0.884786 0.903227 1.125569 1.135776 1.179934 1.323589 1.219701 1.377990 1.191687 1.106892 1.309582 1.123793 1.058115 1.133626 0.883094 0.725442 0.672641 0.667267 0.474538 0.392028 0.273371 0.208872 0.102428 -0.013491 0.103666 0.017942 -0.066281 0.112169 0.259747 0.310295 0.461088 0.475758 0.543369 0.706739 0.803061 0.638803 0.956407 0.789801 0.656169 0.770523 0.772707 0.703615 0.642557 0.439666 0.502288 0.278755 0.170760 0.127856 0.003196 -0.010866 -0.112276 -0.023401 -0.004374 0.075321 -0.052488 0.247702 0.109964 0.195749 0.370398 0.412059 0.521123 0.418915 0.556374 0.667159 0.503390 0.383495 0.322569 0.312143 0.145614 0.120806 0.013128 0.089221 -0.000560 0.001913 -0.040388 -0.110159 -0.018269 0.007278 0.098994 0.277389 0.210057 0.343498 0.370066 0.438973 0.378414 0.420382 0.344012 0.224291 0.312893 0.166311 0.159066 -0.003405 0.059466 0.066788 -0.008444 0.002483 0.001442 0.058316 0.083694 0.239427 0.289275 0.236090 0.231955 0.361364 0.361008 0.356102 0.252004 0.163499 0.142142 0.085645 0.080196 0.036109 0.023094 0.132682 0.052729 0.183454 0.088186 0.115767 0.210510 0.217773 0.218467 0.187212 0.195514 0.108112 0.164302 0.120316 0.091375 0.117450 -0.019661 0.032214 0.076790 0.046984 0.139667 0.104440 0.204452 0.190343 0.126472 0.123709 0.215452 0.124713 0.057894 0.097384 0.058925 0.000663 -0.006390 0.070681 0.065353 0.043493 0.117609 0.104881 0.131141 0.151951 0.160492 0.142016 0.101289 0.109678 0.093048 0.021434 0.011625 0.037963 0.011306 0.076344 0.110589 0.084286 0.048381 0.128751 0.126788 0.024660 0.118059 0.029933 0.016478 0.013473 -0.004344 -0.002317 0.075080 0.088416 0.010594 0.109310 0.068798 0.013856 0.104800 0.042955 0.088106 0.106339 0.017964 -0.004119 -0.027720 0.031061 -0.001368 0.077093 0.077064 0.092293 0.068620 0.122279 -0.008202 0.075225 -0.101938 -0.051660 0.001462 0.031211 0.015283 -0.004731 0.094391 0.053871 0.107155 -0.054221 -0.063919 -0.109128 -0.084169 0.067512 0.004951 0.028355 -0.024483 -0.023341 -0.026460 0.061701 -0.040640 -0.042870 -0.017526 -0.104195 0.031998 -0.041470 0.006361 0.056297 -0.011848 -0.092171 0.009492 0.042906 0.014526 -0.054893 0.010331 -0.059810 0.101681 0.067118 0.159139 0.032923 -0.006949 0.045819 0.042477 -0.065418 -0.013709 0.049731 -0.018088 -0.047798 -0.056847 -0.003389 0.131209 -0.019584 0.131385 0.002706 0.104439 -0.018442 0.127916 -0.038391 0.012044 -0.010570 0.155008 0.025358 0.002056 0.299980 0.236837 0.163906 0.344562 0.213526 0.205577 0.318943 -0.153439 -1.176598
0.072396 0.072835 0.074150 0.076342 0.079410 0.083354 0.088172 0.093863 0.100427 0.107860 0.116160 0.125325 0.135351 0.146232 0.157964 0.170540 0.183953 0.198194 0.213252 0.229115 0.245770 0.263202 0.281391 0.300319 0.319963 0.340297 0.361293 0.382920 0.405143 0.427924 0.451221 0.474988 0.499176 0.523730 0.548592 0.573699 0.598982 0.624368 0.649780 0.675135 0.700343 0.725313 0.749945 0.774135 0.797775 0.820751 0.842943 0.864230 0.884482 0.903569 0.921355 0.937702 0.952468 0.965511 0.976686 0.985848 0.992852 0.997554 0.999812 0.999487 0.996444 0.990555 0.981696 0.969752 0.954620 0.936203 0.914421 0.889205 0.860501 0.828275 0.792510 0.753207 0.710393 0.664114 0.614445 0.561482 0.505353 0.446211 0.384239 0.319650 0.252688 0.183628 0.112775 0.040464 0.032938 0.107037 0.181410 0.255609 0.329160 0.401569 0.472323 0.540893 0.606739 0.669314 0.728067 0.782449 0.831920 0.875953 0.914041 0.945702 0.970485 0.987981 0.997826 0.999708 0.993374 0.978638 0.955387 0.923584 0.883275 0.834597 0.777777 0.713136 0.641093 0.562167 0.476972 0.386219 0.290715 0.191351 0.089105 0.014970 0.119755 0.224077 0.326717 0.426427 0.521945 0.612009 0.695379 0.770851 0.837276 0.893585 0.938802 0.972067 0.992653 0.999989 0.993668 0.973470 0.939373 0.891559 0.830429 0.756600 0.670912 0.574424 0.468404 0.354320 0.233826 0.108740 0.018977 0.147254 0.273938 0.396827 0.513715 0.622426 0.720865 0.807050 0.879165 0.935600 0.974991 0.996261 0.998649 0.981750 0.945527 0.890338 0.816939 0.726492 0.620548 0.501041 0.370252 0.230782 0.085499 0.062514 0.210016 0.353684 0.490186 0.616254 0.728775 0.824866 0.901956 0.957863 0.990867 0.999765 0.983929 0.943343 0.878625 0.791041 0.682488 0.555477 0.413077 0.258864 0.096830 0.068706 0.233215 0.392073 0.540697 0.674675 0.789911 0.882750 0.950108 0.989587 0.999573 0.979313 0.928972 0.849655 0.743412 0.613200 0.462819 0.296820 0.120378 0.060862 0.240953 0.413847 0.573592 0.714543 0.831575 0.920275 0.977128 0.999670 0.986615 0.937937 0.854917 0.740135 0.597413 0.431713 0.248984 0.055963 0.140063 0.331528 0.510870 0.670849 0.804829 0.907083 0.973047 0.999549 0.984983 0.929421 0.834669 0.704233 0.543225 0.358186 0.156846 0.052185 0.259781 0.456681 0.633915 0.783220 0.897440 0.970889 0.999662 0.981868 0.917781 0.809885 0.662819 0.483212 0.279412 0.061127 0.161026 0.376028 0.572998 0.741762 0.873384 0.960668 0.998584 0.984583 0.918805 0.804144 0.646161 0.452864 0.234330 0.002202 0.230900 0.452074 0.648835 0.809849 0.925600 0.988983 0.995780 0.944979 0.838917 0.683226 0.486581 0.260264 0.017536 0.227099 0.458774 0.663142 0.827300 0.940615 0.995460 0.987766 0.917370 0.788123 0.607732 0.387367 0.140993 0.115465 0.365147 0.591354 0.778682 0.914094 0.987865 0.994332 0.932378 0.805617 0.622250 0.394602 0.138329 0.128608 0.387189 0.618696 0.806055 0.935160 0.995957 0.983290 0.897399 0.744017 0.534075 0.282963 0.009469 0.265595 0.520971 0.736607 0.895238 0.983839 0.994735 0.926336 0.783404 0.576795 0.322713 0.041499 0.243961 0.510090 0.734556 0.898180 0.986630 0.991735 0.912316 0.754432 0.531008 0.260862 0.032832 0.324490 0.588323 0.800648 0.942037 0.999160 0.966124 0.845154 0.646556 0.387938 0.092714 0.211960 0.497651 0.737306 0.907854 0.992480 0.982360 0.877674 0.687763 0.430406 0.130233 0.183569 0.480052 0.729569 0.906767
1.000000 1.000000 1.000000 1.000000 1.000000 1.000000 1.000000 1.000000 1.000000 1.000000 1.000000 1.000000 1.000000 1.000000 1.000000 1.000000 1.000000 1.000000 1.000000 1.000000 1.000000 1.000000 1.000000 1.000000 1.000000 1.000000 1.000000 1.000000 1.000000 1.000000 1.000000 1.000000 1.000000 1.000000 1.000000 1.000000 1.000000 1.000000 1.000000 1.000000 1.000000 1.000000 1.000000 1.000000 1.000000 1.000000 1.000000 1.000000 1.000000 1.000000 1.000000 1.000000 0.834292 0.834292 0.834292 0.834292 0.834292 0.834292 0.834292 0.815128 0.815128 0.815128 0.815128 0.815128 0.815128 0.815128 0.815128 0.815128 0.815128 0.815128 0.815128 0.815128 0.815128 0.815128 0.815128 0.815128 0.815128 0.815128 0.815128 0.815128 0.815128 0.815128 0.815128 0.815128 0.815128 0.815128 0.815128 0.815128 0.815128 0.815128 0.815128 0.815128 0.815128 0.815128 0.815128 0.815128 0.815128 0.815128 0.815128 0.815128 0.815128 0.815128 0.815128 0.955452 0.956125 0.953354 0.952350 0.950784 0.947252 0.943159 0.942679 0.943989 0.944209 0.944842 0.946165 0.947128 0.948690 0.949656 0.950437 0.951213 0.959259 0.962927 0.962655 0.962420 0.958444 0.965286 0.964769 0.958196 0.958817 0.959034 0.959691 0.959618 0.959486 0.959071 0.957823 0.958429 0.958254 0.957571 0.956619 0.954669 0.954626 0.954238 0.954383 0.955312 0.956031 0.956762 0.957251 0.957252 0.957380 0.957383 0.957303 0.946804 0.946769 0.939238 0.938902 0.939778 0.939248 0.938121 0.936527 0.936609 0.936533 0.936523 0.936445 0.936641 0.925430 0.925595 0.925615 0.926437 0.922895 0.913191 0.907223 0.902286 0.903721 0.907681 0.911936 0.911916 0.907833 0.907122 0.890505 0.887478 0.870053 0.866216 0.859179 0.868700 0.869965 0.871532 0.866326 0.865025 0.863215 0.860489 0.845598 0.850317 0.849292 0.845720 0.842549 0.840946 0.838159 0.840395 0.845279 0.839005 0.826887 0.835104 0.823460 0.809335 0.807702 0.810786 0.820317 0.832189 0.830901 0.830096 0.821095 0.816387 0.806910 0.800943 0.802284 0.804759 0.801108 0.808870 0.809654 0.819955 0.813955 0.806460 0.811803 0.823380 0.828301 0.828729 0.828935 0.825786 0.826444 0.798489 0.799271 0.801648 0.772761 0.773041 0.769415 0.769342 0.770539 0.772387 0.768995 0.761430 0.755125 0.736361 0.749008 0.759171 0.735109 0.740872 0.731826 0.720924 0.686895 0.689753 0.694756 0.704206 0.705141 0.713473 0.703526 0.705504 0.714660 0.716330 0.721307 0.718030 0.708205 0.705722 0.713072 0.709462 0.693864 0.689810 0.689404 0.684903 0.679265 0.661002 0.669487 0.645897 0.634665 0.624700 0.587239 0.576105 0.567206 0.555564 0.536986 0.516163 0.529320 0.520819 0.517190 0.505722 0.481307 0.437095 0.423164 0.421325 0.407503 0.411312 0.392971 0.339946 0.353556 0.345186 0.339716 0.315140 0.298023 0.277175 0.212809 0.214480 0.168662 0.190777 0.200138 0.188685 0.169028 0.159156 0.188767 0.202888 0.221127 0.219373 0.246152 0.217738 0.166762 0.191311 0.181595 0.182377 0.168054 0.126885 0.151060 0.142915 0.150119 0.158371 0.113627 0.083578 0.056341 0.058506 0.074842 0.097730 0.115032 0.099206 0.078162 -0.012454 0.021253 0.052372 0.052372 0.052372 0.052372 0.052372 0.052372 0.052372 0.052372 0.052372 0.052372 0.052372 -0.006423 -0.006423 -0.006423 -0.006423 -0.006423 -0.006423 -0.006423 -0.006423 -0.006423 -0.006423 -0.006423 -0.006423 -0.006423 -0.006423 -0.006423 -0.006423 -0.006423 -0.006423 -0.006423
0.000000 0.000000 0.000000 0.000000 0.000000 0.000000 0.000000 0.000000 0.000000 0.000000 0.000000 0.000000 0.000000 0.000000 0.000000 0.000000 0.000000 0.000000 0.000000 0.000000 0.000000 0.000000 0.000000 0.000000 0.000000 0.000000 0.000000 0.000000 0.000000 0.000000 0.000000 0.000000 0.000000 0.000000 0.000000 0.000000 0.000000 0.000000 0.000000 0.000000 0.000000 0.000000 0.000000 0.000000 0.000000 0.000000 0.000000 0.000000 0.000000 0.000000 0.000000 0.000000 0.173422 0.173422 0.173422 0.173422 0.173422 0.173422 0.173422 0.191565 0.191565 0.191565 0.191565 0.191565 0.191565 0.191565 0.191565 0.191565 0.191565 0.191565 0.191565 0.191565 0.191565 0.191565 0.191565 0.191565 0.191565 0.191565 0.191565 0.191565 0.191565 0.191565 0.191565 0.191565 0.191565 0.191565 0.191565 0.191565 0.191565 0.191565 0.191565 0.191565 0.191565 0.191565 0.191565 0.191565 0.191565 0.191565 0.191565 0.191565 0.191565 0.191565 0.191565 0.219529 0.219529 0.219529 0.219529 0.219529 0.219529 0.219529 0.219529 0.219529 0.219529 0.219529 0.219529 0.219529 0.219529 0.219529 0.219529 0.219529 0.219529 0.219529 0.219529 0.219529 0.219529 0.219529 0.219529 0.219529 0.219529 0.219529 0.219529 0.219529 0.219529 0.219529 0.237356 0.237356 0.237356 0.237356 0.237356 0.237356 0.237356 0.237356 0.237356 0.237356 0.237356 0.237356 0.237356 0.237356 0.237356 0.237356 0.237356 0.237356 0.237356 0.237356 0.237356 0.237356 0.237356 0.237356 0.244339 0.244339 0.244339 0.244339 0.244339 0.244339 0.244339 0.244339 0.244339 0.244339 0.244339 0.244339 0.244339 0.244339 0.244339 0.244339 0.244339 0.244339 0.244339 0.244339 0.244339 0.248069 0.248069 0.248069 0.248069 0.248069 0.248069 0.248069 0.248069 0.248069 0.248069 0.248069 0.248069 0.248069 0.248069 0.248069 0.248069 0.248069 0.248069 0.248069 0.248069 0.248069 0.248069 0.248069 0.248069 0.248069 0.248069 0.248069 0.248069 0.248069 0.248069 0.248069 0.248069 0.248069 0.248069 0.248069 0.248069 0.248069 0.256074 0.256074 0.256074 0.256074 0.256074 0.256074 0.256074 0.256074 0.256074 0.256074 0.256074 0.256074 0.256074 0.256074 0.256074 0.256074 0.256074 0.256074 0.256074 0.256074 0.256074 0.256074 0.256074 0.256074 0.256074 0.256074 0.256074 0.256074 0.256074 0.256074 0.256074 0.256074 0.256074 0.256074 0.256074 0.256074 0.256074 0.256074 0.256074 0.256074 0.256074 0.256074 0.256074 0.256074 0.256074 0.260378 0.260378 0.260378 0.260378 0.260378 0.260378 0.260378 0.260378 0.260378 0.260378 0.260378 0.260378 0.260378 0.256074 0.256074 0.256074 0.256074 0.256074 0.256074 0.256074 0.256074 0.256074 0.256074 0.256074 0.256074 0.256074 0.260378 0.260378 0.260378 0.260378 0.260378 0.260378 0.260378 0.260378 0.260378 0.260378 0.260378 0.260378 0.251976 0.251976 0.251976 0.251976 0.251976 0.251976 0.251976 0.251976 0.251976 0.251976 0.251976 0.251976 0.256074 0.256074 0.256074 0.256074 0.256074 0.256074 0.256074 0.256074 0.256074 0.256074 0.256074 0.251976 0.251976 0.251976 0.251976 0.251976 0.251976 0.251976 0.251976 0.251976 0.251976 0.251976 0.248069 0.248069 0.248069 0.248069 0.248069 0.248069 0.248069 0.248069 0.248069 0.248069 0.248069 0.256074 0.256074 0.256074 0.256074 0.256074 0.256074 0.256074 0.256074 0.256074 0.256074 0.256074 0.256074 0.256074 0.256074 0.256074 0.256074 0.256074 0.256074 0.256074
