# Output from CTFFind version 4.1.9, run on 2019-11-03 20:07:51
# Input file: stack6_bm3d_averaged_1_7.0_0_1500_half.mrc ; Number of micrographs: 1
# Pixel size: 3.000 Angstroms ; acceleration voltage: 300.0 keV ; spherical aberration: 0.00 mm ; amplitude contrast: 0.07
# Box size: 512 pixels ; min. res.: 30.0 Angstroms ; max. res.: 5.0 Angstroms ; min. def.: 5000.0 um; max. def. 50000.0 um; num. frames averaged: 1
# 6 lines per micrograph: #1 - spatial frequency (1/Angstroms); #2 - 1D rotational average of spectrum (assuming no astigmatism); #3 - 1D rotational average of spectrum; #4 - CTF fit; #5 - cross-correlation between spectrum and CTF fit; #6 - 2sigma of expected cross correlation of noise
0.000000 0.000651 0.001302 0.001953 0.002604 0.003255 0.003906 0.004557 0.005208 0.005859 0.006510 0.007161 0.007812 0.008464 0.009115 0.009766 0.010417 0.011068 0.011719 0.012370 0.013021 0.013672 0.014323 0.014974 0.015625 0.016276 0.016927 0.017578 0.018229 0.018880 0.019531 0.020182 0.020833 0.021484 0.022135 0.022786 0.023438 0.024089 0.024740 0.025391 0.026042 0.026693 0.027344 0.027995 0.028646 0.029297 0.029948 0.030599 0.031250 0.031901 0.032552 0.033203 0.033854 0.034505 0.035156 0.035807 0.036458 0.037109 0.037760 0.038411 0.039062 0.039714 0.040365 0.041016 0.041667 0.042318 0.042969 0.043620 0.044271 0.044922 0.045573 0.046224 0.046875 0.047526 0.048177 0.048828 0.049479 0.050130 0.050781 0.051432 0.052083 0.052734 0.053385 0.054036 0.054688 0.055339 0.055990 0.056641 0.057292 0.057943 0.058594 0.059245 0.059896 0.060547 0.061198 0.061849 0.062500 0.063151 0.063802 0.064453 0.065104 0.065755 0.066406 0.067057 0.067708 0.068359 0.069010 0.069661 0.070312 0.070964 0.071615 0.072266 0.072917 0.073568 0.074219 0.074870 0.075521 0.076172 0.076823 0.077474 0.078125 0.078776 0.079427 0.080078 0.080729 0.081380 0.082031 0.082682 0.083333 0.083984 0.084635 0.085286 0.085938 0.086589 0.087240 0.087891 0.088542 0.089193 0.089844 0.090495 0.091146 0.091797 0.092448 0.093099 0.093750 0.094401 0.095052 0.095703 0.096354 0.097005 0.097656 0.098307 0.098958 0.099609 0.100260 0.100911 0.101562 0.102214 0.102865 0.103516 0.104167 0.104818 0.105469 0.106120 0.106771 0.107422 0.108073 0.108724 0.109375 0.110026 0.110677 0.111328 0.111979 0.112630 0.113281 0.113932 0.114583 0.115234 0.115885 0.116536 0.117188 0.117839 0.118490 0.119141 0.119792 0.120443 0.121094 0.121745 0.122396 0.123047 0.123698 0.124349 0.125000 0.125651 0.126302 0.126953 0.127604 0.128255 0.128906 0.129557 0.130208 0.130859 0.131510 0.132161 0.132812 0.133464 0.134115 0.134766 0.135417 0.136068 0.136719 0.137370 0.138021 0.138672 0.139323 0.139974 0.140625 0.141276 0.141927 0.142578 0.143229 0.143880 0.144531 0.145182 0.145833 0.146484 0.147135 0.147786 0.148438 0.149089 0.149740 0.150391 0.151042 0.151693 0.152344 0.152995 0.153646 0.154297 0.154948 0.155599 0.156250 0.156901 0.157552 0.158203 0.158854 0.159505 0.160156 0.160807 0.161458 0.162109 0.162760 0.163411 0.164062 0.164714 0.165365 0.166016 0.166667 0.167318 0.167969 0.168620 0.169271 0.169922 0.170573 0.171224 0.171875 0.172526 0.173177 0.173828 0.174479 0.175130 0.175781 0.176432 0.177083 0.177734 0.178385 0.179036 0.179688 0.180339 0.180990 0.181641 0.182292 0.182943 0.183594 0.184245 0.184896 0.185547 0.186198 0.186849 0.187500 0.188151 0.188802 0.189453 0.190104 0.190755 0.191406 0.192057 0.192708 0.193359 0.194010 0.194661 0.195312 0.195964 0.196615 0.197266 0.197917 0.198568 0.199219 0.199870 0.200521 0.201172 0.201823 0.202474 0.203125 0.203776 0.204427 0.205078 0.205729 0.206380 0.207031 0.207682 0.208333 0.208984 0.209635 0.210286 0.210938 0.211589 0.212240 0.212891 0.213542 0.214193 0.214844 0.215495 0.216146 0.216797 0.217448 0.218099 0.218750 0.219401 0.220052 0.220703 0.221354 0.222005 0.222656 0.223307 0.223958 0.224609 0.225260 0.225911 0.226562 0.227214 0.227865 0.228516 0.229167 0.229818 0.230469 0.231120 0.231771 0.232422 0.233073 0.233724 0.234375 0.235026 0.235677
       0.33162        0.33162        0.33162        0.33162        0.33162        0.33162        0.33162        0.33162        0.33162        0.33162        0.33162        0.33162        0.33162        0.33162        0.33162        0.33162        0.33162        0.33162        0.33162        0.33162        0.33162        0.33162        0.33162        0.33162        0.33162        0.33162        0.33162        0.33162        0.33162        0.33162        0.33162        0.33162        0.33162        0.33162        0.33162        0.33162        0.33162        0.33162        0.33162        0.33162        0.33162        0.33162        0.33162        0.33162        0.33162        0.33162        0.33162        0.33162        0.33162        0.33162        0.33162        0.59626        0.70952        0.36519        0.17323        0.13902       -0.12947        0.11280        0.04081        0.04335        0.09391        0.30948        0.30810        0.23678        0.14234       -0.03719       -0.00987        0.05162       -0.09120       -0.09762       -0.06906       -0.07613       -0.17563       -0.11207       -0.22139       -0.24032       -0.23817       -0.29697       -0.36814       -0.29732       -0.20604       -0.17114       -0.27795       -0.20244       -0.24333       -0.18465       -0.12399       -0.06577       -0.03734        0.01862        0.06644        0.15029        0.19162        0.23373        0.34660        0.41139        0.36122        0.48241        0.54579        0.55427        0.63058        0.55552        0.58515        0.60357        0.60490        0.59608        0.55956        0.59550        0.54247        0.39839        0.35358        0.37742        0.34448        0.21203        0.20191        0.17232        0.11602        0.11408        0.04177        0.10770        0.08627        0.05263        0.13416        0.18915        0.27659        0.35004        0.36550        0.39683        0.44880        0.48220        0.42246        0.63849        0.54993        0.48242        0.56999        0.50325        0.55733        0.51692        0.38988        0.32765        0.31310        0.26694        0.25689        0.21532        0.19700        0.17431        0.26519        0.24311        0.26416        0.23424        0.27541        0.33811        0.33856        0.45027        0.44560        0.43134        0.41823        0.48120        0.43593        0.41772        0.40723        0.39826        0.33722        0.28457        0.28047        0.27064        0.26929        0.21493        0.20247        0.25191        0.26778        0.28995        0.35202        0.38561        0.42761        0.41605        0.43007        0.48932        0.47369        0.43048        0.38404        0.41825        0.38117        0.33097        0.34026        0.33101        0.27255        0.28460        0.28118        0.25630        0.32134        0.29970        0.31856        0.33811        0.39895        0.42217        0.41290        0.44184        0.39055        0.43305        0.40519        0.33313        0.30069        0.27383        0.28540        0.25714        0.22664        0.31406        0.37617        0.33833        0.31027        0.36636        0.29178        0.35006        0.40262        0.38796        0.36631        0.38099        0.34779        0.36358        0.33661        0.30670        0.28892        0.26888        0.32090        0.33258        0.35146        0.36616        0.38936        0.37288        0.37033        0.32727        0.35683        0.36416        0.34497        0.32990        0.29238        0.28955        0.27063        0.34095        0.33739        0.34823        0.31747        0.34957        0.37069        0.33975        0.35752        0.34891        0.31492        0.31115        0.30984        0.28228        0.27226        0.26276        0.25461        0.27501        0.26788        0.30507        0.27785        0.31890        0.35943        0.26435        0.29669        0.28378        0.24727        0.30205        0.28450        0.28544        0.31164        0.32855        0.32921        0.31739        0.31573        0.31279        0.35852        0.35900        0.30361        0.32845        0.32040        0.37048        0.28153        0.27890        0.29449        0.30776        0.33245        0.36520        0.35871        0.29848        0.23424        0.29842        0.26727        0.25895        0.26067        0.27473        0.30795        0.23816        0.30646        0.33164        0.36695        0.31254        0.31471        0.28210        0.29553        0.29245        0.26483        0.28764        0.27182        0.28816        0.35232        0.34778        0.28595        0.32335        0.33170        0.26316        0.23219        0.18838        0.33129        0.33078        0.36055        0.34413        0.29496        0.23124        0.22038        0.27483        0.27011        0.27033        0.29132        0.29255        0.24656        0.28062        0.28018        0.31007        0.28154        0.27847        0.27401        0.24856        0.22847        0.28430        0.25056        0.21838        0.26513        0.25674        0.26284        0.22519        0.20464        0.27220        0.29801        0.27646        0.19973        0.14659        0.29432        0.22745        0.25576        0.27559        0.16960        0.16409        0.19921        0.24397        0.29198        0.09974       -0.10891       -0.60545       -0.96214
2.417108 2.396631 2.376245 2.355949 2.335744 2.315630 2.295606 2.275673 2.255831 2.236079 2.216418 2.196848 2.177368 2.157979 2.138681 2.119473 2.100356 2.081330 2.062395 2.043550 2.024796 2.006132 1.987559 1.969077 1.950685 1.932385 1.914174 1.896055 1.878026 1.860088 1.842241 1.824484 1.806818 1.789242 1.771758 1.754364 1.737060 1.719847 1.702725 1.685694 1.668753 1.651903 1.635144 1.618475 1.601897 1.585410 1.569013 1.552707 1.536492 1.520368 1.504334 1.862546 2.203734 1.529281 1.330345 1.103716 0.519110 0.933565 0.804953 0.845293 0.701183 1.421929 1.195666 1.212046 0.986785 0.598540 0.470684 0.747944 0.601147 0.280883 0.273475 0.487517 0.246077 0.264062 0.109672 -0.002328 -0.016333 -0.009635 -0.319864 -0.145252 0.012525 0.006371 -0.082201 -0.014040 -0.106375 -0.086330 0.068592 0.195781 0.259048 0.281039 0.384930 0.630533 0.563168 0.667208 0.829488 1.061637 0.805185 1.266263 1.194370 1.270399 1.370866 1.262852 1.164233 1.372465 1.237850 1.349353 1.205083 1.202118 1.221935 0.964837 0.713292 0.749404 0.796265 0.484252 0.445715 0.372187 0.239047 0.197745 0.035926 0.231544 0.174305 0.058118 0.139355 0.237505 0.362644 0.608078 0.611010 0.626308 0.697702 0.881141 0.593994 1.028874 1.053077 0.775766 0.927703 0.770548 0.885299 0.918230 0.650339 0.407419 0.437044 0.384235 0.222431 0.241368 0.163793 -0.014529 0.250981 0.229118 0.261344 0.155591 0.251033 0.334263 0.278459 0.501707 0.603554 0.553857 0.365752 0.653087 0.560393 0.423138 0.539279 0.436675 0.271284 0.315629 0.137686 0.214523 0.026128 0.216169 -0.055849 0.057917 0.065646 0.259184 0.052102 0.399744 0.350169 0.404721 0.382532 0.418216 0.589331 0.409717 0.348720 0.403118 0.198748 0.359696 0.111371 0.268749 0.065658 0.092758 0.082908 0.063541 0.046972 0.159482 0.059733 0.158438 0.242088 0.287310 0.330611 0.265194 0.346388 0.264168 0.293762 0.184659 0.104531 0.019702 -0.008572 0.018073 -0.065889 -0.070516 0.126762 0.218957 0.055604 0.108855 0.128035 0.008818 0.189076 0.258061 0.188832 0.185054 0.131401 0.168045 0.108256 0.099001 0.047049 -0.086482 -0.003990 0.135285 0.050736 0.153263 0.133024 0.221743 0.183171 0.158171 0.108102 0.188561 0.101619 0.143299 0.094277 0.013530 -0.011560 -0.010142 0.130561 0.124469 0.129113 0.060354 0.152591 0.158556 0.047268 0.144418 0.052578 -0.008025 0.027131 0.008157 -0.058938 -0.062415 -0.115738 -0.048066 -0.054136 -0.095835 0.013234 -0.042529 0.049033 0.101092 -0.110317 0.026467 -0.050674 -0.099495 0.048357 -0.027999 -0.063242 0.042829 0.098048 0.030560 0.059965 -0.044599 0.028767 0.197281 0.008901 -0.042953 0.083025 0.041874 0.115013 -0.106285 -0.047395 -0.009107 0.048424 0.057805 0.098954 0.133715 -0.044964 -0.107729 0.008361 -0.063210 -0.066690 -0.047526 -0.048578 0.049134 -0.176521 0.124919 0.123811 0.183786 0.038629 0.047420 0.028150 0.030252 0.092833 -0.031772 0.037918 0.008893 0.057723 0.139162 0.188274 0.043316 0.160702 0.172886 -0.039810 -0.008320 -0.162481 0.233158 0.138501 0.213517 0.168758 0.032710 -0.062763 -0.090681 0.009747 0.007740 -0.016328 0.042914 0.051495 -0.077233 0.013555 0.104023 0.072598 0.040648 0.011336 0.057528 -0.097096 -0.020025 0.052598 -0.025238 -0.109934 0.049772 -0.006860 -0.036888 -0.030169 -0.107898 0.084317 0.124382 0.002977 -0.088578 -0.337069 0.207988 0.511676 0.444855 0.574851 0.268244 0.324421 0.394079 0.513499 0.559658 0.067996 0.037344 -0.921965
0.072396 0.072838 0.074163 0.076371 0.079462 0.083435 0.088289 0.094022 0.100634 0.108122 0.116484 0.125716 0.135815 0.146776 0.158594 0.171262 0.184772 0.199116 0.214282 0.230259 0.247032 0.264586 0.282903 0.301961 0.321739 0.342209 0.363344 0.385111 0.407474 0.430396 0.453833 0.477738 0.502061 0.526747 0.551735 0.576960 0.602354 0.627843 0.653346 0.678779 0.704051 0.729069 0.753731 0.777931 0.801559 0.824499 0.846629 0.867825 0.887956 0.906890 0.924488 0.940610 0.955112 0.967851 0.978680 0.987451 0.994019 0.998237 0.999964 0.999060 0.995388 0.988821 0.979236 0.966518 0.950564 0.931282 0.908590 0.882425 0.852736 0.819493 0.782682 0.742313 0.698416 0.651047 0.600285 0.546238 0.489041 0.428857 0.365881 0.300336 0.232478 0.162594 0.091002 0.018050 0.055883 0.130388 0.205031 0.279348 0.352856 0.425047 0.495396 0.563366 0.628407 0.689964 0.747479 0.800402 0.848190 0.890315 0.926273 0.955588 0.977820 0.992569 0.999485 0.998277 0.988713 0.970632 0.943948 0.908657 0.864842 0.812675 0.752424 0.684454 0.609231 0.527317 0.439375 0.346165 0.248540 0.147440 0.043885 0.061028 0.166143 0.270251 0.372106 0.470437 0.563965 0.651424 0.731572 0.803218 0.865233 0.916578 0.956321 0.983654 0.997916 0.998607 0.985407 0.958192 0.917039 0.862242 0.794319 0.714007 0.622269 0.520285 0.409446 0.291336 0.167716 0.040506 0.088250 0.216406 0.341757 0.462066 0.575119 0.678750 0.770902 0.849658 0.913296 0.960323 0.989521 0.999980 0.991137 0.962795 0.915150 0.848800 0.764752 0.664419 0.549605 0.422480 0.285552 0.141622 0.006269 0.154897 0.300927 0.440980 0.571721 0.689935 0.792613 0.877034 0.940842 0.982127 0.999484 0.992074 0.959665 0.902665 0.822136 0.719788 0.597962 0.459586 0.308120 0.147478 0.018066 0.183983 0.345614 0.498297 0.637510 0.759000 0.858929 0.934004 0.981593 0.999836 0.987727 0.945176 0.873050 0.773168 0.648289 0.502048 0.338864 0.163824 0.017463 0.199040 0.374797 0.538674 0.684877 0.808085 0.903659 0.967832 0.997874 0.992225 0.950588 0.873990 0.764777 0.626575 0.464192 0.283467 0.091080 0.105682 0.299199 0.481803 0.646095 0.785242 0.893285 0.965408 0.998170 0.989698 0.939809 0.850073 0.723801 0.565943 0.382939 0.182460 0.026882 0.235900 0.435226 0.615737 0.768976 0.887568 0.965597 0.998919 0.985421 0.925170 0.820481 0.675864 0.497862 0.294798 0.076395 0.146661 0.363236 0.562304 0.733521 0.867767 0.957665 0.998014 0.986118 0.922006 0.808499 0.651135 0.457938 0.239048 0.006209 0.227834 0.450029 0.647754 0.809529 0.925727 0.989163 0.995583 0.943987 0.836772 0.679681 0.481538 0.253798 0.009912 0.235431 0.467203 0.670938 0.833664 0.944749 0.996643 0.985427 0.911160 0.777971 0.593885 0.370404 0.121820 0.135662 0.384967 0.609279 0.793179 0.923751 0.991510 0.991152 0.922021 0.788260 0.598637 0.366026 0.106581 0.161341 0.418481 0.646035 0.827068 0.947796 0.998685 0.975268 0.878586 0.715243 0.497021 0.240102 0.036101 0.310362 0.561273 0.768927 0.916516 0.991754 0.987952 0.904681 0.747947 0.529842 0.267673 0.017345 0.301778 0.561874 0.775578 0.924413 0.995148 0.981031 0.882517 0.707374 0.470168 0.191118 0.105567 0.393759 0.647693 0.844311 0.965377 0.999256 0.942097 0.798357 0.580554 0.308267 0.006448 0.296823 0.572914 0.795383 0.942524 0.999570 0.960250 0.827572 0.613716 0.339009 0.030078 0.282680 0.568056 0.797160 0.946401 0.999962
1.000000 1.000000 1.000000 1.000000 1.000000 1.000000 1.000000 1.000000 1.000000 1.000000 1.000000 1.000000 1.000000 1.000000 1.000000 1.000000 1.000000 1.000000 1.000000 1.000000 1.000000 1.000000 1.000000 1.000000 1.000000 1.000000 1.000000 1.000000 1.000000 1.000000 1.000000 1.000000 1.000000 1.000000 1.000000 1.000000 1.000000 1.000000 1.000000 1.000000 1.000000 1.000000 1.000000 1.000000 1.000000 1.000000 1.000000 1.000000 1.000000 1.000000 1.000000 1.000000 0.770739 0.770739 0.770739 0.770739 0.770739 0.770739 0.770739 0.759531 0.759531 0.759531 0.759531 0.759531 0.759531 0.759531 0.759531 0.759531 0.759531 0.759531 0.759531 0.759531 0.759531 0.759531 0.759531 0.759531 0.759531 0.759531 0.759531 0.759531 0.759531 0.759531 0.759531 0.759531 0.759531 0.759531 0.759531 0.759531 0.759531 0.759531 0.759531 0.759531 0.759531 0.759531 0.759531 0.759531 0.759531 0.759531 0.759531 0.759531 0.759531 0.759531 0.759531 0.899993 0.901465 0.904529 0.899950 0.901884 0.899723 0.893291 0.896218 0.896839 0.896650 0.897442 0.899096 0.901102 0.908437 0.917346 0.919234 0.926212 0.929645 0.929627 0.931142 0.929756 0.937232 0.934734 0.932963 0.921057 0.924469 0.926370 0.925379 0.924219 0.921044 0.927466 0.926061 0.923983 0.918700 0.914781 0.912870 0.914510 0.912273 0.912470 0.912655 0.913277 0.911483 0.912092 0.908245 0.909189 0.908089 0.904537 0.901526 0.901243 0.902631 0.900940 0.897564 0.891289 0.897250 0.897407 0.896771 0.895680 0.895890 0.896684 0.897458 0.898125 0.895686 0.895738 0.893138 0.894913 0.891233 0.886465 0.880311 0.880542 0.883027 0.890194 0.892246 0.890945 0.888143 0.879905 0.869271 0.867199 0.855298 0.820746 0.822595 0.826485 0.828660 0.829290 0.828388 0.824603 0.820079 0.811512 0.802405 0.807214 0.807799 0.800184 0.795900 0.796821 0.797449 0.804836 0.808359 0.800161 0.797140 0.800227 0.796236 0.797454 0.801367 0.794903 0.791408 0.798018 0.806206 0.806379 0.790926 0.786597 0.784247 0.772073 0.779166 0.785745 0.786106 0.787498 0.784493 0.772826 0.771332 0.764459 0.775168 0.782519 0.781781 0.776888 0.759706 0.716595 0.703190 0.671069 0.670193 0.671780 0.637970 0.638084 0.639664 0.644244 0.588603 0.566571 0.552658 0.553432 0.562161 0.567128 0.561232 0.534519 0.552618 0.549296 0.534902 0.530884 0.511064 0.496871 0.477714 0.480370 0.479683 0.471657 0.441345 0.441589 0.461199 0.470303 0.465785 0.462243 0.434290 0.413632 0.413813 0.406635 0.406591 0.412301 0.420985 0.364878 0.341688 0.327419 0.356234 0.355381 0.353766 0.370248 0.362610 0.356130 0.331409 0.310915 0.283370 0.295806 0.316334 0.320115 0.323899 0.291721 0.281682 0.265189 0.269514 0.314538 0.302918 0.324424 0.328975 0.333961 0.360575 0.333540 0.309859 0.287104 0.330153 0.334926 0.308623 0.299610 0.313521 0.327686 0.327255 0.323206 0.317402 0.364664 0.371443 0.351085 0.351607 0.318549 0.340375 0.372562 0.369338 0.374562 0.385045 0.390353 0.356713 0.286043 0.258603 0.261747 0.237967 0.237492 0.223183 0.208059 0.199814 0.211912 0.233992 0.240124 0.272743 0.241749 0.197994 0.106408 0.173826 0.091151 0.103579 0.103579 0.103579 0.103579 0.103579 0.103579 0.103579 0.103579 0.138512 0.138512 0.138512 0.138512 0.138512 0.138512 0.138512 0.138512 0.138512 0.138512 0.138512 0.138512 0.138512 0.138512 0.138512 0.138512 0.138512 0.138512 0.138512 0.138512 0.138512
0.000000 0.000000 0.000000 0.000000 0.000000 0.000000 0.000000 0.000000 0.000000 0.000000 0.000000 0.000000 0.000000 0.000000 0.000000 0.000000 0.000000 0.000000 0.000000 0.000000 0.000000 0.000000 0.000000 0.000000 0.000000 0.000000 0.000000 0.000000 0.000000 0.000000 0.000000 0.000000 0.000000 0.000000 0.000000 0.000000 0.000000 0.000000 0.000000 0.000000 0.000000 0.000000 0.000000 0.000000 0.000000 0.000000 0.000000 0.000000 0.000000 0.000000 0.000000 0.000000 0.173422 0.173422 0.173422 0.173422 0.173422 0.173422 0.173422 0.191565 0.191565 0.191565 0.191565 0.191565 0.191565 0.191565 0.191565 0.191565 0.191565 0.191565 0.191565 0.191565 0.191565 0.191565 0.191565 0.191565 0.191565 0.191565 0.191565 0.191565 0.191565 0.191565 0.191565 0.191565 0.191565 0.191565 0.191565 0.191565 0.191565 0.191565 0.191565 0.191565 0.191565 0.191565 0.191565 0.191565 0.191565 0.191565 0.191565 0.191565 0.191565 0.191565 0.191565 0.222222 0.222222 0.222222 0.222222 0.222222 0.222222 0.222222 0.222222 0.222222 0.222222 0.222222 0.222222 0.222222 0.222222 0.222222 0.222222 0.222222 0.222222 0.222222 0.222222 0.222222 0.222222 0.222222 0.222222 0.222222 0.222222 0.222222 0.222222 0.222222 0.222222 0.234082 0.234082 0.234082 0.234082 0.234082 0.234082 0.234082 0.234082 0.234082 0.234082 0.234082 0.234082 0.234082 0.234082 0.234082 0.234082 0.234082 0.234082 0.234082 0.234082 0.234082 0.234082 0.234082 0.234082 0.234082 0.244339 0.244339 0.244339 0.244339 0.244339 0.244339 0.244339 0.244339 0.244339 0.244339 0.244339 0.244339 0.244339 0.244339 0.244339 0.244339 0.244339 0.244339 0.244339 0.244339 0.244339 0.248069 0.248069 0.248069 0.248069 0.248069 0.248069 0.248069 0.248069 0.248069 0.248069 0.248069 0.248069 0.248069 0.248069 0.248069 0.248069 0.248069 0.248069 0.248069 0.256074 0.256074 0.256074 0.256074 0.256074 0.256074 0.256074 0.256074 0.256074 0.256074 0.256074 0.256074 0.256074 0.256074 0.256074 0.256074 0.256074 0.256074 0.256074 0.256074 0.256074 0.256074 0.256074 0.256074 0.256074 0.256074 0.256074 0.256074 0.256074 0.256074 0.256074 0.256074 0.256074 0.256074 0.256074 0.256074 0.256074 0.256074 0.256074 0.256074 0.256074 0.256074 0.256074 0.256074 0.256074 0.256074 0.256074 0.256074 0.256074 0.256074 0.256074 0.256074 0.256074 0.256074 0.256074 0.256074 0.256074 0.256074 0.256074 0.256074 0.256074 0.256074 0.260378 0.260378 0.260378 0.260378 0.260378 0.260378 0.260378 0.260378 0.260378 0.260378 0.260378 0.260378 0.260378 0.256074 0.256074 0.256074 0.256074 0.256074 0.256074 0.256074 0.256074 0.256074 0.256074 0.256074 0.256074 0.256074 0.260378 0.260378 0.260378 0.260378 0.260378 0.260378 0.260378 0.260378 0.260378 0.260378 0.260378 0.260378 0.251976 0.251976 0.251976 0.251976 0.251976 0.251976 0.251976 0.251976 0.251976 0.251976 0.251976 0.251976 0.256074 0.256074 0.256074 0.256074 0.256074 0.256074 0.256074 0.256074 0.256074 0.256074 0.256074 0.251976 0.251976 0.251976 0.251976 0.251976 0.251976 0.251976 0.251976 0.251976 0.251976 0.251976 0.260378 0.260378 0.260378 0.260378 0.260378 0.260378 0.260378 0.260378 0.260378 0.260378 0.244339 0.244339 0.244339 0.244339 0.244339 0.244339 0.244339 0.244339 0.244339 0.244339 0.244339 0.244339 0.244339 0.244339 0.244339 0.244339 0.244339 0.244339 0.244339 0.244339 0.244339
