# Output from CTFFind version 4.1.9, run on 2019-11-03 20:09:55
# Input file: stack16_bm3d_averaged_1_6.0_0_2500_half.mrc ; Number of micrographs: 1
# Pixel size: 3.000 Angstroms ; acceleration voltage: 300.0 keV ; spherical aberration: 0.00 mm ; amplitude contrast: 0.07
# Box size: 512 pixels ; min. res.: 30.0 Angstroms ; max. res.: 5.0 Angstroms ; min. def.: 5000.0 um; max. def. 50000.0 um; num. frames averaged: 1
# 6 lines per micrograph: #1 - spatial frequency (1/Angstroms); #2 - 1D rotational average of spectrum (assuming no astigmatism); #3 - 1D rotational average of spectrum; #4 - CTF fit; #5 - cross-correlation between spectrum and CTF fit; #6 - 2sigma of expected cross correlation of noise
0.000000 0.000651 0.001302 0.001953 0.002604 0.003255 0.003906 0.004557 0.005208 0.005859 0.006510 0.007161 0.007812 0.008464 0.009115 0.009766 0.010417 0.011068 0.011719 0.012370 0.013021 0.013672 0.014323 0.014974 0.015625 0.016276 0.016927 0.017578 0.018229 0.018880 0.019531 0.020182 0.020833 0.021484 0.022135 0.022786 0.023438 0.024089 0.024740 0.025391 0.026042 0.026693 0.027344 0.027995 0.028646 0.029297 0.029948 0.030599 0.031250 0.031901 0.032552 0.033203 0.033854 0.034505 0.035156 0.035807 0.036458 0.037109 0.037760 0.038411 0.039062 0.039714 0.040365 0.041016 0.041667 0.042318 0.042969 0.043620 0.044271 0.044922 0.045573 0.046224 0.046875 0.047526 0.048177 0.048828 0.049479 0.050130 0.050781 0.051432 0.052083 0.052734 0.053385 0.054036 0.054688 0.055339 0.055990 0.056641 0.057292 0.057943 0.058594 0.059245 0.059896 0.060547 0.061198 0.061849 0.062500 0.063151 0.063802 0.064453 0.065104 0.065755 0.066406 0.067057 0.067708 0.068359 0.069010 0.069661 0.070312 0.070964 0.071615 0.072266 0.072917 0.073568 0.074219 0.074870 0.075521 0.076172 0.076823 0.077474 0.078125 0.078776 0.079427 0.080078 0.080729 0.081380 0.082031 0.082682 0.083333 0.083984 0.084635 0.085286 0.085938 0.086589 0.087240 0.087891 0.088542 0.089193 0.089844 0.090495 0.091146 0.091797 0.092448 0.093099 0.093750 0.094401 0.095052 0.095703 0.096354 0.097005 0.097656 0.098307 0.098958 0.099609 0.100260 0.100911 0.101562 0.102214 0.102865 0.103516 0.104167 0.104818 0.105469 0.106120 0.106771 0.107422 0.108073 0.108724 0.109375 0.110026 0.110677 0.111328 0.111979 0.112630 0.113281 0.113932 0.114583 0.115234 0.115885 0.116536 0.117188 0.117839 0.118490 0.119141 0.119792 0.120443 0.121094 0.121745 0.122396 0.123047 0.123698 0.124349 0.125000 0.125651 0.126302 0.126953 0.127604 0.128255 0.128906 0.129557 0.130208 0.130859 0.131510 0.132161 0.132812 0.133464 0.134115 0.134766 0.135417 0.136068 0.136719 0.137370 0.138021 0.138672 0.139323 0.139974 0.140625 0.141276 0.141927 0.142578 0.143229 0.143880 0.144531 0.145182 0.145833 0.146484 0.147135 0.147786 0.148438 0.149089 0.149740 0.150391 0.151042 0.151693 0.152344 0.152995 0.153646 0.154297 0.154948 0.155599 0.156250 0.156901 0.157552 0.158203 0.158854 0.159505 0.160156 0.160807 0.161458 0.162109 0.162760 0.163411 0.164062 0.164714 0.165365 0.166016 0.166667 0.167318 0.167969 0.168620 0.169271 0.169922 0.170573 0.171224 0.171875 0.172526 0.173177 0.173828 0.174479 0.175130 0.175781 0.176432 0.177083 0.177734 0.178385 0.179036 0.179688 0.180339 0.180990 0.181641 0.182292 0.182943 0.183594 0.184245 0.184896 0.185547 0.186198 0.186849 0.187500 0.188151 0.188802 0.189453 0.190104 0.190755 0.191406 0.192057 0.192708 0.193359 0.194010 0.194661 0.195312 0.195964 0.196615 0.197266 0.197917 0.198568 0.199219 0.199870 0.200521 0.201172 0.201823 0.202474 0.203125 0.203776 0.204427 0.205078 0.205729 0.206380 0.207031 0.207682 0.208333 0.208984 0.209635 0.210286 0.210938 0.211589 0.212240 0.212891 0.213542 0.214193 0.214844 0.215495 0.216146 0.216797 0.217448 0.218099 0.218750 0.219401 0.220052 0.220703 0.221354 0.222005 0.222656 0.223307 0.223958 0.224609 0.225260 0.225911 0.226562 0.227214 0.227865 0.228516 0.229167 0.229818 0.230469 0.231120 0.231771 0.232422 0.233073 0.233724 0.234375 0.235026 0.235677
       0.34395        0.34395        0.34395        0.34395        0.34395        0.34395        0.34395        0.34395        0.34395        0.34395        0.34395        0.34395        0.34395        0.34395        0.34395        0.34395        0.34395        0.34395        0.34395        0.34395        0.34395        0.34395        0.34395        0.34395        0.34395        0.34395        0.34395        0.34395        0.34395        0.34395        0.34395        0.34395        0.34395        0.34395        0.34395        0.34395        0.34395        0.34395        0.34395        0.34395        0.34395        0.34395        0.34395        0.34395        0.34395        0.34395        0.34395        0.34395        0.34395        0.34395        0.34395        0.42426        0.55552        0.34130       -0.21423       -0.45547       -0.54979       -0.64968       -0.72011       -0.72849       -0.82390       -0.89563       -0.68912       -0.84542       -0.82644       -0.97185       -1.00931       -0.89056       -0.84945       -0.80462       -0.72022       -0.65064       -0.56212       -0.46774       -0.40206       -0.17354       -0.07073        0.02937        0.25232        0.25399        0.31067        0.36915        0.39883        0.51491        0.53534        0.57114        0.53138        0.47088        0.50440        0.52170        0.44367        0.32801        0.20947        0.17672        0.10810        0.00266       -0.01343       -0.02202        0.05092        0.01726        0.06930        0.04320        0.15874        0.19215        0.40515        0.45736        0.54801        0.65674        0.68741        0.71265        0.63426        0.61011        0.53562        0.43728        0.38501        0.27148        0.21377        0.20834        0.09723        0.10482        0.09979        0.08160        0.09249        0.30311        0.41227        0.51854        0.53175        0.56998        0.60725        0.58656        0.57347        0.58134        0.56420        0.46340        0.30130        0.26123        0.24920        0.14350        0.08658        0.16282        0.19896        0.28046        0.35065        0.42278        0.47014        0.52851        0.59948        0.54357        0.50569        0.49747        0.35288        0.26862        0.25501        0.17179        0.18856        0.22823        0.27057        0.27872        0.32110        0.42389        0.45799        0.49774        0.45039        0.44087        0.48252        0.38903        0.32682        0.28351        0.25438        0.22801        0.22678        0.23577        0.33324        0.43937        0.42771        0.48764        0.55147        0.44370        0.40979        0.35349        0.30944        0.26520        0.27713        0.26731        0.28557        0.34145        0.35080        0.43167        0.47074        0.43620        0.45638        0.37083        0.37564        0.35263        0.26610        0.24778        0.24497        0.32383        0.37591        0.36381        0.38755        0.43117        0.43778        0.37216        0.33671        0.31784        0.34781        0.30969        0.27728        0.27969        0.35085        0.36812        0.38441        0.38618        0.38570        0.41468        0.39969        0.31793        0.28623        0.31280        0.34064        0.37174        0.35694        0.40137        0.34032        0.36829        0.38965        0.33334        0.35148        0.31699        0.29745        0.33516        0.33859        0.32511        0.34955        0.36761        0.32434        0.34428        0.31678        0.31328        0.29076        0.31641        0.31275        0.32524        0.36338        0.36779        0.34963        0.30553        0.29542        0.28322        0.32601        0.30748        0.31177        0.36695        0.35617        0.33862        0.31168        0.30219        0.30842        0.27259        0.30941        0.32365        0.33219        0.36759        0.34549        0.30473        0.33187        0.33978        0.32507        0.35293        0.34292        0.30904        0.33049        0.28949        0.32019        0.29213        0.31059        0.28671        0.31822        0.35166        0.32802        0.35142        0.30783        0.32385        0.34671        0.33694        0.31233        0.31404        0.35354        0.33586        0.33092        0.32205        0.30953        0.30865        0.31124        0.31983        0.31877        0.34888        0.33839        0.33687        0.29064        0.28058        0.26548        0.26674        0.35929        0.30858        0.34504        0.29386        0.25933        0.27745        0.36038        0.30563        0.28038        0.30480        0.31371        0.29464        0.26483        0.30550        0.26936        0.28439        0.30297        0.32909        0.33163        0.31852        0.30340        0.26371        0.26898        0.26422        0.27035        0.29149        0.35761        0.28950        0.19729        0.29974        0.28145        0.31873        0.24723        0.29869        0.30203        0.33314        0.28972        0.27493        0.26411        0.24043        0.29817        0.34171        0.34340        0.24458        0.28771        0.23500        0.22937        0.20829        0.33102        0.24914        0.17769        0.12406        0.21054        0.32484        0.22150        0.18940        0.09999       -0.49996       -0.60297
3.164692 3.124667 3.084902 3.045396 3.006149 2.967161 2.928433 2.889964 2.851754 2.813804 2.776113 2.738681 2.701508 2.664595 2.627941 2.591546 2.555410 2.519534 2.483917 2.448559 2.413461 2.378622 2.344042 2.309721 2.275660 2.241858 2.208315 2.175031 2.142007 2.109242 2.076736 2.044490 2.012503 1.980775 1.949306 1.918097 1.887147 1.856456 1.826025 1.795852 1.765940 1.736286 1.706891 1.677756 1.648880 1.620264 1.591907 1.563808 1.535970 1.508390 1.481070 1.515824 1.596852 1.536833 0.843259 0.592600 0.453278 0.385024 0.289452 0.214130 0.180261 -0.051374 0.202555 0.067736 -0.032457 -0.113779 -0.239854 -0.146459 -0.058795 -0.093928 -0.076618 0.033909 0.030941 0.225047 0.106265 0.353847 0.461128 0.488136 0.764467 0.684465 0.691503 0.825125 0.796137 0.837233 0.922875 0.853256 0.889575 0.725397 0.791534 0.844620 0.683704 0.604306 0.436530 0.425496 0.338973 0.188058 0.184190 0.115546 0.209061 0.120352 0.209531 0.105545 0.218094 0.230049 0.444295 0.405648 0.577346 0.616369 0.646810 0.723063 0.609430 0.585443 0.461378 0.412556 0.293364 0.264484 0.096599 0.156631 -0.025704 0.038541 -0.032488 -0.040757 -0.050911 0.030828 0.272505 0.294733 0.365166 0.307809 0.390145 0.401180 0.425889 0.406193 0.359672 0.334793 0.126780 0.080190 0.065216 -0.016211 -0.152798 -0.046080 -0.066185 0.039038 0.081884 0.156194 0.222243 0.231337 0.321302 0.410802 0.295217 0.364505 0.239362 0.140544 0.067565 0.039728 0.002823 0.047796 0.071809 0.100385 0.117801 0.176003 0.240924 0.309161 0.275572 0.216617 0.256121 0.227556 0.111299 0.067214 0.050705 0.028525 0.007388 -0.013516 0.032683 0.170145 0.189327 0.193053 0.302419 0.188960 0.197464 0.077127 0.069049 0.004724 -0.007133 0.000600 -0.007091 0.042247 0.061614 0.095360 0.156953 0.142686 0.222068 0.132530 0.077445 0.100043 0.046270 -0.054986 -0.023031 0.023029 0.061527 0.074799 0.070953 0.152231 0.121204 0.152074 0.036864 0.052603 0.045254 0.049055 0.025505 -0.021640 0.039429 0.046707 0.088738 0.102254 0.090730 0.110226 0.125570 0.077790 0.013772 -0.005647 0.028566 0.078307 0.066857 0.093661 0.088322 0.053815 0.108060 0.066704 0.042045 0.080294 -0.016421 0.017236 0.063247 0.038240 0.044446 0.059790 0.073380 0.050743 0.063662 0.013798 0.019734 0.001332 0.051356 0.005244 0.043912 0.069174 0.075264 0.041068 -0.007902 -0.004737 -0.018932 0.037594 0.000023 0.013368 0.071842 0.051451 -0.002034 0.009846 -0.013947 0.009321 -0.042931 0.001734 0.007583 0.035270 0.048885 0.022119 -0.013246 0.005282 0.019170 0.003526 0.039989 0.011750 -0.017547 0.023132 -0.043317 -0.022802 -0.054013 -0.012437 -0.054221 0.010393 0.019717 -0.001386 -0.003879 -0.005938 0.001925 0.025409 0.020995 -0.011739 0.003085 0.025332 0.039037 0.017553 0.010434 0.024607 -0.001841 -0.002007 0.018512 -0.004563 0.084428 0.048894 0.033452 0.001955 -0.010243 -0.034016 -0.000777 0.083704 -0.008948 0.068395 -0.023631 -0.024788 -0.020351 0.095158 -0.000920 -0.020415 0.044603 0.048067 0.010992 0.005222 0.025694 0.003913 0.027254 0.035041 0.071783 0.065788 0.048541 0.037668 -0.005444 0.005598 -0.006536 -0.011543 0.007485 0.102556 -0.022536 -0.093731 0.050564 -0.016638 0.067822 -0.058764 0.003356 0.012753 0.024873 0.003194 -0.019661 -0.021223 -0.072557 0.034641 0.049640 0.060905 -0.125230 0.004589 -0.017547 -0.012579 -0.116280 0.103297 0.014953 -0.034170 -0.089126 0.187969 0.273013 0.153147 0.144218 0.103182 -0.573722
0.072396 0.073047 0.074998 0.078249 0.082800 0.088648 0.095792 0.104228 0.113952 0.124960 0.137245 0.150799 0.165610 0.181667 0.198955 0.217454 0.237142 0.257995 0.279980 0.303062 0.327201 0.352350 0.378454 0.405453 0.433279 0.461855 0.491097 0.520909 0.551187 0.581818 0.612676 0.643625 0.674520 0.705202 0.735501 0.765236 0.794214 0.822234 0.849079 0.874527 0.898343 0.920286 0.940107 0.957551 0.972357 0.984266 0.993013 0.998340 0.999991 0.997716 0.991278 0.980454 0.965035 0.944837 0.919698 0.889487 0.854105 0.813490 0.767624 0.716531 0.660290 0.599030 0.532937 0.462260 0.387311 0.308465 0.226166 0.140927 0.053325 0.035994 0.126319 0.216881 0.306852 0.395353 0.481466 0.564233 0.642677 0.715803 0.782621 0.842152 0.893447 0.935604 0.967784 0.989228 0.999278 0.997392 0.983164 0.956339 0.916832 0.864740 0.800355 0.724176 0.636912 0.539488 0.433044 0.318930 0.198699 0.074087 0.053000 0.180513 0.306293 0.428100 0.543656 0.650686 0.746970 0.830388 0.898973 0.950964 0.984859 0.999465 0.993942 0.967849 0.921177 0.854376 0.768375 0.664589 0.544913 0.411703 0.267747 0.116219 0.039383 0.195311 0.347646 0.492403 0.625634 0.743535 0.842573 0.919596 0.971945 0.997564 0.995093 0.963950 0.904386 0.817528 0.705386 0.570837 0.417579 0.250045 0.073306 0.107082 0.285236 0.455133 0.610819 0.746624 0.857379 0.938631 0.986848 0.999587 0.975650 0.915183 0.819738 0.692278 0.537124 0.359846 0.167088 0.033649 0.234292 0.426508 0.602056 0.753139 0.872782 0.955169 0.995961 0.992560 0.944302 0.852574 0.720839 0.554556 0.361001 0.148993 0.071487 0.289734 0.494843 0.676253 0.824308 0.930800 0.989466 0.996394 0.950336 0.852880 0.708476 0.524299 0.309952 0.077012 0.161558 0.392118 0.601118 0.775918 0.905581 0.981592 0.998487 0.954295 0.850797 0.693547 0.491664 0.257362 0.005281 0.248406 0.487002 0.694395 0.856168 0.960652 0.999827 0.970010 0.872270 0.712515 0.501231 0.252885 0.015003 0.283048 0.531393 0.741176 0.896011 0.983319 0.995436 0.930370 0.792148 0.590692 0.341214 0.063155 0.221274 0.488824 0.717125 0.886580 0.982124 0.994651 0.921987 0.769292 0.548843 0.279163 0.016436 0.311815 0.580282 0.797021 0.941456 0.999279 0.963984 0.837727 0.631364 0.363673 0.059767 0.251187 0.538723 0.774064 0.933071 0.998799 0.963444 0.829405 0.609317 0.325039 0.005606 0.315654 0.604554 0.829698 0.965987 0.997522 0.919620 0.739638 0.476481 0.158784 0.178079 0.495863 0.757797 0.932884 0.999694 0.949152 0.785936 0.528292 0.206168 0.142092 0.474248 0.749267 0.932437 0.999898 0.941916 0.764477 0.488933 0.149634 0.210195 0.543878 0.807340 0.965019 0.994811 0.891385 0.667311 0.351797 0.012919 0.377069 0.690113 0.907782 0.998477 0.948057 0.762285 0.466472 0.102280 0.277978 0.618743 0.869356 0.991712 0.966255 0.795359 0.503486 0.133945 0.257305 0.610045 0.869066 0.992929 0.960831 0.776368 0.467512 0.082667 0.316708 0.665810 0.907043 0.999671 0.926958 0.699491 0.353991 0.052287 0.450890 0.773610 0.964247 0.988598 0.840915 0.545511 0.153115 0.267564 0.641730 0.901812 0.999832 0.916543 0.665559 0.291535 0.137441 0.542069 0.846418 0.992329 0.950802 0.728119 0.365371 0.068755 0.490761 0.818284 0.986316 0.960377 0.743967 0.378626 0.063618 0.494221 0.825749 0.989739 0.951164 0.716298 0.332244 0.122118 0.552061 0.866700 0.998363 0.917478 0.639667 0.223235 0.242659 0.656861
1.000000 1.000000 1.000000 1.000000 1.000000 1.000000 1.000000 1.000000 1.000000 1.000000 1.000000 1.000000 1.000000 1.000000 1.000000 1.000000 1.000000 1.000000 1.000000 1.000000 1.000000 1.000000 1.000000 1.000000 1.000000 1.000000 1.000000 1.000000 1.000000 1.000000 1.000000 1.000000 1.000000 1.000000 1.000000 1.000000 1.000000 1.000000 1.000000 1.000000 1.000000 1.000000 1.000000 1.000000 1.000000 1.000000 1.000000 1.000000 1.000000 1.000000 1.000000 1.000000 0.923112 0.923112 0.923112 0.923112 0.923112 0.923112 0.923112 0.923112 0.923112 0.923112 0.923112 0.923112 0.923112 0.923112 0.923112 0.923112 0.923112 0.923112 0.923112 0.923112 0.923112 0.923112 0.923112 0.923112 0.923112 0.923112 0.923112 0.923112 0.923112 0.923112 0.923112 0.923112 0.923112 0.913221 0.911329 0.912485 0.911031 0.909585 0.908996 0.908602 0.909642 0.911244 0.913322 0.934963 0.938067 0.939311 0.940638 0.942012 0.944297 0.942133 0.949697 0.956199 0.955132 0.956270 0.950092 0.951510 0.950848 0.950106 0.951453 0.951592 0.949889 0.947862 0.946279 0.945723 0.945410 0.948993 0.949589 0.949742 0.950337 0.950281 0.950998 0.951598 0.949736 0.951996 0.944097 0.942761 0.948031 0.945940 0.947309 0.947270 0.947959 0.948761 0.949080 0.949352 0.946325 0.945883 0.945028 0.936818 0.929851 0.929417 0.931923 0.935204 0.932753 0.929311 0.930501 0.932742 0.932036 0.935693 0.926453 0.922262 0.897653 0.885098 0.874398 0.874689 0.878147 0.880660 0.878331 0.871079 0.861716 0.857972 0.857953 0.853905 0.846372 0.862320 0.856589 0.854335 0.858190 0.861324 0.866720 0.864120 0.859646 0.854984 0.850445 0.842287 0.843884 0.847938 0.852073 0.835559 0.826163 0.843344 0.833544 0.824377 0.832069 0.834047 0.831053 0.829792 0.830280 0.828523 0.822110 0.816017 0.819526 0.828442 0.828224 0.817397 0.814279 0.810788 0.810329 0.804651 0.809006 0.809771 0.806190 0.799145 0.815810 0.782064 0.804825 0.805059 0.789707 0.773703 0.762476 0.771713 0.782351 0.784372 0.776302 0.775820 0.775349 0.766587 0.738605 0.738372 0.745647 0.744085 0.731849 0.715210 0.722152 0.725553 0.721690 0.718216 0.721258 0.721723 0.696206 0.709695 0.713765 0.701548 0.716172 0.718363 0.709148 0.711390 0.714241 0.717385 0.711350 0.672439 0.675571 0.660266 0.654218 0.608849 0.607659 0.605033 0.546041 0.551025 0.520203 0.504505 0.503717 0.484962 0.537106 0.477681 0.462519 0.492835 0.419668 0.349125 0.365646 0.365157 0.378213 0.385799 0.368233 0.368549 0.355902 0.336588 0.336623 0.361050 0.377610 0.342181 0.344599 0.333073 0.308330 0.274695 0.290937 0.294284 0.319206 0.321246 0.300895 0.327655 0.363910 0.304075 0.283559 0.263266 0.285624 0.299435 0.302794 0.291900 0.279952 0.256326 0.238939 0.263106 0.262850 0.281970 0.301096 0.329443 0.323352 0.325924 0.353815 0.305787 0.320232 0.322019 0.312210 0.328275 0.331753 0.334461 0.323858 0.344710 0.324695 0.336862 0.327046 0.326116 0.383162 0.362648 0.336924 0.325680 0.330891 0.331598 0.314046 0.261786 0.242276 0.239783 0.185720 0.156522 0.158537 0.158753 0.115589 0.095687 0.079763 0.042307 0.041385 0.044924 0.081593 0.050370 0.071782 0.075544 0.075544 0.075544 0.075544 0.075544 0.075544 0.075544 0.075544 0.075544 0.075544 0.075544 0.075544 0.075544 0.075544 0.098091 0.098091 0.098091 0.098091 0.098091 0.098091 0.098091 0.098091 0.098091 0.098091 0.098091 0.098091
0.000000 0.000000 0.000000 0.000000 0.000000 0.000000 0.000000 0.000000 0.000000 0.000000 0.000000 0.000000 0.000000 0.000000 0.000000 0.000000 0.000000 0.000000 0.000000 0.000000 0.000000 0.000000 0.000000 0.000000 0.000000 0.000000 0.000000 0.000000 0.000000 0.000000 0.000000 0.000000 0.000000 0.000000 0.000000 0.000000 0.000000 0.000000 0.000000 0.000000 0.000000 0.000000 0.000000 0.000000 0.000000 0.000000 0.000000 0.000000 0.000000 0.000000 0.000000 0.000000 0.209657 0.209657 0.209657 0.209657 0.209657 0.209657 0.209657 0.209657 0.209657 0.209657 0.209657 0.209657 0.209657 0.209657 0.209657 0.209657 0.209657 0.209657 0.209657 0.209657 0.209657 0.209657 0.209657 0.209657 0.209657 0.209657 0.209657 0.209657 0.209657 0.209657 0.209657 0.209657 0.209657 0.244339 0.244339 0.244339 0.244339 0.244339 0.244339 0.244339 0.244339 0.244339 0.244339 0.244339 0.244339 0.244339 0.244339 0.244339 0.244339 0.244339 0.244339 0.244339 0.244339 0.244339 0.244339 0.244339 0.244339 0.244339 0.260378 0.260378 0.260378 0.260378 0.260378 0.260378 0.260378 0.260378 0.260378 0.260378 0.260378 0.260378 0.260378 0.260378 0.260378 0.260378 0.260378 0.260378 0.260378 0.260378 0.269680 0.269680 0.269680 0.269680 0.269680 0.269680 0.269680 0.269680 0.269680 0.269680 0.269680 0.269680 0.269680 0.269680 0.269680 0.269680 0.269680 0.269680 0.269680 0.269680 0.269680 0.269680 0.269680 0.269680 0.269680 0.269680 0.269680 0.269680 0.269680 0.269680 0.269680 0.269680 0.269680 0.280056 0.280056 0.280056 0.280056 0.280056 0.280056 0.280056 0.280056 0.280056 0.280056 0.280056 0.280056 0.280056 0.280056 0.280056 0.280056 0.280056 0.280056 0.280056 0.280056 0.280056 0.280056 0.280056 0.280056 0.280056 0.280056 0.280056 0.274721 0.274721 0.274721 0.274721 0.274721 0.274721 0.274721 0.274721 0.274721 0.274721 0.274721 0.274721 0.274721 0.285714 0.285714 0.285714 0.285714 0.285714 0.285714 0.285714 0.285714 0.285714 0.285714 0.285714 0.280056 0.280056 0.280056 0.280056 0.280056 0.280056 0.280056 0.280056 0.280056 0.280056 0.280056 0.274721 0.274721 0.274721 0.274721 0.274721 0.274721 0.274721 0.274721 0.274721 0.274721 0.274721 0.280056 0.280056 0.280056 0.280056 0.280056 0.280056 0.280056 0.280056 0.280056 0.280056 0.285714 0.285714 0.285714 0.285714 0.285714 0.285714 0.285714 0.285714 0.285714 0.269680 0.269680 0.269680 0.269680 0.269680 0.269680 0.269680 0.269680 0.269680 0.269680 0.274721 0.274721 0.274721 0.274721 0.274721 0.274721 0.274721 0.274721 0.274721 0.285714 0.285714 0.285714 0.285714 0.285714 0.285714 0.285714 0.285714 0.264906 0.264906 0.264906 0.264906 0.264906 0.264906 0.264906 0.264906 0.264906 0.274721 0.274721 0.274721 0.274721 0.274721 0.274721 0.274721 0.274721 0.269680 0.269680 0.269680 0.269680 0.269680 0.269680 0.269680 0.269680 0.269680 0.269680 0.269680 0.269680 0.269680 0.269680 0.269680 0.269680 0.280056 0.280056 0.280056 0.280056 0.280056 0.280056 0.280056 0.260378 0.260378 0.260378 0.260378 0.260378 0.260378 0.260378 0.260378 0.269680 0.269680 0.269680 0.269680 0.269680 0.269680 0.269680 0.264906 0.264906 0.264906 0.264906 0.264906 0.264906 0.264906 0.264906 0.264906 0.264906 0.264906 0.264906 0.264906 0.264906 0.260378 0.260378 0.260378 0.260378 0.260378 0.260378 0.260378 0.260378 0.260378 0.260378 0.260378 0.260378
