# Output from CTFFind version 4.1.9, run on 2019-11-03 20:06:51
# Input file: stack6_bm3d_averaged_1_6.0_0_1250_half.mrc ; Number of micrographs: 1
# Pixel size: 3.000 Angstroms ; acceleration voltage: 300.0 keV ; spherical aberration: 0.00 mm ; amplitude contrast: 0.07
# Box size: 512 pixels ; min. res.: 30.0 Angstroms ; max. res.: 5.0 Angstroms ; min. def.: 5000.0 um; max. def. 50000.0 um; num. frames averaged: 1
# 6 lines per micrograph: #1 - spatial frequency (1/Angstroms); #2 - 1D rotational average of spectrum (assuming no astigmatism); #3 - 1D rotational average of spectrum; #4 - CTF fit; #5 - cross-correlation between spectrum and CTF fit; #6 - 2sigma of expected cross correlation of noise
0.000000 0.000651 0.001302 0.001953 0.002604 0.003255 0.003906 0.004557 0.005208 0.005859 0.006510 0.007161 0.007812 0.008464 0.009115 0.009766 0.010417 0.011068 0.011719 0.012370 0.013021 0.013672 0.014323 0.014974 0.015625 0.016276 0.016927 0.017578 0.018229 0.018880 0.019531 0.020182 0.020833 0.021484 0.022135 0.022786 0.023438 0.024089 0.024740 0.025391 0.026042 0.026693 0.027344 0.027995 0.028646 0.029297 0.029948 0.030599 0.031250 0.031901 0.032552 0.033203 0.033854 0.034505 0.035156 0.035807 0.036458 0.037109 0.037760 0.038411 0.039062 0.039714 0.040365 0.041016 0.041667 0.042318 0.042969 0.043620 0.044271 0.044922 0.045573 0.046224 0.046875 0.047526 0.048177 0.048828 0.049479 0.050130 0.050781 0.051432 0.052083 0.052734 0.053385 0.054036 0.054688 0.055339 0.055990 0.056641 0.057292 0.057943 0.058594 0.059245 0.059896 0.060547 0.061198 0.061849 0.062500 0.063151 0.063802 0.064453 0.065104 0.065755 0.066406 0.067057 0.067708 0.068359 0.069010 0.069661 0.070312 0.070964 0.071615 0.072266 0.072917 0.073568 0.074219 0.074870 0.075521 0.076172 0.076823 0.077474 0.078125 0.078776 0.079427 0.080078 0.080729 0.081380 0.082031 0.082682 0.083333 0.083984 0.084635 0.085286 0.085938 0.086589 0.087240 0.087891 0.088542 0.089193 0.089844 0.090495 0.091146 0.091797 0.092448 0.093099 0.093750 0.094401 0.095052 0.095703 0.096354 0.097005 0.097656 0.098307 0.098958 0.099609 0.100260 0.100911 0.101562 0.102214 0.102865 0.103516 0.104167 0.104818 0.105469 0.106120 0.106771 0.107422 0.108073 0.108724 0.109375 0.110026 0.110677 0.111328 0.111979 0.112630 0.113281 0.113932 0.114583 0.115234 0.115885 0.116536 0.117188 0.117839 0.118490 0.119141 0.119792 0.120443 0.121094 0.121745 0.122396 0.123047 0.123698 0.124349 0.125000 0.125651 0.126302 0.126953 0.127604 0.128255 0.128906 0.129557 0.130208 0.130859 0.131510 0.132161 0.132812 0.133464 0.134115 0.134766 0.135417 0.136068 0.136719 0.137370 0.138021 0.138672 0.139323 0.139974 0.140625 0.141276 0.141927 0.142578 0.143229 0.143880 0.144531 0.145182 0.145833 0.146484 0.147135 0.147786 0.148438 0.149089 0.149740 0.150391 0.151042 0.151693 0.152344 0.152995 0.153646 0.154297 0.154948 0.155599 0.156250 0.156901 0.157552 0.158203 0.158854 0.159505 0.160156 0.160807 0.161458 0.162109 0.162760 0.163411 0.164062 0.164714 0.165365 0.166016 0.166667 0.167318 0.167969 0.168620 0.169271 0.169922 0.170573 0.171224 0.171875 0.172526 0.173177 0.173828 0.174479 0.175130 0.175781 0.176432 0.177083 0.177734 0.178385 0.179036 0.179688 0.180339 0.180990 0.181641 0.182292 0.182943 0.183594 0.184245 0.184896 0.185547 0.186198 0.186849 0.187500 0.188151 0.188802 0.189453 0.190104 0.190755 0.191406 0.192057 0.192708 0.193359 0.194010 0.194661 0.195312 0.195964 0.196615 0.197266 0.197917 0.198568 0.199219 0.199870 0.200521 0.201172 0.201823 0.202474 0.203125 0.203776 0.204427 0.205078 0.205729 0.206380 0.207031 0.207682 0.208333 0.208984 0.209635 0.210286 0.210938 0.211589 0.212240 0.212891 0.213542 0.214193 0.214844 0.215495 0.216146 0.216797 0.217448 0.218099 0.218750 0.219401 0.220052 0.220703 0.221354 0.222005 0.222656 0.223307 0.223958 0.224609 0.225260 0.225911 0.226562 0.227214 0.227865 0.228516 0.229167 0.229818 0.230469 0.231120 0.231771 0.232422 0.233073 0.233724 0.234375 0.235026 0.235677
       0.31818        0.31818        0.31818        0.31818        0.31818        0.31818        0.31818        0.31818        0.31818        0.31818        0.31818        0.31818        0.31818        0.31818        0.31818        0.31818        0.31818        0.31818        0.31818        0.31818        0.31818        0.31818        0.31818        0.31818        0.31818        0.31818        0.31818        0.31818        0.31818        0.31818        0.31818        0.31818        0.31818        0.31818        0.31817        0.31818        0.31818        0.31818        0.31818        0.31817        0.31818        0.31818        0.31818        0.31818        0.31818        0.31818        0.31817        0.31818        0.31818        0.31818        0.31818        0.59790        0.71800        0.35884        0.17911        0.13046       -0.14217        0.10893        0.03320        0.03598        0.09054        0.30714        0.31851        0.24502        0.14433       -0.03898       -0.01294        0.04402       -0.11574       -0.12284       -0.07920       -0.09333       -0.20571       -0.13391       -0.24790       -0.26487       -0.26159       -0.32412       -0.40008       -0.33589       -0.24328       -0.21238       -0.31482       -0.23221       -0.28346       -0.22443       -0.15252       -0.09772       -0.06379        0.00099        0.04019        0.13381        0.17641        0.21760        0.33891        0.40607        0.35664        0.46852        0.54573        0.55440        0.63557        0.56674        0.59856        0.59993        0.60843        0.60815        0.55440        0.58049        0.54619        0.39150        0.33544        0.36847        0.34412        0.19882        0.17517        0.14805        0.09488        0.09920        0.01821        0.07715        0.05719        0.01569        0.10833        0.16961        0.26412        0.35223        0.34976        0.37743        0.45178        0.48714        0.41784        0.64595        0.54006        0.48191        0.57205        0.49902        0.54145        0.50400        0.37302        0.31054        0.28733        0.23786        0.22783        0.20127        0.18078        0.14674        0.22751        0.20812        0.24355        0.21234        0.26804        0.32133        0.33514        0.44437        0.43735        0.41573        0.42281        0.47177        0.43804        0.42675        0.39462        0.40048        0.33623        0.28503        0.25166        0.25490        0.25154        0.19796        0.17404        0.23052        0.23982        0.27546        0.34597        0.36580        0.41701        0.39916        0.43034        0.46770        0.45879        0.42706        0.38822        0.41374        0.37147        0.32618        0.33360        0.31666        0.25918        0.27738        0.27502        0.24026        0.30671        0.28272        0.29778        0.32314        0.38192        0.41292        0.40540        0.43073        0.37691        0.41734        0.39228        0.31119        0.28847        0.25114        0.26654        0.23040        0.20521        0.29644        0.35473        0.32213        0.29433        0.34902        0.27284        0.33149        0.38437        0.37408        0.36074        0.38261        0.33124        0.34900        0.33092        0.29135        0.28219        0.24685        0.29888        0.31163        0.32584        0.34237        0.38048        0.37360        0.37269        0.32647        0.35035        0.34466        0.32822        0.32236        0.29110        0.28636        0.25742        0.32622        0.33110        0.32762        0.29827        0.33518        0.34111        0.33215        0.34789        0.32745        0.29446        0.29260        0.29595        0.26883        0.25191        0.24312        0.24698        0.26474        0.25214        0.29262        0.28225        0.32142        0.33327        0.26489        0.29896        0.27643        0.22040        0.27160        0.25320        0.24982        0.28447        0.31009        0.30822        0.30234        0.30300        0.29999        0.31943        0.33822        0.28624        0.31709        0.31279        0.36166        0.28367        0.27002        0.26825        0.31093        0.32143        0.33390        0.34933        0.30927        0.23023        0.29011        0.25445        0.24893        0.24908        0.25305        0.28958        0.22788        0.29821        0.31839        0.35437        0.31379        0.29351        0.25768        0.27838        0.28329        0.24009        0.26364        0.27705        0.30780        0.33708        0.32017        0.29336        0.28498        0.31813        0.26460        0.23293        0.19052        0.30266        0.33746        0.33314        0.31542        0.29709        0.23626        0.21217        0.24958        0.24955        0.24835        0.27196        0.28269        0.24920        0.25367        0.23755        0.28998        0.25507        0.25371        0.26371        0.25633        0.18762        0.24095        0.24499        0.23162        0.29100        0.24994        0.25217        0.21173        0.21506        0.26649        0.22837        0.23547        0.15663        0.15217        0.31832        0.20451        0.21109        0.28626        0.17077        0.16310        0.14559        0.25144        0.18920        0.15685       -0.05307       -0.59333       -0.92608
2.325655 2.305881 2.286196 2.266599 2.247090 2.227669 2.208336 2.189092 2.169936 2.150868 2.131888 2.112997 2.094194 2.075479 2.056852 2.038313 2.019863 2.001501 1.983227 1.965041 1.946944 1.928935 1.911014 1.893181 1.875436 1.857780 1.840212 1.822732 1.805340 1.788037 1.770821 1.753694 1.736655 1.719705 1.702842 1.686068 1.669382 1.652784 1.636275 1.619854 1.603520 1.587276 1.571119 1.555050 1.539070 1.523178 1.507374 1.491659 1.476031 1.460492 1.445041 1.804531 2.136528 1.478624 1.324392 1.078587 0.521896 0.911194 0.817480 0.830220 0.700020 1.376478 1.197786 1.212354 0.973358 0.623649 0.483005 0.745021 0.574349 0.254649 0.294083 0.478709 0.230077 0.254778 0.109216 0.002184 -0.016097 -0.010562 -0.303000 -0.167359 -0.002984 -0.031100 -0.095597 -0.017729 -0.128613 -0.109936 0.063033 0.169089 0.237022 0.273224 0.359266 0.601862 0.548210 0.627451 0.818845 1.019107 0.796551 1.208037 1.161570 1.228693 1.333908 1.233810 1.175700 1.324436 1.208090 1.336762 1.166343 1.128841 1.189518 0.950682 0.667095 0.726839 0.777512 0.480381 0.408995 0.356867 0.207899 0.193379 0.041918 0.191246 0.154742 0.023469 0.113595 0.227918 0.343886 0.603330 0.595522 0.573896 0.701506 0.873999 0.582256 1.016995 1.013483 0.757474 0.912564 0.754958 0.839877 0.875873 0.606082 0.392631 0.398801 0.338915 0.213393 0.192044 0.170688 -0.011140 0.204131 0.171129 0.237674 0.125994 0.260827 0.321461 0.283070 0.487971 0.591173 0.516610 0.362007 0.670796 0.552055 0.464562 0.508212 0.440456 0.300341 0.329800 0.123927 0.192862 0.041178 0.196560 -0.065056 0.052334 0.040553 0.241888 0.083851 0.377774 0.324186 0.380702 0.397181 0.399140 0.564545 0.400892 0.374667 0.425205 0.222302 0.330167 0.148627 0.264856 0.077623 0.117265 0.095756 0.082236 0.045747 0.158643 0.065246 0.147998 0.237056 0.277960 0.343163 0.269844 0.337738 0.257172 0.295844 0.180381 0.098713 0.035642 -0.009771 0.020112 -0.083947 -0.059776 0.110059 0.205810 0.068105 0.109074 0.108412 0.022208 0.175909 0.233639 0.183273 0.218708 0.139095 0.138524 0.111913 0.104986 0.053246 -0.075028 -0.022754 0.140542 0.011967 0.136271 0.106736 0.228825 0.211474 0.184052 0.130479 0.187541 0.101551 0.120057 0.113337 0.046532 -0.008143 0.015257 0.125882 0.133599 0.111862 0.053091 0.146757 0.118385 0.065493 0.131831 0.033733 -0.013375 0.024323 -0.002643 -0.044696 -0.074358 -0.101122 -0.035901 -0.058812 -0.079750 0.015945 0.003543 0.081284 0.077607 -0.061751 0.057523 -0.046891 -0.111498 0.026718 -0.064785 -0.078244 0.039899 0.071961 0.026173 0.057898 -0.031328 0.048188 0.134375 -0.012573 -0.015013 0.089363 0.039944 0.127577 -0.055932 -0.032135 -0.042202 0.098953 0.035535 0.071329 0.144633 0.012338 -0.095130 0.006792 -0.049810 -0.059301 -0.054966 -0.054934 0.022136 -0.141253 0.106834 0.077841 0.176277 0.041820 -0.001628 -0.007926 0.015829 0.058815 -0.069792 0.029683 0.018017 0.110805 0.111613 0.139567 0.078703 0.082110 0.171005 -0.027296 0.006376 -0.129679 0.170708 0.171008 0.162112 0.138279 0.063266 -0.033940 -0.074085 -0.023877 -0.000199 -0.008792 0.034780 0.082731 -0.021316 0.003873 0.033370 0.078681 0.057002 0.049072 0.073336 0.005207 -0.039256 0.029922 0.053132 0.010545 0.152604 0.050854 0.013631 0.047827 0.031338 0.105913 0.133514 0.072250 -0.060812 -0.172950 0.407787 0.445974 0.354652 0.552054 0.255492 0.298424 0.217988 0.538998 0.354875 0.297752 0.194822 -0.859317
0.072396 0.072838 0.074163 0.076371 0.079462 0.083435 0.088289 0.094022 0.100634 0.108122 0.116484 0.125716 0.135815 0.146776 0.158594 0.171262 0.184772 0.199116 0.214282 0.230259 0.247032 0.264586 0.282903 0.301961 0.321739 0.342209 0.363344 0.385111 0.407474 0.430396 0.453833 0.477738 0.502061 0.526747 0.551735 0.576960 0.602354 0.627843 0.653346 0.678779 0.704051 0.729069 0.753731 0.777931 0.801559 0.824499 0.846629 0.867825 0.887956 0.906890 0.924488 0.940610 0.955112 0.967851 0.978680 0.987451 0.994019 0.998237 0.999964 0.999060 0.995388 0.988821 0.979236 0.966518 0.950564 0.931282 0.908590 0.882425 0.852736 0.819493 0.782682 0.742313 0.698416 0.651047 0.600285 0.546238 0.489041 0.428857 0.365881 0.300336 0.232478 0.162594 0.091002 0.018050 0.055883 0.130388 0.205031 0.279348 0.352856 0.425047 0.495396 0.563366 0.628407 0.689964 0.747479 0.800402 0.848190 0.890315 0.926273 0.955588 0.977820 0.992569 0.999485 0.998277 0.988713 0.970632 0.943948 0.908657 0.864842 0.812675 0.752424 0.684454 0.609231 0.527317 0.439375 0.346165 0.248540 0.147440 0.043885 0.061028 0.166143 0.270251 0.372106 0.470437 0.563965 0.651424 0.731572 0.803218 0.865233 0.916578 0.956321 0.983654 0.997916 0.998607 0.985407 0.958192 0.917039 0.862242 0.794319 0.714007 0.622269 0.520285 0.409446 0.291336 0.167716 0.040506 0.088250 0.216406 0.341757 0.462066 0.575119 0.678750 0.770902 0.849658 0.913296 0.960323 0.989521 0.999980 0.991137 0.962795 0.915150 0.848800 0.764752 0.664419 0.549605 0.422480 0.285552 0.141622 0.006269 0.154897 0.300927 0.440980 0.571721 0.689935 0.792613 0.877034 0.940842 0.982127 0.999484 0.992074 0.959665 0.902665 0.822136 0.719788 0.597962 0.459586 0.308120 0.147478 0.018066 0.183983 0.345614 0.498297 0.637510 0.759000 0.858929 0.934004 0.981593 0.999836 0.987727 0.945176 0.873050 0.773168 0.648289 0.502048 0.338864 0.163824 0.017463 0.199040 0.374797 0.538674 0.684877 0.808085 0.903659 0.967832 0.997874 0.992225 0.950588 0.873990 0.764777 0.626575 0.464192 0.283467 0.091080 0.105682 0.299199 0.481803 0.646095 0.785242 0.893285 0.965408 0.998170 0.989698 0.939809 0.850073 0.723801 0.565943 0.382939 0.182460 0.026882 0.235900 0.435226 0.615737 0.768976 0.887568 0.965597 0.998919 0.985421 0.925170 0.820481 0.675864 0.497862 0.294798 0.076395 0.146661 0.363236 0.562304 0.733521 0.867767 0.957665 0.998014 0.986118 0.922006 0.808499 0.651135 0.457938 0.239048 0.006209 0.227834 0.450029 0.647754 0.809529 0.925727 0.989163 0.995583 0.943987 0.836772 0.679681 0.481538 0.253798 0.009912 0.235431 0.467203 0.670938 0.833664 0.944749 0.996643 0.985427 0.911160 0.777971 0.593885 0.370404 0.121820 0.135662 0.384967 0.609279 0.793179 0.923751 0.991510 0.991152 0.922021 0.788260 0.598637 0.366026 0.106581 0.161341 0.418481 0.646035 0.827068 0.947796 0.998685 0.975268 0.878586 0.715243 0.497021 0.240102 0.036101 0.310362 0.561273 0.768927 0.916516 0.991754 0.987952 0.904681 0.747947 0.529842 0.267673 0.017345 0.301778 0.561874 0.775578 0.924413 0.995148 0.981031 0.882517 0.707374 0.470168 0.191118 0.105567 0.393759 0.647693 0.844311 0.965377 0.999256 0.942097 0.798357 0.580554 0.308267 0.006448 0.296823 0.572914 0.795383 0.942524 0.999570 0.960250 0.827572 0.613716 0.339009 0.030078 0.282680 0.568056 0.797160 0.946401 0.999962
1.000000 1.000000 1.000000 1.000000 1.000000 1.000000 1.000000 1.000000 1.000000 1.000000 1.000000 1.000000 1.000000 1.000000 1.000000 1.000000 1.000000 1.000000 1.000000 1.000000 1.000000 1.000000 1.000000 1.000000 1.000000 1.000000 1.000000 1.000000 1.000000 1.000000 1.000000 1.000000 1.000000 1.000000 1.000000 1.000000 1.000000 1.000000 1.000000 1.000000 1.000000 1.000000 1.000000 1.000000 1.000000 1.000000 1.000000 1.000000 1.000000 1.000000 1.000000 1.000000 0.780989 0.780989 0.780989 0.780989 0.780989 0.780989 0.780989 0.766120 0.766120 0.766120 0.766120 0.766120 0.766120 0.766120 0.766120 0.766120 0.766120 0.766120 0.766120 0.766120 0.766120 0.766120 0.766120 0.766120 0.766120 0.766120 0.766120 0.766120 0.766120 0.766120 0.766120 0.766120 0.766120 0.766120 0.766120 0.766120 0.766120 0.766120 0.766120 0.766120 0.766120 0.766120 0.766120 0.766120 0.766120 0.766120 0.766120 0.766120 0.766120 0.766120 0.766120 0.910777 0.912091 0.914831 0.909756 0.911581 0.909517 0.903069 0.906031 0.905844 0.905680 0.906649 0.908159 0.910008 0.915043 0.921487 0.923284 0.931010 0.934346 0.935624 0.935678 0.932770 0.940302 0.937928 0.936185 0.924301 0.927577 0.927205 0.927357 0.926171 0.926290 0.927567 0.927486 0.925370 0.923538 0.921335 0.919538 0.921280 0.920877 0.921064 0.921228 0.921409 0.921315 0.921898 0.918041 0.920300 0.919180 0.915606 0.912253 0.911800 0.912915 0.906046 0.902675 0.893359 0.894569 0.893502 0.898736 0.893687 0.893427 0.894656 0.895419 0.896080 0.893957 0.894010 0.891553 0.893344 0.889906 0.885637 0.881811 0.882186 0.883915 0.891262 0.893928 0.892996 0.889430 0.882593 0.873088 0.870650 0.857189 0.828101 0.829119 0.832380 0.834212 0.835164 0.834498 0.832603 0.828206 0.819397 0.810632 0.815303 0.814994 0.807006 0.797582 0.798057 0.795545 0.803149 0.806369 0.797911 0.800587 0.798468 0.796300 0.796998 0.796871 0.796102 0.790819 0.792962 0.801671 0.802301 0.791689 0.786090 0.782070 0.762551 0.765868 0.772412 0.779827 0.781046 0.776450 0.762733 0.771290 0.765933 0.781788 0.794789 0.793179 0.789294 0.769050 0.727103 0.714820 0.703885 0.706595 0.708121 0.692597 0.685852 0.686760 0.691392 0.640579 0.626616 0.615194 0.613941 0.622016 0.626909 0.620243 0.585143 0.603378 0.601009 0.584306 0.580870 0.547996 0.530903 0.488342 0.490756 0.487700 0.465246 0.448620 0.438932 0.453686 0.464297 0.462360 0.460967 0.432023 0.414851 0.416872 0.415319 0.419714 0.419618 0.426216 0.380133 0.358138 0.343963 0.366148 0.367971 0.367735 0.378195 0.379463 0.377809 0.358669 0.341835 0.331632 0.345747 0.364354 0.373019 0.374936 0.340939 0.324234 0.302995 0.309330 0.351436 0.341352 0.345172 0.339416 0.344306 0.366106 0.349835 0.328151 0.306969 0.346803 0.342875 0.333147 0.308013 0.310164 0.329385 0.331396 0.326549 0.316879 0.354493 0.384581 0.376316 0.382239 0.365096 0.397655 0.445345 0.432485 0.429719 0.451627 0.444648 0.437795 0.409638 0.396164 0.394309 0.369383 0.361930 0.341213 0.325781 0.314372 0.320963 0.345760 0.351747 0.386263 0.362660 0.330391 0.231964 0.307903 0.221702 0.226159 0.226159 0.226159 0.226159 0.226159 0.226159 0.226159 0.226159 0.244875 0.244875 0.244875 0.244875 0.244875 0.244875 0.244875 0.244875 0.244875 0.244875 0.244875 0.244875 0.244875 0.244875 0.244875 0.244875 0.244875 0.244875 0.244875 0.244875 0.244875
0.000000 0.000000 0.000000 0.000000 0.000000 0.000000 0.000000 0.000000 0.000000 0.000000 0.000000 0.000000 0.000000 0.000000 0.000000 0.000000 0.000000 0.000000 0.000000 0.000000 0.000000 0.000000 0.000000 0.000000 0.000000 0.000000 0.000000 0.000000 0.000000 0.000000 0.000000 0.000000 0.000000 0.000000 0.000000 0.000000 0.000000 0.000000 0.000000 0.000000 0.000000 0.000000 0.000000 0.000000 0.000000 0.000000 0.000000 0.000000 0.000000 0.000000 0.000000 0.000000 0.173422 0.173422 0.173422 0.173422 0.173422 0.173422 0.173422 0.191565 0.191565 0.191565 0.191565 0.191565 0.191565 0.191565 0.191565 0.191565 0.191565 0.191565 0.191565 0.191565 0.191565 0.191565 0.191565 0.191565 0.191565 0.191565 0.191565 0.191565 0.191565 0.191565 0.191565 0.191565 0.191565 0.191565 0.191565 0.191565 0.191565 0.191565 0.191565 0.191565 0.191565 0.191565 0.191565 0.191565 0.191565 0.191565 0.191565 0.191565 0.191565 0.191565 0.191565 0.222222 0.222222 0.222222 0.222222 0.222222 0.222222 0.222222 0.222222 0.222222 0.222222 0.222222 0.222222 0.222222 0.222222 0.222222 0.222222 0.222222 0.222222 0.222222 0.222222 0.222222 0.222222 0.222222 0.222222 0.222222 0.222222 0.222222 0.222222 0.222222 0.222222 0.234082 0.234082 0.234082 0.234082 0.234082 0.234082 0.234082 0.234082 0.234082 0.234082 0.234082 0.234082 0.234082 0.234082 0.234082 0.234082 0.234082 0.234082 0.234082 0.234082 0.234082 0.234082 0.234082 0.234082 0.234082 0.244339 0.244339 0.244339 0.244339 0.244339 0.244339 0.244339 0.244339 0.244339 0.244339 0.244339 0.244339 0.244339 0.244339 0.244339 0.244339 0.244339 0.244339 0.244339 0.244339 0.244339 0.248069 0.248069 0.248069 0.248069 0.248069 0.248069 0.248069 0.248069 0.248069 0.248069 0.248069 0.248069 0.248069 0.248069 0.248069 0.248069 0.248069 0.248069 0.248069 0.256074 0.256074 0.256074 0.256074 0.256074 0.256074 0.256074 0.256074 0.256074 0.256074 0.256074 0.256074 0.256074 0.256074 0.256074 0.256074 0.256074 0.256074 0.256074 0.256074 0.256074 0.256074 0.256074 0.256074 0.256074 0.256074 0.256074 0.256074 0.256074 0.256074 0.256074 0.256074 0.256074 0.256074 0.256074 0.256074 0.256074 0.256074 0.256074 0.256074 0.256074 0.256074 0.256074 0.256074 0.256074 0.256074 0.256074 0.256074 0.256074 0.256074 0.256074 0.256074 0.256074 0.256074 0.256074 0.256074 0.256074 0.256074 0.256074 0.256074 0.256074 0.256074 0.260378 0.260378 0.260378 0.260378 0.260378 0.260378 0.260378 0.260378 0.260378 0.260378 0.260378 0.260378 0.260378 0.256074 0.256074 0.256074 0.256074 0.256074 0.256074 0.256074 0.256074 0.256074 0.256074 0.256074 0.256074 0.256074 0.260378 0.260378 0.260378 0.260378 0.260378 0.260378 0.260378 0.260378 0.260378 0.260378 0.260378 0.260378 0.251976 0.251976 0.251976 0.251976 0.251976 0.251976 0.251976 0.251976 0.251976 0.251976 0.251976 0.251976 0.256074 0.256074 0.256074 0.256074 0.256074 0.256074 0.256074 0.256074 0.256074 0.256074 0.256074 0.251976 0.251976 0.251976 0.251976 0.251976 0.251976 0.251976 0.251976 0.251976 0.251976 0.251976 0.260378 0.260378 0.260378 0.260378 0.260378 0.260378 0.260378 0.260378 0.260378 0.260378 0.244339 0.244339 0.244339 0.244339 0.244339 0.244339 0.244339 0.244339 0.244339 0.244339 0.244339 0.244339 0.244339 0.244339 0.244339 0.244339 0.244339 0.244339 0.244339 0.244339 0.244339
