# Output from CTFFind version 4.1.9, run on 2019-11-03 20:05:25
# Input file: stack11_bm3d_averaged_1_5.5_0_750_half.mrc ; Number of micrographs: 1
# Pixel size: 3.000 Angstroms ; acceleration voltage: 300.0 keV ; spherical aberration: 0.00 mm ; amplitude contrast: 0.07
# Box size: 512 pixels ; min. res.: 30.0 Angstroms ; max. res.: 5.0 Angstroms ; min. def.: 5000.0 um; max. def. 50000.0 um; num. frames averaged: 1
# 6 lines per micrograph: #1 - spatial frequency (1/Angstroms); #2 - 1D rotational average of spectrum (assuming no astigmatism); #3 - 1D rotational average of spectrum; #4 - CTF fit; #5 - cross-correlation between spectrum and CTF fit; #6 - 2sigma of expected cross correlation of noise
0.000000 0.000651 0.001302 0.001953 0.002604 0.003255 0.003906 0.004557 0.005208 0.005859 0.006510 0.007161 0.007812 0.008464 0.009115 0.009766 0.010417 0.011068 0.011719 0.012370 0.013021 0.013672 0.014323 0.014974 0.015625 0.016276 0.016927 0.017578 0.018229 0.018880 0.019531 0.020182 0.020833 0.021484 0.022135 0.022786 0.023438 0.024089 0.024740 0.025391 0.026042 0.026693 0.027344 0.027995 0.028646 0.029297 0.029948 0.030599 0.031250 0.031901 0.032552 0.033203 0.033854 0.034505 0.035156 0.035807 0.036458 0.037109 0.037760 0.038411 0.039062 0.039714 0.040365 0.041016 0.041667 0.042318 0.042969 0.043620 0.044271 0.044922 0.045573 0.046224 0.046875 0.047526 0.048177 0.048828 0.049479 0.050130 0.050781 0.051432 0.052083 0.052734 0.053385 0.054036 0.054688 0.055339 0.055990 0.056641 0.057292 0.057943 0.058594 0.059245 0.059896 0.060547 0.061198 0.061849 0.062500 0.063151 0.063802 0.064453 0.065104 0.065755 0.066406 0.067057 0.067708 0.068359 0.069010 0.069661 0.070312 0.070964 0.071615 0.072266 0.072917 0.073568 0.074219 0.074870 0.075521 0.076172 0.076823 0.077474 0.078125 0.078776 0.079427 0.080078 0.080729 0.081380 0.082031 0.082682 0.083333 0.083984 0.084635 0.085286 0.085938 0.086589 0.087240 0.087891 0.088542 0.089193 0.089844 0.090495 0.091146 0.091797 0.092448 0.093099 0.093750 0.094401 0.095052 0.095703 0.096354 0.097005 0.097656 0.098307 0.098958 0.099609 0.100260 0.100911 0.101562 0.102214 0.102865 0.103516 0.104167 0.104818 0.105469 0.106120 0.106771 0.107422 0.108073 0.108724 0.109375 0.110026 0.110677 0.111328 0.111979 0.112630 0.113281 0.113932 0.114583 0.115234 0.115885 0.116536 0.117188 0.117839 0.118490 0.119141 0.119792 0.120443 0.121094 0.121745 0.122396 0.123047 0.123698 0.124349 0.125000 0.125651 0.126302 0.126953 0.127604 0.128255 0.128906 0.129557 0.130208 0.130859 0.131510 0.132161 0.132812 0.133464 0.134115 0.134766 0.135417 0.136068 0.136719 0.137370 0.138021 0.138672 0.139323 0.139974 0.140625 0.141276 0.141927 0.142578 0.143229 0.143880 0.144531 0.145182 0.145833 0.146484 0.147135 0.147786 0.148438 0.149089 0.149740 0.150391 0.151042 0.151693 0.152344 0.152995 0.153646 0.154297 0.154948 0.155599 0.156250 0.156901 0.157552 0.158203 0.158854 0.159505 0.160156 0.160807 0.161458 0.162109 0.162760 0.163411 0.164062 0.164714 0.165365 0.166016 0.166667 0.167318 0.167969 0.168620 0.169271 0.169922 0.170573 0.171224 0.171875 0.172526 0.173177 0.173828 0.174479 0.175130 0.175781 0.176432 0.177083 0.177734 0.178385 0.179036 0.179688 0.180339 0.180990 0.181641 0.182292 0.182943 0.183594 0.184245 0.184896 0.185547 0.186198 0.186849 0.187500 0.188151 0.188802 0.189453 0.190104 0.190755 0.191406 0.192057 0.192708 0.193359 0.194010 0.194661 0.195312 0.195964 0.196615 0.197266 0.197917 0.198568 0.199219 0.199870 0.200521 0.201172 0.201823 0.202474 0.203125 0.203776 0.204427 0.205078 0.205729 0.206380 0.207031 0.207682 0.208333 0.208984 0.209635 0.210286 0.210938 0.211589 0.212240 0.212891 0.213542 0.214193 0.214844 0.215495 0.216146 0.216797 0.217448 0.218099 0.218750 0.219401 0.220052 0.220703 0.221354 0.222005 0.222656 0.223307 0.223958 0.224609 0.225260 0.225911 0.226562 0.227214 0.227865 0.228516 0.229167 0.229818 0.230469 0.231120 0.231771 0.232422 0.233073 0.233724 0.234375 0.235026 0.235677
       0.34221        0.34221        0.34221        0.34221        0.34221        0.34221        0.34221        0.34221        0.34221        0.34221        0.34221        0.34221        0.34221        0.34221        0.34221        0.34221        0.34221        0.34221        0.34221        0.34221        0.34221        0.34221        0.34221        0.34221        0.34221        0.34221        0.34221        0.34221        0.34221        0.34221        0.34221        0.34221        0.34221        0.34221        0.34221        0.34221        0.34221        0.34221        0.34221        0.34221        0.34221        0.34221        0.34221        0.34221        0.34221        0.34221        0.34221        0.34221        0.34221        0.34221        0.34221        0.69768        0.85897        0.53691        0.10521       -0.02991       -0.38998       -0.18105       -0.28752       -0.11358       -0.05519       -0.11101       -0.05330       -0.16964       -0.20649       -0.21695       -0.30838       -0.31993       -0.44701       -0.36280       -0.42885       -0.42285       -0.39679       -0.41439       -0.45528       -0.51232       -0.56054       -0.55688       -0.53083       -0.36095       -0.33192       -0.29516       -0.27518       -0.18683       -0.17344        0.05782        0.13756        0.16931        0.26208        0.38145        0.45767        0.52260        0.59690        0.59440        0.58122        0.69859        0.80567        0.70612        0.74264        0.62346        0.56865        0.48333        0.43032        0.51192        0.39607        0.26431        0.11353        0.10635        0.08553       -0.01940        0.03594        0.04645        0.00383        0.02474        0.02447        0.23733        0.27013        0.29558        0.43413        0.45358        0.41380        0.59360        0.62278        0.64338        0.72795        0.67811        0.64813        0.66189        0.56240        0.46464        0.41950        0.30296        0.26232        0.18023        0.13384        0.05263        0.05959        0.06669        0.09691        0.15493        0.24122        0.29330        0.41602        0.46357        0.48250        0.57146        0.60606        0.63816        0.61842        0.56146        0.46015        0.47317        0.37911        0.27206        0.20933        0.15745        0.16836        0.15061        0.15236        0.18059        0.31586        0.32908        0.40038        0.44133        0.42788        0.48534        0.56187        0.55450        0.50040        0.45694        0.41116        0.36644        0.33702        0.30380        0.25609        0.24411        0.24588        0.25207        0.22310        0.30742        0.36351        0.38608        0.43970        0.45604        0.47016        0.42604        0.40827        0.40168        0.36137        0.32824        0.27352        0.27425        0.26580        0.23875        0.28919        0.28693        0.34829        0.37980        0.42813        0.47704        0.41028        0.42436        0.43326        0.41015        0.34850        0.32575        0.29380        0.32084        0.27193        0.31830        0.31077        0.32806        0.33683        0.36102        0.31748        0.39310        0.41543        0.38052        0.34919        0.37113        0.31586        0.29317        0.30336        0.32021        0.30683        0.31908        0.33996        0.35157        0.34003        0.36689        0.36659        0.41537        0.38642        0.33682        0.34462        0.29820        0.28928        0.32426        0.31880        0.32884        0.33986        0.33760        0.38293        0.33016        0.33028        0.33625        0.34302        0.30309        0.31216        0.27959        0.30248        0.32747        0.30518        0.32773        0.35336        0.36209        0.29497        0.33463        0.29615        0.29921        0.27974        0.24557        0.30282        0.30329        0.34282        0.33753        0.34033        0.32534        0.34864        0.31287        0.34562        0.31232        0.31883        0.28578        0.33196        0.32157        0.36397        0.32595        0.33536        0.34100        0.29376        0.27480        0.30999        0.24940        0.22791        0.34007        0.32145        0.36156        0.34400        0.35915        0.32934        0.33607        0.34671        0.26351        0.25853        0.31508        0.30160        0.31057        0.32023        0.34065        0.33261        0.29470        0.29172        0.34375        0.32080        0.31308        0.28908        0.32165        0.34161        0.39618        0.35466        0.31404        0.27953        0.30340        0.28678        0.29853        0.27211        0.26255        0.31254        0.33128        0.34441        0.35332        0.32726        0.28897        0.30000        0.26787        0.27388        0.25354        0.31302        0.26928        0.23937        0.30202        0.29695        0.26525        0.29493        0.21403        0.21485        0.24814        0.19096        0.26577        0.34013        0.24968        0.23352        0.31573        0.31116        0.31917        0.31600        0.26271        0.24389        0.18975        0.21161        0.19422        0.25220        0.23152        0.27637        0.34811        0.33993        0.24416        0.14951        0.07992       -0.01275       -0.10668       -0.62399
2.758804 2.729614 2.700583 2.671710 2.642995 2.614440 2.586043 2.557805 2.529725 2.501805 2.474043 2.446439 2.418994 2.391708 2.364580 2.337612 2.310801 2.284150 2.257657 2.231323 2.205148 2.179131 2.153272 2.127573 2.102032 2.076650 2.051426 2.026362 2.001455 1.976708 1.952119 1.927689 1.903418 1.879305 1.855351 1.831555 1.807918 1.784440 1.761121 1.737960 1.714958 1.692114 1.669429 1.646903 1.624536 1.602327 1.580277 1.558385 1.536653 1.515078 1.493663 1.710584 2.131534 1.691731 1.179983 1.045067 0.448016 0.844920 0.560992 0.843958 0.809145 0.815882 0.755776 0.748322 0.594103 0.556419 0.499159 0.428656 0.245694 0.367393 0.200597 0.329084 0.221229 0.205822 0.180042 0.040306 0.008976 0.017619 -0.068966 0.132072 0.230892 0.188798 0.176458 0.327941 0.184905 0.517372 0.621692 0.625872 0.642874 0.875392 0.832899 0.941802 0.930437 1.028625 0.994618 1.081669 1.166619 1.044071 1.158175 0.909999 0.927975 0.793420 0.651675 0.803494 0.697501 0.489149 0.332128 0.250905 0.265048 0.148200 0.131600 0.163128 0.107249 0.124269 0.078798 0.252109 0.355473 0.342193 0.475941 0.546465 0.419154 0.590995 0.727336 0.659849 0.723094 0.710990 0.718033 0.651558 0.597445 0.499269 0.373224 0.277170 0.221063 0.087474 0.117774 -0.104675 -0.047289 -0.063014 -0.078154 -0.020077 0.132384 0.069868 0.241073 0.306132 0.336757 0.382908 0.500462 0.467866 0.482862 0.493575 0.306987 0.293928 0.287179 0.087897 0.045857 -0.074579 -0.012440 -0.061224 -0.093860 -0.079113 0.038046 0.090169 0.122177 0.218069 0.226008 0.228071 0.277247 0.441391 0.393191 0.258434 0.233770 0.221387 0.143503 0.143628 0.114198 -0.003848 0.015523 0.070463 -0.008638 0.049516 0.135596 0.137399 0.219072 0.237618 0.255503 0.185695 0.208591 0.131265 0.142633 0.111703 0.035123 -0.021440 0.003366 -0.015833 -0.052655 0.054036 0.008288 0.107945 0.139644 0.188513 0.171955 0.124145 0.138098 0.159291 0.109373 0.035839 -0.023860 0.030901 0.016651 -0.042140 0.026318 0.018689 0.041628 0.033557 0.046109 0.036843 0.127404 0.119541 0.037086 0.031802 0.036113 -0.003989 -0.041200 -0.000405 -0.000786 -0.011439 -0.002404 0.037602 0.042716 0.039827 0.058749 0.045277 0.141061 0.048774 0.023397 0.027622 -0.047169 -0.004270 0.031979 -0.006314 0.022328 0.042773 0.017781 0.133543 0.026554 -0.000748 0.063140 0.008594 0.009876 0.010317 -0.020012 0.024406 0.012420 0.007194 0.058873 0.060066 0.060335 0.032248 0.039013 0.023824 0.015113 -0.024730 -0.028675 0.029380 0.047940 0.078347 0.080515 0.056012 0.072949 0.108363 0.052194 0.103909 0.075156 0.044413 0.029382 0.105996 0.068212 0.119318 0.087162 0.061412 0.115454 0.042988 0.008398 0.087915 -0.033697 -0.017666 0.104092 0.048936 0.157347 0.095887 0.090516 0.052402 0.065280 0.091467 -0.022369 -0.028810 0.054482 0.045396 0.039228 0.033912 0.103640 0.046954 -0.003950 0.054964 0.048364 0.051704 0.055418 -0.015867 0.064587 0.062073 0.125799 0.050804 0.022210 -0.027955 -0.013194 -0.010469 -0.000964 -0.052824 -0.030864 0.007314 0.023478 0.026798 0.043762 0.001616 -0.040692 -0.035501 -0.024365 -0.071766 -0.056720 -0.019503 -0.092763 -0.073967 -0.008994 -0.049130 -0.075324 -0.000779 -0.139803 -0.089042 -0.098364 -0.184864 -0.058618 0.058493 -0.061499 -0.156537 0.033286 0.029225 -0.050756 0.039383 -0.081169 0.267209 0.163091 0.216813 0.262242 0.306579 0.252317 0.313573 0.336319 0.391611 0.224499 0.270875 0.097722 -0.018463 -0.686275
0.072396 0.072899 0.074408 0.076921 0.080440 0.084962 0.090487 0.097012 0.104537 0.113057 0.122570 0.133072 0.144556 0.157016 0.170446 0.184835 0.200173 0.216446 0.233640 0.251737 0.270718 0.290559 0.311234 0.332714 0.354966 0.377952 0.401631 0.425957 0.450879 0.476342 0.502283 0.528636 0.555328 0.582280 0.609407 0.636615 0.663808 0.690880 0.717719 0.744205 0.770213 0.795611 0.820259 0.844012 0.866719 0.888222 0.908358 0.926962 0.943861 0.958882 0.971848 0.982581 0.990903 0.996636 0.999605 0.999639 0.996572 0.990244 0.980505 0.967214 0.950245 0.929485 0.904838 0.876226 0.843593 0.806908 0.766163 0.721378 0.672605 0.619926 0.563458 0.503352 0.439798 0.373023 0.303294 0.230919 0.156246 0.079662 0.001596 0.077486 0.157077 0.236640 0.315602 0.393360 0.469288 0.542738 0.613047 0.679542 0.741546 0.798389 0.849410 0.893969 0.931456 0.961297 0.982966 0.995993 0.999977 0.994590 0.979590 0.954830 0.920263 0.875953 0.822080 0.758947 0.686981 0.606737 0.518900 0.424282 0.323822 0.218576 0.109715 0.001491 0.113681 0.225418 0.335207 0.441515 0.542790 0.637488 0.724094 0.801150 0.867283 0.921230 0.961867 0.988239 0.999580 0.995341 0.975212 0.939140 0.887341 0.820319 0.738863 0.644053 0.537257 0.420112 0.294515 0.162594 0.026679 0.110736 0.247034 0.379524 0.505492 0.622264 0.727259 0.818052 0.892438 0.948489 0.984615 0.999610 0.992709 0.963618 0.912547 0.840228 0.747926 0.637425 0.511014 0.371447 0.221899 0.065899 0.092741 0.250024 0.401857 0.544164 0.672993 0.784638 0.875749 0.943442 0.985408 0.999995 0.986293 0.944188 0.874400 0.778496 0.658877 0.518740 0.362008 0.193233 0.017482 0.159811 0.333006 0.496436 0.644595 0.772336 0.875047 0.948848 0.990740 0.998757 0.972067 0.911046 0.817318 0.693733 0.544311 0.374139 0.189213 0.003756 0.197571 0.384819 0.558149 0.710567 0.835731 0.928231 0.983845 0.999754 0.974709 0.909140 0.805197 0.666713 0.499104 0.309181 0.104896 0.104967 0.311165 0.504399 0.675735 0.817033 0.921350 0.983310 0.999410 0.968248 0.890662 0.769761 0.610843 0.421205 0.209842 0.012955 0.236082 0.448168 0.638162 0.795911 0.912731 0.981918 0.999161 0.962858 0.874279 0.737593 0.559712 0.349998 0.119804 0.118117 0.350296 0.563312 0.744577 0.883095 0.970174 1.000000 0.970081 0.881493 0.738910 0.550433 0.327169 0.082624 0.168075 0.409109 0.624966 0.801445 0.926626 0.991714 0.991714 0.925866 0.797812 0.615475 0.390626 0.138180 0.124745 0.379982 0.609545 0.796938 0.928345 0.993721 0.987603 0.909640 0.764751 0.562896 0.318463 0.049300 0.224548 0.482302 0.704057 0.872315 0.973426 0.998761 0.945511 0.817069 0.622901 0.377941 0.101519 0.184137 0.455641 0.690369 0.868373 0.974128 0.997955 0.936983 0.795569 0.585089 0.323122 0.032047 0.262806 0.535346 0.761041 0.919151 0.994715 0.980035 0.875565 0.690056 0.439926 0.147916 0.158927 0.451707 0.702397 0.886556 0.985779 0.989613 0.896775 0.715473 0.462816 0.163292 0.153510 0.455804 0.712772 0.897743 0.991036 0.982157 0.871084 0.668506 0.394920 0.078674 0.246896 0.546949 0.788868 0.945856 0.999999 0.944421 0.784287 0.536474 0.227932 0.107147 0.431064 0.706822 0.902409 0.994584 0.971758 0.835595 0.601076 0.295015 0.046894 0.384165 0.676282 0.887601 0.991785 0.975203 0.838869 0.598605 0.283372 0.068096 0.411972 0.704765 0.908875 0.997500 0.958309 0.795307 0.528638 0.192265 0.170237
1.000000 1.000000 1.000000 1.000000 1.000000 1.000000 1.000000 1.000000 1.000000 1.000000 1.000000 1.000000 1.000000 1.000000 1.000000 1.000000 1.000000 1.000000 1.000000 1.000000 1.000000 1.000000 1.000000 1.000000 1.000000 1.000000 1.000000 1.000000 1.000000 1.000000 1.000000 1.000000 1.000000 1.000000 1.000000 1.000000 1.000000 1.000000 1.000000 1.000000 1.000000 1.000000 1.000000 1.000000 1.000000 1.000000 1.000000 1.000000 1.000000 1.000000 1.000000 1.000000 0.918992 0.918992 0.918992 0.912482 0.912482 0.912482 0.912482 0.912482 0.912482 0.912482 0.912482 0.912482 0.912482 0.912482 0.912482 0.912482 0.912482 0.912482 0.912482 0.912482 0.912482 0.912482 0.912482 0.912482 0.912482 0.912482 0.912482 0.912482 0.912482 0.912482 0.912482 0.912482 0.912482 0.912482 0.912482 0.912482 0.912482 0.912482 0.912482 0.912482 0.912482 0.912482 0.912482 0.912482 0.941465 0.942879 0.951127 0.950708 0.950120 0.948098 0.946893 0.946550 0.946455 0.946791 0.947501 0.948465 0.954692 0.955927 0.960335 0.962013 0.962192 0.963920 0.964619 0.964237 0.955740 0.955519 0.954122 0.953578 0.956104 0.955193 0.954438 0.955410 0.955308 0.955694 0.955677 0.955012 0.953961 0.952895 0.951978 0.951577 0.951379 0.952102 0.952514 0.953965 0.957228 0.957820 0.957955 0.956334 0.955152 0.956430 0.955602 0.954979 0.943091 0.942668 0.941386 0.941424 0.944511 0.944557 0.945143 0.945760 0.947525 0.947892 0.944779 0.944276 0.936966 0.934530 0.932240 0.926925 0.922295 0.924079 0.925744 0.926272 0.926500 0.921348 0.921330 0.919489 0.915500 0.917983 0.918295 0.919603 0.920949 0.917615 0.916735 0.915630 0.913999 0.906097 0.893853 0.892721 0.889817 0.894679 0.895062 0.893926 0.896830 0.885610 0.869999 0.842797 0.845181 0.848591 0.839246 0.835051 0.835188 0.835895 0.839972 0.832890 0.830889 0.825821 0.814701 0.808596 0.801680 0.792008 0.792072 0.783825 0.774126 0.769980 0.794159 0.788134 0.798588 0.803020 0.802583 0.799809 0.792861 0.783948 0.759517 0.759707 0.740192 0.712495 0.713207 0.711787 0.711726 0.710095 0.715904 0.706854 0.705222 0.687015 0.683804 0.689219 0.693380 0.690882 0.691324 0.696415 0.701379 0.682154 0.671339 0.662317 0.668519 0.668395 0.667973 0.675489 0.653169 0.636195 0.623666 0.631185 0.640008 0.617944 0.628371 0.641927 0.618128 0.614573 0.605087 0.607308 0.596411 0.598844 0.596769 0.595554 0.601760 0.616655 0.607581 0.608443 0.618676 0.624158 0.636155 0.638300 0.640976 0.603457 0.607161 0.628484 0.633032 0.614149 0.629814 0.618338 0.636023 0.675967 0.666999 0.632664 0.626102 0.613447 0.574848 0.556852 0.552060 0.560351 0.594076 0.600418 0.578589 0.551592 0.554605 0.561433 0.565608 0.565316 0.548986 0.557367 0.544983 0.521734 0.531605 0.538769 0.537408 0.522834 0.510692 0.525465 0.499288 0.539802 0.508048 0.482038 0.500736 0.497041 0.485249 0.413519 0.427498 0.415415 0.405491 0.357450 0.367844 0.375967 0.361575 0.286095 0.274885 0.275835 0.274519 0.256183 0.236928 0.225228 0.210818 0.191425 0.135974 0.111829 0.113727 0.114852 0.134322 0.093881 0.140565 0.201516 0.204470 0.204470 0.204470 0.204470 0.204470 0.204470 0.204470 0.204470 0.178226 0.178226 0.178226 0.178226 0.178226 0.178226 0.178226 0.178226 0.178226 0.204470 0.204470 0.204470 0.204470 0.204470 0.204470 0.204470 0.204470 0.204470 0.204470 0.204470 0.204470 0.204470 0.204470
0.000000 0.000000 0.000000 0.000000 0.000000 0.000000 0.000000 0.000000 0.000000 0.000000 0.000000 0.000000 0.000000 0.000000 0.000000 0.000000 0.000000 0.000000 0.000000 0.000000 0.000000 0.000000 0.000000 0.000000 0.000000 0.000000 0.000000 0.000000 0.000000 0.000000 0.000000 0.000000 0.000000 0.000000 0.000000 0.000000 0.000000 0.000000 0.000000 0.000000 0.000000 0.000000 0.000000 0.000000 0.000000 0.000000 0.000000 0.000000 0.000000 0.000000 0.000000 0.000000 0.180334 0.180334 0.180334 0.199007 0.199007 0.199007 0.199007 0.199007 0.199007 0.199007 0.199007 0.199007 0.199007 0.199007 0.199007 0.199007 0.199007 0.199007 0.199007 0.199007 0.199007 0.199007 0.199007 0.199007 0.199007 0.199007 0.199007 0.199007 0.199007 0.199007 0.199007 0.199007 0.199007 0.199007 0.199007 0.199007 0.199007 0.199007 0.199007 0.199007 0.199007 0.199007 0.199007 0.199007 0.225018 0.225018 0.225018 0.225018 0.225018 0.225018 0.225018 0.225018 0.225018 0.225018 0.225018 0.225018 0.225018 0.225018 0.225018 0.225018 0.225018 0.225018 0.225018 0.225018 0.225018 0.225018 0.225018 0.225018 0.225018 0.225018 0.225018 0.225018 0.225018 0.244339 0.244339 0.244339 0.244339 0.244339 0.244339 0.244339 0.244339 0.244339 0.244339 0.244339 0.244339 0.244339 0.244339 0.244339 0.244339 0.244339 0.244339 0.244339 0.244339 0.244339 0.244339 0.244339 0.251976 0.251976 0.251976 0.251976 0.251976 0.251976 0.251976 0.251976 0.251976 0.251976 0.251976 0.251976 0.251976 0.251976 0.251976 0.251976 0.251976 0.251976 0.251976 0.251976 0.264906 0.264906 0.264906 0.264906 0.264906 0.264906 0.264906 0.264906 0.264906 0.264906 0.264906 0.264906 0.264906 0.264906 0.264906 0.264906 0.264906 0.264906 0.264906 0.264906 0.264906 0.264906 0.264906 0.264906 0.264906 0.264906 0.264906 0.264906 0.264906 0.264906 0.264906 0.264906 0.264906 0.264906 0.264906 0.264906 0.264906 0.264906 0.264906 0.264906 0.264906 0.264906 0.264906 0.264906 0.264906 0.264906 0.264906 0.264906 0.264906 0.264906 0.264906 0.264906 0.264906 0.264906 0.264906 0.264906 0.264906 0.264906 0.264906 0.264906 0.264906 0.264906 0.256074 0.256074 0.256074 0.256074 0.256074 0.256074 0.256074 0.256074 0.256074 0.256074 0.256074 0.256074 0.256074 0.256074 0.269680 0.269680 0.269680 0.269680 0.269680 0.269680 0.269680 0.269680 0.269680 0.269680 0.269680 0.269680 0.264906 0.264906 0.264906 0.264906 0.264906 0.264906 0.264906 0.264906 0.264906 0.264906 0.264906 0.264906 0.269680 0.269680 0.269680 0.269680 0.269680 0.269680 0.269680 0.269680 0.269680 0.269680 0.269680 0.264906 0.264906 0.264906 0.264906 0.264906 0.264906 0.264906 0.264906 0.264906 0.264906 0.264906 0.256074 0.256074 0.256074 0.256074 0.256074 0.256074 0.256074 0.256074 0.256074 0.256074 0.256074 0.264906 0.264906 0.264906 0.264906 0.264906 0.264906 0.264906 0.264906 0.264906 0.264906 0.260378 0.260378 0.260378 0.260378 0.260378 0.260378 0.260378 0.260378 0.260378 0.260378 0.264906 0.264906 0.264906 0.264906 0.264906 0.264906 0.264906 0.264906 0.264906 0.251976 0.251976 0.251976 0.251976 0.251976 0.251976 0.251976 0.251976 0.251976 0.251976 0.256074 0.256074 0.256074 0.256074 0.256074 0.256074 0.256074 0.256074 0.256074 0.251976 0.251976 0.251976 0.251976 0.251976 0.251976 0.251976 0.251976 0.251976 0.251976 0.251976 0.251976 0.251976 0.251976
