# Output from CTFFind version 4.1.9, run on 2019-11-02 17:47:29
# Input file: stack6_bm3d_averaged_1_1.0_0_1500_half.mrc ; Number of micrographs: 1
# Pixel size: 3.000 Angstroms ; acceleration voltage: 300.0 keV ; spherical aberration: 0.00 mm ; amplitude contrast: 0.07
# Box size: 512 pixels ; min. res.: 30.0 Angstroms ; max. res.: 5.0 Angstroms ; min. def.: 5000.0 um; max. def. 50000.0 um; num. frames averaged: 1
# 6 lines per micrograph: #1 - spatial frequency (1/Angstroms); #2 - 1D rotational average of spectrum (assuming no astigmatism); #3 - 1D rotational average of spectrum; #4 - CTF fit; #5 - cross-correlation between spectrum and CTF fit; #6 - 2sigma of expected cross correlation of noise
0.000000 0.000651 0.001302 0.001953 0.002604 0.003255 0.003906 0.004557 0.005208 0.005859 0.006510 0.007161 0.007812 0.008464 0.009115 0.009766 0.010417 0.011068 0.011719 0.012370 0.013021 0.013672 0.014323 0.014974 0.015625 0.016276 0.016927 0.017578 0.018229 0.018880 0.019531 0.020182 0.020833 0.021484 0.022135 0.022786 0.023438 0.024089 0.024740 0.025391 0.026042 0.026693 0.027344 0.027995 0.028646 0.029297 0.029948 0.030599 0.031250 0.031901 0.032552 0.033203 0.033854 0.034505 0.035156 0.035807 0.036458 0.037109 0.037760 0.038411 0.039062 0.039714 0.040365 0.041016 0.041667 0.042318 0.042969 0.043620 0.044271 0.044922 0.045573 0.046224 0.046875 0.047526 0.048177 0.048828 0.049479 0.050130 0.050781 0.051432 0.052083 0.052734 0.053385 0.054036 0.054688 0.055339 0.055990 0.056641 0.057292 0.057943 0.058594 0.059245 0.059896 0.060547 0.061198 0.061849 0.062500 0.063151 0.063802 0.064453 0.065104 0.065755 0.066406 0.067057 0.067708 0.068359 0.069010 0.069661 0.070312 0.070964 0.071615 0.072266 0.072917 0.073568 0.074219 0.074870 0.075521 0.076172 0.076823 0.077474 0.078125 0.078776 0.079427 0.080078 0.080729 0.081380 0.082031 0.082682 0.083333 0.083984 0.084635 0.085286 0.085938 0.086589 0.087240 0.087891 0.088542 0.089193 0.089844 0.090495 0.091146 0.091797 0.092448 0.093099 0.093750 0.094401 0.095052 0.095703 0.096354 0.097005 0.097656 0.098307 0.098958 0.099609 0.100260 0.100911 0.101562 0.102214 0.102865 0.103516 0.104167 0.104818 0.105469 0.106120 0.106771 0.107422 0.108073 0.108724 0.109375 0.110026 0.110677 0.111328 0.111979 0.112630 0.113281 0.113932 0.114583 0.115234 0.115885 0.116536 0.117188 0.117839 0.118490 0.119141 0.119792 0.120443 0.121094 0.121745 0.122396 0.123047 0.123698 0.124349 0.125000 0.125651 0.126302 0.126953 0.127604 0.128255 0.128906 0.129557 0.130208 0.130859 0.131510 0.132161 0.132812 0.133464 0.134115 0.134766 0.135417 0.136068 0.136719 0.137370 0.138021 0.138672 0.139323 0.139974 0.140625 0.141276 0.141927 0.142578 0.143229 0.143880 0.144531 0.145182 0.145833 0.146484 0.147135 0.147786 0.148438 0.149089 0.149740 0.150391 0.151042 0.151693 0.152344 0.152995 0.153646 0.154297 0.154948 0.155599 0.156250 0.156901 0.157552 0.158203 0.158854 0.159505 0.160156 0.160807 0.161458 0.162109 0.162760 0.163411 0.164062 0.164714 0.165365 0.166016 0.166667 0.167318 0.167969 0.168620 0.169271 0.169922 0.170573 0.171224 0.171875 0.172526 0.173177 0.173828 0.174479 0.175130 0.175781 0.176432 0.177083 0.177734 0.178385 0.179036 0.179688 0.180339 0.180990 0.181641 0.182292 0.182943 0.183594 0.184245 0.184896 0.185547 0.186198 0.186849 0.187500 0.188151 0.188802 0.189453 0.190104 0.190755 0.191406 0.192057 0.192708 0.193359 0.194010 0.194661 0.195312 0.195964 0.196615 0.197266 0.197917 0.198568 0.199219 0.199870 0.200521 0.201172 0.201823 0.202474 0.203125 0.203776 0.204427 0.205078 0.205729 0.206380 0.207031 0.207682 0.208333 0.208984 0.209635 0.210286 0.210938 0.211589 0.212240 0.212891 0.213542 0.214193 0.214844 0.215495 0.216146 0.216797 0.217448 0.218099 0.218750 0.219401 0.220052 0.220703 0.221354 0.222005 0.222656 0.223307 0.223958 0.224609 0.225260 0.225911 0.226562 0.227214 0.227865 0.228516 0.229167 0.229818 0.230469 0.231120 0.231771 0.232422 0.233073 0.233724 0.234375 0.235026 0.235677
       0.31178        0.31178        0.31178        0.31178        0.31178        0.31178        0.31178        0.31178        0.31178        0.31178        0.31178        0.31178        0.31178        0.31178        0.31178        0.31178        0.31178        0.31178        0.31178        0.31178        0.31178        0.31178        0.31178        0.31178        0.31178        0.31178        0.31178        0.31178        0.31178        0.31178        0.31178        0.31178        0.31178        0.31178        0.31178        0.31178        0.31178        0.31178        0.31178        0.31178        0.31178        0.31178        0.31178        0.31178        0.31178        0.31178        0.31178        0.31178        0.31178        0.31178        0.31178        0.63568        0.81758        0.41662        0.31191        0.19002       -0.10574        0.11282       -0.00141        0.03441        0.11775        0.33671        0.42524        0.40554        0.22532       -0.01082        0.04833        0.07267       -0.16797       -0.17883       -0.08664       -0.10834       -0.29255       -0.18652       -0.30218       -0.25748       -0.28447       -0.40156       -0.47476       -0.47632       -0.41947       -0.33824       -0.43763       -0.36692       -0.40951       -0.34913       -0.27309       -0.19861       -0.19329       -0.13407       -0.09148        0.03902        0.08517        0.25110        0.28316        0.37212        0.40311        0.51749        0.58947        0.60783        0.74113        0.69981        0.74081        0.65078        0.66561        0.69764        0.63364        0.61534        0.60901        0.43640        0.39716        0.35847        0.32673        0.22341        0.13330        0.06147        0.05743        0.00045       -0.07859       -0.02978       -0.03074       -0.06939        0.06359        0.16444        0.25555        0.32096        0.33614        0.43033        0.54656        0.59251        0.54199        0.67171        0.56501        0.54096        0.59878        0.63771        0.53154        0.46113        0.40517        0.37771        0.25133        0.21340        0.13303        0.11629        0.05530        0.05943        0.10866        0.16708        0.14859        0.18120        0.21962        0.23840        0.33205        0.45483        0.49182        0.49732        0.52231        0.57942        0.57227        0.52140        0.42210        0.38487        0.36697        0.27010        0.24697        0.21625        0.20724        0.20364        0.18224        0.15894        0.12505        0.18975        0.24771        0.34805        0.38353        0.40691        0.46425        0.53535        0.47629        0.48431        0.42459        0.40322        0.38299        0.36327        0.28914        0.25970        0.20142        0.23434        0.21751        0.19423        0.21808        0.22480        0.24294        0.30071        0.40134        0.40046        0.37312        0.39031        0.45460        0.48259        0.42952        0.35456        0.32512        0.27894        0.26183        0.24797        0.21426        0.28383        0.29315        0.29479        0.31498        0.31008        0.34756        0.37498        0.37296        0.37289        0.35703        0.31971        0.33423        0.31924        0.29800        0.28423        0.27087        0.21591        0.27165        0.27428        0.30295        0.32158        0.34407        0.37517        0.33831        0.32014        0.36103        0.36926        0.26730        0.29583        0.30805        0.24450        0.21097        0.26191        0.27419        0.27719        0.30026        0.30583        0.33368        0.33460        0.36021        0.32656        0.32306        0.30978        0.29285        0.27180        0.24626        0.25481        0.25967        0.27756        0.29986        0.29428        0.29755        0.31604        0.33034        0.26556        0.30464        0.26799        0.26015        0.27521        0.26370        0.26080        0.26503        0.31344        0.28522        0.31538        0.28931        0.27640        0.31007        0.30970        0.33121        0.31471        0.29360        0.25277        0.26199        0.27015        0.26272        0.31225        0.31848        0.33806        0.32369        0.31052        0.25923        0.28404        0.21229        0.20176        0.24932        0.26321        0.25605        0.28762        0.31425        0.29734        0.35190        0.30623        0.26276        0.23207        0.23621        0.29176        0.30985        0.30452        0.26937        0.28023        0.25630        0.31704        0.28146        0.25258        0.26708        0.25188        0.28949        0.25266        0.29005        0.33198        0.29068        0.21264        0.23341        0.28048        0.32188        0.26546        0.26257        0.23909        0.28268        0.29059        0.38024        0.29339        0.27498        0.25810        0.25686        0.21830        0.18167        0.25166        0.21874        0.20191        0.18578        0.19391        0.24076        0.22399        0.24123        0.19487        0.25398        0.22824        0.20948        0.18118        0.15606        0.19242        0.23706        0.14753        0.07195        0.21468        0.19955        0.14927        0.24131        0.15408        0.23178        0.20339       -0.08051       -0.50781       -0.99659
2.868039 2.839772 2.811651 2.783676 2.755846 2.728162 2.700623 2.673230 2.645983 2.618881 2.591925 2.565114 2.538449 2.511930 2.485556 2.459327 2.433245 2.407308 2.381516 2.355871 2.330370 2.305016 2.279807 2.254743 2.229825 2.205053 2.180426 2.155945 2.131610 2.107420 2.083376 2.059477 2.035724 2.012116 1.988654 1.965338 1.942167 1.919142 1.896263 1.873529 1.850941 1.828498 1.806201 1.784049 1.762043 1.740183 1.718468 1.696899 1.675475 1.654197 1.633065 1.930915 2.283872 1.707533 1.749111 1.389758 0.947814 1.206161 1.029584 1.080782 1.036058 1.499493 1.526046 1.551530 1.284750 0.949732 0.829473 1.017011 0.721001 0.493343 0.591450 0.682034 0.423736 0.493899 0.328720 0.369229 0.250358 0.163899 -0.035811 0.004309 0.030447 0.081688 0.041159 0.077271 -0.040530 0.028490 0.113354 0.228175 0.287866 0.211213 0.325094 0.554556 0.454038 0.731117 0.797467 0.884835 0.910950 1.123538 1.144424 1.179112 1.332011 1.239006 1.381536 1.192492 1.115692 1.302077 1.147029 1.056332 1.129984 0.891654 0.740945 0.680343 0.676928 0.462111 0.396989 0.261267 0.226936 0.092712 -0.008982 0.089409 0.025628 -0.064100 0.112564 0.255160 0.305702 0.467016 0.485389 0.555864 0.722772 0.822685 0.661655 0.960389 0.806652 0.658519 0.768341 0.796605 0.711828 0.641047 0.446156 0.501077 0.284909 0.190429 0.140078 0.005972 -0.020716 -0.108399 -0.015725 0.021021 0.092989 -0.050285 0.252910 0.090547 0.208193 0.374664 0.436144 0.527991 0.436330 0.560406 0.663575 0.506046 0.384674 0.333461 0.321615 0.145903 0.135895 0.012837 0.093028 0.025896 0.000786 -0.028293 -0.124858 -0.013084 0.016370 0.107032 0.296254 0.201763 0.354185 0.373612 0.426036 0.414040 0.395616 0.331423 0.228335 0.304487 0.163038 0.159476 0.008674 0.048654 0.062960 -0.021665 -0.009298 0.016610 0.060238 0.073927 0.216476 0.305792 0.242088 0.207270 0.375421 0.402881 0.353172 0.244616 0.173805 0.147861 0.081707 0.072596 0.025785 0.020079 0.134862 0.051251 0.186538 0.087517 0.140872 0.230180 0.216198 0.234579 0.200388 0.198289 0.120652 0.164706 0.123127 0.098544 0.111886 -0.003948 0.029517 0.087311 0.049997 0.151885 0.118935 0.211967 0.201491 0.137961 0.135688 0.222908 0.122820 0.072768 0.090173 0.064285 -0.002151 -0.024160 0.051191 0.073802 0.034569 0.118262 0.110554 0.121897 0.136530 0.173945 0.123441 0.084464 0.103525 0.081987 0.020397 0.011867 0.034370 0.004473 0.071940 0.104152 0.063284 0.064787 0.125450 0.106973 0.015506 0.114407 0.021223 0.026092 0.055518 0.018592 0.012159 0.062915 0.087081 0.022902 0.103797 0.068620 0.024030 0.115023 0.071522 0.092253 0.089099 0.025225 -0.010714 -0.002308 0.040250 0.004711 0.069700 0.098792 0.094422 0.060922 0.137721 -0.013082 0.037937 -0.095365 -0.026058 -0.029868 0.008980 0.016998 0.029732 0.089743 0.059793 0.115636 0.003584 -0.023203 -0.072745 -0.083341 0.072051 0.036970 0.047434 -0.021765 -0.004737 -0.040121 0.054367 0.010381 -0.066922 -0.018547 -0.084103 0.023952 -0.042667 0.025086 0.069303 -0.017215 -0.084498 -0.041404 0.066685 0.046418 -0.007562 0.001677 -0.059728 0.089224 0.071995 0.180182 0.045222 0.017818 0.017840 0.071227 -0.053949 -0.038814 0.060661 0.002653 -0.036122 -0.039301 -0.039632 0.094745 -0.056060 0.105800 -0.018403 0.118993 -0.006593 0.058475 -0.079747 -0.043097 -0.049531 0.100204 -0.029681 -0.236048 0.300980 0.282517 0.211730 0.402911 0.199233 0.300580 0.332053 -0.111403 -1.398050
0.072396 0.072834 0.074149 0.076339 0.079405 0.083345 0.088160 0.093847 0.100406 0.107834 0.116128 0.125286 0.135304 0.146177 0.157901 0.170468 0.183871 0.198101 0.213148 0.229000 0.245643 0.263062 0.281239 0.300154 0.319784 0.340104 0.361086 0.382699 0.404908 0.427675 0.450958 0.474711 0.498886 0.523427 0.548276 0.573370 0.598642 0.624018 0.649421 0.674767 0.699969 0.724934 0.749563 0.773752 0.797393 0.820372 0.842571 0.863866 0.884130 0.903232 0.921036 0.937405 0.952198 0.965271 0.976481 0.985682 0.992729 0.997479 0.999790 0.999523 0.996543 0.990721 0.981935 0.970069 0.955018 0.936689 0.914997 0.889876 0.861271 0.829147 0.793487 0.754291 0.711586 0.665418 0.615858 0.563005 0.506984 0.447947 0.386076 0.321585 0.254715 0.185739 0.114962 0.042717 0.030630 0.104686 0.179029 0.253213 0.326766 0.399193 0.469985 0.538612 0.604535 0.667208 0.726081 0.780606 0.830243 0.874464 0.912762 0.944654 0.969691 0.987460 0.997596 0.999786 0.993775 0.979374 0.956467 0.925014 0.885059 0.836733 0.780260 0.715957 0.644239 0.565619 0.480706 0.390209 0.294926 0.195746 0.093643 0.010335 0.115075 0.219404 0.322109 0.421943 0.517645 0.607957 0.691636 0.767477 0.834332 0.891127 0.936882 0.970733 0.991947 0.999944 0.994311 0.974818 0.941431 0.894325 0.833885 0.760719 0.675655 0.579738 0.474224 0.360570 0.240419 0.115578 0.012002 0.140255 0.267036 0.390147 0.507383 0.616568 0.715603 0.802502 0.875439 0.932795 0.973190 0.995531 0.999041 0.983290 0.948222 0.894169 0.821863 0.732439 0.627427 0.508732 0.378615 0.239654 0.094699 0.053181 0.200759 0.344716 0.481723 0.608510 0.721954 0.819158 0.897531 0.954868 0.989415 0.999937 0.985767 0.946846 0.883751 0.797699 0.690545 0.564756 0.423363 0.269903 0.108337 0.057039 0.221710 0.381062 0.530507 0.665627 0.782298 0.876834 0.946111 0.987679 0.999866 0.981854 0.933738 0.856554 0.752278 0.623799 0.474851 0.309928 0.134154 0.046858 0.227186 0.400791 0.561710 0.704273 0.823316 0.914364 0.973831 0.999167 0.988990 0.943171 0.862884 0.750600 0.610040 0.446076 0.264574 0.072207 0.123785 0.315849 0.496430 0.658247 0.794616 0.899725 0.968909 0.998872 0.987871 0.935831 0.844404 0.716950 0.558438 0.375290 0.175128 0.033507 0.241531 0.439687 0.618975 0.771058 0.888674 0.965996 0.998950 0.985457 0.925588 0.821621 0.677996 0.501161 0.299307 0.082023 0.140151 0.356224 0.555289 0.727091 0.862566 0.954340 0.997162 0.988238 0.927440 0.817393 0.663402 0.473236 0.256779 0.025533 0.207966 0.430822 0.630495 0.795516 0.916164 0.985078 0.997734 0.952785 0.852225 0.701346 0.508522 0.284777 0.043185 0.201857 0.435494 0.643295 0.812182 0.931259 0.992555 0.991611 0.927836 0.804652 0.629360 0.412765 0.168564 0.087512 0.338668 0.568147 0.760371 0.902006 0.982934 0.997017 0.942621 0.822827 0.645337 0.422030 0.168220 0.098357 0.358755 0.594169 0.787294 0.923636 0.992640 0.988560 0.910999 0.765057 0.561073 0.313955 0.042141 0.233748 0.492440 0.713674 0.879804 0.977242 0.997639 0.938657 0.804292 0.604683 0.355436 0.076437 0.209671 0.479305 0.709908 0.881842 0.980110 0.995738 0.926655 0.778028 0.561951 0.296560 0.004553 0.288691 0.557316 0.777274 0.928505 0.996842 0.975392 0.865330 0.675945 0.423950 0.132095 0.172844 0.462481 0.709472 0.890108 0.986663 0.989202 0.896691 0.717276 0.467673 0.171695 0.141952 0.442422 0.699745 0.887854
1.000000 1.000000 1.000000 1.000000 1.000000 1.000000 1.000000 1.000000 1.000000 1.000000 1.000000 1.000000 1.000000 1.000000 1.000000 1.000000 1.000000 1.000000 1.000000 1.000000 1.000000 1.000000 1.000000 1.000000 1.000000 1.000000 1.000000 1.000000 1.000000 1.000000 1.000000 1.000000 1.000000 1.000000 1.000000 1.000000 1.000000 1.000000 1.000000 1.000000 1.000000 1.000000 1.000000 1.000000 1.000000 1.000000 1.000000 1.000000 1.000000 1.000000 1.000000 1.000000 0.831707 0.831707 0.831707 0.831707 0.831707 0.831707 0.831707 0.813466 0.813466 0.813466 0.813466 0.813466 0.813466 0.813466 0.813466 0.813466 0.813466 0.813466 0.813466 0.813466 0.813466 0.813466 0.813466 0.813466 0.813466 0.813466 0.813466 0.813466 0.813466 0.813466 0.813466 0.813466 0.813466 0.813466 0.813466 0.813466 0.813466 0.813466 0.813466 0.813466 0.813466 0.813466 0.813466 0.813466 0.813466 0.813466 0.813466 0.813466 0.813466 0.813466 0.813466 0.954292 0.954936 0.947358 0.946270 0.944560 0.941273 0.936901 0.936435 0.937779 0.937993 0.938633 0.940052 0.941105 0.942801 0.943879 0.944753 0.945590 0.953640 0.957262 0.956890 0.956490 0.947210 0.953920 0.951800 0.949480 0.950384 0.950721 0.951438 0.951281 0.951098 0.950604 0.948827 0.949644 0.949452 0.948617 0.947443 0.945209 0.945095 0.944603 0.944757 0.945794 0.946738 0.947468 0.948060 0.948073 0.948286 0.948270 0.948155 0.943335 0.943365 0.936628 0.937245 0.938255 0.937758 0.936486 0.934860 0.934932 0.934811 0.934752 0.934613 0.934841 0.915845 0.915319 0.915350 0.915694 0.908645 0.897800 0.890654 0.884447 0.885505 0.889927 0.895104 0.895586 0.892299 0.891263 0.874323 0.877382 0.863968 0.860706 0.850099 0.860519 0.861806 0.863120 0.857586 0.856893 0.855477 0.853246 0.843664 0.848057 0.848731 0.844867 0.841328 0.839289 0.837290 0.839439 0.848099 0.845889 0.843553 0.845600 0.835126 0.825999 0.824832 0.826779 0.834821 0.846757 0.846143 0.845226 0.838219 0.834739 0.828338 0.822227 0.821453 0.823157 0.821027 0.824685 0.824302 0.832070 0.822259 0.817687 0.822799 0.833405 0.838920 0.840980 0.843350 0.841409 0.840256 0.821391 0.822138 0.823619 0.774720 0.774735 0.762740 0.762361 0.751869 0.749736 0.746265 0.742900 0.734642 0.717433 0.729996 0.734066 0.707918 0.715605 0.709921 0.698920 0.677533 0.681910 0.695643 0.704225 0.704232 0.706092 0.695608 0.694851 0.704598 0.704167 0.710326 0.704183 0.700685 0.693563 0.695462 0.687343 0.682395 0.679415 0.678976 0.679713 0.675950 0.659183 0.667961 0.660247 0.652684 0.642764 0.603742 0.576220 0.561575 0.553263 0.535285 0.508624 0.522381 0.528574 0.511735 0.501537 0.480639 0.443601 0.431682 0.430106 0.410581 0.399551 0.378951 0.332909 0.343957 0.337740 0.342764 0.327061 0.326533 0.313007 0.261180 0.255923 0.218256 0.234679 0.258342 0.249051 0.227961 0.218156 0.236459 0.237433 0.246024 0.244208 0.260947 0.216915 0.160891 0.184016 0.175605 0.184994 0.167679 0.139519 0.166166 0.163133 0.174381 0.178135 0.132735 0.103424 0.082299 0.065847 0.072379 0.095443 0.108989 0.098801 0.082272 -0.011826 0.021035 0.045952 0.045952 0.045952 0.045952 0.045952 0.045952 0.045952 0.045952 0.045952 0.045952 0.045952 -0.013967 -0.013967 -0.013967 -0.013967 -0.013967 -0.013967 -0.013967 -0.013967 -0.013967 -0.013967 -0.013967 -0.013967 -0.013967 -0.013967 -0.013967 -0.013967 -0.013967 -0.013967 -0.013967
0.000000 0.000000 0.000000 0.000000 0.000000 0.000000 0.000000 0.000000 0.000000 0.000000 0.000000 0.000000 0.000000 0.000000 0.000000 0.000000 0.000000 0.000000 0.000000 0.000000 0.000000 0.000000 0.000000 0.000000 0.000000 0.000000 0.000000 0.000000 0.000000 0.000000 0.000000 0.000000 0.000000 0.000000 0.000000 0.000000 0.000000 0.000000 0.000000 0.000000 0.000000 0.000000 0.000000 0.000000 0.000000 0.000000 0.000000 0.000000 0.000000 0.000000 0.000000 0.000000 0.173422 0.173422 0.173422 0.173422 0.173422 0.173422 0.173422 0.191565 0.191565 0.191565 0.191565 0.191565 0.191565 0.191565 0.191565 0.191565 0.191565 0.191565 0.191565 0.191565 0.191565 0.191565 0.191565 0.191565 0.191565 0.191565 0.191565 0.191565 0.191565 0.191565 0.191565 0.191565 0.191565 0.191565 0.191565 0.191565 0.191565 0.191565 0.191565 0.191565 0.191565 0.191565 0.191565 0.191565 0.191565 0.191565 0.191565 0.191565 0.191565 0.191565 0.191565 0.219529 0.219529 0.219529 0.219529 0.219529 0.219529 0.219529 0.219529 0.219529 0.219529 0.219529 0.219529 0.219529 0.219529 0.219529 0.219529 0.219529 0.219529 0.219529 0.219529 0.219529 0.219529 0.219529 0.219529 0.219529 0.219529 0.219529 0.219529 0.219529 0.219529 0.219529 0.237356 0.237356 0.237356 0.237356 0.237356 0.237356 0.237356 0.237356 0.237356 0.237356 0.237356 0.237356 0.237356 0.237356 0.237356 0.237356 0.237356 0.237356 0.237356 0.237356 0.237356 0.237356 0.237356 0.237356 0.244339 0.244339 0.244339 0.244339 0.244339 0.244339 0.244339 0.244339 0.244339 0.244339 0.244339 0.244339 0.244339 0.244339 0.244339 0.244339 0.244339 0.244339 0.244339 0.244339 0.244339 0.248069 0.248069 0.248069 0.248069 0.248069 0.248069 0.248069 0.248069 0.248069 0.248069 0.248069 0.248069 0.248069 0.248069 0.248069 0.248069 0.248069 0.248069 0.248069 0.248069 0.248069 0.248069 0.248069 0.248069 0.248069 0.248069 0.248069 0.248069 0.248069 0.248069 0.248069 0.248069 0.248069 0.248069 0.248069 0.248069 0.248069 0.256074 0.256074 0.256074 0.256074 0.256074 0.256074 0.256074 0.256074 0.256074 0.256074 0.256074 0.256074 0.256074 0.256074 0.256074 0.256074 0.256074 0.256074 0.256074 0.256074 0.256074 0.256074 0.256074 0.256074 0.256074 0.256074 0.256074 0.256074 0.256074 0.256074 0.256074 0.256074 0.256074 0.256074 0.256074 0.256074 0.256074 0.256074 0.256074 0.256074 0.256074 0.256074 0.256074 0.256074 0.256074 0.260378 0.260378 0.260378 0.260378 0.260378 0.260378 0.260378 0.260378 0.260378 0.260378 0.260378 0.260378 0.260378 0.256074 0.256074 0.256074 0.256074 0.256074 0.256074 0.256074 0.256074 0.256074 0.256074 0.256074 0.256074 0.256074 0.260378 0.260378 0.260378 0.260378 0.260378 0.260378 0.260378 0.260378 0.260378 0.260378 0.260378 0.260378 0.251976 0.251976 0.251976 0.251976 0.251976 0.251976 0.251976 0.251976 0.251976 0.251976 0.251976 0.251976 0.256074 0.256074 0.256074 0.256074 0.256074 0.256074 0.256074 0.256074 0.256074 0.256074 0.256074 0.251976 0.251976 0.251976 0.251976 0.251976 0.251976 0.251976 0.251976 0.251976 0.251976 0.251976 0.248069 0.248069 0.248069 0.248069 0.248069 0.248069 0.248069 0.248069 0.248069 0.248069 0.248069 0.256074 0.256074 0.256074 0.256074 0.256074 0.256074 0.256074 0.256074 0.256074 0.256074 0.256074 0.256074 0.256074 0.256074 0.256074 0.256074 0.256074 0.256074 0.256074
