# Output from CTFFind version 4.1.9, run on 2019-11-03 20:06:47
# Input file: stack1_bm3d_averaged_1_10_0_1250_half.mrc ; Number of micrographs: 1
# Pixel size: 3.000 Angstroms ; acceleration voltage: 300.0 keV ; spherical aberration: 0.00 mm ; amplitude contrast: 0.07
# Box size: 512 pixels ; min. res.: 30.0 Angstroms ; max. res.: 5.0 Angstroms ; min. def.: 5000.0 um; max. def. 50000.0 um; num. frames averaged: 1
# 6 lines per micrograph: #1 - spatial frequency (1/Angstroms); #2 - 1D rotational average of spectrum (assuming no astigmatism); #3 - 1D rotational average of spectrum; #4 - CTF fit; #5 - cross-correlation between spectrum and CTF fit; #6 - 2sigma of expected cross correlation of noise
0.000000 0.000651 0.001302 0.001953 0.002604 0.003255 0.003906 0.004557 0.005208 0.005859 0.006510 0.007161 0.007812 0.008464 0.009115 0.009766 0.010417 0.011068 0.011719 0.012370 0.013021 0.013672 0.014323 0.014974 0.015625 0.016276 0.016927 0.017578 0.018229 0.018880 0.019531 0.020182 0.020833 0.021484 0.022135 0.022786 0.023438 0.024089 0.024740 0.025391 0.026042 0.026693 0.027344 0.027995 0.028646 0.029297 0.029948 0.030599 0.031250 0.031901 0.032552 0.033203 0.033854 0.034505 0.035156 0.035807 0.036458 0.037109 0.037760 0.038411 0.039062 0.039714 0.040365 0.041016 0.041667 0.042318 0.042969 0.043620 0.044271 0.044922 0.045573 0.046224 0.046875 0.047526 0.048177 0.048828 0.049479 0.050130 0.050781 0.051432 0.052083 0.052734 0.053385 0.054036 0.054688 0.055339 0.055990 0.056641 0.057292 0.057943 0.058594 0.059245 0.059896 0.060547 0.061198 0.061849 0.062500 0.063151 0.063802 0.064453 0.065104 0.065755 0.066406 0.067057 0.067708 0.068359 0.069010 0.069661 0.070312 0.070964 0.071615 0.072266 0.072917 0.073568 0.074219 0.074870 0.075521 0.076172 0.076823 0.077474 0.078125 0.078776 0.079427 0.080078 0.080729 0.081380 0.082031 0.082682 0.083333 0.083984 0.084635 0.085286 0.085938 0.086589 0.087240 0.087891 0.088542 0.089193 0.089844 0.090495 0.091146 0.091797 0.092448 0.093099 0.093750 0.094401 0.095052 0.095703 0.096354 0.097005 0.097656 0.098307 0.098958 0.099609 0.100260 0.100911 0.101562 0.102214 0.102865 0.103516 0.104167 0.104818 0.105469 0.106120 0.106771 0.107422 0.108073 0.108724 0.109375 0.110026 0.110677 0.111328 0.111979 0.112630 0.113281 0.113932 0.114583 0.115234 0.115885 0.116536 0.117188 0.117839 0.118490 0.119141 0.119792 0.120443 0.121094 0.121745 0.122396 0.123047 0.123698 0.124349 0.125000 0.125651 0.126302 0.126953 0.127604 0.128255 0.128906 0.129557 0.130208 0.130859 0.131510 0.132161 0.132812 0.133464 0.134115 0.134766 0.135417 0.136068 0.136719 0.137370 0.138021 0.138672 0.139323 0.139974 0.140625 0.141276 0.141927 0.142578 0.143229 0.143880 0.144531 0.145182 0.145833 0.146484 0.147135 0.147786 0.148438 0.149089 0.149740 0.150391 0.151042 0.151693 0.152344 0.152995 0.153646 0.154297 0.154948 0.155599 0.156250 0.156901 0.157552 0.158203 0.158854 0.159505 0.160156 0.160807 0.161458 0.162109 0.162760 0.163411 0.164062 0.164714 0.165365 0.166016 0.166667 0.167318 0.167969 0.168620 0.169271 0.169922 0.170573 0.171224 0.171875 0.172526 0.173177 0.173828 0.174479 0.175130 0.175781 0.176432 0.177083 0.177734 0.178385 0.179036 0.179688 0.180339 0.180990 0.181641 0.182292 0.182943 0.183594 0.184245 0.184896 0.185547 0.186198 0.186849 0.187500 0.188151 0.188802 0.189453 0.190104 0.190755 0.191406 0.192057 0.192708 0.193359 0.194010 0.194661 0.195312 0.195964 0.196615 0.197266 0.197917 0.198568 0.199219 0.199870 0.200521 0.201172 0.201823 0.202474 0.203125 0.203776 0.204427 0.205078 0.205729 0.206380 0.207031 0.207682 0.208333 0.208984 0.209635 0.210286 0.210938 0.211589 0.212240 0.212891 0.213542 0.214193 0.214844 0.215495 0.216146 0.216797 0.217448 0.218099 0.218750 0.219401 0.220052 0.220703 0.221354 0.222005 0.222656 0.223307 0.223958 0.224609 0.225260 0.225911 0.226562 0.227214 0.227865 0.228516 0.229167 0.229818 0.230469 0.231120 0.231771 0.232422 0.233073 0.233724 0.234375 0.235026 0.235677
       0.35023        0.35023        0.35023        0.35023        0.35023        0.35023        0.35023        0.35023        0.35023        0.35023        0.35023        0.35023        0.35023        0.35023        0.35023        0.35023        0.35023        0.35023        0.35023        0.35023        0.35023        0.35023        0.35023        0.35023        0.35023        0.35023        0.35023        0.35023        0.35023        0.35023        0.35023        0.35023        0.35023        0.35023        0.35023        0.35023        0.35023        0.35023        0.35023        0.35023        0.35023        0.35023        0.35023        0.35023        0.35023        0.35023        0.35023        0.35023        0.35023        0.35023        0.35023        0.31567        0.41963        0.21623        0.06939        0.01506       -0.24315       -0.10731       -0.11813       -0.20339        0.01160       -0.12922       -0.01092       -0.04595       -0.02979       -0.09574       -0.15433       -0.20827       -0.23543       -0.33802       -0.26998       -0.18241       -0.17824       -0.27648       -0.19341       -0.22997       -0.20038       -0.22618       -0.08670       -0.11036       -0.14613        0.00109        0.07325        0.01211        0.06781        0.07510        0.28090        0.26522        0.34651        0.36695        0.36695        0.40127        0.47761        0.52023        0.51820        0.49166        0.50025        0.52088        0.49003        0.49524        0.41681        0.41860        0.41139        0.37292        0.31440        0.32540        0.32354        0.21318        0.21224        0.15991        0.18258        0.17366        0.16683        0.17373        0.27104        0.34528        0.33488        0.28380        0.41692        0.48548        0.40291        0.49663        0.57682        0.51149        0.50440        0.58474        0.59169        0.43353        0.48555        0.42489        0.35906        0.32856        0.28933        0.26759        0.20843        0.21166        0.19745        0.22630        0.25564        0.28332        0.34576        0.32702        0.40944        0.40822        0.45605        0.51175        0.46078        0.47707        0.42818        0.43716        0.41038        0.35255        0.31304        0.32247        0.32059        0.25747        0.25910        0.26277        0.27085        0.28517        0.32364        0.43010        0.48608        0.43020        0.46467        0.46471        0.42067        0.45937        0.44794        0.41547        0.36791        0.37749        0.35501        0.32782        0.31080        0.29892        0.28182        0.30258        0.32077        0.34193        0.40393        0.37915        0.38332        0.39422        0.37069        0.42720        0.40612        0.36239        0.33460        0.34353        0.32194        0.29394        0.32488        0.33671        0.34360        0.34553        0.32794        0.41169        0.40195        0.40918        0.42786        0.45465        0.40034        0.37380        0.35239        0.34841        0.29777        0.28622        0.33269        0.39736        0.40010        0.35638        0.36642        0.40662        0.39543        0.45830        0.37274        0.39407        0.34917        0.31612        0.30895        0.30937        0.34932        0.35637        0.37484        0.37860        0.33262        0.42488        0.34070        0.34862        0.35922        0.40056        0.37448        0.30209        0.32238        0.27883        0.34464        0.32932        0.34315        0.34854        0.32547        0.36201        0.32877        0.35813        0.35024        0.31842        0.29222        0.31571        0.36099        0.31023        0.30429        0.33333        0.32393        0.33576        0.33686        0.31224        0.30378        0.28443        0.32380        0.33448        0.34458        0.29136        0.31023        0.34607        0.32581        0.30655        0.38815        0.35024        0.30020        0.32632        0.33932        0.32891        0.34262        0.30592        0.33655        0.27638        0.32721        0.38804        0.36411        0.30173        0.33715        0.33112        0.32909        0.34482        0.33953        0.30553        0.28536        0.29546        0.29916        0.36196        0.37208        0.32248        0.36029        0.31680        0.29147        0.28006        0.32926        0.37018        0.30938        0.27487        0.31753        0.35612        0.28431        0.31152        0.31812        0.28892        0.31712        0.33127        0.30452        0.33914        0.31704        0.31711        0.33733        0.35359        0.26498        0.30967        0.37912        0.32279        0.24434        0.29986        0.29518        0.31768        0.27723        0.21715        0.24019        0.32731        0.39729        0.33222        0.27364        0.21199        0.29067        0.29505        0.27157        0.32929        0.31306        0.27474        0.27134        0.26780        0.25910        0.34778        0.23639        0.31381        0.28456        0.27051        0.27158        0.34404        0.22797        0.27733        0.18542        0.30874        0.22759        0.27238        0.22966        0.31521        0.24217        0.28356        0.33965        0.33090        0.21218       -0.13902       -0.20946       -0.58827       -0.64440
2.768845 2.741217 2.713735 2.686399 2.659210 2.632167 2.605270 2.578519 2.551914 2.525456 2.499144 2.472978 2.446958 2.421084 2.395357 2.369776 2.344341 2.319052 2.293910 2.268914 2.244064 2.219360 2.194802 2.170391 2.146126 2.122007 2.098034 2.074207 2.050527 2.026993 2.003605 1.980364 1.957268 1.934319 1.911516 1.888859 1.866349 1.843984 1.821766 1.799694 1.777768 1.755989 1.734356 1.712869 1.691528 1.670333 1.649285 1.628383 1.607626 1.587017 1.566553 1.394744 1.759821 1.367298 0.846036 0.670032 -0.273606 0.432867 0.027318 0.146895 0.530387 0.179411 0.356652 0.346310 0.303351 0.281387 -0.050752 -0.107386 -0.240474 -0.478672 -0.456864 -0.241084 0.037407 -0.514925 -0.239163 -0.385058 -0.122766 -0.480600 -0.052877 -0.187648 -0.204138 0.039280 0.361600 0.095477 0.188396 0.174501 0.844954 0.596792 0.845499 0.984566 0.757269 1.070660 0.974815 1.370404 1.218366 1.093971 1.174340 1.219962 1.163770 1.011614 1.023286 0.880946 0.825545 0.735822 0.774293 0.486675 0.628307 0.426036 0.231006 0.223682 0.120759 0.151221 0.156713 0.070056 0.261363 0.558337 0.461437 0.454682 0.593426 0.760804 0.742187 0.544197 1.115152 0.945649 0.870751 0.959786 1.066225 0.816451 0.564778 0.799700 0.347012 0.455959 0.195447 0.232398 0.054070 0.016974 -0.034373 0.010947 0.160213 0.034079 0.207675 0.415394 0.301950 0.479732 0.483216 0.621263 0.675639 0.582022 0.520698 0.403774 0.449517 0.351457 0.189747 0.178937 0.143042 0.105417 0.085336 -0.074327 -0.024749 0.094159 0.018026 0.301141 0.539808 0.524233 0.366343 0.572205 0.495364 0.429639 0.508953 0.472676 0.316301 0.285372 0.349699 0.101999 0.161208 0.036570 0.164279 0.021645 0.193049 0.102949 0.341960 0.174575 0.275350 0.344477 0.173874 0.462035 0.216000 0.263233 0.159576 0.142540 0.114329 0.067978 0.029589 0.098769 0.163655 0.089638 0.102062 0.155300 0.368806 0.209797 0.319531 0.493123 0.202422 0.346015 0.089208 0.153212 0.099673 -0.079330 0.016747 0.103250 0.324834 0.185132 0.105720 0.229966 0.193301 0.376085 0.305081 0.202808 0.255521 0.031224 0.010824 0.033005 0.072865 0.122930 0.207509 0.183350 0.118987 0.081990 0.298146 0.015242 0.152706 0.149321 0.253605 0.074684 0.042434 -0.022617 -0.032021 0.125158 0.058098 0.125988 0.044506 0.076262 0.104772 0.000111 0.119466 0.079841 -0.077128 -0.016350 -0.037222 0.162166 -0.091561 0.000774 0.041260 -0.035124 0.023825 0.038205 -0.058696 -0.060669 -0.112503 0.039799 0.025729 0.075347 -0.105055 -0.037696 0.037736 0.005441 -0.096657 0.138295 0.000904 -0.102171 -0.045509 0.079215 0.002290 -0.063054 -0.081454 0.069637 -0.238280 0.044153 0.166265 0.037675 -0.049750 0.039515 -0.043219 0.036291 0.058480 0.027776 -0.038790 -0.195375 -0.011628 -0.077672 0.124373 0.058741 -0.012519 0.132521 -0.057490 -0.082745 -0.098303 -0.012297 0.089741 -0.036363 -0.132321 0.073527 0.125365 -0.001247 -0.022401 0.032384 -0.046058 0.011497 0.107989 0.033265 0.095433 0.137839 0.092413 0.195943 0.153866 -0.030064 0.100200 0.200550 0.096021 -0.139566 0.165403 -0.065828 0.178036 -0.087604 -0.162144 -0.137752 0.227370 0.258446 0.096557 -0.247156 -0.306212 -0.038198 -0.207861 -0.161108 0.112356 0.046327 -0.133065 -0.039038 -0.192720 -0.058013 0.215002 -0.207434 0.209076 0.117887 0.176223 0.102005 0.414024 0.122566 0.522516 0.229847 0.513972 0.489005 0.438689 0.450788 0.802250 0.555685 0.712628 0.917299 0.685476 0.997515 -0.847866 -0.507933 -1.609096
0.072396 0.072904 0.074427 0.076966 0.080519 0.085086 0.090666 0.097256 0.104855 0.113459 0.123066 0.133670 0.145267 0.157850 0.171410 0.185939 0.201425 0.217854 0.235213 0.253481 0.272640 0.292665 0.313530 0.335204 0.357653 0.380839 0.404720 0.429248 0.454370 0.480030 0.506164 0.532703 0.559573 0.586692 0.613973 0.641320 0.668634 0.695806 0.722721 0.749256 0.775284 0.800668 0.825265 0.848928 0.871500 0.892821 0.912726 0.931043 0.947599 0.962216 0.974714 0.984912 0.992630 0.997688 0.999908 0.999120 0.995154 0.987853 0.977066 0.962654 0.944493 0.922472 0.896500 0.866504 0.832435 0.794269 0.752005 0.705676 0.655342 0.601100 0.543079 0.481446 0.416406 0.348206 0.277130 0.203504 0.127698 0.050121 0.028778 0.108511 0.188551 0.268337 0.347276 0.424746 0.500101 0.572678 0.641798 0.706776 0.766927 0.821573 0.870053 0.911729 0.945997 0.972295 0.990115 0.999011 0.998608 0.988614 0.968829 0.939151 0.899585 0.850257 0.791407 0.723406 0.646754 0.562081 0.470150 0.371851 0.268202 0.160337 0.049499 0.062970 0.175645 0.287034 0.395595 0.499758 0.597951 0.688620 0.770257 0.841429 0.900805 0.947183 0.979521 0.996961 0.998858 0.984799 0.954628 0.908460 0.846693 0.770023 0.679438 0.576222 0.461940 0.338428 0.207768 0.072257 0.065624 0.203253 0.337921 0.466874 0.587380 0.696781 0.792563 0.872414 0.934288 0.976465 0.997606 0.996803 0.973622 0.928135 0.860944 0.773190 0.666550 0.543220 0.405885 0.257667 0.102071 0.057097 0.215812 0.369932 0.515309 0.647895 0.763869 0.859747 0.932502 0.979669 0.999441 0.990751 0.953339 0.887785 0.795538 0.678898 0.540986 0.385674 0.217497 0.041529 0.136754 0.311650 0.477398 0.628383 0.759322 0.865471 0.942798 0.988163 0.999460 0.975734 0.917257 0.825569 0.703467 0.554947 0.385099 0.199958 0.006294 0.188608 0.377228 0.552097 0.706096 0.832764 0.926579 0.983223 0.999805 0.975035 0.909332 0.804869 0.665537 0.496840 0.305703 0.100212 0.110705 0.317665 0.511231 0.682360 0.822830 0.925661 0.985484 0.998855 0.964485 0.883370 0.758825 0.596386 0.403607 0.189746 0.034662 0.258296 0.469625 0.657497 0.811747 0.923766 0.987017 0.997453 0.953816 0.857790 0.714004 0.529852 0.315167 0.081732 0.157348 0.388362 0.597772 0.773029 0.903345 0.980389 0.998869 0.956940 0.856421 0.702783 0.504919 0.274681 0.026205 0.224919 0.462617 0.671366 0.837217 0.948768 0.997996 0.980881 0.897798 0.753604 0.557439 0.322194 0.063732 0.200153 0.450943 0.670694 0.843351 0.955941 0.999620 0.970420 0.869676 0.704070 0.485257 0.229132 0.045288 0.317237 0.565749 0.771303 0.917381 0.991850 0.988036 0.905407 0.749761 0.532917 0.271903 0.012323 0.296505 0.556993 0.771700 0.922024 0.994520 0.982180 0.885193 0.711106 0.474337 0.195073 0.102381 0.391698 0.646819 0.844352 0.965752 0.999138 0.940561 0.794541 0.573859 0.298528 0.005928 0.310791 0.586832 0.807130 0.949747 0.999991 0.952031 0.809675 0.586209 0.303278 0.011132 0.325381 0.607346 0.827719 0.963120 0.998652 0.929663 0.762461 0.513876 0.209702 0.117903 0.433742 0.703367 0.896864 0.992241 0.978054 0.854897 0.635594 0.344010 0.012573 0.321257 0.619186 0.846498 0.976172 0.992202 0.891709 0.685555 0.397334 0.060794 0.284002 0.595411 0.835263 0.973590 0.992502 0.888643 0.673895 0.374211 0.026598 0.325328 0.636797 0.867591 0.987315 0.979549 0.844244 0.598060 0.272499 0.089993 0.441474 0.734812
1.000000 1.000000 1.000000 1.000000 1.000000 1.000000 1.000000 1.000000 1.000000 1.000000 1.000000 1.000000 1.000000 1.000000 1.000000 1.000000 1.000000 1.000000 1.000000 1.000000 1.000000 1.000000 1.000000 1.000000 1.000000 1.000000 1.000000 1.000000 1.000000 1.000000 1.000000 1.000000 1.000000 1.000000 1.000000 1.000000 1.000000 1.000000 1.000000 1.000000 1.000000 1.000000 1.000000 1.000000 1.000000 1.000000 1.000000 1.000000 1.000000 1.000000 1.000000 1.000000 0.791807 0.791807 0.791807 0.751907 0.751907 0.751907 0.751907 0.751907 0.751907 0.751907 0.751907 0.751907 0.751907 0.751907 0.751907 0.751907 0.751907 0.751907 0.751907 0.751907 0.751907 0.751907 0.751907 0.751907 0.751907 0.751907 0.751907 0.751907 0.751907 0.751907 0.751907 0.751907 0.751907 0.751907 0.751907 0.751907 0.751907 0.751907 0.751907 0.751907 0.751907 0.751907 0.751907 0.751907 0.802159 0.811153 0.815905 0.824271 0.826129 0.824551 0.822109 0.820941 0.821393 0.822092 0.829471 0.851049 0.862397 0.865141 0.877122 0.880947 0.884267 0.883209 0.906312 0.905214 0.954144 0.953188 0.952910 0.953799 0.960807 0.961768 0.960789 0.959117 0.964284 0.965040 0.963483 0.960940 0.960156 0.957525 0.957060 0.954251 0.954302 0.955127 0.954052 0.954588 0.955006 0.954676 0.952426 0.950117 0.947834 0.947079 0.950160 0.936966 0.933910 0.924470 0.920663 0.929677 0.925001 0.921939 0.920600 0.922071 0.913633 0.875959 0.875923 0.855080 0.846972 0.832580 0.825380 0.825150 0.830279 0.839749 0.843991 0.846329 0.838844 0.826551 0.810357 0.819110 0.803078 0.788460 0.793104 0.778814 0.774450 0.775594 0.762318 0.757456 0.745745 0.740411 0.738360 0.748499 0.752818 0.754189 0.747179 0.746567 0.733329 0.722637 0.700551 0.700777 0.709511 0.704257 0.706046 0.702103 0.703623 0.710702 0.707576 0.698916 0.685704 0.677552 0.663251 0.637298 0.648813 0.621838 0.617384 0.620256 0.593918 0.622533 0.621496 0.664169 0.678071 0.680719 0.676656 0.670945 0.649864 0.669160 0.669597 0.660474 0.662117 0.664268 0.661751 0.658795 0.650489 0.550804 0.543748 0.542174 0.543669 0.531491 0.546815 0.548514 0.538636 0.524882 0.506690 0.467501 0.407815 0.343905 0.349362 0.345866 0.326623 0.316898 0.303888 0.335994 0.340759 0.344565 0.300201 0.267886 0.263478 0.236303 0.225506 0.191563 0.201753 0.230754 0.223793 0.194581 0.161833 0.154528 0.133183 0.139248 0.140845 0.108499 0.138903 0.102314 0.091369 0.062853 0.083032 0.070274 0.022469 -0.073497 -0.038147 -0.040073 -0.004566 -0.009095 -0.032271 0.011385 -0.009455 -0.040359 -0.042847 -0.064714 -0.102816 -0.046288 -0.047415 -0.067938 -0.047424 -0.061015 -0.041921 -0.047576 -0.066354 -0.081867 -0.102725 -0.078386 -0.065114 -0.007867 -0.008904 -0.005529 -0.048307 -0.039635 -0.035391 -0.073963 -0.048249 0.005746 0.020727 0.019515 0.014903 0.031656 0.054081 0.051411 0.064289 0.049442 0.047445 0.027832 0.049228 0.040898 0.019845 0.021161 0.034368 0.038395 0.060803 0.051333 0.057545 0.079445 0.049267 0.062785 0.074435 0.060290 0.072476 0.068040 0.113795 0.074888 0.048396 0.044797 0.051568 0.033573 0.064992 0.121136 0.140870 0.114288 0.111806 0.111806 0.111806 0.111806 0.114267 0.114267 0.114267 0.114267 0.114267 0.114267 0.114267 0.114267 0.114267 0.089046 0.089046 0.089046 0.089046 0.089046 0.089046 0.089046 0.089046 0.089046 0.089046 0.089046 0.089046 0.089046 0.089046 0.089046 0.089046
0.000000 0.000000 0.000000 0.000000 0.000000 0.000000 0.000000 0.000000 0.000000 0.000000 0.000000 0.000000 0.000000 0.000000 0.000000 0.000000 0.000000 0.000000 0.000000 0.000000 0.000000 0.000000 0.000000 0.000000 0.000000 0.000000 0.000000 0.000000 0.000000 0.000000 0.000000 0.000000 0.000000 0.000000 0.000000 0.000000 0.000000 0.000000 0.000000 0.000000 0.000000 0.000000 0.000000 0.000000 0.000000 0.000000 0.000000 0.000000 0.000000 0.000000 0.000000 0.000000 0.180334 0.180334 0.180334 0.199007 0.199007 0.199007 0.199007 0.199007 0.199007 0.199007 0.199007 0.199007 0.199007 0.199007 0.199007 0.199007 0.199007 0.199007 0.199007 0.199007 0.199007 0.199007 0.199007 0.199007 0.199007 0.199007 0.199007 0.199007 0.199007 0.199007 0.199007 0.199007 0.199007 0.199007 0.199007 0.199007 0.199007 0.199007 0.199007 0.199007 0.199007 0.199007 0.199007 0.199007 0.230940 0.230940 0.230940 0.230940 0.230940 0.230940 0.230940 0.230940 0.230940 0.230940 0.230940 0.230940 0.230940 0.230940 0.230940 0.230940 0.230940 0.230940 0.230940 0.230940 0.230940 0.230940 0.230940 0.230940 0.230940 0.230940 0.230940 0.230940 0.244339 0.244339 0.244339 0.244339 0.244339 0.244339 0.244339 0.244339 0.244339 0.244339 0.244339 0.244339 0.244339 0.244339 0.244339 0.244339 0.244339 0.244339 0.244339 0.244339 0.244339 0.244339 0.244339 0.251976 0.251976 0.251976 0.251976 0.251976 0.251976 0.251976 0.251976 0.251976 0.251976 0.251976 0.251976 0.251976 0.251976 0.251976 0.251976 0.251976 0.251976 0.251976 0.251976 0.264906 0.264906 0.264906 0.264906 0.264906 0.264906 0.264906 0.264906 0.264906 0.264906 0.264906 0.264906 0.264906 0.264906 0.264906 0.264906 0.264906 0.264906 0.264906 0.264906 0.264906 0.264906 0.264906 0.264906 0.264906 0.264906 0.264906 0.264906 0.264906 0.264906 0.264906 0.264906 0.264906 0.264906 0.264906 0.264906 0.264906 0.264906 0.264906 0.264906 0.264906 0.264906 0.264906 0.264906 0.264906 0.264906 0.264906 0.264906 0.264906 0.264906 0.264906 0.264906 0.264906 0.264906 0.264906 0.264906 0.264906 0.264906 0.264906 0.264906 0.264906 0.264906 0.264906 0.264906 0.264906 0.264906 0.264906 0.264906 0.264906 0.264906 0.264906 0.264906 0.264906 0.264906 0.264906 0.260378 0.260378 0.260378 0.260378 0.260378 0.260378 0.260378 0.260378 0.260378 0.260378 0.260378 0.260378 0.260378 0.264906 0.264906 0.264906 0.264906 0.264906 0.264906 0.264906 0.264906 0.264906 0.264906 0.264906 0.264906 0.269680 0.269680 0.269680 0.269680 0.269680 0.269680 0.269680 0.269680 0.269680 0.269680 0.269680 0.264906 0.264906 0.264906 0.264906 0.264906 0.264906 0.264906 0.264906 0.264906 0.264906 0.264906 0.269680 0.269680 0.269680 0.269680 0.269680 0.269680 0.269680 0.269680 0.269680 0.269680 0.251976 0.251976 0.251976 0.251976 0.251976 0.251976 0.251976 0.251976 0.251976 0.251976 0.251976 0.269680 0.269680 0.269680 0.269680 0.269680 0.269680 0.269680 0.269680 0.269680 0.256074 0.256074 0.256074 0.256074 0.256074 0.256074 0.256074 0.256074 0.256074 0.256074 0.260378 0.260378 0.260378 0.260378 0.260378 0.260378 0.260378 0.260378 0.260378 0.256074 0.256074 0.256074 0.256074 0.256074 0.256074 0.256074 0.256074 0.256074 0.251976 0.251976 0.251976 0.251976 0.251976 0.251976 0.251976 0.251976 0.251976 0.251976 0.251976 0.251976 0.251976 0.251976 0.251976 0.251976
