# Output from CTFFind version 4.1.9, run on 2019-11-03 19:28:13
# Input file: stack11_bm3d_averaged_1_3.75_0_1250_half.mrc ; Number of micrographs: 1
# Pixel size: 3.000 Angstroms ; acceleration voltage: 300.0 keV ; spherical aberration: 0.00 mm ; amplitude contrast: 0.07
# Box size: 512 pixels ; min. res.: 30.0 Angstroms ; max. res.: 5.0 Angstroms ; min. def.: 5000.0 um; max. def. 50000.0 um; num. frames averaged: 1
# 6 lines per micrograph: #1 - spatial frequency (1/Angstroms); #2 - 1D rotational average of spectrum (assuming no astigmatism); #3 - 1D rotational average of spectrum; #4 - CTF fit; #5 - cross-correlation between spectrum and CTF fit; #6 - 2sigma of expected cross correlation of noise
0.000000 0.000651 0.001302 0.001953 0.002604 0.003255 0.003906 0.004557 0.005208 0.005859 0.006510 0.007161 0.007812 0.008464 0.009115 0.009766 0.010417 0.011068 0.011719 0.012370 0.013021 0.013672 0.014323 0.014974 0.015625 0.016276 0.016927 0.017578 0.018229 0.018880 0.019531 0.020182 0.020833 0.021484 0.022135 0.022786 0.023438 0.024089 0.024740 0.025391 0.026042 0.026693 0.027344 0.027995 0.028646 0.029297 0.029948 0.030599 0.031250 0.031901 0.032552 0.033203 0.033854 0.034505 0.035156 0.035807 0.036458 0.037109 0.037760 0.038411 0.039062 0.039714 0.040365 0.041016 0.041667 0.042318 0.042969 0.043620 0.044271 0.044922 0.045573 0.046224 0.046875 0.047526 0.048177 0.048828 0.049479 0.050130 0.050781 0.051432 0.052083 0.052734 0.053385 0.054036 0.054688 0.055339 0.055990 0.056641 0.057292 0.057943 0.058594 0.059245 0.059896 0.060547 0.061198 0.061849 0.062500 0.063151 0.063802 0.064453 0.065104 0.065755 0.066406 0.067057 0.067708 0.068359 0.069010 0.069661 0.070312 0.070964 0.071615 0.072266 0.072917 0.073568 0.074219 0.074870 0.075521 0.076172 0.076823 0.077474 0.078125 0.078776 0.079427 0.080078 0.080729 0.081380 0.082031 0.082682 0.083333 0.083984 0.084635 0.085286 0.085938 0.086589 0.087240 0.087891 0.088542 0.089193 0.089844 0.090495 0.091146 0.091797 0.092448 0.093099 0.093750 0.094401 0.095052 0.095703 0.096354 0.097005 0.097656 0.098307 0.098958 0.099609 0.100260 0.100911 0.101562 0.102214 0.102865 0.103516 0.104167 0.104818 0.105469 0.106120 0.106771 0.107422 0.108073 0.108724 0.109375 0.110026 0.110677 0.111328 0.111979 0.112630 0.113281 0.113932 0.114583 0.115234 0.115885 0.116536 0.117188 0.117839 0.118490 0.119141 0.119792 0.120443 0.121094 0.121745 0.122396 0.123047 0.123698 0.124349 0.125000 0.125651 0.126302 0.126953 0.127604 0.128255 0.128906 0.129557 0.130208 0.130859 0.131510 0.132161 0.132812 0.133464 0.134115 0.134766 0.135417 0.136068 0.136719 0.137370 0.138021 0.138672 0.139323 0.139974 0.140625 0.141276 0.141927 0.142578 0.143229 0.143880 0.144531 0.145182 0.145833 0.146484 0.147135 0.147786 0.148438 0.149089 0.149740 0.150391 0.151042 0.151693 0.152344 0.152995 0.153646 0.154297 0.154948 0.155599 0.156250 0.156901 0.157552 0.158203 0.158854 0.159505 0.160156 0.160807 0.161458 0.162109 0.162760 0.163411 0.164062 0.164714 0.165365 0.166016 0.166667 0.167318 0.167969 0.168620 0.169271 0.169922 0.170573 0.171224 0.171875 0.172526 0.173177 0.173828 0.174479 0.175130 0.175781 0.176432 0.177083 0.177734 0.178385 0.179036 0.179688 0.180339 0.180990 0.181641 0.182292 0.182943 0.183594 0.184245 0.184896 0.185547 0.186198 0.186849 0.187500 0.188151 0.188802 0.189453 0.190104 0.190755 0.191406 0.192057 0.192708 0.193359 0.194010 0.194661 0.195312 0.195964 0.196615 0.197266 0.197917 0.198568 0.199219 0.199870 0.200521 0.201172 0.201823 0.202474 0.203125 0.203776 0.204427 0.205078 0.205729 0.206380 0.207031 0.207682 0.208333 0.208984 0.209635 0.210286 0.210938 0.211589 0.212240 0.212891 0.213542 0.214193 0.214844 0.215495 0.216146 0.216797 0.217448 0.218099 0.218750 0.219401 0.220052 0.220703 0.221354 0.222005 0.222656 0.223307 0.223958 0.224609 0.225260 0.225911 0.226562 0.227214 0.227865 0.228516 0.229167 0.229818 0.230469 0.231120 0.231771 0.232422 0.233073 0.233724 0.234375 0.235026 0.235677
       0.32823        0.32823        0.32823        0.32823        0.32823        0.32823        0.32823        0.32823        0.32823        0.32823        0.32823        0.32823        0.32823        0.32823        0.32823        0.32823        0.32823        0.32823        0.32823        0.32823        0.32823        0.32823        0.32823        0.32823        0.32823        0.32823        0.32823        0.32823        0.32823        0.32823        0.32823        0.32823        0.32823        0.32823        0.32823        0.32823        0.32823        0.32823        0.32823        0.32823        0.32823        0.32823        0.32823        0.32823        0.32823        0.32823        0.32823        0.32823        0.32823        0.32823        0.32823        0.68790        0.86031        0.52855        0.09911       -0.04209       -0.40861       -0.18985       -0.29136       -0.11394       -0.06355       -0.11320       -0.05888       -0.18758       -0.21821       -0.23483       -0.31978       -0.33093       -0.46331       -0.37122       -0.44482       -0.43733       -0.40997       -0.43986       -0.48956       -0.53423       -0.57063       -0.58586       -0.55501       -0.38429       -0.35712       -0.31539       -0.29492       -0.19934       -0.19100        0.04007        0.11183        0.14334        0.24399        0.37425        0.45013        0.51389        0.57475        0.57262        0.56776        0.69098        0.80498        0.71599        0.73479        0.63700        0.56687        0.48165        0.41957        0.50454        0.38805        0.23688        0.09497        0.07669        0.05380       -0.04253        0.00124        0.01918       -0.02955        0.00629       -0.00124        0.23241        0.26024        0.28877        0.42338        0.44667        0.40546        0.56711        0.62439        0.66355        0.73918        0.68149        0.64954        0.67511        0.56670        0.47394        0.41690        0.29278        0.23135        0.16510        0.12283        0.04992        0.03314        0.03246        0.08276        0.13699        0.22183        0.27415        0.39760        0.44623        0.48851        0.58859        0.61589        0.63301        0.62030        0.55962        0.45200        0.46127        0.36762        0.24479        0.19204        0.15142        0.14487        0.13868        0.11970        0.14633        0.27890        0.29102        0.37301        0.40504        0.43076        0.50030        0.54699        0.55071        0.48380        0.44781        0.39537        0.34785        0.31503        0.27825        0.22444        0.22040        0.20343        0.22570        0.20579        0.29356        0.35059        0.38340        0.43447        0.45222        0.47381        0.41901        0.39492        0.40521        0.36095        0.29229        0.26490        0.23933        0.24015        0.21244        0.25560        0.25800        0.33474        0.37003        0.39561        0.47311        0.42088        0.42934        0.43033        0.40270        0.34312        0.31771        0.28579        0.29245        0.25978        0.29360        0.29117        0.31466        0.32108        0.33968        0.31907        0.40257        0.41662        0.38023        0.34527        0.36999        0.29824        0.28404        0.27745        0.30491        0.28463        0.29796        0.31174        0.32482        0.33790        0.36436        0.37031        0.37916        0.36663        0.31519        0.32894        0.28585        0.26202        0.31099        0.30454        0.31764        0.32092        0.32149        0.35437        0.32417        0.32090        0.30645        0.31854        0.28788        0.29829        0.26633        0.29455        0.30500        0.29029        0.31176        0.33124        0.33603        0.27482        0.30974        0.28052        0.29347        0.27283        0.22898        0.28553        0.29054        0.34174        0.32571        0.32374        0.31831        0.32865        0.28844        0.32871        0.32314        0.28489        0.26970        0.31230        0.29849        0.34584        0.32713        0.32968        0.33438        0.29080        0.27186        0.30024        0.24417        0.21840        0.31207        0.31471        0.31832        0.31269        0.32457        0.29842        0.34117        0.33380        0.26177        0.23488        0.29846        0.30159        0.29411        0.31954        0.33613        0.33432        0.30430        0.28972        0.33441        0.31503        0.28135        0.26257        0.31579        0.35282        0.38978        0.30556        0.27600        0.27154        0.30696        0.25403        0.28886        0.26552        0.24706        0.31428        0.33496        0.34045        0.32803        0.28573        0.26587        0.27458        0.24922        0.24068        0.24219        0.31564        0.29054        0.21736        0.32791        0.32206        0.25966        0.26565        0.20157        0.20388        0.24806        0.18242        0.23946        0.26829        0.22085        0.19857        0.29029        0.34317        0.33433        0.33574        0.24493        0.20537        0.18011        0.22966        0.21261        0.15642        0.19248        0.24436        0.22458        0.21163        0.15973        0.09935        0.12192        0.03951       -0.09759       -0.62437
2.658456 2.630606 2.602908 2.575360 2.547964 2.520719 2.493625 2.466683 2.439891 2.413250 2.386761 2.360422 2.334235 2.308199 2.282314 2.256580 2.230997 2.205566 2.180285 2.155156 2.130177 2.105350 2.080674 2.056149 2.031775 2.007552 1.983480 1.959560 1.935790 1.912172 1.888705 1.865389 1.842224 1.819210 1.796347 1.773635 1.751075 1.728665 1.706407 1.684300 1.662343 1.640539 1.618885 1.597382 1.576030 1.554830 1.533780 1.512882 1.492135 1.471539 1.451094 1.668892 2.087211 1.650454 1.155066 1.019838 0.426203 0.830529 0.556080 0.838865 0.789927 0.803552 0.752805 0.726615 0.579681 0.536988 0.489599 0.428259 0.229664 0.372590 0.199882 0.317260 0.225324 0.192389 0.160398 0.026309 0.024411 0.005258 -0.067015 0.120738 0.219054 0.186542 0.163333 0.333021 0.185848 0.506035 0.609472 0.598841 0.622027 0.876261 0.828384 0.941935 0.907400 1.007043 0.967966 1.082274 1.148425 1.050978 1.151715 0.927379 0.933630 0.792814 0.657070 0.794663 0.711558 0.479586 0.326937 0.251526 0.252825 0.149172 0.115394 0.153338 0.101882 0.138829 0.067668 0.266578 0.375431 0.353737 0.478779 0.558090 0.437387 0.582943 0.721566 0.712513 0.758100 0.717187 0.733903 0.683562 0.615043 0.537099 0.402915 0.284576 0.228771 0.086009 0.131585 -0.062440 -0.036340 -0.059558 -0.056942 -0.013328 0.151897 0.070866 0.264587 0.307428 0.353704 0.427306 0.520931 0.487536 0.519660 0.512479 0.329238 0.311407 0.295100 0.099378 0.053021 -0.038957 -0.005380 -0.041314 -0.073938 -0.084846 0.040540 0.078927 0.132262 0.201893 0.237443 0.280731 0.319062 0.425400 0.402792 0.294327 0.250656 0.227410 0.172436 0.140490 0.113152 0.013351 0.022787 0.055889 0.004813 0.078252 0.157102 0.154510 0.254639 0.253535 0.308072 0.188582 0.228313 0.156467 0.202084 0.117027 0.052793 0.006351 0.005502 -0.001311 -0.037247 0.050248 0.027330 0.140508 0.153451 0.185911 0.236145 0.169337 0.172950 0.180119 0.134197 0.065624 0.014456 0.053405 0.005576 -0.012306 0.023134 0.042762 0.058775 0.052124 0.062557 0.097205 0.131042 0.174361 0.071761 0.074775 0.066065 0.014142 -0.013817 0.015658 0.018444 0.012464 0.015461 0.035941 0.059592 0.070495 0.116106 0.067203 0.137666 0.067859 0.029478 0.053948 -0.024823 0.003640 0.050959 0.008763 0.055056 0.058441 0.032551 0.103486 0.059832 0.027673 0.057852 0.021896 0.033050 0.020996 -0.004862 0.055805 0.014037 0.022333 0.067499 0.076550 0.038735 0.047188 0.039906 0.041375 0.030269 -0.005844 -0.018596 0.038576 0.062691 0.097745 0.084954 0.084972 0.068763 0.098929 0.046388 0.107605 0.096445 0.023494 0.034606 0.090705 0.074516 0.104535 0.092926 0.123481 0.100471 0.063435 0.017226 0.087140 -0.029914 0.000860 0.096826 0.066999 0.099391 0.076751 0.076026 0.021585 0.117665 0.078542 -0.012198 -0.038993 0.053849 0.070882 0.038487 0.040613 0.088870 0.097109 0.013461 0.051387 0.075811 0.059281 0.030079 -0.018840 0.070973 0.109467 0.114824 0.009940 -0.004403 -0.012853 0.052637 -0.046258 0.023752 -0.025861 -0.024995 0.029569 0.072803 0.012751 0.016674 -0.028717 -0.033411 -0.055684 -0.030723 -0.080306 -0.073665 0.038170 0.034788 -0.088300 0.058517 0.007095 -0.051886 0.019366 -0.110788 -0.066795 -0.048517 -0.087090 -0.021978 0.016201 -0.015908 -0.111504 0.050928 0.171989 0.005864 0.130328 0.020979 0.223798 0.165172 0.249929 0.250108 0.160771 0.199620 0.285687 0.211554 0.240460 0.147073 0.156028 0.182504 0.038855 -0.669301
0.072396 0.072898 0.074405 0.076915 0.080429 0.084945 0.090462 0.096979 0.104493 0.113002 0.122502 0.132988 0.144457 0.156901 0.170312 0.184682 0.199999 0.216251 0.233422 0.251495 0.270451 0.290266 0.310915 0.332368 0.354593 0.377551 0.401202 0.425500 0.450395 0.475830 0.501744 0.528071 0.554738 0.581667 0.608772 0.635961 0.663137 0.690194 0.717022 0.743501 0.769506 0.794905 0.819560 0.843325 0.866049 0.887576 0.907744 0.926387 0.943333 0.958409 0.971439 0.982245 0.990649 0.996475 0.999547 0.999693 0.996749 0.990555 0.980960 0.967824 0.951019 0.930432 0.905968 0.877547 0.845113 0.808633 0.768098 0.723528 0.674972 0.622510 0.566258 0.506366 0.443019 0.376444 0.306906 0.234708 0.160195 0.083754 0.005809 0.073176 0.152699 0.232223 0.311180 0.388969 0.464967 0.538529 0.608992 0.675687 0.737938 0.795074 0.846437 0.891385 0.929307 0.959629 0.981822 0.995415 1.000000 0.995246 0.980906 0.956825 0.922950 0.879339 0.826161 0.763711 0.692404 0.612788 0.525535 0.431448 0.331454 0.226598 0.118040 0.007041 0.105046 0.216794 0.326714 0.433278 0.534940 0.630155 0.717410 0.795243 0.862275 0.917238 0.958997 0.986583 0.999215 0.996326 0.977586 0.942918 0.892516 0.826855 0.746699 0.653099 0.547395 0.431198 0.306376 0.175034 0.039480 0.097810 0.234234 0.367110 0.493734 0.611428 0.717603 0.809825 0.885867 0.943776 0.981928 0.999081 0.994423 0.967613 0.918808 0.848686 0.758451 0.649832 0.525062 0.386842 0.238300 0.082923 0.075515 0.233035 0.385561 0.529016 0.659440 0.773099 0.866605 0.937024 0.981981 0.999748 0.989329 0.950518 0.883935 0.791045 0.674150 0.536348 0.381472 0.213997 0.038925 0.138357 0.312238 0.477053 0.627281 0.757726 0.863714 0.941270 0.987285 0.999658 0.977410 0.920763 0.831175 0.711336 0.565112 0.397447 0.214218 0.022039 0.171956 0.360384 0.535880 0.691402 0.820515 0.917681 0.978509 0.999983 0.980634 0.920655 0.821950 0.688120 0.524351 0.337261 0.134640 0.074840 0.282000 0.477543 0.652469 0.798517 0.908560 0.976983 0.999998 0.975885 0.905142 0.790535 0.637033 0.451635 0.243084 0.021482 0.202178 0.416558 0.610536 0.773804 0.897434 0.974397 0.999991 0.972176 0.891762 0.762452 0.590726 0.385558 0.157998 0.079411 0.313293 0.530196 0.717364 0.863514 0.959547 0.999151 0.979264 0.900354 0.766493 0.585206 0.367109 0.125326 0.125263 0.368920 0.590043 0.774156 0.908908 0.984926 0.996521 0.942175 0.824749 0.651412 0.433277 0.184733 0.077455 0.335255 0.570589 0.766630 0.909024 0.986988 0.994186 0.929307 0.796293 0.604188 0.366592 0.100762 0.173600 0.435784 0.665632 0.845114 0.959782 0.999992 0.961787 0.847359 0.665018 0.428686 0.156898 0.128589 0.404511 0.647999 0.838470 0.959435 0.999984 0.955849 0.829936 0.632241 0.379155 0.092190 0.203814 0.482782 0.719732 0.893018 0.986387 0.990573 0.904312 0.734647 0.496460 0.211279 0.094615 0.392555 0.654153 0.854051 0.972421 0.997016 0.924545 0.761189 0.522217 0.230649 0.084864 0.392809 0.661947 0.864495 0.979079 0.993066 0.904074 0.720448 0.460609 0.151323 0.174970 0.483514 0.740934 0.918892 0.997284 0.966623 0.829314 0.599637 0.302399 0.029628 0.359270 0.649057 0.865532 0.983172 0.987518 0.877077 0.663770 0.371799 0.035033 0.306845 0.612955 0.846153 0.977584 0.990382 0.881975 0.664693 0.364519 0.018147 0.331443 0.640244 0.868818 0.987388 0.979864 0.846173 0.602594 0.279927 0.080232
1.000000 1.000000 1.000000 1.000000 1.000000 1.000000 1.000000 1.000000 1.000000 1.000000 1.000000 1.000000 1.000000 1.000000 1.000000 1.000000 1.000000 1.000000 1.000000 1.000000 1.000000 1.000000 1.000000 1.000000 1.000000 1.000000 1.000000 1.000000 1.000000 1.000000 1.000000 1.000000 1.000000 1.000000 1.000000 1.000000 1.000000 1.000000 1.000000 1.000000 1.000000 1.000000 1.000000 1.000000 1.000000 1.000000 1.000000 1.000000 1.000000 1.000000 1.000000 1.000000 0.922925 0.922925 0.922925 0.914366 0.914366 0.914366 0.914366 0.914366 0.914366 0.914366 0.914366 0.914366 0.914366 0.914366 0.914366 0.914366 0.914366 0.914366 0.914366 0.914366 0.914366 0.914366 0.914366 0.914366 0.914366 0.914366 0.914366 0.914366 0.914366 0.914366 0.914366 0.914366 0.914366 0.914366 0.914366 0.914366 0.914366 0.914366 0.914366 0.914366 0.914366 0.914366 0.914366 0.914366 0.941694 0.943203 0.951283 0.951111 0.950521 0.948254 0.947249 0.946747 0.946608 0.946910 0.947598 0.948548 0.957476 0.958668 0.961535 0.962466 0.963295 0.964063 0.964852 0.965752 0.961561 0.958730 0.955143 0.954998 0.957868 0.957477 0.957629 0.958724 0.958605 0.958297 0.958798 0.958551 0.957804 0.956928 0.956100 0.955715 0.955493 0.956195 0.956564 0.958023 0.961366 0.961872 0.961956 0.962110 0.962193 0.963510 0.961811 0.961609 0.957359 0.957856 0.957544 0.957873 0.961665 0.961415 0.961929 0.962452 0.963890 0.964148 0.954554 0.951756 0.941568 0.940033 0.934280 0.926868 0.922376 0.924173 0.926377 0.927860 0.928494 0.924004 0.924032 0.920931 0.916652 0.919901 0.918494 0.918211 0.919605 0.920316 0.920698 0.919439 0.917999 0.910973 0.900633 0.899745 0.902862 0.907518 0.909455 0.909745 0.908167 0.878367 0.878377 0.884861 0.878764 0.868191 0.863833 0.862537 0.867787 0.868089 0.870824 0.870273 0.861316 0.847758 0.833832 0.827229 0.828477 0.823240 0.823764 0.822657 0.819508 0.829810 0.826787 0.832584 0.831699 0.843323 0.844071 0.835009 0.831320 0.829859 0.823568 0.807537 0.810711 0.795465 0.796170 0.795260 0.792294 0.786235 0.791751 0.773386 0.767870 0.756288 0.758377 0.761951 0.756705 0.753854 0.754722 0.756171 0.760855 0.745506 0.735479 0.720652 0.725570 0.735509 0.735253 0.730378 0.707750 0.674235 0.633532 0.651479 0.676732 0.627339 0.650758 0.661240 0.640243 0.638572 0.630044 0.628003 0.629978 0.631874 0.637039 0.644436 0.644787 0.663710 0.642497 0.633317 0.642374 0.636056 0.639453 0.623511 0.626888 0.604972 0.598127 0.623061 0.597716 0.596982 0.594144 0.604634 0.631769 0.594689 0.597896 0.611076 0.599899 0.604754 0.603388 0.592568 0.592767 0.600637 0.589275 0.604979 0.620146 0.594364 0.564741 0.545633 0.522982 0.512838 0.558629 0.559720 0.547787 0.517184 0.521059 0.538672 0.542157 0.534672 0.504167 0.516872 0.518781 0.555238 0.542876 0.495671 0.515310 0.512246 0.511472 0.461002 0.455309 0.438442 0.422948 0.379947 0.380921 0.394498 0.381062 0.343889 0.322839 0.323456 0.322581 0.329342 0.316896 0.289894 0.285020 0.310248 0.316723 0.302908 0.266199 0.259718 0.244087 0.230084 0.229291 0.193915 0.227881 0.292929 0.294474 0.294474 0.294474 0.294474 0.294474 0.294474 0.298971 0.298971 0.298971 0.298971 0.298971 0.298971 0.298971 0.298971 0.298971 0.314469 0.314469 0.314469 0.314469 0.314469 0.314469 0.314469 0.314469 0.314469 0.314469 0.314469 0.314469 0.314469 0.314469
0.000000 0.000000 0.000000 0.000000 0.000000 0.000000 0.000000 0.000000 0.000000 0.000000 0.000000 0.000000 0.000000 0.000000 0.000000 0.000000 0.000000 0.000000 0.000000 0.000000 0.000000 0.000000 0.000000 0.000000 0.000000 7.000000 4.000000 0.000000 0.000000 0.000000 0.000000 0.000000 0.000000 0.000000 0.000000 0.000000 0.000000 0.000000 0.000000 0.000000 0.000000 0.000000 0.000000 0.000000 0.000000 0.000000 0.000000 0.000000 0.000000 0.000000 0.000000 0.000000 0.180334 0.180334 0.180334 0.199007 0.199007 0.199007 0.199007 0.199007 0.199007 0.199007 0.199007 0.199007 0.199007 0.199007 0.199007 0.199007 0.199007 0.199007 0.199007 0.199007 0.199007 0.199007 0.199007 0.199007 0.199007 0.199007 0.199007 0.199007 0.199007 0.199007 0.199007 0.199007 0.199007 0.199007 0.199007 0.199007 0.199007 0.199007 0.199007 0.199007 0.199007 0.199007 0.199007 0.199007 0.225018 0.225018 0.225018 0.225018 0.225018 0.225018 0.225018 0.225018 0.225018 0.225018 0.225018 0.225018 0.225018 0.225018 0.225018 0.225018 0.225018 0.225018 0.225018 0.225018 0.225018 0.225018 0.225018 0.225018 0.225018 0.225018 0.225018 0.225018 0.225018 0.244339 0.244339 0.244339 0.244339 0.244339 0.244339 0.244339 0.244339 0.244339 0.244339 0.244339 0.244339 0.244339 0.244339 0.244339 0.244339 0.244339 0.244339 0.244339 0.244339 0.244339 0.244339 0.244339 0.251976 0.251976 0.251976 0.251976 0.251976 0.251976 0.251976 0.251976 0.251976 0.251976 0.251976 0.251976 0.251976 0.251976 0.251976 0.251976 0.251976 0.251976 0.251976 0.251976 0.264906 0.264906 0.264906 0.264906 0.264906 0.264906 0.264906 0.264906 0.264906 0.264906 0.264906 0.264906 0.264906 0.264906 0.264906 0.264906 0.264906 0.256074 0.256074 0.256074 0.256074 0.256074 0.256074 0.256074 0.256074 0.256074 0.256074 0.256074 0.256074 0.256074 0.256074 0.256074 0.256074 0.256074 0.269680 0.269680 0.269680 0.269680 0.269680 0.269680 0.269680 0.269680 0.269680 0.269680 0.269680 0.269680 0.269680 0.269680 0.264906 0.264906 0.264906 0.264906 0.264906 0.264906 0.264906 0.264906 0.264906 0.264906 0.264906 0.264906 0.264906 0.264906 0.256074 0.256074 0.256074 0.256074 0.256074 0.256074 0.256074 0.256074 0.256074 0.256074 0.256074 0.256074 0.256074 0.256074 0.269680 0.269680 0.269680 0.269680 0.269680 0.269680 0.269680 0.269680 0.269680 0.269680 0.269680 0.269680 0.264906 0.264906 0.264906 0.264906 0.264906 0.264906 0.264906 0.264906 0.264906 0.264906 0.264906 0.264906 0.260378 0.260378 0.260378 0.260378 0.260378 0.260378 0.260378 0.260378 0.260378 0.260378 0.260378 0.260378 0.274721 0.274721 0.274721 0.274721 0.274721 0.274721 0.274721 0.274721 0.274721 0.274721 0.256074 0.256074 0.256074 0.256074 0.256074 0.256074 0.256074 0.256074 0.256074 0.256074 0.256074 0.264906 0.264906 0.264906 0.264906 0.264906 0.264906 0.264906 0.264906 0.264906 0.264906 0.260378 0.260378 0.260378 0.260378 0.260378 0.260378 0.260378 0.260378 0.260378 0.260378 0.256074 0.256074 0.256074 0.256074 0.256074 0.256074 0.256074 0.256074 0.256074 0.256074 0.260378 0.260378 0.260378 0.260378 0.260378 0.260378 0.260378 0.260378 0.260378 0.256074 0.256074 0.256074 0.256074 0.256074 0.256074 0.256074 0.256074 0.256074 0.251976 0.251976 0.251976 0.251976 0.251976 0.251976 0.251976 0.251976 0.251976 0.251976 0.251976 0.251976 0.251976 0.251976
