# Output from CTFFind version 4.1.9, run on 2019-11-03 20:09:14
# Input file: stack16_bm3d_averaged_1_6.5_0_2000_half.mrc ; Number of micrographs: 1
# Pixel size: 3.000 Angstroms ; acceleration voltage: 300.0 keV ; spherical aberration: 0.00 mm ; amplitude contrast: 0.07
# Box size: 512 pixels ; min. res.: 30.0 Angstroms ; max. res.: 5.0 Angstroms ; min. def.: 5000.0 um; max. def. 50000.0 um; num. frames averaged: 1
# 6 lines per micrograph: #1 - spatial frequency (1/Angstroms); #2 - 1D rotational average of spectrum (assuming no astigmatism); #3 - 1D rotational average of spectrum; #4 - CTF fit; #5 - cross-correlation between spectrum and CTF fit; #6 - 2sigma of expected cross correlation of noise
0.000000 0.000651 0.001302 0.001953 0.002604 0.003255 0.003906 0.004557 0.005208 0.005859 0.006510 0.007161 0.007812 0.008464 0.009115 0.009766 0.010417 0.011068 0.011719 0.012370 0.013021 0.013672 0.014323 0.014974 0.015625 0.016276 0.016927 0.017578 0.018229 0.018880 0.019531 0.020182 0.020833 0.021484 0.022135 0.022786 0.023438 0.024089 0.024740 0.025391 0.026042 0.026693 0.027344 0.027995 0.028646 0.029297 0.029948 0.030599 0.031250 0.031901 0.032552 0.033203 0.033854 0.034505 0.035156 0.035807 0.036458 0.037109 0.037760 0.038411 0.039062 0.039714 0.040365 0.041016 0.041667 0.042318 0.042969 0.043620 0.044271 0.044922 0.045573 0.046224 0.046875 0.047526 0.048177 0.048828 0.049479 0.050130 0.050781 0.051432 0.052083 0.052734 0.053385 0.054036 0.054688 0.055339 0.055990 0.056641 0.057292 0.057943 0.058594 0.059245 0.059896 0.060547 0.061198 0.061849 0.062500 0.063151 0.063802 0.064453 0.065104 0.065755 0.066406 0.067057 0.067708 0.068359 0.069010 0.069661 0.070312 0.070964 0.071615 0.072266 0.072917 0.073568 0.074219 0.074870 0.075521 0.076172 0.076823 0.077474 0.078125 0.078776 0.079427 0.080078 0.080729 0.081380 0.082031 0.082682 0.083333 0.083984 0.084635 0.085286 0.085938 0.086589 0.087240 0.087891 0.088542 0.089193 0.089844 0.090495 0.091146 0.091797 0.092448 0.093099 0.093750 0.094401 0.095052 0.095703 0.096354 0.097005 0.097656 0.098307 0.098958 0.099609 0.100260 0.100911 0.101562 0.102214 0.102865 0.103516 0.104167 0.104818 0.105469 0.106120 0.106771 0.107422 0.108073 0.108724 0.109375 0.110026 0.110677 0.111328 0.111979 0.112630 0.113281 0.113932 0.114583 0.115234 0.115885 0.116536 0.117188 0.117839 0.118490 0.119141 0.119792 0.120443 0.121094 0.121745 0.122396 0.123047 0.123698 0.124349 0.125000 0.125651 0.126302 0.126953 0.127604 0.128255 0.128906 0.129557 0.130208 0.130859 0.131510 0.132161 0.132812 0.133464 0.134115 0.134766 0.135417 0.136068 0.136719 0.137370 0.138021 0.138672 0.139323 0.139974 0.140625 0.141276 0.141927 0.142578 0.143229 0.143880 0.144531 0.145182 0.145833 0.146484 0.147135 0.147786 0.148438 0.149089 0.149740 0.150391 0.151042 0.151693 0.152344 0.152995 0.153646 0.154297 0.154948 0.155599 0.156250 0.156901 0.157552 0.158203 0.158854 0.159505 0.160156 0.160807 0.161458 0.162109 0.162760 0.163411 0.164062 0.164714 0.165365 0.166016 0.166667 0.167318 0.167969 0.168620 0.169271 0.169922 0.170573 0.171224 0.171875 0.172526 0.173177 0.173828 0.174479 0.175130 0.175781 0.176432 0.177083 0.177734 0.178385 0.179036 0.179688 0.180339 0.180990 0.181641 0.182292 0.182943 0.183594 0.184245 0.184896 0.185547 0.186198 0.186849 0.187500 0.188151 0.188802 0.189453 0.190104 0.190755 0.191406 0.192057 0.192708 0.193359 0.194010 0.194661 0.195312 0.195964 0.196615 0.197266 0.197917 0.198568 0.199219 0.199870 0.200521 0.201172 0.201823 0.202474 0.203125 0.203776 0.204427 0.205078 0.205729 0.206380 0.207031 0.207682 0.208333 0.208984 0.209635 0.210286 0.210938 0.211589 0.212240 0.212891 0.213542 0.214193 0.214844 0.215495 0.216146 0.216797 0.217448 0.218099 0.218750 0.219401 0.220052 0.220703 0.221354 0.222005 0.222656 0.223307 0.223958 0.224609 0.225260 0.225911 0.226562 0.227214 0.227865 0.228516 0.229167 0.229818 0.230469 0.231120 0.231771 0.232422 0.233073 0.233724 0.234375 0.235026 0.235677
       0.35057        0.35057        0.35057        0.35057        0.35057        0.35057        0.35057        0.35057        0.35057        0.35057        0.35057        0.35057        0.35057        0.35057        0.35057        0.35057        0.35057        0.35057        0.35057        0.35057        0.35057        0.35057        0.35057        0.35057        0.35057        0.35057        0.35057        0.35057        0.35057        0.35057        0.35057        0.35057        0.35057        0.35057        0.35057        0.35057        0.35057        0.35057        0.35057        0.35057        0.35057        0.35057        0.35057        0.35057        0.35057        0.35057        0.35057        0.35057        0.35057        0.35057        0.35057        0.42929        0.55657        0.34282       -0.21572       -0.45131       -0.54326       -0.64500       -0.71387       -0.72025       -0.81375       -0.88811       -0.67936       -0.83415       -0.81791       -0.95997       -0.99894       -0.88022       -0.83909       -0.79703       -0.70904       -0.63993       -0.55069       -0.45726       -0.39290       -0.16473       -0.06245        0.04027        0.26167        0.25951        0.31713        0.37225        0.40385        0.52358        0.53895        0.57439        0.53343        0.47425        0.50640        0.52959        0.45297        0.33316        0.21753        0.18402        0.11361        0.01416       -0.00174       -0.01101        0.06050        0.02710        0.07867        0.05159        0.16817        0.19848        0.40976        0.46041        0.54919        0.65774        0.68620        0.71327        0.63869        0.61182        0.54364        0.44225        0.39009        0.28055        0.22124        0.21726        0.10538        0.11596        0.11615        0.09032        0.09925        0.30722        0.41830        0.52551        0.53419        0.56942        0.60737        0.58748        0.57249        0.58410        0.56805        0.46864        0.30924        0.26828        0.25874        0.15526        0.09539        0.17308        0.21293        0.28888        0.35525        0.42799        0.47430        0.53182        0.60250        0.54690        0.50634        0.50478        0.35688        0.28076        0.26378        0.17926        0.20373        0.24079        0.27933        0.28572        0.33055        0.43086        0.46492        0.49957        0.45339        0.44302        0.48840        0.39685        0.33090        0.28974        0.26341        0.23653        0.23032        0.24116        0.34006        0.44802        0.43484        0.48937        0.55437        0.45091        0.41431        0.35756        0.31862        0.27487        0.28470        0.27290        0.29157        0.35488        0.36235        0.43986        0.47355        0.44162        0.46371        0.37941        0.38043        0.35535        0.27467        0.25599        0.25368        0.33589        0.38149        0.36626        0.39125        0.43417        0.44388        0.38149        0.34026        0.32400        0.35450        0.31793        0.28559        0.28941        0.35900        0.37599        0.39404        0.38967        0.39317        0.42185        0.40807        0.32644        0.29185        0.31647        0.34381        0.38283        0.36266        0.40498        0.34628        0.37210        0.39424        0.34134        0.35652        0.32321        0.30352        0.33950        0.34658        0.33164        0.35982        0.37670        0.33075        0.35012        0.32372        0.31908        0.30018        0.32313        0.32304        0.32938        0.36833        0.37558        0.35875        0.31158        0.30333        0.28893        0.33293        0.31593        0.31743        0.37321        0.35954        0.34314        0.31840        0.30792        0.31013        0.27942        0.32012        0.33421        0.34479        0.37318        0.35433        0.31660        0.33913        0.35389        0.33609        0.35753        0.34890        0.31614        0.33525        0.29425        0.32270        0.30018        0.31688        0.28838        0.32227        0.35197        0.33026        0.35690        0.31584        0.33429        0.35567        0.34358        0.32023        0.32655        0.36644        0.34670        0.34515        0.33108        0.31371        0.31996        0.31781        0.32731        0.32479        0.36077        0.33629        0.33708        0.29585        0.29058        0.27070        0.27521        0.36483        0.31423        0.34098        0.29838        0.26496        0.27761        0.36557        0.31088        0.28587        0.31917        0.31890        0.29682        0.26309        0.30506        0.27166        0.29810        0.30889        0.34118        0.33671        0.32227        0.31484        0.26812        0.28079        0.27615        0.27966        0.29835        0.36239        0.29940        0.20422        0.30561        0.29445        0.33081        0.25975        0.29760        0.29362        0.33436        0.28979        0.27662        0.26926        0.24826        0.30895        0.34105        0.33463        0.25315        0.30677        0.25799        0.23889        0.21929        0.33010        0.25583        0.16600        0.11680        0.20450        0.34130        0.24518        0.19061        0.12614       -0.44226       -0.54358
3.214961 3.174126 3.133556 3.093251 3.053211 3.013436 2.973927 2.934682 2.895703 2.856989 2.818540 2.780356 2.742437 2.704784 2.667395 2.630272 2.593414 2.556821 2.520493 2.484431 2.448633 2.413100 2.377833 2.342831 2.308094 2.273622 2.239416 2.205474 2.171798 2.138386 2.105240 2.072359 2.039744 2.007393 1.975307 1.943487 1.911932 1.880642 1.849616 1.818857 1.788362 1.758132 1.728168 1.698469 1.669035 1.639866 1.610962 1.582323 1.553950 1.525841 1.497998 1.533428 1.607783 1.548186 0.845109 0.598525 0.459753 0.390136 0.293800 0.219997 0.187536 -0.049241 0.209086 0.074484 -0.029434 -0.108015 -0.238228 -0.143999 -0.053594 -0.093888 -0.073297 0.037087 0.035901 0.230408 0.108448 0.357471 0.464134 0.495597 0.772027 0.685270 0.696887 0.825338 0.797398 0.843431 0.919427 0.858685 0.888873 0.726187 0.788032 0.846218 0.689256 0.605559 0.435075 0.427623 0.332960 0.190580 0.186519 0.114184 0.208441 0.119643 0.207972 0.104480 0.215502 0.228097 0.439094 0.401630 0.571742 0.609970 0.634743 0.719283 0.605449 0.576913 0.458896 0.410154 0.287540 0.261251 0.091929 0.151803 -0.029740 0.035835 -0.031471 -0.044177 -0.058520 0.025488 0.263731 0.291145 0.357499 0.297749 0.381326 0.391022 0.413950 0.395100 0.355279 0.326883 0.120524 0.073115 0.061731 -0.022169 -0.153859 -0.053820 -0.066447 0.035047 0.075554 0.148669 0.213094 0.222737 0.315363 0.403975 0.284188 0.360883 0.229496 0.140725 0.064738 0.034874 0.000549 0.050376 0.069380 0.094477 0.117266 0.171288 0.238202 0.303068 0.270769 0.209851 0.252347 0.225991 0.109190 0.059165 0.052973 0.025776 0.005994 -0.021888 0.029682 0.167826 0.192309 0.190036 0.297523 0.187026 0.195163 0.072609 0.065456 0.010501 -0.007437 -0.002540 -0.010504 0.044003 0.069381 0.097994 0.156818 0.140357 0.221716 0.135647 0.077172 0.098723 0.042510 -0.051372 -0.020975 0.026042 0.065764 0.073052 0.066351 0.151359 0.117192 0.152670 0.036672 0.048655 0.045232 0.047050 0.027150 -0.020910 0.040388 0.048637 0.090964 0.102112 0.085726 0.112224 0.124701 0.079974 0.012403 -0.008506 0.023853 0.075847 0.071793 0.089999 0.088596 0.049604 0.104699 0.066212 0.041763 0.078039 -0.014262 0.012859 0.065223 0.039314 0.042781 0.067234 0.077870 0.049403 0.065858 0.015766 0.019695 0.006660 0.054300 0.010689 0.041427 0.068790 0.078803 0.043275 -0.005411 -0.003196 -0.019308 0.042009 0.000591 0.012681 0.071893 0.049970 0.001283 0.010979 -0.016385 0.006678 -0.040566 0.006936 0.014217 0.042258 0.045654 0.027356 -0.007144 0.004707 0.031363 0.007018 0.037299 0.011901 -0.016746 0.031116 -0.049704 -0.028107 -0.055299 -0.012504 -0.064148 0.006615 0.019979 -0.011071 -0.009809 -0.005415 -0.001164 0.027454 0.015709 -0.012773 0.007310 0.026821 0.040078 0.022648 0.007708 0.015560 0.004457 -0.004643 0.016933 -0.006682 0.087726 0.043355 0.029333 0.001856 -0.009525 -0.032031 0.002145 0.075265 0.001808 0.057916 -0.019134 -0.024779 -0.022998 0.094657 0.003195 -0.024527 0.055530 0.050940 0.007150 0.002797 0.019963 0.003333 0.037375 0.031390 0.090744 0.055325 0.049341 0.043256 -0.008377 0.015785 -0.005351 -0.007486 0.012411 0.095172 -0.014244 -0.090356 0.043767 0.002425 0.052051 -0.047177 -0.005907 0.000203 0.021810 -0.000633 -0.024418 -0.021334 -0.069583 0.044239 0.046078 0.054941 -0.122472 0.019333 0.008163 -0.006452 -0.099131 0.102155 0.022743 -0.047786 -0.110075 0.186693 0.294772 0.182407 0.135795 0.128561 -0.521307
0.072396 0.073047 0.074998 0.078250 0.082801 0.088649 0.095794 0.104230 0.113956 0.124965 0.137251 0.150805 0.165618 0.181676 0.198965 0.217466 0.237156 0.258010 0.279996 0.303081 0.327222 0.352372 0.378478 0.405479 0.433307 0.461885 0.491128 0.520942 0.551222 0.581854 0.612714 0.643665 0.674561 0.705243 0.735543 0.765278 0.794257 0.822275 0.849120 0.874566 0.898381 0.920322 0.940139 0.957579 0.972382 0.984285 0.993027 0.998347 0.999990 0.997707 0.991261 0.980426 0.964997 0.944788 0.919637 0.889413 0.854017 0.813389 0.767508 0.716401 0.660145 0.598870 0.532762 0.462071 0.387108 0.308249 0.225939 0.140688 0.053077 0.036249 0.126580 0.217145 0.307116 0.395616 0.481723 0.564482 0.642914 0.716025 0.782824 0.842332 0.893601 0.935728 0.967875 0.989282 0.999293 0.997364 0.983091 0.956220 0.916666 0.864526 0.800095 0.723870 0.636562 0.539097 0.432616 0.318471 0.198214 0.073584 0.053514 0.181031 0.306804 0.428594 0.544124 0.651118 0.747356 0.830718 0.899237 0.951154 0.984968 0.999486 0.993871 0.967683 0.920915 0.854019 0.767928 0.664059 0.544308 0.411034 0.267028 0.115465 0.040155 0.196081 0.348395 0.493110 0.626277 0.744096 0.843032 0.919936 0.972151 0.997626 0.995003 0.963705 0.903987 0.816981 0.704703 0.570035 0.416677 0.249070 0.072287 0.108114 0.286244 0.456083 0.611676 0.747353 0.857951 0.939020 0.987032 0.999553 0.975392 0.914702 0.819046 0.691395 0.536078 0.358673 0.165834 0.034937 0.235561 0.427705 0.603124 0.754031 0.873452 0.955580 0.996087 0.992385 0.943825 0.851810 0.719813 0.553310 0.359588 0.147476 0.073034 0.291236 0.496222 0.677435 0.825226 0.931400 0.989705 0.996250 0.949805 0.851982 0.707248 0.522801 0.308261 0.075220 0.163351 0.393807 0.602601 0.777101 0.906383 0.981957 0.998379 0.953708 0.849755 0.692105 0.489904 0.255391 0.003219 0.250423 0.488839 0.695922 0.857275 0.961252 0.999865 0.969470 0.871176 0.710931 0.499259 0.250661 0.017324 0.285295 0.533396 0.742778 0.897079 0.983759 0.995198 0.929457 0.790617 0.588651 0.338816 0.060585 0.223807 0.491109 0.718965 0.887810 0.982628 0.994367 0.920921 0.767522 0.546510 0.276458 0.019277 0.314536 0.582631 0.798778 0.942444 0.999387 0.963185 0.836077 0.629004 0.360818 0.056683 0.254202 0.541365 0.776067 0.934216 0.998952 0.962569 0.827570 0.606698 0.321892 0.002253 0.318863 0.607264 0.831612 0.966877 0.997271 0.918233 0.737248 0.473339 0.155232 0.181648 0.499036 0.760197 0.934214 0.999779 0.947958 0.783584 0.525039 0.202396 0.145935 0.477691 0.751871 0.933864 0.999947 0.940555 0.761855 0.485362 0.145563 0.214247 0.547379 0.809816 0.966122 0.994369 0.889429 0.664083 0.347713 0.017305 0.381160 0.693328 0.909653 0.998716 0.946602 0.759317 0.462394 0.097660 0.282464 0.622431 0.871686 0.992313 0.965007 0.792423 0.499277 0.129093 0.262065 0.613970 0.871524 0.993513 0.959417 0.773148 0.462974 0.077526 0.321628 0.669701 0.909244 0.999793 0.924947 0.695648 0.348941 0.057704 0.455759 0.777083 0.965696 0.987745 0.837872 0.540783 0.147511 0.273058 0.646120 0.904293 0.999921 0.914190 0.661163 0.285874 0.143333 0.547092 0.849608 0.993059 0.948896 0.723901 0.359625 0.074950 0.496189 0.821873 0.987338 0.958588 0.739685 0.372673 0.070066 0.499862 0.829415 0.990657 0.949102 0.711645 0.325933 0.128794 0.557691 0.870075 0.998731 0.914722 0.634339 0.216454 0.249433 0.662143
1.000000 1.000000 1.000000 1.000000 1.000000 1.000000 1.000000 1.000000 1.000000 1.000000 1.000000 1.000000 1.000000 1.000000 1.000000 1.000000 1.000000 1.000000 1.000000 1.000000 1.000000 1.000000 1.000000 1.000000 1.000000 1.000000 1.000000 1.000000 1.000000 1.000000 1.000000 1.000000 1.000000 1.000000 1.000000 1.000000 1.000000 1.000000 1.000000 1.000000 1.000000 1.000000 1.000000 1.000000 1.000000 1.000000 1.000000 1.000000 1.000000 1.000000 1.000000 1.000000 0.923276 0.923276 0.923276 0.923276 0.923276 0.923276 0.923276 0.923276 0.923276 0.923276 0.923276 0.923276 0.923276 0.923276 0.923276 0.923276 0.923276 0.923276 0.923276 0.923276 0.923276 0.923276 0.923276 0.923276 0.923276 0.923276 0.923276 0.923276 0.923276 0.923276 0.923276 0.923276 0.923276 0.913326 0.911417 0.912580 0.911140 0.909672 0.909084 0.908693 0.909735 0.911341 0.913413 0.935039 0.938146 0.939389 0.940709 0.942078 0.944357 0.942203 0.949799 0.956310 0.955260 0.956408 0.950276 0.951668 0.951025 0.950295 0.951635 0.951752 0.950067 0.948059 0.946492 0.945947 0.945638 0.949286 0.949775 0.949939 0.950531 0.950480 0.951197 0.951810 0.949983 0.952258 0.944420 0.943076 0.948340 0.946269 0.947650 0.947615 0.948302 0.949111 0.949430 0.949700 0.946348 0.945910 0.944999 0.937613 0.930517 0.930594 0.932861 0.935820 0.933114 0.930055 0.931366 0.933457 0.932579 0.936047 0.927097 0.922960 0.896976 0.883716 0.874092 0.874333 0.878178 0.880753 0.878437 0.872034 0.863157 0.859590 0.859229 0.855425 0.847412 0.862935 0.857318 0.854371 0.858055 0.861295 0.866692 0.864539 0.860311 0.855541 0.850722 0.841094 0.842541 0.845999 0.850147 0.833133 0.822799 0.839608 0.830719 0.821428 0.829075 0.830999 0.828060 0.826896 0.827403 0.824936 0.818208 0.810763 0.814467 0.823455 0.824332 0.814573 0.812150 0.809782 0.809558 0.801972 0.806555 0.807744 0.804041 0.796544 0.813867 0.780516 0.801662 0.802506 0.785786 0.769978 0.757731 0.766666 0.776647 0.776349 0.770410 0.774673 0.774229 0.766352 0.739697 0.733989 0.740857 0.738943 0.727210 0.713574 0.720698 0.721295 0.717835 0.714634 0.717787 0.718596 0.695055 0.708514 0.712968 0.703114 0.717012 0.719584 0.710548 0.713776 0.717606 0.720534 0.720944 0.689704 0.693358 0.652626 0.641888 0.595757 0.592358 0.589958 0.531738 0.536027 0.508091 0.490993 0.491776 0.473360 0.524949 0.439832 0.426706 0.455934 0.381581 0.331836 0.349061 0.349630 0.363334 0.369252 0.356574 0.358430 0.343617 0.322794 0.309511 0.334097 0.350666 0.319903 0.324190 0.308679 0.285879 0.246251 0.263019 0.267102 0.295155 0.296532 0.275927 0.299786 0.351374 0.289638 0.269817 0.247585 0.273787 0.284610 0.282870 0.272954 0.278980 0.232343 0.226216 0.246773 0.249332 0.281803 0.309026 0.336005 0.331373 0.333761 0.363372 0.315259 0.332233 0.337137 0.325670 0.341098 0.344481 0.344949 0.339041 0.376608 0.365096 0.375846 0.369256 0.362216 0.403955 0.381883 0.355742 0.331653 0.340230 0.338035 0.332860 0.276079 0.260287 0.257241 0.212751 0.176248 0.177991 0.178126 0.133814 0.117928 0.101014 0.064085 0.063456 0.071738 0.100159 0.071349 0.088770 0.095415 0.095415 0.095415 0.095415 0.095415 0.095415 0.095415 0.095415 0.095415 0.095415 0.095415 0.095415 0.095415 0.095415 0.118059 0.118059 0.118059 0.118059 0.118059 0.118059 0.118059 0.118059 0.118059 0.118059 0.118059 0.118059
0.000000 0.000000 0.000000 0.000000 0.000000 0.000000 0.000000 0.000000 0.000000 0.000000 0.000000 0.000000 0.000000 0.000000 0.000000 0.000000 0.000000 0.000000 0.000000 0.000000 0.000000 0.000000 0.000000 0.000000 0.000000 0.000000 0.000000 0.000000 0.000000 0.000000 0.000000 0.000000 0.000000 0.000000 0.000000 0.000000 0.000000 0.000000 0.000000 0.000000 0.000000 0.000000 0.000000 0.000000 0.000000 0.000000 0.000000 0.000000 0.000000 0.000000 0.000000 0.000000 0.209657 0.209657 0.209657 0.209657 0.209657 0.209657 0.209657 0.209657 0.209657 0.209657 0.209657 0.209657 0.209657 0.209657 0.209657 0.209657 0.209657 0.209657 0.209657 0.209657 0.209657 0.209657 0.209657 0.209657 0.209657 0.209657 0.209657 0.209657 0.209657 0.209657 0.209657 0.209657 0.209657 0.244339 0.244339 0.244339 0.244339 0.244339 0.244339 0.244339 0.244339 0.244339 0.244339 0.244339 0.244339 0.244339 0.244339 0.244339 0.244339 0.244339 0.244339 0.244339 0.244339 0.244339 0.244339 0.244339 0.244339 0.244339 0.260378 0.260378 0.260378 0.260378 0.260378 0.260378 0.260378 0.260378 0.260378 0.260378 0.260378 0.260378 0.260378 0.260378 0.260378 0.260378 0.260378 0.260378 0.260378 0.260378 0.269680 0.269680 0.269680 0.269680 0.269680 0.269680 0.269680 0.269680 0.269680 0.269680 0.269680 0.269680 0.269680 0.269680 0.269680 0.269680 0.269680 0.269680 0.269680 0.269680 0.269680 0.269680 0.269680 0.269680 0.269680 0.269680 0.269680 0.269680 0.269680 0.269680 0.269680 0.269680 0.269680 0.280056 0.280056 0.280056 0.280056 0.280056 0.280056 0.280056 0.280056 0.280056 0.280056 0.280056 0.280056 0.280056 0.280056 0.280056 0.280056 0.280056 0.280056 0.280056 0.280056 0.280056 0.280056 0.280056 0.280056 0.280056 0.280056 0.280056 0.274721 0.274721 0.274721 0.274721 0.274721 0.274721 0.274721 0.274721 0.274721 0.274721 0.274721 0.274721 0.274721 0.285714 0.285714 0.285714 0.285714 0.285714 0.285714 0.285714 0.285714 0.285714 0.285714 0.285714 0.280056 0.280056 0.280056 0.280056 0.280056 0.280056 0.280056 0.280056 0.280056 0.280056 0.280056 0.274721 0.274721 0.274721 0.274721 0.274721 0.274721 0.274721 0.274721 0.274721 0.274721 0.274721 0.280056 0.280056 0.280056 0.280056 0.280056 0.280056 0.280056 0.280056 0.280056 0.280056 0.285714 0.285714 0.285714 0.285714 0.285714 0.285714 0.285714 0.285714 0.285714 0.269680 0.269680 0.269680 0.269680 0.269680 0.269680 0.269680 0.269680 0.269680 0.269680 0.274721 0.274721 0.274721 0.274721 0.274721 0.274721 0.274721 0.274721 0.274721 0.285714 0.285714 0.285714 0.285714 0.285714 0.285714 0.285714 0.285714 0.264906 0.264906 0.264906 0.264906 0.264906 0.264906 0.264906 0.264906 0.264906 0.274721 0.274721 0.274721 0.274721 0.274721 0.274721 0.274721 0.274721 0.269680 0.269680 0.269680 0.269680 0.269680 0.269680 0.269680 0.269680 0.269680 0.269680 0.269680 0.269680 0.269680 0.269680 0.269680 0.269680 0.280056 0.280056 0.280056 0.280056 0.280056 0.280056 0.280056 0.260378 0.260378 0.260378 0.260378 0.260378 0.260378 0.260378 0.260378 0.269680 0.269680 0.269680 0.269680 0.269680 0.269680 0.269680 0.264906 0.264906 0.264906 0.264906 0.264906 0.264906 0.264906 0.264906 0.264906 0.264906 0.264906 0.264906 0.264906 0.264906 0.260378 0.260378 0.260378 0.260378 0.260378 0.260378 0.260378 0.260378 0.260378 0.260378 0.260378 0.260378
