# Output from CTFFind version 4.1.9, run on 2019-11-03 19:45:54
# Input file: stack11_bm3d_averaged_1_5.25_0_750_half.mrc ; Number of micrographs: 1
# Pixel size: 3.000 Angstroms ; acceleration voltage: 300.0 keV ; spherical aberration: 0.00 mm ; amplitude contrast: 0.07
# Box size: 512 pixels ; min. res.: 30.0 Angstroms ; max. res.: 5.0 Angstroms ; min. def.: 5000.0 um; max. def. 50000.0 um; num. frames averaged: 1
# 6 lines per micrograph: #1 - spatial frequency (1/Angstroms); #2 - 1D rotational average of spectrum (assuming no astigmatism); #3 - 1D rotational average of spectrum; #4 - CTF fit; #5 - cross-correlation between spectrum and CTF fit; #6 - 2sigma of expected cross correlation of noise
0.000000 0.000651 0.001302 0.001953 0.002604 0.003255 0.003906 0.004557 0.005208 0.005859 0.006510 0.007161 0.007812 0.008464 0.009115 0.009766 0.010417 0.011068 0.011719 0.012370 0.013021 0.013672 0.014323 0.014974 0.015625 0.016276 0.016927 0.017578 0.018229 0.018880 0.019531 0.020182 0.020833 0.021484 0.022135 0.022786 0.023438 0.024089 0.024740 0.025391 0.026042 0.026693 0.027344 0.027995 0.028646 0.029297 0.029948 0.030599 0.031250 0.031901 0.032552 0.033203 0.033854 0.034505 0.035156 0.035807 0.036458 0.037109 0.037760 0.038411 0.039062 0.039714 0.040365 0.041016 0.041667 0.042318 0.042969 0.043620 0.044271 0.044922 0.045573 0.046224 0.046875 0.047526 0.048177 0.048828 0.049479 0.050130 0.050781 0.051432 0.052083 0.052734 0.053385 0.054036 0.054688 0.055339 0.055990 0.056641 0.057292 0.057943 0.058594 0.059245 0.059896 0.060547 0.061198 0.061849 0.062500 0.063151 0.063802 0.064453 0.065104 0.065755 0.066406 0.067057 0.067708 0.068359 0.069010 0.069661 0.070312 0.070964 0.071615 0.072266 0.072917 0.073568 0.074219 0.074870 0.075521 0.076172 0.076823 0.077474 0.078125 0.078776 0.079427 0.080078 0.080729 0.081380 0.082031 0.082682 0.083333 0.083984 0.084635 0.085286 0.085938 0.086589 0.087240 0.087891 0.088542 0.089193 0.089844 0.090495 0.091146 0.091797 0.092448 0.093099 0.093750 0.094401 0.095052 0.095703 0.096354 0.097005 0.097656 0.098307 0.098958 0.099609 0.100260 0.100911 0.101562 0.102214 0.102865 0.103516 0.104167 0.104818 0.105469 0.106120 0.106771 0.107422 0.108073 0.108724 0.109375 0.110026 0.110677 0.111328 0.111979 0.112630 0.113281 0.113932 0.114583 0.115234 0.115885 0.116536 0.117188 0.117839 0.118490 0.119141 0.119792 0.120443 0.121094 0.121745 0.122396 0.123047 0.123698 0.124349 0.125000 0.125651 0.126302 0.126953 0.127604 0.128255 0.128906 0.129557 0.130208 0.130859 0.131510 0.132161 0.132812 0.133464 0.134115 0.134766 0.135417 0.136068 0.136719 0.137370 0.138021 0.138672 0.139323 0.139974 0.140625 0.141276 0.141927 0.142578 0.143229 0.143880 0.144531 0.145182 0.145833 0.146484 0.147135 0.147786 0.148438 0.149089 0.149740 0.150391 0.151042 0.151693 0.152344 0.152995 0.153646 0.154297 0.154948 0.155599 0.156250 0.156901 0.157552 0.158203 0.158854 0.159505 0.160156 0.160807 0.161458 0.162109 0.162760 0.163411 0.164062 0.164714 0.165365 0.166016 0.166667 0.167318 0.167969 0.168620 0.169271 0.169922 0.170573 0.171224 0.171875 0.172526 0.173177 0.173828 0.174479 0.175130 0.175781 0.176432 0.177083 0.177734 0.178385 0.179036 0.179688 0.180339 0.180990 0.181641 0.182292 0.182943 0.183594 0.184245 0.184896 0.185547 0.186198 0.186849 0.187500 0.188151 0.188802 0.189453 0.190104 0.190755 0.191406 0.192057 0.192708 0.193359 0.194010 0.194661 0.195312 0.195964 0.196615 0.197266 0.197917 0.198568 0.199219 0.199870 0.200521 0.201172 0.201823 0.202474 0.203125 0.203776 0.204427 0.205078 0.205729 0.206380 0.207031 0.207682 0.208333 0.208984 0.209635 0.210286 0.210938 0.211589 0.212240 0.212891 0.213542 0.214193 0.214844 0.215495 0.216146 0.216797 0.217448 0.218099 0.218750 0.219401 0.220052 0.220703 0.221354 0.222005 0.222656 0.223307 0.223958 0.224609 0.225260 0.225911 0.226562 0.227214 0.227865 0.228516 0.229167 0.229818 0.230469 0.231120 0.231771 0.232422 0.233073 0.233724 0.234375 0.235026 0.235677
       0.34062        0.34062        0.34062        0.34062        0.34062        0.34062        0.34062        0.34062        0.34062        0.34062        0.34062        0.34062        0.34062        0.34062        0.34062        0.34062        0.34062        0.34062        0.34062        0.34062        0.34062        0.34062        0.34062        0.34062        0.34062        0.34062        0.34062        0.34062        0.34062        0.34062        0.34062        0.34062        0.34062        0.34062        0.34062        0.34062        0.34062        0.34062        0.34062        0.34062        0.34062        0.34062        0.34062        0.34062        0.34062        0.34062        0.34062        0.34062        0.34062        0.34062        0.34062        0.69663        0.85927        0.53560        0.10447       -0.03118       -0.39235       -0.18207       -0.28773       -0.11343       -0.05561       -0.11074       -0.05358       -0.17222       -0.20857       -0.21883       -0.30947       -0.32148       -0.44893       -0.36345       -0.43078       -0.42439       -0.39815       -0.41713       -0.45883       -0.51474       -0.56138       -0.56016       -0.53382       -0.36358       -0.33532       -0.29749       -0.27710       -0.18838       -0.17573        0.05591        0.13496        0.16688        0.26003        0.38073        0.45670        0.52163        0.59396        0.59160        0.57960        0.69774        0.80604        0.70716        0.74154        0.62538        0.56804        0.48302        0.42876        0.51125        0.39502        0.26015        0.11184        0.10354        0.08172       -0.02188        0.03153        0.04321        0.00061        0.02331        0.02088        0.23685        0.26911        0.29476        0.43221        0.45213        0.41194        0.59024        0.62366        0.64588        0.72908        0.67818        0.64875        0.66402        0.56317        0.46555        0.41919        0.30182        0.25808        0.17782        0.13278        0.05289        0.05725        0.06302        0.09519        0.15267        0.23907        0.29082        0.41328        0.46205        0.48261        0.57273        0.60652        0.63793        0.62009        0.56221        0.45926        0.47186        0.37805        0.26848        0.20702        0.15818        0.16686        0.14893        0.14807        0.17619        0.31178        0.32460        0.39802        0.43756        0.42773        0.48708        0.56005        0.55376        0.49794        0.45570        0.40960        0.36379        0.33452        0.30048        0.25225        0.24163        0.24064        0.24952        0.22170        0.30600        0.36195        0.38656        0.43908        0.45563        0.47087        0.42551        0.40632        0.40264        0.36093        0.32402        0.27242        0.27024        0.26333        0.23571        0.28514        0.28416        0.34685        0.37799        0.42477        0.47695        0.41119        0.42446        0.43238        0.40843        0.34743        0.32457        0.29266        0.31754        0.27041        0.31513        0.30774        0.32588        0.33424        0.35840        0.31801        0.39371        0.41564        0.37920        0.34811        0.37093        0.31433        0.29254        0.30049        0.32028        0.30520        0.31790        0.33753        0.34976        0.34028        0.36755        0.36701        0.41098        0.38395        0.33527        0.34259        0.29663        0.28589        0.32251        0.31692        0.32752        0.33765        0.33493        0.37948        0.32867        0.32945        0.33431        0.34022        0.30236        0.31038        0.27690        0.30131        0.32525        0.30390        0.32521        0.35036        0.35855        0.29242        0.33097        0.29415        0.29997        0.27961        0.24394        0.30030        0.30123        0.34204        0.33681        0.33759        0.32468        0.34806        0.31096        0.34399        0.31398        0.31557        0.28342        0.32989        0.31814        0.36043        0.32401        0.33426        0.34066        0.29366        0.27392        0.30878        0.24726        0.22657        0.33828        0.32094        0.35709        0.34093        0.35751        0.32726        0.33647        0.34474        0.26289        0.25510        0.31258        0.30223        0.30984        0.31986        0.33925        0.33378        0.29574        0.29091        0.34270        0.32044        0.30866        0.28632        0.32216        0.34354        0.39676        0.34910        0.31030        0.27809        0.30321        0.28395        0.29518        0.26974        0.25892        0.31156        0.33209        0.34307        0.35188        0.32402        0.28590        0.29773        0.26619        0.27111        0.25081        0.31333        0.27297        0.23623        0.30572        0.30214        0.26711        0.29268        0.21097        0.21322        0.24939        0.18930        0.26259        0.33498        0.24694        0.22875        0.31512        0.31495        0.32030        0.31659        0.26120        0.23664        0.18690        0.21509        0.19235        0.23967        0.22441        0.27007        0.33680        0.32250        0.23365        0.13532        0.06724       -0.01684       -0.10361       -0.61654
2.758364 2.729076 2.699948 2.670980 2.642173 2.613526 2.585040 2.556713 2.528547 2.500542 2.472696 2.445011 2.417486 2.390122 2.362918 2.335874 2.308990 2.282267 2.255704 2.229302 2.203059 2.176977 2.151056 2.125294 2.099693 2.074252 2.048972 2.023852 1.998892 1.974092 1.949453 1.924974 1.900655 1.876497 1.852499 1.828661 1.804983 1.781466 1.758109 1.734913 1.711877 1.689001 1.666285 1.643730 1.621335 1.599100 1.577026 1.555111 1.533358 1.511764 1.490331 1.706957 2.127203 1.687342 1.178333 1.043815 0.446983 0.844746 0.562113 0.844949 0.808374 0.816179 0.756639 0.746044 0.592303 0.554860 0.499178 0.428930 0.244615 0.369186 0.200322 0.328692 0.222366 0.204333 0.178772 0.038840 0.011641 0.016391 -0.068532 0.130439 0.228902 0.187477 0.175425 0.328041 0.184290 0.514803 0.619312 0.622397 0.639155 0.874133 0.830660 0.939916 0.925303 1.023631 0.990110 1.078653 1.166220 1.039979 1.153966 0.910547 0.926115 0.791603 0.649850 0.800438 0.697729 0.485044 0.330183 0.250495 0.262098 0.147293 0.128367 0.160460 0.105939 0.125783 0.076057 0.252160 0.357006 0.342468 0.473845 0.545674 0.418563 0.587985 0.725691 0.664732 0.728051 0.708758 0.718595 0.654699 0.598688 0.502846 0.375538 0.278180 0.220770 0.085855 0.119050 -0.098616 -0.045890 -0.060936 -0.075904 -0.019213 0.135244 0.070585 0.242553 0.307024 0.338786 0.387192 0.504145 0.465572 0.481267 0.492027 0.305715 0.291650 0.284277 0.086046 0.042747 -0.072259 -0.011086 -0.061668 -0.093140 -0.081834 0.037566 0.088137 0.122805 0.217548 0.227910 0.234155 0.288696 0.438059 0.396905 0.264043 0.240585 0.225179 0.151170 0.148032 0.118490 0.003521 0.021426 0.074043 0.000012 0.059198 0.143728 0.146602 0.230406 0.246797 0.272439 0.193562 0.220731 0.146054 0.161893 0.123470 0.050706 -0.006744 0.016324 -0.000857 -0.038700 0.066479 0.023830 0.123877 0.153276 0.201307 0.186111 0.153399 0.157542 0.178188 0.127909 0.056781 -0.002971 0.050657 0.032402 -0.021439 0.041340 0.037845 0.059943 0.050957 0.063776 0.062430 0.138552 0.143633 0.054907 0.052268 0.054788 0.015525 -0.023039 0.016846 0.018717 0.006524 0.015885 0.051587 0.060444 0.054813 0.080985 0.055876 0.149270 0.060731 0.032873 0.038858 -0.036543 0.004308 0.041289 0.002781 0.033164 0.050644 0.024542 0.123801 0.025655 0.001098 0.056063 0.004124 0.007760 0.003827 -0.025570 0.021291 0.006505 0.001308 0.051873 0.054260 0.057901 0.032302 0.037897 0.027447 0.018071 -0.021434 -0.027066 0.029775 0.049702 0.079537 0.083258 0.059032 0.075516 0.110336 0.054337 0.107439 0.080167 0.043988 0.032986 0.105916 0.069891 0.117631 0.090955 0.061574 0.121473 0.048311 0.011074 0.089964 -0.032569 -0.012712 0.107408 0.052439 0.155455 0.093267 0.101734 0.050088 0.072721 0.092586 -0.019414 -0.029198 0.056347 0.051854 0.042172 0.036506 0.104380 0.053405 -0.001234 0.056010 0.051671 0.053793 0.053443 -0.015546 0.068178 0.069030 0.132269 0.039566 0.021265 -0.026574 -0.005498 -0.013711 -0.001700 -0.051078 -0.032592 0.007448 0.028585 0.025190 0.039723 -0.000003 -0.042312 -0.038125 -0.025197 -0.073005 -0.059732 -0.015030 -0.015248 -0.083508 -0.002371 -0.041148 -0.070507 0.000901 -0.139693 -0.086823 -0.093956 -0.199534 -0.038612 0.056536 -0.055342 -0.156962 0.038758 0.043490 -0.044799 0.048877 -0.070231 0.258737 0.156864 0.222462 0.254987 0.288192 0.243159 0.305986 0.327417 0.370420 0.212962 0.249611 0.083662 -0.022914 -0.675248
0.072396 0.072899 0.074407 0.076921 0.080438 0.084960 0.090484 0.097008 0.104532 0.113051 0.122562 0.133062 0.144544 0.157003 0.170430 0.184817 0.200152 0.216422 0.233614 0.251708 0.270686 0.290524 0.311196 0.332672 0.354921 0.377904 0.401579 0.425902 0.450821 0.476280 0.502218 0.528569 0.555257 0.582207 0.609330 0.636537 0.663728 0.690798 0.717635 0.744121 0.770128 0.795526 0.820175 0.843930 0.866638 0.888144 0.908285 0.926893 0.943798 0.958826 0.971799 0.982541 0.990873 0.996617 0.999598 0.999646 0.996593 0.990281 0.980559 0.967288 0.950338 0.929599 0.904974 0.876385 0.843776 0.807116 0.766396 0.721637 0.672890 0.620237 0.563795 0.503714 0.440185 0.373434 0.303728 0.231374 0.156720 0.080153 0.002102 0.076968 0.156552 0.236110 0.315071 0.392833 0.468770 0.542233 0.612561 0.679080 0.741114 0.797992 0.849054 0.893660 0.931200 0.961098 0.982830 0.995926 0.999982 0.994671 0.979751 0.955072 0.920588 0.876362 0.822573 0.759522 0.687634 0.607465 0.519698 0.425144 0.324740 0.219541 0.110715 0.000467 0.112644 0.224383 0.334188 0.440527 0.541850 0.636610 0.723295 0.800445 0.866686 0.920755 0.961528 0.988046 0.999542 0.995466 0.975504 0.939600 0.887969 0.821110 0.739809 0.645145 0.538479 0.421447 0.295943 0.164090 0.028216 0.109185 0.245499 0.378035 0.504084 0.620969 0.726106 0.817073 0.891658 0.947934 0.984303 0.999559 0.992927 0.964110 0.913310 0.841255 0.749201 0.638925 0.512708 0.373301 0.223872 0.067945 0.090673 0.247987 0.399906 0.542353 0.671376 0.783266 0.874666 0.942689 0.985015 0.999985 0.986678 0.944968 0.875564 0.780020 0.660727 0.520868 0.364354 0.195732 0.020059 0.157238 0.330519 0.494119 0.642532 0.770601 0.873710 0.947964 0.990354 0.998895 0.972738 0.912242 0.819008 0.695870 0.546828 0.376952 0.192224 0.000656 0.194502 0.381898 0.555496 0.708292 0.833935 0.927000 0.983244 0.999823 0.975462 0.910562 0.807245 0.669315 0.502160 0.312569 0.108475 0.101353 0.307678 0.501199 0.672975 0.814851 0.919863 0.982603 0.999536 0.969220 0.892453 0.772302 0.614024 0.424886 0.213848 0.008818 0.232022 0.444399 0.634885 0.793308 0.910956 0.981082 0.999331 0.964047 0.876444 0.740634 0.563480 0.354298 0.124402 0.113477 0.345880 0.559380 0.741369 0.880818 0.968981 0.999986 0.971272 0.883840 0.742294 0.554663 0.331998 0.087765 0.162947 0.404321 0.620833 0.798249 0.924595 0.991004 0.992400 0.927927 0.801139 0.619864 0.395796 0.143792 0.119077 0.374651 0.604941 0.793394 0.926141 0.993040 0.988523 0.912125 0.768645 0.567936 0.324290 0.055490 0.218454 0.476782 0.699543 0.869175 0.971934 0.999062 0.947615 0.820839 0.628062 0.384103 0.108192 0.177492 0.449573 0.685393 0.864930 0.972535 0.998378 0.939421 0.799845 0.590865 0.329915 0.039282 0.255765 0.529132 0.756227 0.916197 0.993918 0.981505 0.879205 0.695563 0.446816 0.155566 0.151231 0.444699 0.696757 0.882854 0.984404 0.990737 0.900327 0.721142 0.470071 0.171431 0.145298 0.448349 0.706848 0.893980 0.989862 0.983732 0.875287 0.674935 0.402930 0.087433 0.238318 0.539480 0.783337 0.942896 0.999973 0.947377 0.789944 0.544235 0.236959 0.097862 0.422570 0.700107 0.898274 0.993545 0.973983 0.840870 0.608824 0.304354 0.037060 0.375004 0.668912 0.882944 0.990446 0.977396 0.844374 0.606785 0.293242 0.057752 0.402450 0.697290 0.904427 0.996695 0.961300 0.801759 0.537758 0.202893 0.159484
1.000000 1.000000 1.000000 1.000000 1.000000 1.000000 1.000000 1.000000 1.000000 1.000000 1.000000 1.000000 1.000000 1.000000 1.000000 1.000000 1.000000 1.000000 1.000000 1.000000 1.000000 1.000000 1.000000 1.000000 1.000000 1.000000 1.000000 1.000000 1.000000 1.000000 1.000000 1.000000 1.000000 1.000000 1.000000 1.000000 1.000000 1.000000 1.000000 1.000000 1.000000 1.000000 1.000000 1.000000 1.000000 1.000000 1.000000 1.000000 1.000000 1.000000 1.000000 1.000000 0.920653 0.920653 0.920653 0.912611 0.912611 0.912611 0.912611 0.912611 0.912611 0.912611 0.912611 0.912611 0.912611 0.912611 0.912611 0.912611 0.912611 0.912611 0.912611 0.912611 0.912611 0.912611 0.912611 0.912611 0.912611 0.912611 0.912611 0.912611 0.912611 0.912611 0.912611 0.912611 0.912611 0.912611 0.912611 0.912611 0.912611 0.912611 0.912611 0.912611 0.912611 0.912611 0.912611 0.912611 0.941752 0.943172 0.951383 0.950988 0.950398 0.948354 0.947167 0.946820 0.946721 0.947051 0.947755 0.948713 0.954950 0.956176 0.960597 0.962264 0.963022 0.963686 0.964365 0.963971 0.955387 0.955174 0.953791 0.953232 0.955758 0.954823 0.954048 0.955018 0.954908 0.955361 0.955330 0.954648 0.953577 0.952491 0.951559 0.951148 0.950943 0.951670 0.952085 0.953549 0.956834 0.957420 0.957553 0.957706 0.957810 0.959095 0.958106 0.957521 0.945583 0.945306 0.944158 0.944249 0.947446 0.947459 0.948036 0.948638 0.950355 0.950703 0.946029 0.945051 0.937060 0.934607 0.931799 0.926323 0.921612 0.923476 0.925077 0.925744 0.926100 0.921038 0.920941 0.918818 0.915349 0.917866 0.917842 0.919178 0.920554 0.919168 0.918471 0.917315 0.915694 0.908053 0.895759 0.894613 0.892661 0.897446 0.898129 0.897086 0.900147 0.888874 0.873482 0.851201 0.853579 0.856874 0.847610 0.844117 0.844378 0.845099 0.848876 0.841501 0.839161 0.834515 0.824217 0.817925 0.811886 0.803043 0.802166 0.793952 0.784514 0.780882 0.805456 0.799221 0.809098 0.813561 0.812998 0.810678 0.804905 0.796759 0.772813 0.772571 0.755795 0.731531 0.732033 0.730586 0.730151 0.728022 0.733842 0.724633 0.722309 0.704572 0.701878 0.706674 0.710344 0.707826 0.707560 0.712408 0.716920 0.699184 0.689171 0.679789 0.684939 0.687036 0.687101 0.691614 0.668859 0.646917 0.631220 0.641968 0.649241 0.624614 0.638974 0.652363 0.627396 0.624009 0.614354 0.616892 0.606092 0.608996 0.607488 0.606561 0.612249 0.626262 0.616166 0.614164 0.624566 0.628146 0.640203 0.639810 0.642640 0.608863 0.611206 0.632984 0.637176 0.620396 0.636511 0.624941 0.640253 0.677593 0.671021 0.637023 0.631028 0.617734 0.578823 0.563608 0.558870 0.568021 0.601214 0.599548 0.575467 0.548528 0.552270 0.561962 0.567792 0.568170 0.551534 0.560570 0.549348 0.526140 0.534923 0.542401 0.540115 0.526389 0.511937 0.512821 0.515696 0.531033 0.527275 0.497162 0.516354 0.510968 0.497669 0.424073 0.438719 0.425833 0.416325 0.373441 0.384037 0.392193 0.376431 0.297710 0.283247 0.284142 0.283745 0.271626 0.251384 0.227389 0.218171 0.179833 0.184046 0.169416 0.143126 0.141974 0.125217 0.115928 0.121520 0.092664 0.147254 0.210342 0.212017 0.212017 0.212017 0.212017 0.212017 0.212017 0.195291 0.195291 0.195291 0.195291 0.195291 0.195291 0.195291 0.195291 0.195291 0.219015 0.219015 0.219015 0.219015 0.219015 0.219015 0.219015 0.219015 0.219015 0.219015 0.219015 0.219015 0.219015 0.219015
0.000000 0.000000 0.000000 0.000000 0.000000 0.000000 0.000000 0.000000 0.000000 0.000000 0.000000 0.000000 0.000000 0.000000 0.000000 0.000000 0.000000 0.000000 0.000000 0.000000 0.000000 0.000000 0.000000 0.000000 0.000000 0.000000 0.000000 0.000000 0.000000 0.000000 0.000000 0.000000 0.000000 0.000000 0.000000 0.000000 0.000000 0.000000 0.000000 0.000000 0.000000 0.000000 0.000000 0.000000 0.000000 0.000000 0.000000 0.000000 0.000000 0.000000 0.000000 0.000000 0.180334 0.180334 0.180334 0.199007 0.199007 0.199007 0.199007 0.199007 0.199007 0.199007 0.199007 0.199007 0.199007 0.199007 0.199007 0.199007 0.199007 0.199007 0.199007 0.199007 0.199007 0.199007 0.199007 0.199007 0.199007 0.199007 0.199007 0.199007 0.199007 0.199007 0.199007 0.199007 0.199007 0.199007 0.199007 0.199007 0.199007 0.199007 0.199007 0.199007 0.199007 0.199007 0.199007 0.199007 0.225018 0.225018 0.225018 0.225018 0.225018 0.225018 0.225018 0.225018 0.225018 0.225018 0.225018 0.225018 0.225018 0.225018 0.225018 0.225018 0.225018 0.225018 0.225018 0.225018 0.225018 0.225018 0.225018 0.225018 0.225018 0.225018 0.225018 0.225018 0.225018 0.244339 0.244339 0.244339 0.244339 0.244339 0.244339 0.244339 0.244339 0.244339 0.244339 0.244339 0.244339 0.244339 0.244339 0.244339 0.244339 0.244339 0.244339 0.244339 0.244339 0.244339 0.244339 0.244339 0.251976 0.251976 0.251976 0.251976 0.251976 0.251976 0.251976 0.251976 0.251976 0.251976 0.251976 0.251976 0.251976 0.251976 0.251976 0.251976 0.251976 0.251976 0.251976 0.251976 0.264906 0.264906 0.264906 0.264906 0.264906 0.264906 0.264906 0.264906 0.264906 0.264906 0.264906 0.264906 0.264906 0.264906 0.264906 0.264906 0.264906 0.264906 0.264906 0.264906 0.264906 0.264906 0.264906 0.264906 0.264906 0.264906 0.264906 0.264906 0.264906 0.264906 0.264906 0.264906 0.264906 0.264906 0.264906 0.264906 0.264906 0.264906 0.264906 0.264906 0.264906 0.264906 0.264906 0.264906 0.264906 0.264906 0.264906 0.264906 0.264906 0.264906 0.264906 0.264906 0.264906 0.264906 0.264906 0.264906 0.264906 0.264906 0.264906 0.264906 0.264906 0.264906 0.256074 0.256074 0.256074 0.256074 0.256074 0.256074 0.256074 0.256074 0.256074 0.256074 0.256074 0.256074 0.256074 0.256074 0.269680 0.269680 0.269680 0.269680 0.269680 0.269680 0.269680 0.269680 0.269680 0.269680 0.269680 0.269680 0.264906 0.264906 0.264906 0.264906 0.264906 0.264906 0.264906 0.264906 0.264906 0.264906 0.264906 0.264906 0.269680 0.269680 0.269680 0.269680 0.269680 0.269680 0.269680 0.269680 0.269680 0.269680 0.269680 0.264906 0.264906 0.264906 0.264906 0.264906 0.264906 0.264906 0.264906 0.264906 0.264906 0.264906 0.256074 0.256074 0.256074 0.256074 0.256074 0.256074 0.256074 0.256074 0.256074 0.256074 0.256074 0.264906 0.264906 0.264906 0.264906 0.264906 0.264906 0.264906 0.264906 0.264906 0.264906 0.260378 0.260378 0.260378 0.260378 0.260378 0.260378 0.260378 0.260378 0.260378 0.260378 0.256074 0.256074 0.256074 0.256074 0.256074 0.256074 0.256074 0.256074 0.256074 0.256074 0.260378 0.260378 0.260378 0.260378 0.260378 0.260378 0.260378 0.260378 0.260378 0.256074 0.256074 0.256074 0.256074 0.256074 0.256074 0.256074 0.256074 0.256074 0.251976 0.251976 0.251976 0.251976 0.251976 0.251976 0.251976 0.251976 0.251976 0.251976 0.251976 0.251976 0.251976 0.251976
