# Output from CTFFind version 4.1.9, run on 2019-11-03 20:10:46
# Input file: stack11_bm3d_averaged_1_5.5_0_3000_half.mrc ; Number of micrographs: 1
# Pixel size: 3.000 Angstroms ; acceleration voltage: 300.0 keV ; spherical aberration: 0.00 mm ; amplitude contrast: 0.07
# Box size: 512 pixels ; min. res.: 30.0 Angstroms ; max. res.: 5.0 Angstroms ; min. def.: 5000.0 um; max. def. 50000.0 um; num. frames averaged: 1
# 6 lines per micrograph: #1 - spatial frequency (1/Angstroms); #2 - 1D rotational average of spectrum (assuming no astigmatism); #3 - 1D rotational average of spectrum; #4 - CTF fit; #5 - cross-correlation between spectrum and CTF fit; #6 - 2sigma of expected cross correlation of noise
0.000000 0.000651 0.001302 0.001953 0.002604 0.003255 0.003906 0.004557 0.005208 0.005859 0.006510 0.007161 0.007812 0.008464 0.009115 0.009766 0.010417 0.011068 0.011719 0.012370 0.013021 0.013672 0.014323 0.014974 0.015625 0.016276 0.016927 0.017578 0.018229 0.018880 0.019531 0.020182 0.020833 0.021484 0.022135 0.022786 0.023438 0.024089 0.024740 0.025391 0.026042 0.026693 0.027344 0.027995 0.028646 0.029297 0.029948 0.030599 0.031250 0.031901 0.032552 0.033203 0.033854 0.034505 0.035156 0.035807 0.036458 0.037109 0.037760 0.038411 0.039062 0.039714 0.040365 0.041016 0.041667 0.042318 0.042969 0.043620 0.044271 0.044922 0.045573 0.046224 0.046875 0.047526 0.048177 0.048828 0.049479 0.050130 0.050781 0.051432 0.052083 0.052734 0.053385 0.054036 0.054688 0.055339 0.055990 0.056641 0.057292 0.057943 0.058594 0.059245 0.059896 0.060547 0.061198 0.061849 0.062500 0.063151 0.063802 0.064453 0.065104 0.065755 0.066406 0.067057 0.067708 0.068359 0.069010 0.069661 0.070312 0.070964 0.071615 0.072266 0.072917 0.073568 0.074219 0.074870 0.075521 0.076172 0.076823 0.077474 0.078125 0.078776 0.079427 0.080078 0.080729 0.081380 0.082031 0.082682 0.083333 0.083984 0.084635 0.085286 0.085938 0.086589 0.087240 0.087891 0.088542 0.089193 0.089844 0.090495 0.091146 0.091797 0.092448 0.093099 0.093750 0.094401 0.095052 0.095703 0.096354 0.097005 0.097656 0.098307 0.098958 0.099609 0.100260 0.100911 0.101562 0.102214 0.102865 0.103516 0.104167 0.104818 0.105469 0.106120 0.106771 0.107422 0.108073 0.108724 0.109375 0.110026 0.110677 0.111328 0.111979 0.112630 0.113281 0.113932 0.114583 0.115234 0.115885 0.116536 0.117188 0.117839 0.118490 0.119141 0.119792 0.120443 0.121094 0.121745 0.122396 0.123047 0.123698 0.124349 0.125000 0.125651 0.126302 0.126953 0.127604 0.128255 0.128906 0.129557 0.130208 0.130859 0.131510 0.132161 0.132812 0.133464 0.134115 0.134766 0.135417 0.136068 0.136719 0.137370 0.138021 0.138672 0.139323 0.139974 0.140625 0.141276 0.141927 0.142578 0.143229 0.143880 0.144531 0.145182 0.145833 0.146484 0.147135 0.147786 0.148438 0.149089 0.149740 0.150391 0.151042 0.151693 0.152344 0.152995 0.153646 0.154297 0.154948 0.155599 0.156250 0.156901 0.157552 0.158203 0.158854 0.159505 0.160156 0.160807 0.161458 0.162109 0.162760 0.163411 0.164062 0.164714 0.165365 0.166016 0.166667 0.167318 0.167969 0.168620 0.169271 0.169922 0.170573 0.171224 0.171875 0.172526 0.173177 0.173828 0.174479 0.175130 0.175781 0.176432 0.177083 0.177734 0.178385 0.179036 0.179688 0.180339 0.180990 0.181641 0.182292 0.182943 0.183594 0.184245 0.184896 0.185547 0.186198 0.186849 0.187500 0.188151 0.188802 0.189453 0.190104 0.190755 0.191406 0.192057 0.192708 0.193359 0.194010 0.194661 0.195312 0.195964 0.196615 0.197266 0.197917 0.198568 0.199219 0.199870 0.200521 0.201172 0.201823 0.202474 0.203125 0.203776 0.204427 0.205078 0.205729 0.206380 0.207031 0.207682 0.208333 0.208984 0.209635 0.210286 0.210938 0.211589 0.212240 0.212891 0.213542 0.214193 0.214844 0.215495 0.216146 0.216797 0.217448 0.218099 0.218750 0.219401 0.220052 0.220703 0.221354 0.222005 0.222656 0.223307 0.223958 0.224609 0.225260 0.225911 0.226562 0.227214 0.227865 0.228516 0.229167 0.229818 0.230469 0.231120 0.231771 0.232422 0.233073 0.233724 0.234375 0.235026 0.235677
       0.34138        0.34138        0.34138        0.34138        0.34138        0.34138        0.34138        0.34138        0.34138        0.34138        0.34138        0.34138        0.34139        0.34138        0.34139        0.34138        0.34138        0.34138        0.34138        0.34139        0.34138        0.34138        0.34138        0.34139        0.34138        0.34138        0.34139        0.34139        0.34138        0.34139        0.34138        0.34139        0.34138        0.34138        0.34138        0.34138        0.34139        0.34138        0.34139        0.34138        0.34139        0.34138        0.34138        0.34139        0.34138        0.34138        0.34139        0.34138        0.34138        0.34138        0.34138        0.69727        0.85874        0.53632        0.10504       -0.02999       -0.39103       -0.18137       -0.28722       -0.11369       -0.05576       -0.11130       -0.05356       -0.17065       -0.20703       -0.21773       -0.30890       -0.32063       -0.44786       -0.36311       -0.43004       -0.42397       -0.39760       -0.41592       -0.45699       -0.51308       -0.56084       -0.55819       -0.53241       -0.36195       -0.33312       -0.29610       -0.27648       -0.18752       -0.17398        0.05719        0.13616        0.16803        0.26107        0.38126        0.45726        0.52245        0.59549        0.59290        0.58037        0.69797        0.80598        0.70661        0.74218        0.62405        0.56835        0.48286        0.42933        0.51143        0.39553        0.26231        0.11265        0.10504        0.08361       -0.02087        0.03381        0.04500        0.00218        0.02379        0.02280        0.23767        0.26978        0.29488        0.43281        0.45288        0.41310        0.59163        0.62338        0.64460        0.72835        0.67803        0.64781        0.66203        0.56241        0.46511        0.41948        0.30216        0.26023        0.17904        0.13372        0.05247        0.05815        0.06485        0.09634        0.15400        0.24014        0.29179        0.41386        0.46273        0.48259        0.57199        0.60593        0.63792        0.61939        0.56143        0.45915        0.47309        0.37860        0.27043        0.20844        0.15754        0.16738        0.15026        0.15022        0.17826        0.31379        0.32704        0.39898        0.43960        0.42811        0.48637        0.56113        0.55374        0.49906        0.45656        0.41039        0.36554        0.33575        0.30244        0.25400        0.24274        0.24326        0.25074        0.22199        0.30648        0.36246        0.38656        0.43966        0.45613        0.47076        0.42542        0.40721        0.40152        0.36050        0.32616        0.27311        0.27236        0.26461        0.23702        0.28716        0.28585        0.34764        0.37903        0.42641        0.47665        0.40998        0.42423        0.43315        0.40931        0.34796        0.32496        0.29362        0.31930        0.27097        0.31649        0.30926        0.32706        0.33558        0.35963        0.31770        0.39343        0.41575        0.37974        0.34827        0.37127        0.31490        0.29208        0.30236        0.32032        0.30615        0.31855        0.33829        0.34978        0.33976        0.36735        0.36727        0.41357        0.38558        0.33534        0.34330        0.29763        0.28831        0.32309        0.31794        0.32813        0.33847        0.33612        0.38155        0.32967        0.32960        0.33558        0.34136        0.30287        0.31161        0.27809        0.30180        0.32618        0.30489        0.32662        0.35160        0.35964        0.29371        0.33262        0.29513        0.29973        0.28002        0.24454        0.30155        0.30223        0.34240        0.33700        0.33935        0.32438        0.34872        0.31151        0.34493        0.31342        0.31684        0.28431        0.33070        0.31997        0.36184        0.32481        0.33565        0.34202        0.29420        0.27425        0.30954        0.24849        0.22743        0.33972        0.32028        0.35917        0.34200        0.35767        0.32820        0.33681        0.34585        0.26302        0.25657        0.31366        0.30246        0.31005        0.32054        0.34029        0.33202        0.29542        0.29194        0.34370        0.32028        0.31106        0.28635        0.32152        0.34203        0.39576        0.35141        0.31154        0.27752        0.30195        0.28506        0.29709        0.27129        0.26168        0.31324        0.33260        0.34480        0.35296        0.32556        0.28780        0.29992        0.26661        0.27257        0.25188        0.31309        0.27019        0.23640        0.30304        0.29885        0.26546        0.29366        0.21333        0.21508        0.24832        0.18956        0.26298        0.33718        0.24815        0.23079        0.31558        0.31401        0.31975        0.31651        0.26137        0.24027        0.19058        0.21294        0.19292        0.24528        0.23070        0.27656        0.34341        0.33351        0.24206        0.13961        0.07518       -0.00932       -0.09868       -0.61489
2.765156 2.735771 2.706547 2.677484 2.648582 2.619841 2.591260 2.562841 2.534582 2.506485 2.478548 2.450772 2.423157 2.395704 2.368411 2.341279 2.314307 2.287497 2.260848 2.234360 2.208033 2.181866 2.155861 2.130016 2.104332 2.078810 2.053448 2.028247 2.003207 1.978328 1.953610 1.929053 1.904657 1.880422 1.856348 1.832434 1.808682 1.785090 1.761660 1.738390 1.715281 1.692334 1.669547 1.646921 1.624456 1.602152 1.580009 1.558026 1.536205 1.514545 1.493046 1.709940 2.129583 1.690109 1.180358 1.045885 0.448516 0.845932 0.562937 0.844847 0.808907 0.816082 0.756655 0.747695 0.594351 0.556315 0.499494 0.429206 0.245557 0.368414 0.200599 0.328541 0.221796 0.205101 0.179174 0.040553 0.010158 0.017536 -0.068898 0.131394 0.230321 0.188198 0.175195 0.327582 0.184763 0.516133 0.619963 0.623290 0.640386 0.874102 0.831333 0.940316 0.927182 1.025356 0.991135 1.079035 1.166749 1.039064 1.155257 0.908863 0.926185 0.791505 0.649437 0.800893 0.696890 0.486122 0.330617 0.249702 0.263109 0.146893 0.129202 0.161498 0.106104 0.124016 0.076901 0.252032 0.355926 0.341604 0.473544 0.545563 0.418341 0.588968 0.725649 0.661912 0.726621 0.707898 0.717098 0.651587 0.597087 0.500693 0.374456 0.276948 0.220936 0.086399 0.118983 -0.101699 -0.046609 -0.062020 -0.076331 -0.019031 0.133826 0.070528 0.241414 0.306724 0.338234 0.385400 0.502391 0.463691 0.479576 0.489917 0.303239 0.291171 0.283879 0.085477 0.043017 -0.074910 -0.013346 -0.061678 -0.094048 -0.081164 0.037484 0.088983 0.122872 0.217722 0.227897 0.232335 0.286941 0.439309 0.396551 0.264080 0.239480 0.227116 0.149664 0.149503 0.119756 0.002627 0.022148 0.075672 -0.000377 0.057595 0.143490 0.146160 0.229129 0.246795 0.271827 0.191770 0.221250 0.145768 0.158346 0.124647 0.050331 -0.006467 0.017359 -0.001053 -0.038384 0.068139 0.024013 0.123000 0.154567 0.201954 0.183715 0.151493 0.157778 0.178447 0.128604 0.055587 -0.003334 0.050545 0.034097 -0.022485 0.043280 0.037833 0.060118 0.051520 0.064090 0.057188 0.143227 0.141818 0.054992 0.050774 0.054815 0.013583 -0.023519 0.017198 0.017626 0.006146 0.015123 0.051672 0.058812 0.056991 0.072170 0.056755 0.150752 0.059507 0.032582 0.037551 -0.036535 0.004999 0.040577 0.002487 0.031509 0.050143 0.024665 0.127681 0.023995 -0.003294 0.058821 0.003186 0.006430 0.003986 -0.026266 0.019337 0.005588 0.000982 0.051387 0.053072 0.058589 0.033040 0.038447 0.025594 0.017144 -0.022476 -0.027968 0.029796 0.049149 0.079106 0.081955 0.057620 0.074891 0.110906 0.053325 0.107092 0.078703 0.044326 0.031978 0.106286 0.070123 0.118535 0.090292 0.063015 0.120029 0.046557 0.010643 0.090048 -0.032602 -0.014447 0.106670 0.050300 0.156893 0.096333 0.094837 0.048700 0.070074 0.091721 -0.020860 -0.029119 0.054962 0.049021 0.040249 0.035397 0.104035 0.048070 -0.001884 0.054825 0.049844 0.051427 0.053401 -0.018080 0.065267 0.064348 0.129306 0.040229 0.019785 -0.029446 -0.012229 -0.013152 -0.001930 -0.052666 -0.031756 0.007458 0.026329 0.025689 0.040437 -0.000173 -0.042239 -0.036724 -0.027152 -0.073500 -0.060120 -0.015360 -0.022751 -0.085257 -0.007034 -0.046218 -0.074133 -0.000105 -0.139012 -0.086697 -0.097024 -0.202380 -0.040648 0.056970 -0.058631 -0.156195 0.036272 0.038174 -0.047790 0.045178 -0.075077 0.262802 0.163742 0.219238 0.257252 0.295601 0.250560 0.313357 0.334878 0.381921 0.221550 0.253136 0.094371 -0.014699 -0.674592
0.072396 0.072899 0.074407 0.076921 0.080439 0.084960 0.090484 0.097009 0.104533 0.113052 0.122564 0.133064 0.144546 0.157005 0.170433 0.184820 0.200156 0.216427 0.233619 0.251714 0.270692 0.290531 0.311204 0.332681 0.354930 0.377914 0.401590 0.425914 0.450833 0.476293 0.502232 0.528582 0.555272 0.582222 0.609346 0.636553 0.663744 0.690815 0.717652 0.744138 0.770146 0.795544 0.820192 0.843947 0.866655 0.888160 0.908300 0.926907 0.943811 0.958837 0.971810 0.982549 0.990879 0.996621 0.999600 0.999645 0.996589 0.990274 0.980548 0.967273 0.950319 0.929576 0.904946 0.876352 0.843739 0.807073 0.766348 0.721584 0.672831 0.620173 0.563725 0.503640 0.440105 0.373349 0.303639 0.231281 0.156623 0.080052 0.001998 0.077074 0.156660 0.236219 0.315180 0.392942 0.468876 0.542337 0.612661 0.679175 0.741203 0.798074 0.849127 0.893724 0.931252 0.961139 0.982858 0.995940 0.999981 0.994655 0.979718 0.955022 0.920521 0.876278 0.822471 0.759403 0.687500 0.607315 0.519534 0.424967 0.324551 0.219343 0.110510 0.000677 0.112858 0.224596 0.334398 0.440730 0.542043 0.636791 0.723459 0.800590 0.866809 0.920853 0.961598 0.988086 0.999550 0.995440 0.975444 0.939505 0.887840 0.820947 0.739615 0.644920 0.538228 0.421173 0.295649 0.163782 0.027900 0.109504 0.245814 0.378342 0.504374 0.621235 0.726344 0.817274 0.891819 0.948049 0.984368 0.999570 0.992883 0.964009 0.913154 0.841044 0.748939 0.638617 0.512360 0.372920 0.223466 0.067525 0.091099 0.248407 0.400308 0.542726 0.671709 0.783549 0.874889 0.942845 0.985097 0.999988 0.986599 0.944807 0.875324 0.779706 0.660347 0.520430 0.363872 0.195217 0.019528 0.157767 0.331030 0.494597 0.642958 0.770959 0.873986 0.948147 0.990434 0.998867 0.972600 0.911996 0.818661 0.695430 0.546311 0.376372 0.191604 0.001295 0.195134 0.382499 0.556041 0.708760 0.834305 0.927254 0.983368 0.999810 0.975308 0.910271 0.806824 0.668781 0.501532 0.311871 0.107737 0.102097 0.308396 0.501857 0.673543 0.815301 0.920170 0.982750 0.999511 0.969021 0.892086 0.771780 0.613371 0.424128 0.213025 0.009669 0.232859 0.445176 0.635561 0.793845 0.911322 0.981256 0.999298 0.963803 0.876000 0.740009 0.562705 0.353413 0.123456 0.114432 0.346789 0.560191 0.742030 0.881289 0.969228 0.999991 0.971029 0.883358 0.741598 0.553795 0.331005 0.086706 0.164002 0.405308 0.621685 0.798910 0.925014 0.991153 0.992261 0.927506 0.800456 0.618962 0.394734 0.142637 0.120244 0.375751 0.605888 0.794125 0.926598 0.993183 0.988337 0.911616 0.767847 0.566900 0.323092 0.054214 0.219709 0.477922 0.700475 0.869825 0.972245 0.999004 0.947185 0.820064 0.627002 0.382835 0.106820 0.178862 0.450823 0.686420 0.865641 0.972867 0.998295 0.938923 0.798968 0.589680 0.328521 0.037792 0.257214 0.530414 0.757222 0.916809 0.994086 0.981207 0.878459 0.694433 0.445399 0.153991 0.152818 0.446144 0.697922 0.883622 0.984692 0.990511 0.899602 0.719981 0.468578 0.169758 0.146989 0.449886 0.708069 0.894760 0.990109 0.983414 0.874428 0.673616 0.401281 0.085631 0.240085 0.541021 0.784481 0.943511 0.999985 0.946776 0.788784 0.542644 0.235102 0.099771 0.424319 0.701495 0.899131 0.993766 0.973532 0.839791 0.607234 0.302435 0.039084 0.376895 0.670436 0.883910 0.990730 0.976952 0.843248 0.605107 0.291214 0.059880 0.404415 0.698836 0.905351 0.996869 0.960692 0.800439 0.535885 0.200703 0.161698
1.000000 1.000000 1.000000 1.000000 1.000000 1.000000 1.000000 1.000000 1.000000 1.000000 1.000000 1.000000 1.000000 1.000000 1.000000 1.000000 1.000000 1.000000 1.000000 1.000000 1.000000 1.000000 1.000000 1.000000 1.000000 1.000000 1.000000 1.000000 1.000000 1.000000 1.000000 1.000000 1.000000 1.000000 1.000000 1.000000 1.000000 1.000000 1.000000 1.000000 1.000000 1.000000 1.000000 1.000000 1.000000 1.000000 1.000000 1.000000 1.000000 1.000000 1.000000 1.000000 0.918719 0.918719 0.918719 0.912283 0.912283 0.912283 0.912283 0.912283 0.912283 0.912283 0.912283 0.912283 0.912283 0.912283 0.912283 0.912283 0.912283 0.912283 0.912283 0.912283 0.912283 0.912283 0.912283 0.912283 0.912283 0.912283 0.912283 0.912283 0.912283 0.912283 0.912283 0.912283 0.912283 0.912283 0.912283 0.912283 0.912283 0.912283 0.912283 0.912283 0.912283 0.912283 0.912283 0.912283 0.941291 0.942722 0.950946 0.950550 0.949956 0.947910 0.946714 0.946363 0.946265 0.946598 0.947309 0.948275 0.954515 0.955750 0.960173 0.961845 0.962019 0.963734 0.964418 0.964026 0.955460 0.955245 0.953860 0.953304 0.955830 0.954900 0.954129 0.955099 0.954991 0.955430 0.955403 0.954724 0.953657 0.952575 0.951646 0.951237 0.951034 0.951760 0.952174 0.953636 0.956916 0.957503 0.957637 0.955985 0.954839 0.956122 0.955242 0.954671 0.942667 0.942305 0.941063 0.941093 0.944170 0.944190 0.944772 0.945388 0.947145 0.947515 0.942614 0.941683 0.933642 0.930859 0.928098 0.922565 0.917956 0.919879 0.921698 0.922475 0.922803 0.917718 0.917565 0.915393 0.911383 0.913857 0.913943 0.915337 0.916773 0.915395 0.914873 0.913540 0.911970 0.904319 0.892289 0.890987 0.888412 0.893386 0.893834 0.892890 0.896092 0.885226 0.870145 0.845009 0.847425 0.850785 0.841720 0.837958 0.838173 0.838834 0.842763 0.835182 0.832884 0.828075 0.817494 0.811186 0.804710 0.795555 0.796122 0.787849 0.778389 0.774245 0.798478 0.792642 0.802838 0.807341 0.807042 0.804412 0.797844 0.788978 0.764905 0.764861 0.746704 0.719878 0.720430 0.718920 0.718600 0.716668 0.722409 0.713246 0.711064 0.693446 0.690111 0.695301 0.698955 0.696298 0.696783 0.701277 0.705760 0.687137 0.676810 0.667827 0.673644 0.674575 0.674683 0.680851 0.657792 0.638120 0.623894 0.633606 0.640727 0.617027 0.629847 0.643419 0.618983 0.615622 0.606091 0.609073 0.598748 0.601524 0.599583 0.598516 0.604488 0.618910 0.608722 0.609239 0.619529 0.624561 0.636859 0.637449 0.639834 0.603519 0.606371 0.627656 0.632131 0.613615 0.629280 0.617891 0.635480 0.674977 0.666077 0.634102 0.627837 0.614744 0.577003 0.561166 0.556350 0.564806 0.597983 0.598449 0.574666 0.547132 0.550245 0.558846 0.564012 0.564434 0.548662 0.557621 0.546262 0.523015 0.532241 0.538841 0.537681 0.523852 0.510347 0.511556 0.512817 0.528272 0.523602 0.492439 0.511680 0.507497 0.495997 0.423208 0.437465 0.425114 0.414716 0.371777 0.382321 0.390325 0.374029 0.296123 0.282548 0.283618 0.282959 0.265155 0.243661 0.220012 0.210980 0.171691 0.176745 0.161731 0.135500 0.137791 0.122211 0.112744 0.117040 0.088809 0.142515 0.206089 0.207836 0.207836 0.207836 0.207836 0.207836 0.207836 0.190616 0.190616 0.190616 0.190616 0.190616 0.190616 0.190616 0.190616 0.190616 0.216244 0.216244 0.216244 0.216244 0.216244 0.216244 0.216244 0.216244 0.216244 0.216244 0.216244 0.216244 0.216244 0.216244
0.000000 0.000000 0.000000 0.000000 0.000000 0.000000 0.000000 0.000000 0.000000 0.000000 0.000000 0.000000 0.000000 0.000000 0.000000 0.000000 0.000000 0.000000 0.000000 0.000000 0.000000 0.000000 0.000000 0.000000 0.000000 0.000000 0.000000 0.000000 0.000000 0.000000 0.000000 0.000000 0.000000 0.000000 0.000000 0.000000 0.000000 0.000000 0.000000 0.000000 0.000000 0.000000 0.000000 0.000000 0.000000 0.000000 0.000000 0.000000 0.000000 0.000000 0.000000 0.000000 0.180334 0.180334 0.180334 0.199007 0.199007 0.199007 0.199007 0.199007 0.199007 0.199007 0.199007 0.199007 0.199007 0.199007 0.199007 0.199007 0.199007 0.199007 0.199007 0.199007 0.199007 0.199007 0.199007 0.199007 0.199007 0.199007 0.199007 0.199007 0.199007 0.199007 0.199007 0.199007 0.199007 0.199007 0.199007 0.199007 0.199007 0.199007 0.199007 0.199007 0.199007 0.199007 0.199007 0.199007 0.225018 0.225018 0.225018 0.225018 0.225018 0.225018 0.225018 0.225018 0.225018 0.225018 0.225018 0.225018 0.225018 0.225018 0.225018 0.225018 0.225018 0.225018 0.225018 0.225018 0.225018 0.225018 0.225018 0.225018 0.225018 0.225018 0.225018 0.225018 0.225018 0.244339 0.244339 0.244339 0.244339 0.244339 0.244339 0.244339 0.244339 0.244339 0.244339 0.244339 0.244339 0.244339 0.244339 0.244339 0.244339 0.244339 0.244339 0.244339 0.244339 0.244339 0.244339 0.244339 0.251976 0.251976 0.251976 0.251976 0.251976 0.251976 0.251976 0.251976 0.251976 0.251976 0.251976 0.251976 0.251976 0.251976 0.251976 0.251976 0.251976 0.251976 0.251976 0.251976 0.264906 0.264906 0.264906 0.264906 0.264906 0.264906 0.264906 0.264906 0.264906 0.264906 0.264906 0.264906 0.264906 0.264906 0.264906 0.264906 0.264906 0.264906 0.264906 0.264906 0.264906 0.264906 0.264906 0.264906 0.264906 0.264906 0.264906 0.264906 0.264906 0.264906 0.264906 0.264906 0.264906 0.264906 0.264906 0.264906 0.264906 0.264906 0.264906 0.264906 0.264906 0.264906 0.264906 0.264906 0.264906 0.264906 0.264906 0.264906 0.264906 0.264906 0.264906 0.264906 0.264906 0.264906 0.264906 0.264906 0.264906 0.264906 0.264906 0.264906 0.264906 0.264906 0.256074 0.256074 0.256074 0.256074 0.256074 0.256074 0.256074 0.256074 0.256074 0.256074 0.256074 0.256074 0.256074 0.256074 0.269680 0.269680 0.269680 0.269680 0.269680 0.269680 0.269680 0.269680 0.269680 0.269680 0.269680 0.269680 0.264906 0.264906 0.264906 0.264906 0.264906 0.264906 0.264906 0.264906 0.264906 0.264906 0.264906 0.264906 0.269680 0.269680 0.269680 0.269680 0.269680 0.269680 0.269680 0.269680 0.269680 0.269680 0.269680 0.264906 0.264906 0.264906 0.264906 0.264906 0.264906 0.264906 0.264906 0.264906 0.264906 0.264906 0.256074 0.256074 0.256074 0.256074 0.256074 0.256074 0.256074 0.256074 0.256074 0.256074 0.256074 0.264906 0.264906 0.264906 0.264906 0.264906 0.264906 0.264906 0.264906 0.264906 0.264906 0.260378 0.260378 0.260378 0.260378 0.260378 0.260378 0.260378 0.260378 0.260378 0.260378 0.256074 0.256074 0.256074 0.256074 0.256074 0.256074 0.256074 0.256074 0.256074 0.256074 0.260378 0.260378 0.260378 0.260378 0.260378 0.260378 0.260378 0.260378 0.260378 0.256074 0.256074 0.256074 0.256074 0.256074 0.256074 0.256074 0.256074 0.256074 0.251976 0.251976 0.251976 0.251976 0.251976 0.251976 0.251976 0.251976 0.251976 0.251976 0.251976 0.251976 0.251976 0.251976
