# Output from CTFFind version 4.1.9, run on 2019-11-02 17:58:25
# Input file: stack1_bm3d_averaged_1_1.75_0_250_half.mrc ; Number of micrographs: 1
# Pixel size: 3.000 Angstroms ; acceleration voltage: 300.0 keV ; spherical aberration: 0.00 mm ; amplitude contrast: 0.07
# Box size: 512 pixels ; min. res.: 30.0 Angstroms ; max. res.: 5.0 Angstroms ; min. def.: 5000.0 um; max. def. 50000.0 um; num. frames averaged: 1
# 6 lines per micrograph: #1 - spatial frequency (1/Angstroms); #2 - 1D rotational average of spectrum (assuming no astigmatism); #3 - 1D rotational average of spectrum; #4 - CTF fit; #5 - cross-correlation between spectrum and CTF fit; #6 - 2sigma of expected cross correlation of noise
0.000000 0.000651 0.001302 0.001953 0.002604 0.003255 0.003906 0.004557 0.005208 0.005859 0.006510 0.007161 0.007812 0.008464 0.009115 0.009766 0.010417 0.011068 0.011719 0.012370 0.013021 0.013672 0.014323 0.014974 0.015625 0.016276 0.016927 0.017578 0.018229 0.018880 0.019531 0.020182 0.020833 0.021484 0.022135 0.022786 0.023438 0.024089 0.024740 0.025391 0.026042 0.026693 0.027344 0.027995 0.028646 0.029297 0.029948 0.030599 0.031250 0.031901 0.032552 0.033203 0.033854 0.034505 0.035156 0.035807 0.036458 0.037109 0.037760 0.038411 0.039062 0.039714 0.040365 0.041016 0.041667 0.042318 0.042969 0.043620 0.044271 0.044922 0.045573 0.046224 0.046875 0.047526 0.048177 0.048828 0.049479 0.050130 0.050781 0.051432 0.052083 0.052734 0.053385 0.054036 0.054688 0.055339 0.055990 0.056641 0.057292 0.057943 0.058594 0.059245 0.059896 0.060547 0.061198 0.061849 0.062500 0.063151 0.063802 0.064453 0.065104 0.065755 0.066406 0.067057 0.067708 0.068359 0.069010 0.069661 0.070312 0.070964 0.071615 0.072266 0.072917 0.073568 0.074219 0.074870 0.075521 0.076172 0.076823 0.077474 0.078125 0.078776 0.079427 0.080078 0.080729 0.081380 0.082031 0.082682 0.083333 0.083984 0.084635 0.085286 0.085938 0.086589 0.087240 0.087891 0.088542 0.089193 0.089844 0.090495 0.091146 0.091797 0.092448 0.093099 0.093750 0.094401 0.095052 0.095703 0.096354 0.097005 0.097656 0.098307 0.098958 0.099609 0.100260 0.100911 0.101562 0.102214 0.102865 0.103516 0.104167 0.104818 0.105469 0.106120 0.106771 0.107422 0.108073 0.108724 0.109375 0.110026 0.110677 0.111328 0.111979 0.112630 0.113281 0.113932 0.114583 0.115234 0.115885 0.116536 0.117188 0.117839 0.118490 0.119141 0.119792 0.120443 0.121094 0.121745 0.122396 0.123047 0.123698 0.124349 0.125000 0.125651 0.126302 0.126953 0.127604 0.128255 0.128906 0.129557 0.130208 0.130859 0.131510 0.132161 0.132812 0.133464 0.134115 0.134766 0.135417 0.136068 0.136719 0.137370 0.138021 0.138672 0.139323 0.139974 0.140625 0.141276 0.141927 0.142578 0.143229 0.143880 0.144531 0.145182 0.145833 0.146484 0.147135 0.147786 0.148438 0.149089 0.149740 0.150391 0.151042 0.151693 0.152344 0.152995 0.153646 0.154297 0.154948 0.155599 0.156250 0.156901 0.157552 0.158203 0.158854 0.159505 0.160156 0.160807 0.161458 0.162109 0.162760 0.163411 0.164062 0.164714 0.165365 0.166016 0.166667 0.167318 0.167969 0.168620 0.169271 0.169922 0.170573 0.171224 0.171875 0.172526 0.173177 0.173828 0.174479 0.175130 0.175781 0.176432 0.177083 0.177734 0.178385 0.179036 0.179688 0.180339 0.180990 0.181641 0.182292 0.182943 0.183594 0.184245 0.184896 0.185547 0.186198 0.186849 0.187500 0.188151 0.188802 0.189453 0.190104 0.190755 0.191406 0.192057 0.192708 0.193359 0.194010 0.194661 0.195312 0.195964 0.196615 0.197266 0.197917 0.198568 0.199219 0.199870 0.200521 0.201172 0.201823 0.202474 0.203125 0.203776 0.204427 0.205078 0.205729 0.206380 0.207031 0.207682 0.208333 0.208984 0.209635 0.210286 0.210938 0.211589 0.212240 0.212891 0.213542 0.214193 0.214844 0.215495 0.216146 0.216797 0.217448 0.218099 0.218750 0.219401 0.220052 0.220703 0.221354 0.222005 0.222656 0.223307 0.223958 0.224609 0.225260 0.225911 0.226562 0.227214 0.227865 0.228516 0.229167 0.229818 0.230469 0.231120 0.231771 0.232422 0.233073 0.233724 0.234375 0.235026 0.235677
       0.32554        0.32554        0.32554        0.32554        0.32554        0.32554        0.32554        0.32554        0.32554        0.32554        0.32554        0.32554        0.32554        0.32554        0.32554        0.32554        0.32554        0.32554        0.32554        0.32554        0.32554        0.32554        0.32554        0.32554        0.32554        0.32554        0.32554        0.32554        0.32554        0.32554        0.32554        0.32554        0.32554        0.32554        0.32554        0.32554        0.32554        0.32554        0.32554        0.32554        0.32554        0.32554        0.32554        0.32554        0.32554        0.32554        0.32554        0.32554        0.32554        0.32554        0.32554        0.49640        0.71450        0.42006        0.18818       -0.07903       -0.25924       -0.07181       -0.13206       -0.06244       -0.00635       -0.16000       -0.10806       -0.05602       -0.00954       -0.16123       -0.23305       -0.34857       -0.47110       -0.57440       -0.53098       -0.45726       -0.38076       -0.56576       -0.46384       -0.62867       -0.51666       -0.48041       -0.40027       -0.38629       -0.33526       -0.25584       -0.17789       -0.14629        0.02353       -0.02237        0.10517        0.16330        0.30694        0.41586        0.45959        0.50019        0.54189        0.54887        0.67822        0.63425        0.66877        0.58472        0.55384        0.64174        0.51545        0.42581        0.38646        0.30632        0.22396        0.24903        0.24246        0.09047        0.07296        0.00044       -0.01015        0.02327       -0.02414        0.05596        0.08870        0.22035        0.27738        0.27989        0.38031        0.56742        0.53843        0.56840        0.65794        0.69646        0.62523        0.63318        0.63184        0.54364        0.56637        0.39223        0.34247        0.25579        0.17840        0.07299        0.13719        0.10542        0.09652        0.11077        0.20222        0.19259        0.30977        0.34691        0.40133        0.48359        0.55718        0.54176        0.54645        0.59711        0.51795        0.44977        0.47734        0.32106        0.24097        0.25010        0.23654        0.12886        0.13074        0.14671        0.21167        0.23793        0.33073        0.37584        0.39662        0.45207        0.43431        0.47798        0.44202        0.46651        0.43898        0.39225        0.36622        0.36156        0.31896        0.28641        0.20325        0.19542        0.21456        0.25802        0.25075        0.34324        0.37166        0.35015        0.40601        0.44560        0.43269        0.42700        0.43724        0.36015        0.32545        0.28143        0.24787        0.28268        0.24866        0.28165        0.29670        0.33038        0.32400        0.38409        0.37831        0.42138        0.40459        0.44674        0.39973        0.35084        0.27074        0.27643        0.28407        0.26285        0.25536        0.31855        0.35256        0.32565        0.35673        0.36076        0.34449        0.41055        0.39257        0.36101        0.33590        0.29417        0.30764        0.31464        0.30662        0.30603        0.28046        0.32886        0.34757        0.36005        0.33366        0.33100        0.33174        0.34622        0.31182        0.28302        0.30515        0.30705        0.32557        0.31685        0.32194        0.34530        0.32242        0.31664        0.32923        0.29959        0.25672        0.24218        0.25926        0.30350        0.31148        0.35745        0.28937        0.29242        0.31297        0.28476        0.30954        0.28409        0.26952        0.27921        0.28258        0.29633        0.33384        0.31653        0.31947        0.32076        0.31906        0.33125        0.30770        0.31306        0.31708        0.26534        0.28207        0.30417        0.28595        0.31056        0.31316        0.32666        0.32188        0.34213        0.32683        0.28227        0.23543        0.27159        0.32592        0.34169        0.33589        0.31208        0.29148        0.30275        0.30667        0.25424        0.28392        0.29929        0.32126        0.28391        0.27648        0.25787        0.32137        0.32375        0.32938        0.29916        0.29074        0.28858        0.38252        0.33086        0.29734        0.29588        0.29584        0.29044        0.29583        0.29776        0.30067        0.22423        0.26415        0.30905        0.31194        0.28702        0.25106        0.26871        0.22470        0.21958        0.29231        0.30077        0.29959        0.28125        0.27246        0.32707        0.25307        0.21769        0.25902        0.23720        0.26338        0.27359        0.34648        0.24600        0.27840        0.27325        0.22755        0.27111        0.27299        0.23859        0.18883        0.22315        0.21314        0.23101        0.29751        0.25296        0.35501        0.34333        0.27224        0.24561        0.19331        0.26110        0.31104        0.23452        0.18807        0.21678        0.22492        0.19217        0.22782        0.18054        0.01879       -0.43932       -0.87237
2.658287 2.630274 2.602411 2.574698 2.547136 2.519724 2.492462 2.465351 2.438391 2.411580 2.384920 2.358411 2.332052 2.305843 2.279785 2.253877 2.228120 2.202513 2.177057 2.151750 2.126595 2.101589 2.076735 2.052030 2.027476 2.003072 1.978819 1.954716 1.930764 1.906962 1.883310 1.859809 1.836458 1.813258 1.790208 1.767308 1.744559 1.721961 1.699512 1.677214 1.655067 1.633070 1.611223 1.589527 1.567981 1.546586 1.525341 1.504246 1.483302 1.462508 1.441865 1.510065 1.821696 1.498068 1.184753 0.936913 0.545451 0.904874 0.636617 0.857917 0.915578 0.579776 0.687191 0.769247 0.814078 0.613158 0.518216 0.352117 0.094467 0.064017 0.032742 0.068436 0.295520 -0.048863 0.059281 -0.134306 -0.027266 -0.019138 0.070646 0.059426 0.117270 0.174393 0.267427 0.240652 0.474946 0.390523 0.534604 0.529926 0.770821 0.791757 0.876926 0.938952 0.930414 0.955435 1.101132 0.937442 1.130269 0.940370 0.856346 1.008141 0.839982 0.751951 0.635382 0.582815 0.462396 0.404948 0.501998 0.258758 0.190629 0.170524 0.017074 0.200181 -0.014559 0.106841 0.166432 0.262473 0.338617 0.332069 0.425846 0.553838 0.678763 0.540981 0.735462 0.867441 0.637544 0.702844 0.677579 0.594244 0.535418 0.468686 0.308111 0.207024 0.128124 -0.025953 -0.019134 0.052957 -0.076765 -0.052692 0.071010 0.045729 0.100104 0.228968 0.233794 0.319247 0.415372 0.445314 0.449332 0.464233 0.445461 0.306336 0.343004 0.248247 0.046363 0.068835 0.023501 -0.049315 -0.105943 -0.091348 -0.013917 -0.047560 0.081217 0.144026 0.156243 0.254552 0.224750 0.254297 0.303614 0.242394 0.250695 0.228372 0.163769 0.127467 0.133128 0.039017 0.034393 -0.108027 -0.037208 0.006156 0.006213 0.019479 0.120789 0.086109 0.145445 0.189248 0.261305 0.172586 0.208411 0.120716 0.136381 0.035412 -0.023366 0.008748 -0.004734 -0.013136 0.004317 0.039270 0.063611 0.061494 0.149487 0.094144 0.172445 0.090289 0.178743 0.086153 -0.008691 -0.045856 -0.033697 -0.037835 -0.066569 -0.051245 0.051963 0.054413 -0.010432 0.067761 0.072879 0.079048 0.152661 0.075223 0.084382 0.043526 -0.020497 0.042408 0.003526 0.018691 0.026108 -0.000971 0.042774 0.059649 0.060347 0.041620 0.046559 0.015198 0.068438 0.002351 -0.020502 0.024333 0.002005 0.055358 0.037221 0.033697 0.034142 0.048741 0.016568 0.036937 -0.006433 -0.054083 -0.046557 -0.024914 0.009278 0.030833 0.104852 -0.014831 0.027920 0.057361 0.003157 0.065264 0.018790 0.011735 0.035173 0.047863 0.042249 0.095274 0.056766 0.077620 0.086745 0.085428 0.062134 0.074387 0.081909 0.046446 -0.007365 0.054954 0.043513 0.048820 0.070020 0.079635 0.028991 0.079785 0.089309 0.038654 0.035131 -0.069009 0.008091 0.115465 0.071771 0.069217 0.061379 0.002486 0.061285 0.052695 -0.040499 0.047065 0.053397 0.079596 0.039071 -0.021685 0.002502 0.072691 0.041477 0.034195 0.042879 -0.008521 0.046155 0.121594 0.046914 -0.010633 0.017102 0.010855 -0.012903 -0.014159 0.009486 -0.006848 -0.098630 -0.021287 0.012178 0.038479 -0.037715 -0.080337 0.013093 -0.072107 -0.028162 -0.027839 0.059455 0.017656 0.028315 -0.002835 0.078766 -0.047053 -0.060776 -0.024449 -0.058833 0.019225 -0.005666 0.121872 -0.080085 -0.001260 0.054232 -0.062968 0.014388 0.030441 -0.039781 -0.099618 -0.030274 -0.039742 -0.013053 0.016386 -0.018460 0.170624 0.100733 0.041572 -0.013806 -0.043595 -0.004308 0.080680 0.277999 0.220138 0.263779 0.243267 0.263428 0.248620 0.185860 0.025004 -1.019299
0.072396 0.072910 0.074452 0.077021 0.080617 0.085238 0.090884 0.097553 0.105243 0.113950 0.123671 0.134402 0.146136 0.158867 0.172588 0.187287 0.202954 0.219574 0.237133 0.255610 0.274986 0.295236 0.316331 0.338242 0.360931 0.384361 0.408486 0.433259 0.458624 0.484523 0.510890 0.537654 0.564738 0.592058 0.619523 0.647035 0.674491 0.701778 0.728779 0.755368 0.781410 0.806768 0.831293 0.854834 0.877229 0.898316 0.917922 0.935875 0.951994 0.966100 0.978007 0.987533 0.994493 0.998705 0.999991 0.998176 0.993092 0.984580 0.972492 0.956690 0.937052 0.913474 0.885867 0.854168 0.818335 0.778351 0.734230 0.686015 0.633783 0.577644 0.517746 0.454275 0.387458 0.317560 0.244891 0.169803 0.092688 0.013981 0.065841 0.146262 0.226731 0.306660 0.385430 0.462397 0.536893 0.608234 0.675726 0.738669 0.796370 0.848146 0.893335 0.931305 0.961464 0.983268 0.996233 0.999944 0.994068 0.978357 0.952665 0.916952 0.871293 0.815885 0.751052 0.677250 0.595071 0.505239 0.408612 0.306178 0.199050 0.088455 0.024275 0.137718 0.250374 0.360689 0.467073 0.567921 0.661645 0.746691 0.821574 0.884905 0.935419 0.972007 0.993740 0.999898 0.989996 0.963804 0.921366 0.863018 0.789390 0.701418 0.600339 0.487684 0.365262 0.235139 0.099614 0.038824 0.177531 0.313760 0.444715 0.567603 0.679702 0.778425 0.861380 0.926438 0.971795 0.996029 0.998152 0.977659 0.934556 0.869391 0.783262 0.677821 0.555249 0.418232 0.269915 0.113833 0.046159 0.205976 0.361408 0.508227 0.642305 0.759738 0.856963 0.930881 0.978963 0.999354 0.990954 0.953485 0.887537 0.794582 0.676968 0.537881 0.381277 0.211787 0.034591 0.144729 0.320356 0.486433 0.637254 0.767472 0.872296 0.947683 0.990514 0.998739 0.971494 0.909180 0.813497 0.687424 0.535165 0.362023 0.174250 0.021180 0.216803 0.404949 0.578053 0.728951 0.851200 0.939366 0.989291 0.998313 0.965435 0.891423 0.778841 0.631993 0.456805 0.260602 0.051838 0.160259 0.366084 0.556090 0.721232 0.853423 0.945941 0.993811 0.994096 0.946115 0.851548 0.714432 0.541029 0.339590 0.119977 0.106770 0.329003 0.535038 0.713784 0.855363 0.951676 0.996903 0.987898 0.924444 0.809358 0.648421 0.450147 0.225367 0.013321 0.252237 0.477399 0.675339 0.833928 0.943149 0.995772 0.987878 0.919203 0.793254 0.617207 0.401553 0.159520 0.093696 0.341865 0.568763 0.759231 0.900227 0.981755 0.997627 0.945992 0.829581 0.655650 0.435596 0.184268 0.080991 0.341501 0.578575 0.774850 0.915603 0.989902 0.991516 0.919507 0.778440 0.578181 0.333286 0.062006 0.215036 0.476376 0.701402 0.871977 0.973968 0.998474 0.942687 0.810268 0.611212 0.361190 0.080379 0.208110 0.480110 0.712425 0.884839 0.981926 0.994509 0.920618 0.765835 0.542985 0.271164 0.025806 0.321444 0.588926 0.803549 0.945058 0.999623 0.961293 0.832734 0.625185 0.357585 0.054934 0.253974 0.539269 0.772889 0.931394 0.998393 0.966338 0.837484 0.623880 0.346372 0.032669 0.285359 0.574887 0.805538 0.952618 0.999854 0.941305 0.782229 0.538762 0.236405 0.092533 0.412347 0.687777 0.887939 0.989864 0.981244 0.862049 0.644793 0.353374 0.020567 0.315580 0.616063 0.845463 0.976195 0.991930 0.889788 0.680951 0.389612 0.050308 0.296078 0.607194 0.844429 0.977760 0.989687 0.877675 0.654783 0.348310 0.003390 0.355620 0.662982 0.885255 0.992752 0.970419 0.820120 0.560715 0.225882 0.140121 0.488216 0.771085 0.949633 0.998552
1.000000 1.000000 1.000000 1.000000 1.000000 1.000000 1.000000 1.000000 1.000000 1.000000 1.000000 1.000000 1.000000 1.000000 1.000000 1.000000 1.000000 1.000000 1.000000 1.000000 1.000000 1.000000 1.000000 1.000000 1.000000 1.000000 1.000000 1.000000 1.000000 1.000000 1.000000 1.000000 1.000000 1.000000 1.000000 1.000000 1.000000 1.000000 1.000000 1.000000 1.000000 1.000000 1.000000 1.000000 1.000000 1.000000 1.000000 1.000000 1.000000 1.000000 1.000000 1.000000 0.912954 0.912954 0.900489 0.900489 0.900489 0.900489 0.900489 0.900489 0.900489 0.900489 0.900489 0.900489 0.900489 0.900489 0.900489 0.900489 0.900489 0.900489 0.900489 0.900489 0.900489 0.900489 0.900489 0.900489 0.900489 0.900489 0.900489 0.900489 0.900489 0.900489 0.900489 0.900489 0.900489 0.900489 0.900489 0.900489 0.900489 0.900489 0.900489 0.900489 0.900489 0.900489 0.900489 0.896565 0.901481 0.903767 0.902252 0.905887 0.905959 0.903712 0.903184 0.902795 0.903123 0.904584 0.915166 0.926266 0.937567 0.938162 0.943383 0.947727 0.950072 0.950727 0.952074 0.961778 0.958958 0.958404 0.959238 0.961069 0.963411 0.962108 0.961798 0.963918 0.964770 0.963071 0.960807 0.960030 0.959268 0.959282 0.958864 0.958745 0.959903 0.960426 0.960009 0.959796 0.959956 0.960004 0.958510 0.958407 0.961037 0.962458 0.962333 0.960882 0.958292 0.968044 0.968751 0.968468 0.968426 0.968012 0.968335 0.956584 0.951125 0.951061 0.946615 0.945705 0.943187 0.941956 0.940662 0.941052 0.942286 0.943033 0.936465 0.924101 0.910158 0.893808 0.919494 0.907340 0.890357 0.867192 0.865750 0.857915 0.858677 0.853345 0.844781 0.841202 0.837782 0.839519 0.842349 0.847018 0.844832 0.834693 0.837281 0.832268 0.801235 0.788528 0.775341 0.777015 0.774249 0.775636 0.772718 0.771067 0.779011 0.765410 0.762964 0.754879 0.741582 0.710425 0.695579 0.705070 0.713079 0.723070 0.719453 0.705071 0.658588 0.663423 0.684629 0.677121 0.679849 0.671843 0.666343 0.665283 0.659460 0.656086 0.649024 0.649215 0.648389 0.656510 0.664252 0.656305 0.645692 0.633308 0.620491 0.602511 0.609872 0.620182 0.587454 0.582716 0.573923 0.566822 0.560466 0.543620 0.542824 0.517826 0.507634 0.502135 0.503239 0.506735 0.513503 0.514273 0.498795 0.519366 0.515487 0.542861 0.513494 0.510520 0.513887 0.519573 0.501792 0.496030 0.491839 0.492626 0.498565 0.523082 0.552551 0.544715 0.536068 0.528236 0.536848 0.509932 0.518948 0.549146 0.532914 0.478607 0.434352 0.431046 0.391421 0.393667 0.376838 0.356453 0.360383 0.341202 0.329407 0.314956 0.299788 0.276401 0.236963 0.207645 0.185481 0.192377 0.214829 0.216528 0.212321 0.248667 0.292835 0.298329 0.286373 0.244765 0.237301 0.202307 0.200031 0.204406 0.163196 0.158949 0.151518 0.125244 0.115589 0.083532 0.107555 0.025023 0.016710 0.017416 0.040168 0.029269 0.025158 0.023617 -0.015283 -0.016167 -0.013527 -0.036049 -0.057830 -0.041805 -0.059425 -0.052504 -0.047243 -0.036751 -0.062343 -0.090344 -0.090587 -0.095955 -0.087241 -0.096900 -0.096073 -0.033101 -0.001672 -0.007076 0.000530 -0.002822 0.013524 0.021396 0.023960 -0.009171 -0.037494 -0.072946 -0.103391 -0.103391 -0.080753 -0.080753 -0.080753 -0.080753 -0.080753 -0.080753 -0.080753 -0.080753 -0.080753 -0.083867 -0.083867 -0.083867 -0.083867 -0.083867 -0.083867 -0.083867 -0.083867 -0.083867 -0.071880 -0.071880 -0.071880 -0.071880 -0.071880 -0.071880 -0.071880 -0.071880 -0.071880
0.000000 0.000000 0.000000 0.000000 0.000000 0.000000 0.000000 0.000000 0.000000 0.000000 0.000000 0.000000 0.000000 0.000000 0.000000 0.000000 0.000000 0.000000 0.000000 0.000000 0.000000 0.000000 0.000000 0.000000 0.000000 0.000000 0.000000 0.000000 0.000000 0.000000 0.000000 0.000000 0.000000 0.000000 0.000000 0.000000 0.000000 0.000000 0.000000 0.000000 0.000000 0.000000 0.000000 0.000000 0.000000 0.000000 0.000000 0.000000 0.000000 0.000000 0.000000 0.000000 0.181818 0.181818 0.199007 0.199007 0.199007 0.199007 0.199007 0.199007 0.199007 0.199007 0.199007 0.199007 0.199007 0.199007 0.199007 0.199007 0.199007 0.199007 0.199007 0.199007 0.199007 0.199007 0.199007 0.199007 0.199007 0.199007 0.199007 0.199007 0.199007 0.199007 0.199007 0.199007 0.199007 0.199007 0.199007 0.199007 0.199007 0.199007 0.199007 0.199007 0.199007 0.199007 0.199007 0.230940 0.230940 0.230940 0.230940 0.230940 0.230940 0.230940 0.230940 0.230940 0.230940 0.230940 0.230940 0.230940 0.230940 0.230940 0.230940 0.230940 0.230940 0.230940 0.230940 0.230940 0.230940 0.230940 0.230940 0.230940 0.230940 0.230940 0.230940 0.244339 0.244339 0.244339 0.244339 0.244339 0.244339 0.244339 0.244339 0.244339 0.244339 0.244339 0.244339 0.244339 0.244339 0.244339 0.244339 0.244339 0.244339 0.244339 0.244339 0.244339 0.244339 0.244339 0.251976 0.251976 0.251976 0.251976 0.251976 0.251976 0.251976 0.251976 0.251976 0.251976 0.251976 0.251976 0.251976 0.251976 0.251976 0.251976 0.251976 0.251976 0.251976 0.251976 0.264906 0.264906 0.264906 0.264906 0.264906 0.264906 0.264906 0.264906 0.264906 0.264906 0.264906 0.264906 0.264906 0.264906 0.264906 0.264906 0.264906 0.264906 0.264906 0.264906 0.264906 0.264906 0.264906 0.264906 0.264906 0.264906 0.264906 0.264906 0.264906 0.264906 0.264906 0.264906 0.264906 0.264906 0.264906 0.264906 0.264906 0.264906 0.264906 0.264906 0.264906 0.264906 0.264906 0.264906 0.264906 0.264906 0.264906 0.264906 0.264906 0.264906 0.264906 0.264906 0.264906 0.264906 0.264906 0.264906 0.264906 0.264906 0.264906 0.264906 0.264906 0.264906 0.264906 0.264906 0.264906 0.264906 0.264906 0.264906 0.264906 0.264906 0.264906 0.264906 0.264906 0.264906 0.264906 0.269680 0.269680 0.269680 0.269680 0.269680 0.269680 0.269680 0.269680 0.269680 0.269680 0.269680 0.269680 0.264906 0.264906 0.264906 0.264906 0.264906 0.264906 0.264906 0.264906 0.264906 0.264906 0.264906 0.264906 0.269680 0.269680 0.269680 0.269680 0.269680 0.269680 0.269680 0.269680 0.269680 0.269680 0.269680 0.264906 0.264906 0.264906 0.264906 0.264906 0.264906 0.264906 0.264906 0.264906 0.264906 0.264906 0.256074 0.256074 0.256074 0.256074 0.256074 0.256074 0.256074 0.256074 0.256074 0.256074 0.256074 0.264906 0.264906 0.264906 0.264906 0.264906 0.264906 0.264906 0.264906 0.264906 0.264906 0.269680 0.269680 0.269680 0.269680 0.269680 0.269680 0.269680 0.269680 0.269680 0.256074 0.256074 0.256074 0.256074 0.256074 0.256074 0.256074 0.256074 0.256074 0.256074 0.260378 0.260378 0.260378 0.260378 0.260378 0.260378 0.260378 0.260378 0.260378 0.256074 0.256074 0.256074 0.256074 0.256074 0.256074 0.256074 0.256074 0.256074 0.251976 0.251976 0.251976 0.251976 0.251976 0.251976 0.251976 0.251976 0.251976 0.264906 0.264906 0.264906 0.264906 0.264906 0.264906 0.264906 0.264906 0.264906
