# Output from CTFFind version 4.1.9, run on 2019-11-03 20:05:48
# Input file: stack1_bm3d_averaged_1_7.5_0_1000_half.mrc ; Number of micrographs: 1
# Pixel size: 3.000 Angstroms ; acceleration voltage: 300.0 keV ; spherical aberration: 0.00 mm ; amplitude contrast: 0.07
# Box size: 512 pixels ; min. res.: 30.0 Angstroms ; max. res.: 5.0 Angstroms ; min. def.: 5000.0 um; max. def. 50000.0 um; num. frames averaged: 1
# 6 lines per micrograph: #1 - spatial frequency (1/Angstroms); #2 - 1D rotational average of spectrum (assuming no astigmatism); #3 - 1D rotational average of spectrum; #4 - CTF fit; #5 - cross-correlation between spectrum and CTF fit; #6 - 2sigma of expected cross correlation of noise
0.000000 0.000651 0.001302 0.001953 0.002604 0.003255 0.003906 0.004557 0.005208 0.005859 0.006510 0.007161 0.007812 0.008464 0.009115 0.009766 0.010417 0.011068 0.011719 0.012370 0.013021 0.013672 0.014323 0.014974 0.015625 0.016276 0.016927 0.017578 0.018229 0.018880 0.019531 0.020182 0.020833 0.021484 0.022135 0.022786 0.023438 0.024089 0.024740 0.025391 0.026042 0.026693 0.027344 0.027995 0.028646 0.029297 0.029948 0.030599 0.031250 0.031901 0.032552 0.033203 0.033854 0.034505 0.035156 0.035807 0.036458 0.037109 0.037760 0.038411 0.039062 0.039714 0.040365 0.041016 0.041667 0.042318 0.042969 0.043620 0.044271 0.044922 0.045573 0.046224 0.046875 0.047526 0.048177 0.048828 0.049479 0.050130 0.050781 0.051432 0.052083 0.052734 0.053385 0.054036 0.054688 0.055339 0.055990 0.056641 0.057292 0.057943 0.058594 0.059245 0.059896 0.060547 0.061198 0.061849 0.062500 0.063151 0.063802 0.064453 0.065104 0.065755 0.066406 0.067057 0.067708 0.068359 0.069010 0.069661 0.070312 0.070964 0.071615 0.072266 0.072917 0.073568 0.074219 0.074870 0.075521 0.076172 0.076823 0.077474 0.078125 0.078776 0.079427 0.080078 0.080729 0.081380 0.082031 0.082682 0.083333 0.083984 0.084635 0.085286 0.085938 0.086589 0.087240 0.087891 0.088542 0.089193 0.089844 0.090495 0.091146 0.091797 0.092448 0.093099 0.093750 0.094401 0.095052 0.095703 0.096354 0.097005 0.097656 0.098307 0.098958 0.099609 0.100260 0.100911 0.101562 0.102214 0.102865 0.103516 0.104167 0.104818 0.105469 0.106120 0.106771 0.107422 0.108073 0.108724 0.109375 0.110026 0.110677 0.111328 0.111979 0.112630 0.113281 0.113932 0.114583 0.115234 0.115885 0.116536 0.117188 0.117839 0.118490 0.119141 0.119792 0.120443 0.121094 0.121745 0.122396 0.123047 0.123698 0.124349 0.125000 0.125651 0.126302 0.126953 0.127604 0.128255 0.128906 0.129557 0.130208 0.130859 0.131510 0.132161 0.132812 0.133464 0.134115 0.134766 0.135417 0.136068 0.136719 0.137370 0.138021 0.138672 0.139323 0.139974 0.140625 0.141276 0.141927 0.142578 0.143229 0.143880 0.144531 0.145182 0.145833 0.146484 0.147135 0.147786 0.148438 0.149089 0.149740 0.150391 0.151042 0.151693 0.152344 0.152995 0.153646 0.154297 0.154948 0.155599 0.156250 0.156901 0.157552 0.158203 0.158854 0.159505 0.160156 0.160807 0.161458 0.162109 0.162760 0.163411 0.164062 0.164714 0.165365 0.166016 0.166667 0.167318 0.167969 0.168620 0.169271 0.169922 0.170573 0.171224 0.171875 0.172526 0.173177 0.173828 0.174479 0.175130 0.175781 0.176432 0.177083 0.177734 0.178385 0.179036 0.179688 0.180339 0.180990 0.181641 0.182292 0.182943 0.183594 0.184245 0.184896 0.185547 0.186198 0.186849 0.187500 0.188151 0.188802 0.189453 0.190104 0.190755 0.191406 0.192057 0.192708 0.193359 0.194010 0.194661 0.195312 0.195964 0.196615 0.197266 0.197917 0.198568 0.199219 0.199870 0.200521 0.201172 0.201823 0.202474 0.203125 0.203776 0.204427 0.205078 0.205729 0.206380 0.207031 0.207682 0.208333 0.208984 0.209635 0.210286 0.210938 0.211589 0.212240 0.212891 0.213542 0.214193 0.214844 0.215495 0.216146 0.216797 0.217448 0.218099 0.218750 0.219401 0.220052 0.220703 0.221354 0.222005 0.222656 0.223307 0.223958 0.224609 0.225260 0.225911 0.226562 0.227214 0.227865 0.228516 0.229167 0.229818 0.230469 0.231120 0.231771 0.232422 0.233073 0.233724 0.234375 0.235026 0.235677
       0.33883        0.33883        0.33883        0.33883        0.33883        0.33883        0.33883        0.33883        0.33883        0.33883        0.33883        0.33883        0.33883        0.33883        0.33883        0.33883        0.33883        0.33883        0.33883        0.33883        0.33883        0.33883        0.33883        0.33883        0.33883        0.33883        0.33883        0.33883        0.33883        0.33883        0.33883        0.33883        0.33883        0.33883        0.33883        0.33883        0.33883        0.33883        0.33883        0.33883        0.33883        0.33883        0.33883        0.33883        0.33883        0.33883        0.33883        0.33883        0.33883        0.33883        0.33883        0.32651        0.45986        0.21428        0.06709       -0.00017       -0.27135       -0.11964       -0.15289       -0.22354        0.00227       -0.14819       -0.06086       -0.06440       -0.04860       -0.12243       -0.16689       -0.24599       -0.28972       -0.40101       -0.33377       -0.23624       -0.21656       -0.31228       -0.23129       -0.28399       -0.25519       -0.27721       -0.12391       -0.13981       -0.19646       -0.03233        0.03582       -0.02102        0.06361        0.03834        0.23690        0.24491        0.33045        0.34558        0.36749        0.40368        0.48008        0.53733        0.54229        0.49514        0.48245        0.50719        0.46480        0.50443        0.42809        0.40511        0.41023        0.35355        0.29265        0.30511        0.32582        0.21525        0.19633        0.12964        0.15475        0.16105        0.17171        0.16097        0.23816        0.29883        0.31077        0.28290        0.39179        0.46815        0.39343        0.48240        0.58238        0.53149        0.50937        0.56416        0.59177        0.41472        0.47370        0.40004        0.32927        0.30545        0.28059        0.24993        0.19433        0.18413        0.15419        0.19786        0.25027        0.27989        0.33399        0.30073        0.40156        0.40713        0.44902        0.49142        0.47000        0.49479        0.43875        0.42722        0.40173        0.33463        0.30621        0.31145        0.31335        0.24660        0.24518        0.24921        0.24450        0.26929        0.31682        0.42148        0.46728        0.41300        0.42464        0.45887        0.43686        0.46180        0.45163        0.38358        0.35675        0.38862        0.35546        0.30859        0.29868        0.30620        0.27171        0.29418        0.30107        0.31768        0.36875        0.37085        0.40574        0.41286        0.35477        0.44270        0.40818        0.34389        0.30620        0.33763        0.32593        0.29350        0.30977        0.29001        0.29679        0.32187        0.32820        0.42711        0.39709        0.37404        0.39513        0.43287        0.36700        0.34639        0.33836        0.34729        0.27308        0.26944        0.30308        0.37909        0.37970        0.33674        0.34621        0.39226        0.38349        0.44948        0.37751        0.36505        0.33052        0.31212        0.31190        0.31286        0.33985        0.37476        0.36485        0.37148        0.32407        0.43005        0.34580        0.34989        0.33855        0.37647        0.36316        0.28919        0.30587        0.26384        0.31197        0.32272        0.31431        0.33592        0.31841        0.34603        0.33501        0.33716        0.31553        0.29613        0.27363        0.31642        0.33960        0.31719        0.29192        0.33361        0.32327        0.32940        0.33272        0.29780        0.28386        0.29584        0.32101        0.31221        0.31014        0.28450        0.30122        0.34754        0.32506        0.31560        0.38505        0.32418        0.26877        0.31126        0.32573        0.31215        0.34058        0.29980        0.32290        0.26832        0.31596        0.33590        0.35743        0.30007        0.31417        0.30721        0.28896        0.35818        0.35269        0.30891        0.30476        0.29298        0.28648        0.34013        0.33853        0.27901        0.32483        0.28510        0.26696        0.25593        0.30032        0.33257        0.32122        0.23789        0.27336        0.33883        0.30517        0.32330        0.33548        0.30531        0.31629        0.32301        0.30277        0.27858        0.27330        0.28400        0.32902        0.32722        0.30569        0.32353        0.35152        0.33547        0.28895        0.30403        0.29360        0.30310        0.29116        0.23873        0.25592        0.31358        0.35227        0.24720        0.21433        0.18297        0.28910        0.29608        0.28466        0.30536        0.28068        0.27438        0.24289        0.28464        0.26707        0.30819        0.23431        0.25468        0.25630        0.21623        0.25282        0.32391        0.32313        0.26586        0.22232        0.21924        0.15650        0.23935        0.24593        0.37832        0.28277        0.21911        0.30557        0.36132        0.14592       -0.07890       -0.13657       -0.61895       -0.78662
3.329551 3.292278 3.255218 3.218369 3.181733 3.145308 3.109095 3.073094 3.037305 3.001728 2.966363 2.931210 2.896269 2.861540 2.827022 2.792717 2.758623 2.724742 2.691072 2.657614 2.624368 2.591334 2.558513 2.525902 2.493504 2.461318 2.429344 2.397582 2.366031 2.334693 2.303566 2.272652 2.241949 2.211458 2.181179 2.151112 2.121257 2.091614 2.062183 2.032964 2.003957 1.975161 1.946578 1.918207 1.890047 1.862099 1.834364 1.806840 1.779528 1.752428 1.725540 1.612643 1.902644 1.639573 1.084320 1.115310 0.337266 0.864431 0.515229 0.616881 0.889386 0.635591 0.660945 0.727320 0.665866 0.628195 0.425234 0.329988 0.190739 0.001880 0.005551 0.132504 0.388504 -0.031916 0.156537 0.041125 0.165841 -0.057266 0.255126 0.169180 0.097903 0.293497 0.495803 0.292219 0.424646 0.348799 0.778915 0.633573 0.831138 0.869150 0.772337 0.992413 0.899114 1.208167 1.025011 1.148110 0.937720 0.994031 0.947413 0.867526 0.901996 0.740928 0.717358 0.646302 0.614465 0.443595 0.548075 0.423337 0.259826 0.202262 0.133652 0.171575 0.197982 0.138827 0.188962 0.383014 0.340171 0.351095 0.451325 0.542371 0.528938 0.414035 0.788971 0.780050 0.599648 0.679319 0.750880 0.542287 0.395299 0.504701 0.201985 0.259235 0.102832 0.145062 -0.009147 -0.039794 -0.104506 -0.098392 0.085491 -0.018501 0.116989 0.191947 0.149876 0.290063 0.282257 0.416644 0.315242 0.426836 0.296920 0.247839 0.234442 0.149810 0.064839 0.046303 0.025796 -0.003160 -0.048297 -0.113073 -0.112705 -0.045124 -0.071924 0.133552 0.313950 0.219323 0.190462 0.285132 0.303999 0.222244 0.340452 0.277046 0.148697 0.136188 0.249934 0.012902 0.046193 0.014733 0.050254 -0.024403 0.085757 0.005472 0.150462 0.010940 0.207237 0.244865 0.160218 0.264371 0.182758 0.141384 0.051490 0.068931 0.075543 0.032751 -0.013879 0.031839 -0.033663 0.009590 0.031696 0.112258 0.253749 0.147158 0.145413 0.263188 0.141829 0.172917 0.038972 0.099273 0.073449 -0.093743 0.003973 0.047090 0.179641 0.125109 0.057521 0.097875 0.188195 0.176122 0.269386 0.121338 0.123549 0.044036 0.008002 0.062222 0.049240 0.099579 0.164418 0.134594 0.088914 0.148548 0.193248 0.015313 0.108660 0.073220 0.155532 0.059716 -0.003870 -0.000464 -0.057017 0.045510 0.052415 0.045600 0.015708 0.045927 0.048254 0.010491 0.027880 -0.012697 -0.071082 -0.035381 -0.045832 0.075352 -0.052866 -0.014873 0.027325 0.002671 0.035094 0.047797 -0.038311 -0.033961 -0.025479 0.033293 0.001480 0.020383 -0.054067 -0.024618 0.093852 -0.002787 -0.009786 0.159128 -0.069555 -0.078244 0.012952 0.007409 -0.017347 0.018445 -0.034933 0.000837 -0.118459 0.034164 0.056445 0.068851 -0.060229 0.003658 -0.042535 -0.027141 0.068991 0.067248 -0.062944 -0.039554 -0.038392 -0.060249 0.041205 -0.002357 -0.075485 0.043540 -0.079288 -0.099418 -0.091652 -0.055249 0.014849 -0.041807 -0.216368 -0.028573 0.057790 -0.050287 -0.034781 0.047776 -0.049216 0.003461 -0.069077 -0.061520 -0.099690 -0.100601 -0.106252 0.052187 0.001633 -0.063221 -0.000745 0.104825 -0.099349 -0.005755 0.018264 -0.083509 0.030530 -0.015271 -0.115807 -0.068382 0.031039 0.151193 0.028698 -0.163490 -0.062148 0.171785 0.044268 0.031334 0.164533 0.091894 0.003114 0.008596 0.056161 0.062867 0.082870 -0.051647 0.009546 0.021404 -0.169229 0.010654 0.127140 0.003857 -0.033283 -0.092643 -0.229292 -0.165199 -0.247458 -0.214629 0.632822 0.558476 0.380874 0.569249 0.818603 0.270492 -0.325322 -0.225451 -1.359233
0.072396 0.072908 0.074442 0.076998 0.080577 0.085176 0.090794 0.097431 0.105083 0.113748 0.123422 0.134100 0.145778 0.158448 0.172102 0.186732 0.202324 0.218866 0.236341 0.254733 0.274019 0.294176 0.315177 0.336990 0.359581 0.382910 0.406935 0.431607 0.456872 0.482673 0.508944 0.535616 0.562612 0.589849 0.617239 0.644684 0.672082 0.699323 0.726289 0.752856 0.778894 0.804264 0.828820 0.852412 0.874883 0.896068 0.915799 0.933904 0.950206 0.964524 0.976677 0.986483 0.993758 0.998321 0.999995 0.998606 0.993986 0.985976 0.974427 0.959201 0.940174 0.917240 0.890309 0.859314 0.824209 0.784975 0.741620 0.694182 0.642732 0.587372 0.528245 0.465528 0.399438 0.330234 0.258215 0.183720 0.107135 0.028882 0.050573 0.130725 0.211032 0.290920 0.369778 0.446973 0.521845 0.593718 0.661904 0.725710 0.784446 0.837430 0.884000 0.923521 0.955397 0.979075 0.994061 0.999926 0.996320 0.982977 0.959727 0.926503 0.883353 0.830442 0.768061 0.696630 0.616700 0.528959 0.434226 0.333447 0.227696 0.118161 0.006140 0.106978 0.219724 0.330569 0.437941 0.540248 0.635908 0.723363 0.801119 0.867766 0.922011 0.962703 0.988865 0.999718 0.994709 0.973530 0.936141 0.882786 0.813998 0.730613 0.633764 0.524881 0.405673 0.278114 0.144412 0.006982 0.131597 0.268628 0.401342 0.526961 0.642752 0.746093 0.834536 0.905871 0.958187 0.989934 0.999974 0.987630 0.952722 0.895600 0.817155 0.718827 0.602589 0.470931 0.326807 0.173591 0.015001 0.144984 0.302220 0.452503 0.591684 0.715785 0.821122 0.904423 0.962941 0.994556 0.997866 0.972259 0.917966 0.836090 0.728607 0.598342 0.448912 0.284649 0.110482 0.068198 0.245694 0.416185 0.573917 0.713402 0.829621 0.918211 0.975653 0.999424 0.988130 0.941599 0.860937 0.748531 0.608011 0.444161 0.262772 0.070470 0.125534 0.317682 0.498379 0.660286 0.796627 0.901496 0.970129 0.999141 0.986723 0.932776 0.838972 0.708744 0.547201 0.360955 0.157878 0.053210 0.262911 0.461660 0.640169 0.789870 0.903343 0.974712 0.999979 0.977281 0.907049 0.792067 0.637409 0.450252 0.239585 0.015805 0.209784 0.425523 0.620005 0.782697 0.904518 0.978392 0.999686 0.966546 0.880085 0.744410 0.566486 0.355825 0.124010 0.115900 0.350101 0.564825 0.747168 0.885879 0.972095 0.999951 0.967024 0.874583 0.727626 0.534661 0.307281 0.059501 0.193068 0.434189 0.648042 0.820286 0.939044 0.995771 0.985926 0.909392 0.770607 0.578378 0.345394 0.087444 0.177629 0.431118 0.654795 0.832233 0.950036 0.998934 0.974548 0.877866 0.715301 0.498346 0.242851 0.032099 0.305576 0.556364 0.764648 0.913582 0.990732 0.989169 0.908170 0.753437 0.536795 0.275359 0.009729 0.294992 0.556518 0.771986 0.922594 0.994780 0.981505 0.883039 0.707112 0.468402 0.187416 0.111211 0.400846 0.655213 0.850805 0.969109 0.998438 0.935181 0.784332 0.559217 0.280425 0.025987 0.330890 0.604808 0.820813 0.957199 0.999764 0.943384 0.792734 0.562037 0.273845 0.043083 0.356582 0.634331 0.847207 0.972396 0.995943 0.914411 0.735488 0.477403 0.167192 0.162039 0.474613 0.736117 0.917254 0.997202 0.966120 0.826498 0.593127 0.291690 0.043962 0.375533 0.664626 0.877221 0.987750 0.982302 0.860504 0.635849 0.334367 0.008268 0.350862 0.651640 0.873342 0.987938 0.980294 0.850317 0.613280 0.298198 0.055596 0.403267 0.700120 0.907405 0.997467 0.957565 0.791858 0.521183 0.180610 0.184983 0.526720 0.798290 0.962259
1.000000 1.000000 1.000000 1.000000 1.000000 1.000000 1.000000 1.000000 1.000000 1.000000 1.000000 1.000000 1.000000 1.000000 1.000000 1.000000 1.000000 1.000000 1.000000 1.000000 1.000000 1.000000 1.000000 1.000000 1.000000 1.000000 1.000000 1.000000 1.000000 1.000000 1.000000 1.000000 1.000000 1.000000 1.000000 1.000000 1.000000 1.000000 1.000000 1.000000 1.000000 1.000000 1.000000 1.000000 1.000000 1.000000 1.000000 1.000000 1.000000 1.000000 1.000000 1.000000 0.821798 0.821798 0.821798 0.797588 0.797588 0.797588 0.797588 0.797588 0.797588 0.797588 0.797588 0.797588 0.797588 0.797588 0.797588 0.797588 0.797588 0.797588 0.797588 0.797588 0.797588 0.797588 0.797588 0.797588 0.797588 0.797588 0.797588 0.797588 0.797588 0.797588 0.797588 0.797588 0.797588 0.797588 0.797588 0.797588 0.797588 0.797588 0.797588 0.797588 0.797588 0.797588 0.797588 0.797588 0.853302 0.860003 0.865332 0.869030 0.869304 0.866358 0.865142 0.864735 0.864216 0.865444 0.874179 0.899616 0.912996 0.914230 0.927642 0.929060 0.934042 0.934801 0.954622 0.956118 0.957449 0.956568 0.957599 0.959691 0.966193 0.966394 0.964048 0.964076 0.966657 0.967317 0.967067 0.963605 0.962145 0.961873 0.959479 0.959215 0.958788 0.959474 0.959891 0.954683 0.955105 0.955344 0.957256 0.955878 0.945897 0.940578 0.936551 0.934690 0.917526 0.914752 0.915340 0.913577 0.905075 0.905583 0.895020 0.896497 0.896138 0.886712 0.886164 0.882586 0.878627 0.868500 0.867006 0.866589 0.869583 0.874694 0.877280 0.863733 0.847618 0.827918 0.811935 0.796127 0.797541 0.796704 0.791622 0.795527 0.796847 0.795253 0.793605 0.785916 0.772983 0.780377 0.778087 0.774221 0.768422 0.766454 0.753740 0.745961 0.741599 0.715769 0.703818 0.696756 0.706571 0.700148 0.700847 0.704675 0.712826 0.712355 0.712224 0.705045 0.701602 0.693457 0.673115 0.680140 0.690411 0.684399 0.678106 0.677418 0.650382 0.677841 0.681037 0.700484 0.708104 0.708649 0.708832 0.694499 0.667698 0.673119 0.674077 0.663798 0.670021 0.670299 0.664593 0.647593 0.652439 0.660085 0.680981 0.648248 0.640376 0.623112 0.623651 0.598823 0.583983 0.574514 0.572994 0.537987 0.536908 0.532940 0.524046 0.521348 0.508317 0.484919 0.467113 0.480794 0.464917 0.464877 0.459840 0.462216 0.452247 0.434062 0.411552 0.369113 0.386045 0.394402 0.373923 0.364241 0.329116 0.323061 0.323960 0.326529 0.290954 0.269376 0.272365 0.256729 0.252342 0.253235 0.256406 0.230527 0.233503 0.145988 0.145758 0.159616 0.162720 0.125054 0.111554 0.133629 0.140281 0.125058 0.097434 0.038585 -0.000449 -0.013067 0.009900 0.020074 0.010259 -0.008373 -0.011615 -0.012580 0.005764 -0.038340 -0.048700 -0.063263 -0.065006 -0.059290 -0.027998 -0.037453 -0.064033 -0.052182 -0.031433 -0.065287 -0.051333 -0.049228 -0.053048 -0.025288 -0.039398 -0.068172 -0.066641 -0.083244 -0.077738 -0.048230 -0.063354 -0.076982 -0.060542 -0.058102 -0.061728 -0.078978 -0.084065 -0.097645 -0.091498 -0.122652 -0.106774 -0.069349 -0.065295 -0.052634 0.007921 0.010340 0.007957 -0.029899 0.005865 -0.017407 -0.023980 -0.005200 -0.030837 -0.037156 0.003109 0.015148 0.027594 -0.024087 -0.037383 -0.037383 -0.037383 -0.066412 -0.066412 -0.066412 -0.066412 -0.066412 -0.066412 -0.066412 -0.066412 -0.066412 -0.066421 -0.066421 -0.066421 -0.066421 -0.066421 -0.066421 -0.066421 -0.066421 -0.066421 -0.066421 -0.066421 -0.066421 -0.066421 -0.066421 -0.066421 -0.066421 -0.066421
0.000000 0.000000 0.000000 0.000000 0.000000 0.000000 0.000000 0.000000 0.000000 0.000000 0.000000 0.000000 0.000000 0.000000 0.000000 0.000000 0.000000 0.000000 0.000000 0.000000 0.000000 0.000000 0.000000 0.000000 0.000000 0.000000 0.000000 0.000000 0.000000 0.000000 0.000000 0.000000 0.000000 0.000000 0.000000 0.000000 0.000000 0.000000 0.000000 0.000000 0.000000 0.000000 0.000000 0.000000 0.000000 0.000000 0.000000 0.000000 0.000000 0.000000 0.000000 0.000000 0.180334 0.180334 0.180334 0.199007 0.199007 0.199007 0.199007 0.199007 0.199007 0.199007 0.199007 0.199007 0.199007 0.199007 0.199007 0.199007 0.199007 0.199007 0.199007 0.199007 0.199007 0.199007 0.199007 0.199007 0.199007 0.199007 0.199007 0.199007 0.199007 0.199007 0.199007 0.199007 0.199007 0.199007 0.199007 0.199007 0.199007 0.199007 0.199007 0.199007 0.199007 0.199007 0.199007 0.199007 0.230940 0.230940 0.230940 0.230940 0.230940 0.230940 0.230940 0.230940 0.230940 0.230940 0.230940 0.230940 0.230940 0.230940 0.230940 0.230940 0.230940 0.230940 0.230940 0.230940 0.230940 0.230940 0.230940 0.230940 0.230940 0.230940 0.230940 0.230940 0.248069 0.248069 0.248069 0.248069 0.248069 0.248069 0.248069 0.248069 0.248069 0.248069 0.248069 0.248069 0.248069 0.248069 0.248069 0.248069 0.248069 0.248069 0.248069 0.248069 0.248069 0.248069 0.251976 0.251976 0.251976 0.251976 0.251976 0.251976 0.251976 0.251976 0.251976 0.251976 0.251976 0.251976 0.251976 0.251976 0.251976 0.251976 0.251976 0.251976 0.251976 0.251976 0.256074 0.256074 0.256074 0.256074 0.256074 0.256074 0.256074 0.256074 0.256074 0.256074 0.256074 0.256074 0.256074 0.256074 0.256074 0.256074 0.256074 0.256074 0.264906 0.264906 0.264906 0.264906 0.264906 0.264906 0.264906 0.264906 0.264906 0.264906 0.264906 0.264906 0.264906 0.264906 0.264906 0.264906 0.264906 0.264906 0.264906 0.264906 0.264906 0.264906 0.264906 0.264906 0.264906 0.264906 0.264906 0.264906 0.264906 0.264906 0.264906 0.274721 0.274721 0.274721 0.274721 0.274721 0.274721 0.274721 0.274721 0.274721 0.274721 0.274721 0.274721 0.274721 0.264906 0.264906 0.264906 0.264906 0.264906 0.264906 0.264906 0.264906 0.264906 0.264906 0.264906 0.264906 0.264906 0.260378 0.260378 0.260378 0.260378 0.260378 0.260378 0.260378 0.260378 0.260378 0.260378 0.260378 0.260378 0.260378 0.264906 0.264906 0.264906 0.264906 0.264906 0.264906 0.264906 0.264906 0.264906 0.264906 0.264906 0.264906 0.269680 0.269680 0.269680 0.269680 0.269680 0.269680 0.269680 0.269680 0.269680 0.269680 0.269680 0.264906 0.264906 0.264906 0.264906 0.264906 0.264906 0.264906 0.264906 0.264906 0.264906 0.264906 0.269680 0.269680 0.269680 0.269680 0.269680 0.269680 0.269680 0.269680 0.269680 0.269680 0.264906 0.264906 0.264906 0.264906 0.264906 0.264906 0.264906 0.264906 0.264906 0.264906 0.260378 0.260378 0.260378 0.260378 0.260378 0.260378 0.260378 0.260378 0.260378 0.260378 0.256074 0.256074 0.256074 0.256074 0.256074 0.256074 0.256074 0.256074 0.256074 0.256074 0.260378 0.260378 0.260378 0.260378 0.260378 0.260378 0.260378 0.260378 0.260378 0.256074 0.256074 0.256074 0.256074 0.256074 0.256074 0.256074 0.256074 0.256074 0.251976 0.251976 0.251976 0.251976 0.251976 0.251976 0.251976 0.251976 0.251976 0.251976 0.251976 0.251976 0.251976 0.251976 0.251976 0.251976 0.251976
