# Output from CTFFind version 4.1.9, run on 2019-11-03 19:30:21
# Input file: stack11_bm3d_averaged_1_3.75_0_2500_half.mrc ; Number of micrographs: 1
# Pixel size: 3.000 Angstroms ; acceleration voltage: 300.0 keV ; spherical aberration: 0.00 mm ; amplitude contrast: 0.07
# Box size: 512 pixels ; min. res.: 30.0 Angstroms ; max. res.: 5.0 Angstroms ; min. def.: 5000.0 um; max. def. 50000.0 um; num. frames averaged: 1
# 6 lines per micrograph: #1 - spatial frequency (1/Angstroms); #2 - 1D rotational average of spectrum (assuming no astigmatism); #3 - 1D rotational average of spectrum; #4 - CTF fit; #5 - cross-correlation between spectrum and CTF fit; #6 - 2sigma of expected cross correlation of noise
0.000000 0.000651 0.001302 0.001953 0.002604 0.003255 0.003906 0.004557 0.005208 0.005859 0.006510 0.007161 0.007812 0.008464 0.009115 0.009766 0.010417 0.011068 0.011719 0.012370 0.013021 0.013672 0.014323 0.014974 0.015625 0.016276 0.016927 0.017578 0.018229 0.018880 0.019531 0.020182 0.020833 0.021484 0.022135 0.022786 0.023438 0.024089 0.024740 0.025391 0.026042 0.026693 0.027344 0.027995 0.028646 0.029297 0.029948 0.030599 0.031250 0.031901 0.032552 0.033203 0.033854 0.034505 0.035156 0.035807 0.036458 0.037109 0.037760 0.038411 0.039062 0.039714 0.040365 0.041016 0.041667 0.042318 0.042969 0.043620 0.044271 0.044922 0.045573 0.046224 0.046875 0.047526 0.048177 0.048828 0.049479 0.050130 0.050781 0.051432 0.052083 0.052734 0.053385 0.054036 0.054688 0.055339 0.055990 0.056641 0.057292 0.057943 0.058594 0.059245 0.059896 0.060547 0.061198 0.061849 0.062500 0.063151 0.063802 0.064453 0.065104 0.065755 0.066406 0.067057 0.067708 0.068359 0.069010 0.069661 0.070312 0.070964 0.071615 0.072266 0.072917 0.073568 0.074219 0.074870 0.075521 0.076172 0.076823 0.077474 0.078125 0.078776 0.079427 0.080078 0.080729 0.081380 0.082031 0.082682 0.083333 0.083984 0.084635 0.085286 0.085938 0.086589 0.087240 0.087891 0.088542 0.089193 0.089844 0.090495 0.091146 0.091797 0.092448 0.093099 0.093750 0.094401 0.095052 0.095703 0.096354 0.097005 0.097656 0.098307 0.098958 0.099609 0.100260 0.100911 0.101562 0.102214 0.102865 0.103516 0.104167 0.104818 0.105469 0.106120 0.106771 0.107422 0.108073 0.108724 0.109375 0.110026 0.110677 0.111328 0.111979 0.112630 0.113281 0.113932 0.114583 0.115234 0.115885 0.116536 0.117188 0.117839 0.118490 0.119141 0.119792 0.120443 0.121094 0.121745 0.122396 0.123047 0.123698 0.124349 0.125000 0.125651 0.126302 0.126953 0.127604 0.128255 0.128906 0.129557 0.130208 0.130859 0.131510 0.132161 0.132812 0.133464 0.134115 0.134766 0.135417 0.136068 0.136719 0.137370 0.138021 0.138672 0.139323 0.139974 0.140625 0.141276 0.141927 0.142578 0.143229 0.143880 0.144531 0.145182 0.145833 0.146484 0.147135 0.147786 0.148438 0.149089 0.149740 0.150391 0.151042 0.151693 0.152344 0.152995 0.153646 0.154297 0.154948 0.155599 0.156250 0.156901 0.157552 0.158203 0.158854 0.159505 0.160156 0.160807 0.161458 0.162109 0.162760 0.163411 0.164062 0.164714 0.165365 0.166016 0.166667 0.167318 0.167969 0.168620 0.169271 0.169922 0.170573 0.171224 0.171875 0.172526 0.173177 0.173828 0.174479 0.175130 0.175781 0.176432 0.177083 0.177734 0.178385 0.179036 0.179688 0.180339 0.180990 0.181641 0.182292 0.182943 0.183594 0.184245 0.184896 0.185547 0.186198 0.186849 0.187500 0.188151 0.188802 0.189453 0.190104 0.190755 0.191406 0.192057 0.192708 0.193359 0.194010 0.194661 0.195312 0.195964 0.196615 0.197266 0.197917 0.198568 0.199219 0.199870 0.200521 0.201172 0.201823 0.202474 0.203125 0.203776 0.204427 0.205078 0.205729 0.206380 0.207031 0.207682 0.208333 0.208984 0.209635 0.210286 0.210938 0.211589 0.212240 0.212891 0.213542 0.214193 0.214844 0.215495 0.216146 0.216797 0.217448 0.218099 0.218750 0.219401 0.220052 0.220703 0.221354 0.222005 0.222656 0.223307 0.223958 0.224609 0.225260 0.225911 0.226562 0.227214 0.227865 0.228516 0.229167 0.229818 0.230469 0.231120 0.231771 0.232422 0.233073 0.233724 0.234375 0.235026 0.235677
       0.32778        0.32778        0.32778        0.32778        0.32778        0.32778        0.32778        0.32778        0.32778        0.32778        0.32778        0.32778        0.32778        0.32778        0.32778        0.32778        0.32778        0.32778        0.32778        0.32778        0.32778        0.32778        0.32777        0.32778        0.32778        0.32778        0.32778        0.32778        0.32778        0.32778        0.32778        0.32778        0.32778        0.32778        0.32778        0.32778        0.32778        0.32778        0.32778        0.32777        0.32778        0.32778        0.32778        0.32778        0.32778        0.32778        0.32778        0.32778        0.32778        0.32778        0.32778        0.68813        0.86053        0.52801        0.09885       -0.04199       -0.40936       -0.18967       -0.29087       -0.11425       -0.06386       -0.11317       -0.05910       -0.18905       -0.21920       -0.23554       -0.32049       -0.33158       -0.46421       -0.37118       -0.44577       -0.43868       -0.40997       -0.44044       -0.49087       -0.53463       -0.57054       -0.58641       -0.55582       -0.38515       -0.35762       -0.31653       -0.29644       -0.20075       -0.19121        0.04025        0.10989        0.14274        0.24328        0.37455        0.45032        0.51350        0.57319        0.57129        0.56824        0.69114        0.80566        0.71758        0.73493        0.63886        0.56780        0.48171        0.41811        0.50441        0.38748        0.23536        0.09407        0.07570        0.05214       -0.04350       -0.00021        0.01792       -0.03025        0.00443       -0.00331        0.23279        0.26037        0.28852        0.42166        0.44532        0.40434        0.56456        0.62485        0.66465        0.74106        0.68258        0.65049        0.67536        0.56803        0.47509        0.41713        0.29129        0.22972        0.16489        0.12366        0.04977        0.03292        0.03148        0.08286        0.13709        0.22158        0.27409        0.39676        0.44531        0.48915        0.58858        0.61623        0.63212        0.62157        0.55973        0.45136        0.46192        0.36702        0.24284        0.19167        0.15139        0.14395        0.13878        0.11760        0.14479        0.27648        0.28921        0.37230        0.40192        0.43071        0.50051        0.54664        0.55037        0.48262        0.44754        0.39446        0.34837        0.31410        0.27695        0.22426        0.21915        0.20111        0.22529        0.20529        0.29315        0.34929        0.38477        0.43303        0.45316        0.47566        0.41893        0.39457        0.40593        0.36089        0.29132        0.26502        0.23810        0.23859        0.21213        0.25354        0.25719        0.33467        0.37078        0.39473        0.47265        0.42107        0.43060        0.42965        0.40229        0.34354        0.31840        0.28467        0.28995        0.25927        0.29214        0.29083        0.31538        0.32107        0.33936        0.31924        0.40389        0.41683        0.38043        0.34575        0.37013        0.29763        0.28348        0.27748        0.30528        0.28280        0.29714        0.31000        0.32390        0.33832        0.36402        0.37128        0.37833        0.36592        0.31388        0.32967        0.28451        0.25974        0.30885        0.30359        0.31874        0.32086        0.32140        0.35269        0.32312        0.31971        0.30486        0.31719        0.28844        0.29871        0.26592        0.29484        0.30362        0.28961        0.31122        0.32929        0.33398        0.27530        0.30957        0.28083        0.29183        0.27273        0.22708        0.28477        0.29040        0.34257        0.32510        0.32424        0.31814        0.32767        0.28687        0.32736        0.32253        0.28293        0.26841        0.31025        0.29671        0.34557        0.32805        0.33171        0.33656        0.29156        0.27230        0.29994        0.24207        0.21817        0.31164        0.31545        0.31723        0.31036        0.32088        0.29692        0.34137        0.33413        0.26156        0.23420        0.29714        0.30520        0.29468        0.32131        0.33709        0.33388        0.30405        0.29038        0.33596        0.31624        0.27860        0.25902        0.31501        0.35322        0.39055        0.30234        0.27184        0.27056        0.30684        0.25080        0.28951        0.26450        0.24980        0.31728        0.33701        0.34334        0.32785        0.28299        0.26521        0.27462        0.24854        0.23980        0.24144        0.31364        0.29313        0.21547        0.32862        0.32175        0.26108        0.26581        0.20230        0.20386        0.24544        0.18375        0.23575        0.26135        0.22039        0.19246        0.28633        0.34875        0.33415        0.33711        0.24335        0.20292        0.18517        0.23566        0.21523        0.14949        0.19909        0.24734        0.21424        0.20377        0.15014        0.09548        0.11259        0.06786       -0.09277       -0.63609
2.656006 2.628175 2.600494 2.572965 2.545586 2.518359 2.491283 2.464358 2.437584 2.410961 2.384489 2.358169 2.331999 2.305981 2.280114 2.254398 2.228833 2.203419 2.178157 2.153045 2.128085 2.103276 2.078617 2.054110 2.029754 2.005550 1.981496 1.957594 1.933842 1.910242 1.886793 1.863495 1.840348 1.817352 1.794507 1.771814 1.749271 1.726880 1.704640 1.682551 1.660613 1.638826 1.617190 1.595706 1.574372 1.553190 1.532159 1.511279 1.490550 1.469972 1.449545 1.667940 2.085619 1.647823 1.153974 1.019870 0.425146 0.830937 0.556303 0.838637 0.789194 0.802740 0.753373 0.724996 0.578216 0.535976 0.489249 0.428000 0.228828 0.373024 0.199379 0.316052 0.225926 0.191906 0.159995 0.026435 0.024788 0.005728 -0.066472 0.120045 0.219078 0.185845 0.161900 0.331960 0.185649 0.506522 0.607857 0.597048 0.620967 0.876448 0.828439 0.941484 0.905157 1.004766 0.966928 1.082151 1.148093 1.052107 1.150834 0.928948 0.934331 0.792671 0.655290 0.793464 0.711761 0.478379 0.325844 0.250987 0.251521 0.148625 0.114322 0.151997 0.102369 0.138281 0.064992 0.266509 0.376391 0.355067 0.475890 0.557116 0.436404 0.580641 0.720358 0.714149 0.758551 0.718670 0.734503 0.684036 0.615906 0.539492 0.404262 0.283225 0.228053 0.084476 0.133356 -0.060807 -0.035669 -0.059300 -0.056432 -0.011855 0.152435 0.071292 0.265704 0.306531 0.354127 0.426598 0.522369 0.488424 0.521316 0.512915 0.329634 0.313131 0.296007 0.098827 0.052814 -0.036931 -0.005215 -0.039974 -0.073547 -0.085333 0.040471 0.076755 0.133888 0.199896 0.235954 0.283002 0.319459 0.425879 0.402479 0.295833 0.249965 0.228596 0.173910 0.139298 0.112663 0.015422 0.021541 0.054679 0.006572 0.078515 0.156505 0.156126 0.255787 0.252488 0.310945 0.190606 0.227047 0.158278 0.203835 0.117011 0.052633 0.008167 0.004147 -0.001093 -0.036662 0.048985 0.028495 0.141508 0.154941 0.184076 0.238701 0.172690 0.177749 0.182508 0.137456 0.070264 0.018713 0.054436 0.005930 -0.009875 0.024093 0.045546 0.061036 0.053762 0.064198 0.099073 0.127948 0.173696 0.070941 0.072672 0.063711 0.009900 -0.015633 0.012845 0.015118 0.008175 0.011417 0.030336 0.056587 0.066860 0.112456 0.062138 0.130769 0.060988 0.023115 0.048521 -0.031513 -0.004874 0.042546 0.003118 0.050635 0.052673 0.026443 0.099868 0.051803 0.020182 0.048589 0.014326 0.028012 0.013762 -0.012165 0.048920 0.005185 0.015485 0.060127 0.067534 0.031058 0.041914 0.032875 0.034773 0.022346 -0.012768 -0.026275 0.030973 0.056970 0.091759 0.078695 0.079153 0.065353 0.092574 0.041284 0.102571 0.091006 0.018441 0.029732 0.085101 0.070721 0.099442 0.091771 0.127118 0.105442 0.067322 0.020250 0.090243 -0.029757 0.006008 0.100308 0.071937 0.101765 0.076474 0.075420 0.021004 0.120852 0.079757 -0.013286 -0.038731 0.053730 0.076047 0.039729 0.041882 0.090642 0.097165 0.016387 0.051212 0.078778 0.061475 0.025795 -0.021137 0.070873 0.111309 0.115126 0.004298 -0.008367 -0.013378 0.053935 -0.051268 0.026666 -0.028997 -0.020883 0.033096 0.075970 0.014462 0.012414 -0.030259 -0.034388 -0.056061 -0.032867 -0.082081 -0.074379 0.035607 0.040635 -0.089917 0.061711 0.007001 -0.047790 0.022177 -0.107496 -0.064995 -0.048963 -0.080428 -0.022350 0.011960 -0.011371 -0.109627 0.050488 0.186653 0.009660 0.139492 0.025934 0.221847 0.175103 0.259670 0.244338 0.148319 0.206025 0.288815 0.202741 0.230801 0.138285 0.147486 0.159434 0.069356 -0.680923
0.072396 0.072898 0.074405 0.076915 0.080429 0.084945 0.090462 0.096979 0.104493 0.113002 0.122502 0.132989 0.144457 0.156901 0.170312 0.184682 0.199999 0.216251 0.233422 0.251495 0.270451 0.290267 0.310916 0.332369 0.354593 0.377551 0.401203 0.425501 0.450395 0.475830 0.501745 0.528072 0.554739 0.581667 0.608772 0.635962 0.663137 0.690195 0.717023 0.743502 0.769507 0.794906 0.819560 0.843325 0.866050 0.887577 0.907745 0.926387 0.943334 0.958410 0.971439 0.982245 0.990650 0.996475 0.999547 0.999693 0.996749 0.990555 0.980959 0.967823 0.951018 0.930432 0.905967 0.877546 0.845112 0.808631 0.768096 0.723526 0.674969 0.622508 0.566256 0.506363 0.443016 0.376441 0.306903 0.234704 0.160192 0.083750 0.005805 0.073180 0.152703 0.232227 0.311184 0.388973 0.464971 0.538532 0.608996 0.675690 0.737941 0.795077 0.846439 0.891387 0.929309 0.959631 0.981824 0.995415 1.000000 0.995245 0.980904 0.956823 0.922948 0.879336 0.826158 0.763706 0.692400 0.612783 0.525530 0.431442 0.331447 0.226591 0.118033 0.007034 0.105054 0.216801 0.326721 0.433286 0.534947 0.630162 0.717416 0.795248 0.862280 0.917241 0.959000 0.986584 0.999215 0.996325 0.977584 0.942915 0.892511 0.826849 0.746692 0.653091 0.547386 0.431187 0.306366 0.175024 0.039469 0.097821 0.234245 0.367122 0.493745 0.611438 0.717612 0.809833 0.885873 0.943780 0.981930 0.999081 0.994422 0.967610 0.918802 0.848678 0.758442 0.649821 0.525049 0.386828 0.238286 0.082907 0.075530 0.233050 0.385576 0.529029 0.659452 0.773109 0.866613 0.937030 0.981984 0.999748 0.989327 0.950512 0.883927 0.791034 0.674137 0.536333 0.381454 0.213979 0.038906 0.138377 0.312256 0.477069 0.627296 0.757739 0.863725 0.941277 0.987289 0.999657 0.977406 0.920754 0.831163 0.711320 0.565093 0.397426 0.214195 0.022017 0.171979 0.360405 0.535900 0.691419 0.820529 0.917690 0.978514 0.999983 0.980629 0.920644 0.821936 0.688100 0.524328 0.337236 0.134614 0.074867 0.282026 0.477566 0.652489 0.798534 0.908572 0.976989 0.999998 0.975878 0.905129 0.790516 0.637009 0.451607 0.243054 0.021452 0.202210 0.416587 0.610560 0.773824 0.897449 0.974404 0.999990 0.972168 0.891747 0.762431 0.590698 0.385528 0.157964 0.079445 0.313328 0.530226 0.717387 0.863532 0.959557 0.999153 0.979257 0.900338 0.766468 0.585175 0.367073 0.125288 0.125301 0.368958 0.590074 0.774180 0.908925 0.984932 0.996518 0.942161 0.824725 0.651380 0.433239 0.184691 0.077497 0.335294 0.570623 0.766657 0.909042 0.986995 0.994181 0.929290 0.796266 0.604151 0.366549 0.100716 0.173645 0.435825 0.665666 0.845139 0.959795 0.999992 0.961774 0.847333 0.664981 0.428641 0.156849 0.128638 0.404560 0.648036 0.838497 0.959450 0.999983 0.955834 0.829907 0.632199 0.379105 0.092136 0.203867 0.482832 0.719769 0.893043 0.986396 0.990565 0.904289 0.734608 0.496410 0.211223 0.094672 0.392608 0.654196 0.854083 0.972434 0.997011 0.924521 0.761152 0.522165 0.230590 0.084925 0.392869 0.661992 0.864526 0.979091 0.993058 0.904047 0.720403 0.460551 0.151259 0.175034 0.483570 0.740978 0.918918 0.997289 0.966605 0.829275 0.599582 0.302334 0.029697 0.359334 0.649110 0.865566 0.983185 0.987506 0.877042 0.663716 0.371735 0.034961 0.306913 0.613015 0.846194 0.977599 0.990371 0.881939 0.664636 0.364448 0.018067 0.331515 0.640305 0.868856 0.987400 0.979848 0.846132 0.602527 0.279854 0.080308
1.000000 1.000000 1.000000 1.000000 1.000000 1.000000 1.000000 1.000000 1.000000 1.000000 1.000000 1.000000 1.000000 1.000000 1.000000 1.000000 1.000000 1.000000 1.000000 1.000000 1.000000 1.000000 1.000000 1.000000 1.000000 1.000000 1.000000 1.000000 1.000000 1.000000 1.000000 1.000000 1.000000 1.000000 1.000000 1.000000 1.000000 1.000000 1.000000 1.000000 1.000000 1.000000 1.000000 1.000000 1.000000 1.000000 1.000000 1.000000 1.000000 1.000000 1.000000 1.000000 0.922886 0.922886 0.922886 0.914317 0.914317 0.914317 0.914317 0.914317 0.914317 0.914317 0.914317 0.914317 0.914317 0.914317 0.914317 0.914317 0.914317 0.914317 0.914317 0.914317 0.914317 0.914317 0.914317 0.914317 0.914317 0.914317 0.914317 0.914317 0.914317 0.914317 0.914317 0.914317 0.914317 0.914317 0.914317 0.914317 0.914317 0.914317 0.914317 0.914317 0.914317 0.914317 0.914317 0.914317 0.941696 0.943204 0.951285 0.951112 0.950523 0.948256 0.947251 0.946749 0.946610 0.946912 0.947599 0.948550 0.957478 0.958670 0.961536 0.962467 0.963297 0.964065 0.964854 0.965754 0.961563 0.958732 0.955145 0.955000 0.957870 0.957478 0.957630 0.958725 0.958606 0.958298 0.958799 0.958552 0.957805 0.956929 0.956101 0.955716 0.955494 0.956196 0.956565 0.958024 0.961367 0.961873 0.961957 0.962110 0.962193 0.963511 0.961813 0.961610 0.957361 0.957858 0.957546 0.957875 0.961666 0.961417 0.961931 0.961739 0.963158 0.963422 0.953818 0.950655 0.940450 0.938873 0.932897 0.925296 0.920953 0.922761 0.925061 0.926604 0.927227 0.922755 0.922759 0.919557 0.915259 0.918500 0.917055 0.916464 0.917886 0.918659 0.919075 0.917809 0.916365 0.909746 0.899829 0.899067 0.902351 0.907017 0.908983 0.909374 0.907946 0.878775 0.878381 0.884895 0.878965 0.868274 0.863870 0.862315 0.867601 0.868100 0.870966 0.870267 0.860991 0.846564 0.832526 0.826217 0.827600 0.822840 0.822814 0.821817 0.819400 0.829937 0.826996 0.832890 0.831433 0.842949 0.846284 0.836313 0.832858 0.831582 0.825738 0.810276 0.813416 0.798456 0.799145 0.798345 0.794397 0.787828 0.793277 0.774298 0.768153 0.757029 0.759186 0.763067 0.757632 0.755126 0.756232 0.757344 0.761943 0.747312 0.736902 0.722310 0.727070 0.736705 0.737365 0.732308 0.710046 0.676569 0.636818 0.654537 0.679370 0.631012 0.654181 0.664755 0.645027 0.643530 0.635309 0.633545 0.635078 0.637121 0.642967 0.651840 0.652267 0.670186 0.649531 0.639970 0.648563 0.640375 0.642799 0.625626 0.629241 0.607512 0.599909 0.624385 0.599289 0.598423 0.595122 0.605485 0.632054 0.597400 0.600527 0.612969 0.600883 0.607871 0.606847 0.596309 0.597860 0.605092 0.594414 0.610438 0.624603 0.597158 0.567334 0.549413 0.526341 0.516160 0.562025 0.563161 0.550165 0.519034 0.522566 0.540249 0.544866 0.537196 0.506234 0.516586 0.519333 0.554960 0.542902 0.493210 0.511971 0.509386 0.508404 0.457656 0.451886 0.434045 0.416401 0.373401 0.372476 0.385923 0.372256 0.340630 0.318988 0.319648 0.318707 0.326240 0.315918 0.297662 0.295661 0.321264 0.323536 0.309071 0.270640 0.261669 0.245536 0.230829 0.230129 0.194894 0.226427 0.292800 0.294307 0.294307 0.294307 0.294307 0.294307 0.294307 0.299809 0.299809 0.299809 0.299809 0.299809 0.299809 0.299809 0.299809 0.299809 0.315315 0.315315 0.315315 0.315315 0.315315 0.315315 0.315315 0.315315 0.315315 0.315315 0.315315 0.315315 0.315315 0.315315
0.000000 0.000000 0.000000 0.000000 0.000000 0.000000 0.000000 0.000000 0.000000 0.000000 0.000000 0.000000 0.000000 0.000000 0.000000 0.000000 0.000000 0.000000 0.000000 0.000000 0.000000 0.000000 0.000000 0.000000 0.000000 7.000000 4.000000 0.000000 0.000000 0.000000 0.000000 0.000000 0.000000 0.000000 0.000000 0.000000 0.000000 0.000000 0.000000 0.000000 0.000000 0.000000 0.000000 0.000000 0.000000 0.000000 0.000000 0.000000 0.000000 0.000000 0.000000 0.000000 0.180334 0.180334 0.180334 0.199007 0.199007 0.199007 0.199007 0.199007 0.199007 0.199007 0.199007 0.199007 0.199007 0.199007 0.199007 0.199007 0.199007 0.199007 0.199007 0.199007 0.199007 0.199007 0.199007 0.199007 0.199007 0.199007 0.199007 0.199007 0.199007 0.199007 0.199007 0.199007 0.199007 0.199007 0.199007 0.199007 0.199007 0.199007 0.199007 0.199007 0.199007 0.199007 0.199007 0.199007 0.225018 0.225018 0.225018 0.225018 0.225018 0.225018 0.225018 0.225018 0.225018 0.225018 0.225018 0.225018 0.225018 0.225018 0.225018 0.225018 0.225018 0.225018 0.225018 0.225018 0.225018 0.225018 0.225018 0.225018 0.225018 0.225018 0.225018 0.225018 0.225018 0.244339 0.244339 0.244339 0.244339 0.244339 0.244339 0.244339 0.244339 0.244339 0.244339 0.244339 0.244339 0.244339 0.244339 0.244339 0.244339 0.244339 0.244339 0.244339 0.244339 0.244339 0.244339 0.244339 0.251976 0.251976 0.251976 0.251976 0.251976 0.251976 0.251976 0.251976 0.251976 0.251976 0.251976 0.251976 0.251976 0.251976 0.251976 0.251976 0.251976 0.251976 0.251976 0.251976 0.264906 0.264906 0.264906 0.264906 0.264906 0.264906 0.264906 0.264906 0.264906 0.264906 0.264906 0.264906 0.264906 0.264906 0.264906 0.264906 0.264906 0.256074 0.256074 0.256074 0.256074 0.256074 0.256074 0.256074 0.256074 0.256074 0.256074 0.256074 0.256074 0.256074 0.256074 0.256074 0.256074 0.256074 0.269680 0.269680 0.269680 0.269680 0.269680 0.269680 0.269680 0.269680 0.269680 0.269680 0.269680 0.269680 0.269680 0.269680 0.264906 0.264906 0.264906 0.264906 0.264906 0.264906 0.264906 0.264906 0.264906 0.264906 0.264906 0.264906 0.264906 0.264906 0.256074 0.256074 0.256074 0.256074 0.256074 0.256074 0.256074 0.256074 0.256074 0.256074 0.256074 0.256074 0.256074 0.256074 0.269680 0.269680 0.269680 0.269680 0.269680 0.269680 0.269680 0.269680 0.269680 0.269680 0.269680 0.269680 0.264906 0.264906 0.264906 0.264906 0.264906 0.264906 0.264906 0.264906 0.264906 0.264906 0.264906 0.264906 0.260378 0.260378 0.260378 0.260378 0.260378 0.260378 0.260378 0.260378 0.260378 0.260378 0.260378 0.260378 0.274721 0.274721 0.274721 0.274721 0.274721 0.274721 0.274721 0.274721 0.274721 0.274721 0.256074 0.256074 0.256074 0.256074 0.256074 0.256074 0.256074 0.256074 0.256074 0.256074 0.256074 0.264906 0.264906 0.264906 0.264906 0.264906 0.264906 0.264906 0.264906 0.264906 0.264906 0.260378 0.260378 0.260378 0.260378 0.260378 0.260378 0.260378 0.260378 0.260378 0.260378 0.256074 0.256074 0.256074 0.256074 0.256074 0.256074 0.256074 0.256074 0.256074 0.256074 0.260378 0.260378 0.260378 0.260378 0.260378 0.260378 0.260378 0.260378 0.260378 0.256074 0.256074 0.256074 0.256074 0.256074 0.256074 0.256074 0.256074 0.256074 0.251976 0.251976 0.251976 0.251976 0.251976 0.251976 0.251976 0.251976 0.251976 0.251976 0.251976 0.251976 0.251976 0.251976
