# Output from CTFFind version 4.1.9, run on 2019-11-03 20:07:54
# Input file: stack6_bm3d_averaged_1_6.5_0_1500_half.mrc ; Number of micrographs: 1
# Pixel size: 3.000 Angstroms ; acceleration voltage: 300.0 keV ; spherical aberration: 0.00 mm ; amplitude contrast: 0.07
# Box size: 512 pixels ; min. res.: 30.0 Angstroms ; max. res.: 5.0 Angstroms ; min. def.: 5000.0 um; max. def. 50000.0 um; num. frames averaged: 1
# 6 lines per micrograph: #1 - spatial frequency (1/Angstroms); #2 - 1D rotational average of spectrum (assuming no astigmatism); #3 - 1D rotational average of spectrum; #4 - CTF fit; #5 - cross-correlation between spectrum and CTF fit; #6 - 2sigma of expected cross correlation of noise
0.000000 0.000651 0.001302 0.001953 0.002604 0.003255 0.003906 0.004557 0.005208 0.005859 0.006510 0.007161 0.007812 0.008464 0.009115 0.009766 0.010417 0.011068 0.011719 0.012370 0.013021 0.013672 0.014323 0.014974 0.015625 0.016276 0.016927 0.017578 0.018229 0.018880 0.019531 0.020182 0.020833 0.021484 0.022135 0.022786 0.023438 0.024089 0.024740 0.025391 0.026042 0.026693 0.027344 0.027995 0.028646 0.029297 0.029948 0.030599 0.031250 0.031901 0.032552 0.033203 0.033854 0.034505 0.035156 0.035807 0.036458 0.037109 0.037760 0.038411 0.039062 0.039714 0.040365 0.041016 0.041667 0.042318 0.042969 0.043620 0.044271 0.044922 0.045573 0.046224 0.046875 0.047526 0.048177 0.048828 0.049479 0.050130 0.050781 0.051432 0.052083 0.052734 0.053385 0.054036 0.054688 0.055339 0.055990 0.056641 0.057292 0.057943 0.058594 0.059245 0.059896 0.060547 0.061198 0.061849 0.062500 0.063151 0.063802 0.064453 0.065104 0.065755 0.066406 0.067057 0.067708 0.068359 0.069010 0.069661 0.070312 0.070964 0.071615 0.072266 0.072917 0.073568 0.074219 0.074870 0.075521 0.076172 0.076823 0.077474 0.078125 0.078776 0.079427 0.080078 0.080729 0.081380 0.082031 0.082682 0.083333 0.083984 0.084635 0.085286 0.085938 0.086589 0.087240 0.087891 0.088542 0.089193 0.089844 0.090495 0.091146 0.091797 0.092448 0.093099 0.093750 0.094401 0.095052 0.095703 0.096354 0.097005 0.097656 0.098307 0.098958 0.099609 0.100260 0.100911 0.101562 0.102214 0.102865 0.103516 0.104167 0.104818 0.105469 0.106120 0.106771 0.107422 0.108073 0.108724 0.109375 0.110026 0.110677 0.111328 0.111979 0.112630 0.113281 0.113932 0.114583 0.115234 0.115885 0.116536 0.117188 0.117839 0.118490 0.119141 0.119792 0.120443 0.121094 0.121745 0.122396 0.123047 0.123698 0.124349 0.125000 0.125651 0.126302 0.126953 0.127604 0.128255 0.128906 0.129557 0.130208 0.130859 0.131510 0.132161 0.132812 0.133464 0.134115 0.134766 0.135417 0.136068 0.136719 0.137370 0.138021 0.138672 0.139323 0.139974 0.140625 0.141276 0.141927 0.142578 0.143229 0.143880 0.144531 0.145182 0.145833 0.146484 0.147135 0.147786 0.148438 0.149089 0.149740 0.150391 0.151042 0.151693 0.152344 0.152995 0.153646 0.154297 0.154948 0.155599 0.156250 0.156901 0.157552 0.158203 0.158854 0.159505 0.160156 0.160807 0.161458 0.162109 0.162760 0.163411 0.164062 0.164714 0.165365 0.166016 0.166667 0.167318 0.167969 0.168620 0.169271 0.169922 0.170573 0.171224 0.171875 0.172526 0.173177 0.173828 0.174479 0.175130 0.175781 0.176432 0.177083 0.177734 0.178385 0.179036 0.179688 0.180339 0.180990 0.181641 0.182292 0.182943 0.183594 0.184245 0.184896 0.185547 0.186198 0.186849 0.187500 0.188151 0.188802 0.189453 0.190104 0.190755 0.191406 0.192057 0.192708 0.193359 0.194010 0.194661 0.195312 0.195964 0.196615 0.197266 0.197917 0.198568 0.199219 0.199870 0.200521 0.201172 0.201823 0.202474 0.203125 0.203776 0.204427 0.205078 0.205729 0.206380 0.207031 0.207682 0.208333 0.208984 0.209635 0.210286 0.210938 0.211589 0.212240 0.212891 0.213542 0.214193 0.214844 0.215495 0.216146 0.216797 0.217448 0.218099 0.218750 0.219401 0.220052 0.220703 0.221354 0.222005 0.222656 0.223307 0.223958 0.224609 0.225260 0.225911 0.226562 0.227214 0.227865 0.228516 0.229167 0.229818 0.230469 0.231120 0.231771 0.232422 0.233073 0.233724 0.234375 0.235026 0.235677
       0.32436        0.32436        0.32436        0.32436        0.32436        0.32436        0.32436        0.32436        0.32436        0.32436        0.32436        0.32436        0.32436        0.32436        0.32436        0.32435        0.32436        0.32436        0.32436        0.32436        0.32436        0.32435        0.32436        0.32436        0.32435        0.32436        0.32436        0.32436        0.32436        0.32436        0.32435        0.32436        0.32436        0.32436        0.32435        0.32436        0.32436        0.32436        0.32436        0.32435        0.32436        0.32436        0.32436        0.32435        0.32436        0.32436        0.32436        0.32436        0.32436        0.32436        0.32436        0.59749        0.71417        0.36148        0.17636        0.13473       -0.13649        0.11120        0.03669        0.03939        0.09247        0.30831        0.31358        0.24035        0.14337       -0.03843       -0.01171        0.04765       -0.10429       -0.11110       -0.07452       -0.08542       -0.19186       -0.12408       -0.23584       -0.25426       -0.25034       -0.31138       -0.38567       -0.31798       -0.22539       -0.19348       -0.29779       -0.21851       -0.26486       -0.20648       -0.13919       -0.08280       -0.05136        0.00961        0.05264        0.14163        0.18350        0.22451        0.34304        0.40927        0.35850        0.47427        0.54545        0.55411        0.63371        0.56130        0.59136        0.60098        0.60626        0.60365        0.55685        0.58762        0.54443        0.39329        0.34341        0.37294        0.34430        0.20468        0.18738        0.15940        0.10416        0.10616        0.02950        0.09011        0.07118        0.03253        0.11869        0.17720        0.26836        0.35224        0.35711        0.38453        0.44854        0.48473        0.41912        0.64366        0.54517        0.48179        0.57149        0.50038        0.54908        0.51135        0.38076        0.31842        0.29958        0.25129        0.24126        0.20765        0.18798        0.16027        0.24525        0.22399        0.25377        0.22242        0.27219        0.33008        0.33795        0.44808        0.44190        0.42291        0.41915        0.47542        0.43505        0.42205        0.40026        0.40051        0.33729        0.28521        0.26390        0.26165        0.26045        0.20658        0.18687        0.24093        0.25354        0.28227        0.34963        0.37613        0.42311        0.40620        0.42990        0.47709        0.46507        0.42903        0.38717        0.41645        0.37476        0.32748        0.33558        0.32270        0.26503        0.28025        0.27725        0.24792        0.31518        0.29064        0.30874        0.33022        0.38991        0.41618        0.40979        0.43761        0.38337        0.42461        0.39635        0.31942        0.29379        0.25985        0.27498        0.24137        0.21377        0.30529        0.36466        0.32955        0.30231        0.35714        0.27961        0.33818        0.39311        0.38168        0.36368        0.38207        0.33867        0.35750        0.33581        0.29800        0.28481        0.25542        0.30899        0.32201        0.33655        0.35430        0.38472        0.37231        0.37268        0.32514        0.35233        0.35399        0.33654        0.32660        0.29367        0.28805        0.26252        0.33447        0.33461        0.33673        0.30680        0.34199        0.35400        0.33557        0.35331        0.33880        0.30505        0.30014        0.30313        0.27399        0.26109        0.25187        0.24954        0.26887        0.25906        0.29968        0.28155        0.32015        0.34503        0.26311        0.29722        0.28063        0.23141        0.28467        0.26680        0.26647        0.29487        0.31930        0.31863        0.31023        0.30906        0.30559        0.33500        0.34858        0.29509        0.32337        0.31767        0.36721        0.28368        0.27454        0.28093        0.30854        0.32654        0.34856        0.35526        0.30198        0.23247        0.29550        0.25830        0.25244        0.25496        0.26061        0.29608        0.22866        0.30091        0.32368        0.36061        0.31546        0.30220        0.26721        0.28868        0.28943        0.24980        0.27272        0.27432        0.29931        0.34564        0.33505        0.28989        0.30454        0.32850        0.26316        0.23235        0.18643        0.31720        0.33514        0.34808        0.32811        0.29812        0.23288        0.21481        0.25896        0.25938        0.26249        0.28110        0.28920        0.24281        0.26389        0.25572        0.30322        0.26969        0.26439        0.26628        0.25324        0.20159        0.25970        0.24489        0.22179        0.28029        0.25000        0.25931        0.21873        0.20382        0.27032        0.26341        0.25436        0.17718        0.15007        0.31504        0.22219        0.22728        0.27810        0.17159        0.16254        0.17694        0.25314        0.23863        0.13023       -0.07120       -0.59197       -0.94098
2.371471 2.351317 2.331252 2.311277 2.291392 2.271597 2.251892 2.232276 2.212751 2.193315 2.173969 2.154712 2.135546 2.116469 2.097482 2.078585 2.059778 2.041060 2.022433 2.003895 1.985447 1.967089 1.948820 1.930641 1.912553 1.894554 1.876644 1.858825 1.841095 1.823456 1.805906 1.788446 1.771075 1.753795 1.736604 1.719503 1.702492 1.685570 1.668739 1.651997 1.635345 1.618783 1.602311 1.585928 1.569636 1.553433 1.537320 1.521296 1.505363 1.489519 1.473765 1.833779 2.169524 1.502774 1.328799 1.092512 0.521973 0.923046 0.814213 0.838542 0.702634 1.399000 1.198235 1.213074 0.979875 0.613720 0.478234 0.747690 0.587962 0.267588 0.285270 0.484402 0.237501 0.259019 0.110103 -0.000977 -0.014928 -0.008442 -0.310858 -0.157392 0.006285 -0.014485 -0.089081 -0.016376 -0.117105 -0.100334 0.065742 0.181668 0.248127 0.278266 0.372063 0.616202 0.555075 0.645793 0.824517 1.041481 0.799662 1.234995 1.176143 1.248660 1.351968 1.248221 1.169286 1.345877 1.220839 1.345471 1.185378 1.162144 1.205282 0.956492 0.686234 0.738407 0.786403 0.483460 0.424259 0.365209 0.220943 0.195823 0.039572 0.208068 0.164377 0.039816 0.122114 0.229743 0.348939 0.606957 0.603813 0.595201 0.696759 0.877943 0.585794 1.022993 1.034683 0.765929 0.921698 0.761850 0.859598 0.897671 0.629818 0.396515 0.417001 0.361016 0.218034 0.213195 0.167876 -0.011955 0.227387 0.196360 0.250631 0.138645 0.257362 0.329562 0.283521 0.497748 0.598574 0.534470 0.362244 0.661958 0.554046 0.446675 0.523494 0.440307 0.289081 0.327033 0.128599 0.204664 0.033130 0.210399 -0.062319 0.057373 0.054510 0.252686 0.068615 0.392399 0.339459 0.393671 0.390085 0.408360 0.576222 0.405980 0.366881 0.419305 0.211543 0.343799 0.130384 0.268676 0.072322 0.106471 0.091339 0.075534 0.049443 0.161300 0.066967 0.156495 0.242327 0.282429 0.337631 0.270341 0.346401 0.263015 0.295771 0.179137 0.102176 0.027088 -0.010092 0.021076 -0.078165 -0.063333 0.120100 0.212583 0.066852 0.112033 0.116159 0.015748 0.180917 0.247760 0.189643 0.205314 0.137064 0.155403 0.115199 0.106845 0.052429 -0.081139 -0.015661 0.141723 0.031128 0.144015 0.121556 0.226608 0.200314 0.176805 0.116893 0.190615 0.105545 0.132500 0.109259 0.038468 -0.009051 0.004082 0.133919 0.132519 0.119955 0.058365 0.152188 0.134409 0.058477 0.139593 0.045975 -0.009082 0.024636 0.003921 -0.053807 -0.067383 -0.108726 -0.042066 -0.057233 -0.086708 0.018989 -0.012626 0.067493 0.089237 -0.084680 0.046515 -0.045518 -0.108148 0.037980 -0.049261 -0.069567 0.038347 0.087789 0.030019 0.062341 -0.036566 0.040930 0.160364 -0.000918 -0.024543 0.089705 0.043139 0.125354 -0.075132 -0.040595 -0.023608 0.073610 0.047855 0.082591 0.144307 -0.015695 -0.097749 0.010310 -0.060390 -0.065024 -0.049955 -0.058272 0.030236 -0.168323 0.112312 0.091722 0.181651 0.040676 0.013287 0.002856 0.023563 0.073146 -0.057912 0.028347 0.008810 0.085941 0.121256 0.165644 0.058245 0.120455 0.176840 -0.038411 -0.000073 -0.153560 0.199019 0.155171 0.191559 0.147380 0.052942 -0.049279 -0.083483 -0.015711 0.000857 -0.003992 0.036124 0.070185 -0.056353 -0.001829 0.058110 0.084202 0.053403 0.033458 0.060741 -0.041106 -0.042901 0.036553 0.011372 -0.054444 0.104930 0.015796 -0.006853 0.006567 -0.044497 0.092819 0.130369 0.031017 -0.078301 -0.259246 0.322719 0.498838 0.392202 0.557585 0.268756 0.308658 0.313948 0.536844 0.451457 0.191658 0.136105 -0.871207
0.072396 0.072838 0.074163 0.076371 0.079462 0.083435 0.088289 0.094022 0.100634 0.108122 0.116484 0.125716 0.135815 0.146776 0.158594 0.171262 0.184772 0.199116 0.214282 0.230259 0.247032 0.264586 0.282903 0.301961 0.321739 0.342209 0.363344 0.385111 0.407474 0.430396 0.453833 0.477738 0.502061 0.526747 0.551735 0.576960 0.602354 0.627843 0.653346 0.678779 0.704051 0.729069 0.753731 0.777931 0.801559 0.824499 0.846629 0.867825 0.887956 0.906890 0.924488 0.940610 0.955112 0.967851 0.978680 0.987451 0.994019 0.998237 0.999964 0.999060 0.995388 0.988821 0.979236 0.966518 0.950564 0.931282 0.908590 0.882425 0.852736 0.819493 0.782682 0.742313 0.698416 0.651047 0.600285 0.546238 0.489041 0.428857 0.365881 0.300336 0.232478 0.162594 0.091002 0.018050 0.055883 0.130388 0.205031 0.279348 0.352856 0.425047 0.495396 0.563366 0.628407 0.689964 0.747479 0.800402 0.848190 0.890315 0.926273 0.955588 0.977820 0.992569 0.999485 0.998277 0.988713 0.970632 0.943948 0.908657 0.864842 0.812675 0.752424 0.684454 0.609231 0.527317 0.439375 0.346165 0.248540 0.147440 0.043885 0.061028 0.166143 0.270251 0.372106 0.470437 0.563965 0.651424 0.731572 0.803218 0.865233 0.916578 0.956321 0.983654 0.997916 0.998607 0.985407 0.958192 0.917039 0.862242 0.794319 0.714007 0.622269 0.520285 0.409446 0.291336 0.167716 0.040506 0.088250 0.216406 0.341757 0.462066 0.575119 0.678750 0.770902 0.849658 0.913296 0.960323 0.989521 0.999980 0.991137 0.962795 0.915150 0.848800 0.764752 0.664419 0.549605 0.422480 0.285552 0.141622 0.006269 0.154897 0.300927 0.440980 0.571721 0.689935 0.792613 0.877034 0.940842 0.982127 0.999484 0.992074 0.959665 0.902665 0.822136 0.719788 0.597962 0.459586 0.308120 0.147478 0.018066 0.183983 0.345614 0.498297 0.637510 0.759000 0.858929 0.934004 0.981593 0.999836 0.987727 0.945176 0.873050 0.773168 0.648289 0.502048 0.338864 0.163824 0.017463 0.199040 0.374797 0.538674 0.684877 0.808085 0.903659 0.967832 0.997874 0.992225 0.950588 0.873990 0.764777 0.626575 0.464192 0.283467 0.091080 0.105682 0.299199 0.481803 0.646095 0.785242 0.893285 0.965408 0.998170 0.989698 0.939809 0.850073 0.723801 0.565943 0.382939 0.182460 0.026882 0.235900 0.435226 0.615737 0.768976 0.887568 0.965597 0.998919 0.985421 0.925170 0.820481 0.675864 0.497862 0.294798 0.076395 0.146661 0.363236 0.562304 0.733521 0.867767 0.957665 0.998014 0.986118 0.922006 0.808499 0.651135 0.457938 0.239048 0.006209 0.227834 0.450029 0.647754 0.809529 0.925727 0.989163 0.995583 0.943987 0.836772 0.679681 0.481538 0.253798 0.009912 0.235431 0.467203 0.670938 0.833664 0.944749 0.996643 0.985427 0.911160 0.777971 0.593885 0.370404 0.121820 0.135662 0.384967 0.609279 0.793179 0.923751 0.991510 0.991152 0.922021 0.788260 0.598637 0.366026 0.106581 0.161341 0.418481 0.646035 0.827068 0.947796 0.998685 0.975268 0.878586 0.715243 0.497021 0.240102 0.036101 0.310362 0.561273 0.768927 0.916516 0.991754 0.987952 0.904681 0.747947 0.529842 0.267673 0.017345 0.301778 0.561874 0.775578 0.924413 0.995148 0.981031 0.882517 0.707374 0.470168 0.191118 0.105567 0.393759 0.647693 0.844311 0.965377 0.999256 0.942097 0.798357 0.580554 0.308267 0.006448 0.296823 0.572914 0.795383 0.942524 0.999570 0.960250 0.827572 0.613716 0.339009 0.030078 0.282680 0.568056 0.797160 0.946401 0.999962
1.000000 1.000000 1.000000 1.000000 1.000000 1.000000 1.000000 1.000000 1.000000 1.000000 1.000000 1.000000 1.000000 1.000000 1.000000 1.000000 1.000000 1.000000 1.000000 1.000000 1.000000 1.000000 1.000000 1.000000 1.000000 1.000000 1.000000 1.000000 1.000000 1.000000 1.000000 1.000000 1.000000 1.000000 1.000000 1.000000 1.000000 1.000000 1.000000 1.000000 1.000000 1.000000 1.000000 1.000000 1.000000 1.000000 1.000000 1.000000 1.000000 1.000000 1.000000 1.000000 0.777805 0.777805 0.777805 0.777805 0.777805 0.777805 0.777805 0.760248 0.760248 0.760248 0.760248 0.760248 0.760248 0.760248 0.760248 0.760248 0.760248 0.760248 0.760248 0.760248 0.760248 0.760248 0.760248 0.760248 0.760248 0.760248 0.760248 0.760248 0.760248 0.760248 0.760248 0.760248 0.760248 0.760248 0.760248 0.760248 0.760248 0.760248 0.760248 0.760248 0.760248 0.760248 0.760248 0.760248 0.760248 0.760248 0.760248 0.760248 0.760248 0.760248 0.760248 0.902420 0.903856 0.906847 0.902244 0.904157 0.902019 0.895580 0.898515 0.898330 0.898153 0.899205 0.900832 0.902808 0.910136 0.919037 0.920908 0.927917 0.931377 0.932512 0.932392 0.931044 0.938544 0.936099 0.934340 0.922443 0.925797 0.927668 0.928600 0.927413 0.927529 0.928792 0.929422 0.927321 0.925513 0.923341 0.921578 0.923327 0.922934 0.923119 0.923280 0.923453 0.923354 0.923933 0.920078 0.922334 0.921210 0.917633 0.914217 0.913733 0.914798 0.913148 0.909951 0.904290 0.910571 0.910998 0.911167 0.910057 0.910265 0.910616 0.911338 0.911943 0.909256 0.909300 0.906886 0.908728 0.905165 0.900789 0.895913 0.896284 0.897932 0.904476 0.906538 0.905365 0.903058 0.896538 0.887085 0.886131 0.873253 0.841376 0.843267 0.846681 0.849046 0.849972 0.849491 0.846724 0.841844 0.832056 0.822346 0.826691 0.827548 0.819318 0.813220 0.814020 0.813535 0.820827 0.825189 0.817520 0.814916 0.814375 0.810294 0.809989 0.810846 0.808027 0.802392 0.805144 0.813344 0.813830 0.799949 0.794116 0.791372 0.775987 0.780456 0.786902 0.790923 0.792460 0.789001 0.776602 0.774468 0.768196 0.778640 0.787314 0.785865 0.781290 0.762305 0.719640 0.708126 0.688798 0.691236 0.692639 0.667296 0.664914 0.666277 0.671170 0.618370 0.601499 0.589079 0.589022 0.596348 0.601248 0.594941 0.563886 0.582013 0.579606 0.564491 0.560474 0.534506 0.519080 0.489346 0.491988 0.490130 0.476749 0.452397 0.447010 0.464167 0.473691 0.470466 0.467938 0.439228 0.419119 0.421582 0.417157 0.418890 0.421183 0.429800 0.379572 0.355655 0.339313 0.366131 0.367646 0.366614 0.379114 0.376439 0.371775 0.349777 0.330424 0.313248 0.326058 0.346117 0.352687 0.356084 0.320886 0.307742 0.287081 0.292585 0.336611 0.323831 0.334487 0.333492 0.338193 0.364628 0.342590 0.319604 0.296765 0.339156 0.332519 0.314069 0.293200 0.302897 0.322222 0.323797 0.319194 0.311925 0.359468 0.385258 0.371440 0.374165 0.341099 0.369178 0.408132 0.398449 0.399754 0.413327 0.412881 0.394915 0.349363 0.330737 0.331842 0.307153 0.304284 0.287585 0.272789 0.264080 0.273997 0.296206 0.301813 0.335261 0.308793 0.273439 0.179464 0.249504 0.168031 0.174219 0.174219 0.174219 0.174219 0.174219 0.174219 0.174219 0.174219 0.198976 0.198976 0.198976 0.198976 0.198976 0.198976 0.198976 0.198976 0.198976 0.198976 0.198976 0.198976 0.198976 0.198976 0.198976 0.198976 0.198976 0.198976 0.198976 0.198976 0.198976
0.000000 0.000000 0.000000 0.000000 0.000000 0.000000 0.000000 0.000000 0.000000 0.000000 0.000000 0.000000 0.000000 0.000000 0.000000 0.000000 0.000000 0.000000 0.000000 0.000000 0.000000 0.000000 0.000000 0.000000 0.000000 0.000000 0.000000 0.000000 0.000000 0.000000 0.000000 0.000000 0.000000 0.000000 0.000000 0.000000 0.000000 0.000000 0.000000 0.000000 0.000000 0.000000 0.000000 0.000000 0.000000 0.000000 0.000000 0.000000 0.000000 0.000000 0.000000 0.000000 0.173422 0.173422 0.173422 0.173422 0.173422 0.173422 0.173422 0.191565 0.191565 0.191565 0.191565 0.191565 0.191565 0.191565 0.191565 0.191565 0.191565 0.191565 0.191565 0.191565 0.191565 0.191565 0.191565 0.191565 0.191565 0.191565 0.191565 0.191565 0.191565 0.191565 0.191565 0.191565 0.191565 0.191565 0.191565 0.191565 0.191565 0.191565 0.191565 0.191565 0.191565 0.191565 0.191565 0.191565 0.191565 0.191565 0.191565 0.191565 0.191565 0.191565 0.191565 0.222222 0.222222 0.222222 0.222222 0.222222 0.222222 0.222222 0.222222 0.222222 0.222222 0.222222 0.222222 0.222222 0.222222 0.222222 0.222222 0.222222 0.222222 0.222222 0.222222 0.222222 0.222222 0.222222 0.222222 0.222222 0.222222 0.222222 0.222222 0.222222 0.222222 0.234082 0.234082 0.234082 0.234082 0.234082 0.234082 0.234082 0.234082 0.234082 0.234082 0.234082 0.234082 0.234082 0.234082 0.234082 0.234082 0.234082 0.234082 0.234082 0.234082 0.234082 0.234082 0.234082 0.234082 0.234082 0.244339 0.244339 0.244339 0.244339 0.244339 0.244339 0.244339 0.244339 0.244339 0.244339 0.244339 0.244339 0.244339 0.244339 0.244339 0.244339 0.244339 0.244339 0.244339 0.244339 0.244339 0.248069 0.248069 0.248069 0.248069 0.248069 0.248069 0.248069 0.248069 0.248069 0.248069 0.248069 0.248069 0.248069 0.248069 0.248069 0.248069 0.248069 0.248069 0.248069 0.256074 0.256074 0.256074 0.256074 0.256074 0.256074 0.256074 0.256074 0.256074 0.256074 0.256074 0.256074 0.256074 0.256074 0.256074 0.256074 0.256074 0.256074 0.256074 0.256074 0.256074 0.256074 0.256074 0.256074 0.256074 0.256074 0.256074 0.256074 0.256074 0.256074 0.256074 0.256074 0.256074 0.256074 0.256074 0.256074 0.256074 0.256074 0.256074 0.256074 0.256074 0.256074 0.256074 0.256074 0.256074 0.256074 0.256074 0.256074 0.256074 0.256074 0.256074 0.256074 0.256074 0.256074 0.256074 0.256074 0.256074 0.256074 0.256074 0.256074 0.256074 0.256074 0.260378 0.260378 0.260378 0.260378 0.260378 0.260378 0.260378 0.260378 0.260378 0.260378 0.260378 0.260378 0.260378 0.256074 0.256074 0.256074 0.256074 0.256074 0.256074 0.256074 0.256074 0.256074 0.256074 0.256074 0.256074 0.256074 0.260378 0.260378 0.260378 0.260378 0.260378 0.260378 0.260378 0.260378 0.260378 0.260378 0.260378 0.260378 0.251976 0.251976 0.251976 0.251976 0.251976 0.251976 0.251976 0.251976 0.251976 0.251976 0.251976 0.251976 0.256074 0.256074 0.256074 0.256074 0.256074 0.256074 0.256074 0.256074 0.256074 0.256074 0.256074 0.251976 0.251976 0.251976 0.251976 0.251976 0.251976 0.251976 0.251976 0.251976 0.251976 0.251976 0.260378 0.260378 0.260378 0.260378 0.260378 0.260378 0.260378 0.260378 0.260378 0.260378 0.244339 0.244339 0.244339 0.244339 0.244339 0.244339 0.244339 0.244339 0.244339 0.244339 0.244339 0.244339 0.244339 0.244339 0.244339 0.244339 0.244339 0.244339 0.244339 0.244339 0.244339
