# Output from CTFFind version 4.1.9, run on 2019-11-02 17:43:54
# Input file: stack1_bm3d_averaged_1_0.75_0_250_half.mrc ; Number of micrographs: 1
# Pixel size: 3.000 Angstroms ; acceleration voltage: 300.0 keV ; spherical aberration: 0.00 mm ; amplitude contrast: 0.07
# Box size: 512 pixels ; min. res.: 30.0 Angstroms ; max. res.: 5.0 Angstroms ; min. def.: 5000.0 um; max. def. 50000.0 um; num. frames averaged: 1
# 6 lines per micrograph: #1 - spatial frequency (1/Angstroms); #2 - 1D rotational average of spectrum (assuming no astigmatism); #3 - 1D rotational average of spectrum; #4 - CTF fit; #5 - cross-correlation between spectrum and CTF fit; #6 - 2sigma of expected cross correlation of noise
0.000000 0.000651 0.001302 0.001953 0.002604 0.003255 0.003906 0.004557 0.005208 0.005859 0.006510 0.007161 0.007812 0.008464 0.009115 0.009766 0.010417 0.011068 0.011719 0.012370 0.013021 0.013672 0.014323 0.014974 0.015625 0.016276 0.016927 0.017578 0.018229 0.018880 0.019531 0.020182 0.020833 0.021484 0.022135 0.022786 0.023438 0.024089 0.024740 0.025391 0.026042 0.026693 0.027344 0.027995 0.028646 0.029297 0.029948 0.030599 0.031250 0.031901 0.032552 0.033203 0.033854 0.034505 0.035156 0.035807 0.036458 0.037109 0.037760 0.038411 0.039062 0.039714 0.040365 0.041016 0.041667 0.042318 0.042969 0.043620 0.044271 0.044922 0.045573 0.046224 0.046875 0.047526 0.048177 0.048828 0.049479 0.050130 0.050781 0.051432 0.052083 0.052734 0.053385 0.054036 0.054688 0.055339 0.055990 0.056641 0.057292 0.057943 0.058594 0.059245 0.059896 0.060547 0.061198 0.061849 0.062500 0.063151 0.063802 0.064453 0.065104 0.065755 0.066406 0.067057 0.067708 0.068359 0.069010 0.069661 0.070312 0.070964 0.071615 0.072266 0.072917 0.073568 0.074219 0.074870 0.075521 0.076172 0.076823 0.077474 0.078125 0.078776 0.079427 0.080078 0.080729 0.081380 0.082031 0.082682 0.083333 0.083984 0.084635 0.085286 0.085938 0.086589 0.087240 0.087891 0.088542 0.089193 0.089844 0.090495 0.091146 0.091797 0.092448 0.093099 0.093750 0.094401 0.095052 0.095703 0.096354 0.097005 0.097656 0.098307 0.098958 0.099609 0.100260 0.100911 0.101562 0.102214 0.102865 0.103516 0.104167 0.104818 0.105469 0.106120 0.106771 0.107422 0.108073 0.108724 0.109375 0.110026 0.110677 0.111328 0.111979 0.112630 0.113281 0.113932 0.114583 0.115234 0.115885 0.116536 0.117188 0.117839 0.118490 0.119141 0.119792 0.120443 0.121094 0.121745 0.122396 0.123047 0.123698 0.124349 0.125000 0.125651 0.126302 0.126953 0.127604 0.128255 0.128906 0.129557 0.130208 0.130859 0.131510 0.132161 0.132812 0.133464 0.134115 0.134766 0.135417 0.136068 0.136719 0.137370 0.138021 0.138672 0.139323 0.139974 0.140625 0.141276 0.141927 0.142578 0.143229 0.143880 0.144531 0.145182 0.145833 0.146484 0.147135 0.147786 0.148438 0.149089 0.149740 0.150391 0.151042 0.151693 0.152344 0.152995 0.153646 0.154297 0.154948 0.155599 0.156250 0.156901 0.157552 0.158203 0.158854 0.159505 0.160156 0.160807 0.161458 0.162109 0.162760 0.163411 0.164062 0.164714 0.165365 0.166016 0.166667 0.167318 0.167969 0.168620 0.169271 0.169922 0.170573 0.171224 0.171875 0.172526 0.173177 0.173828 0.174479 0.175130 0.175781 0.176432 0.177083 0.177734 0.178385 0.179036 0.179688 0.180339 0.180990 0.181641 0.182292 0.182943 0.183594 0.184245 0.184896 0.185547 0.186198 0.186849 0.187500 0.188151 0.188802 0.189453 0.190104 0.190755 0.191406 0.192057 0.192708 0.193359 0.194010 0.194661 0.195312 0.195964 0.196615 0.197266 0.197917 0.198568 0.199219 0.199870 0.200521 0.201172 0.201823 0.202474 0.203125 0.203776 0.204427 0.205078 0.205729 0.206380 0.207031 0.207682 0.208333 0.208984 0.209635 0.210286 0.210938 0.211589 0.212240 0.212891 0.213542 0.214193 0.214844 0.215495 0.216146 0.216797 0.217448 0.218099 0.218750 0.219401 0.220052 0.220703 0.221354 0.222005 0.222656 0.223307 0.223958 0.224609 0.225260 0.225911 0.226562 0.227214 0.227865 0.228516 0.229167 0.229818 0.230469 0.231120 0.231771 0.232422 0.233073 0.233724 0.234375 0.235026 0.235677
       0.33325        0.33325        0.33325        0.33325        0.33325        0.33325        0.33325        0.33325        0.33325        0.33325        0.33325        0.33325        0.33325        0.33325        0.33325        0.33325        0.33325        0.33325        0.33325        0.33325        0.33325        0.33325        0.33325        0.33325        0.33325        0.33325        0.33325        0.33325        0.33325        0.33325        0.33325        0.33325        0.33325        0.33325        0.33325        0.33325        0.33325        0.33325        0.33325        0.33325        0.33325        0.33325        0.33325        0.33325        0.33325        0.33325        0.33325        0.33325        0.33325        0.33325        0.33325        0.50231        0.71967        0.43018        0.18928       -0.08117       -0.26041       -0.06775       -0.13227       -0.05291       -0.00427       -0.14757       -0.09010       -0.05606       -0.00506       -0.15297       -0.22329       -0.34699       -0.46020       -0.55291       -0.51050       -0.44213       -0.36883       -0.54416       -0.45001       -0.62053       -0.50419       -0.47293       -0.38831       -0.38642       -0.34046       -0.25214       -0.16058       -0.13864        0.03366       -0.01113        0.12193        0.16596        0.30519        0.41113        0.46081        0.50269        0.54325        0.55233        0.69045        0.64301        0.67619        0.59053        0.55358        0.65068        0.52667        0.42746        0.38210        0.32101        0.23348        0.26179        0.25385        0.10596        0.08002       -0.00070       -0.00271        0.04342       -0.00806        0.07334        0.10703        0.23533        0.28737        0.30096        0.38007        0.56247        0.53173        0.57924        0.66704        0.70356        0.63092        0.64314        0.63463        0.55890        0.57456        0.40268        0.34585        0.26508        0.18217        0.07584        0.14195        0.11936        0.09732        0.10628        0.20593        0.21377        0.31793        0.36123        0.41311        0.49660        0.58136        0.54337        0.55668        0.60393        0.53136        0.45872        0.48369        0.32764        0.24675        0.25919        0.23993        0.14097        0.14493        0.15348        0.21784        0.24026        0.33423        0.37098        0.39457        0.46900        0.44551        0.48293        0.45058        0.47010        0.44901        0.40790        0.38675        0.35295        0.31579        0.29275        0.20519        0.19113        0.21834        0.27178        0.26818        0.35190        0.37814        0.35849        0.41286        0.45073        0.44370        0.42703        0.44535        0.38307        0.33560        0.28406        0.25872        0.29095        0.26664        0.29481        0.30036        0.34371        0.34249        0.39474        0.40475        0.42789        0.40799        0.43609        0.40304        0.35906        0.28243        0.29091        0.30714        0.27072        0.25079        0.32361        0.36855        0.34253        0.35281        0.36168        0.35799        0.41133        0.40556        0.36627        0.33990        0.30425        0.31279        0.32222        0.32183        0.30048        0.27881        0.33502        0.35980        0.38115        0.33785        0.33238        0.33763        0.34492        0.30990        0.28181        0.30347        0.30985        0.34055        0.31748        0.32870        0.35835        0.32555        0.31443        0.32860        0.30248        0.26799        0.25749        0.26402        0.30735        0.32188        0.35305        0.29960        0.30683        0.32987        0.29637        0.31577        0.28597        0.28606        0.29563        0.29484        0.30713        0.34704        0.33409        0.33180        0.34163        0.31886        0.33873        0.32164        0.31889        0.30811        0.27607        0.28840        0.31160        0.29555        0.32289        0.33463        0.33316        0.32941        0.34976        0.32530        0.28009        0.25064        0.27037        0.33289        0.35161        0.33798        0.31199        0.29096        0.29502        0.30834        0.25498        0.30013        0.30932        0.33938        0.30353        0.30886        0.28093        0.33544        0.33868        0.34145        0.31018        0.28996        0.32039        0.39860        0.32424        0.31457        0.31813        0.28473        0.28225        0.30466        0.27722        0.32423        0.23263        0.26588        0.29666        0.31115        0.30108        0.26128        0.28945        0.24244        0.22205        0.26395        0.29488        0.30776        0.27670        0.28330        0.32916        0.26154        0.22485        0.30337        0.27052        0.26193        0.28684        0.39117        0.29286        0.29356        0.25758        0.24666        0.27679        0.26321        0.23501        0.18010        0.26495        0.22754        0.23611        0.31419        0.25182        0.36412        0.32243        0.23680        0.21996        0.21632        0.24489        0.31827        0.22686        0.13511        0.17868        0.24057        0.24448        0.26026        0.20181        0.01128       -0.45235       -0.94240
2.687333 2.658993 2.630805 2.602768 2.574884 2.547152 2.519571 2.492143 2.464866 2.437741 2.410768 2.383947 2.357278 2.330761 2.304395 2.278182 2.252120 2.226211 2.200453 2.174847 2.149393 2.124091 2.098940 2.073942 2.049096 2.024401 1.999858 1.975468 1.951229 1.927142 1.903207 1.879424 1.855792 1.832313 1.808985 1.785810 1.762786 1.739914 1.717194 1.694626 1.672210 1.649946 1.627834 1.605873 1.584064 1.562408 1.540903 1.519550 1.498349 1.477300 1.456403 1.526247 1.830984 1.526668 1.156538 0.935835 0.540660 0.910113 0.629033 0.872682 0.921558 0.585643 0.710648 0.770182 0.814014 0.626169 0.529573 0.343116 0.100836 0.078006 0.047771 0.086034 0.302398 -0.040404 0.078795 -0.139765 -0.019947 -0.018187 0.081591 0.051864 0.098930 0.171701 0.277705 0.245825 0.480849 0.397720 0.551825 0.523420 0.765838 0.792329 0.876831 0.927825 0.943225 0.949680 1.107228 0.949318 1.141848 0.944363 0.854072 1.012306 0.848108 0.758779 0.619054 0.591372 0.466585 0.415153 0.511353 0.266195 0.193296 0.152290 0.014941 0.218881 -0.006527 0.113838 0.188067 0.263475 0.337709 0.347347 0.427091 0.545567 0.656617 0.544078 0.737264 0.876983 0.640558 0.708824 0.673349 0.601325 0.538390 0.472746 0.301858 0.214985 0.115674 -0.041012 -0.018670 0.053864 -0.092954 -0.054576 0.049773 0.049977 0.113540 0.224698 0.239647 0.318277 0.437363 0.440288 0.441664 0.482718 0.439296 0.318699 0.338990 0.246110 0.045436 0.060613 0.022919 -0.058772 -0.093522 -0.103179 -0.014199 -0.061712 0.071312 0.133583 0.130200 0.259340 0.226940 0.246631 0.289912 0.256111 0.248624 0.212271 0.182014 0.110665 0.107302 0.034441 0.013561 -0.124350 -0.058554 0.005726 0.005792 0.017763 0.104250 0.087547 0.140892 0.178796 0.252993 0.167378 0.195244 0.116176 0.150074 0.014889 -0.029355 0.013115 -0.018085 -0.009562 -0.001095 0.033195 0.069722 0.058891 0.142909 0.119300 0.159806 0.068036 0.154006 0.086115 -0.010371 -0.056994 -0.017116 -0.032930 -0.080674 -0.066915 0.046104 0.066145 -0.009318 0.059209 0.059688 0.072974 0.148943 0.076807 0.068447 0.042415 -0.028611 0.032221 0.011022 0.015703 0.004821 -0.015894 0.034461 0.071749 0.077194 0.036005 0.046975 0.022584 0.063986 -0.010077 -0.021888 0.019886 0.008685 0.067633 0.030845 0.041404 0.074466 0.029123 0.018259 0.038570 0.001297 -0.035280 -0.026171 -0.028493 0.026983 0.048038 0.096653 0.000784 0.051726 0.067271 0.003036 0.066004 0.024853 0.024019 0.051857 0.050486 0.050320 0.110161 0.070657 0.080637 0.092175 0.092509 0.074659 0.075012 0.085943 0.031787 -0.003529 0.045478 0.044430 0.061956 0.064585 0.095425 -0.002467 0.078389 0.081496 0.013507 0.012397 -0.073077 -0.017600 0.108042 0.066858 0.042126 0.032230 -0.019269 0.033572 0.016095 -0.055859 0.041390 0.044573 0.072940 0.036063 0.005222 -0.005291 0.055235 0.045506 0.026967 0.026173 -0.028891 0.068895 0.119626 0.010857 -0.001367 0.016197 -0.013933 -0.034313 -0.007488 -0.045507 0.021476 -0.104901 -0.026464 -0.028048 0.021208 -0.021573 -0.035555 -0.012163 -0.067281 -0.056854 -0.057314 0.040770 0.012159 0.012539 0.000889 0.090185 -0.046161 -0.034350 0.042339 -0.010168 0.032725 0.016405 0.196588 -0.008416 0.026424 0.037920 -0.019651 0.011515 0.011690 -0.018193 -0.137263 0.029545 -0.029815 -0.005772 0.044634 -0.026114 0.167837 0.068212 -0.018374 -0.046081 -0.020664 -0.048964 0.087117 0.272903 0.163809 0.228493 0.233887 0.328629 0.296756 0.236442 0.015580 -1.109925
0.072396 0.072910 0.074451 0.077018 0.080612 0.085231 0.090874 0.097540 0.105225 0.113927 0.123643 0.134368 0.146096 0.158821 0.172534 0.187225 0.202884 0.219495 0.237044 0.255513 0.274878 0.295118 0.316203 0.338102 0.360781 0.384199 0.408313 0.433075 0.458429 0.484317 0.510673 0.537427 0.564501 0.591812 0.619268 0.646773 0.674223 0.701505 0.728502 0.755088 0.781130 0.806489 0.831018 0.854564 0.876969 0.898066 0.917687 0.935656 0.951796 0.965926 0.977861 0.987418 0.994413 0.998665 0.999994 0.998226 0.993195 0.984739 0.972711 0.956973 0.937404 0.913898 0.886367 0.854746 0.818994 0.779094 0.735059 0.686931 0.634785 0.578733 0.518921 0.455534 0.388797 0.318976 0.246380 0.171357 0.094300 0.015643 0.064139 0.144531 0.224983 0.304908 0.383690 0.460683 0.535223 0.606625 0.674195 0.737237 0.795055 0.846967 0.892312 0.930457 0.960809 0.982823 0.996015 0.999968 0.994345 0.978899 0.953480 0.918045 0.872665 0.817535 0.752974 0.679436 0.597506 0.507904 0.411485 0.309232 0.202254 0.091773 0.020884 0.134295 0.246967 0.357347 0.463848 0.564866 0.658811 0.744132 0.819342 0.883048 0.933984 0.971035 0.993265 0.999949 0.990595 0.964963 0.923088 0.865293 0.792202 0.704736 0.604122 0.491878 0.369804 0.239956 0.104622 0.033717 0.172425 0.308760 0.439926 0.563134 0.675661 0.774914 0.858494 0.924264 0.970407 0.995486 0.998498 0.978915 0.936724 0.872450 0.787169 0.682507 0.560624 0.424185 0.276311 0.120522 0.039342 0.199208 0.354872 0.502109 0.636786 0.754992 0.853147 0.928134 0.977397 0.999050 0.991961 0.955813 0.891155 0.799419 0.682910 0.544775 0.388932 0.219980 0.043073 0.136227 0.312116 0.478740 0.630382 0.761682 0.867818 0.944711 0.989195 0.999166 0.973701 0.913134 0.819099 0.694511 0.543510 0.371343 0.184208 0.010952 0.206700 0.395378 0.569411 0.721612 0.845497 0.935579 0.987627 0.998896 0.968297 0.896499 0.785965 0.640906 0.467152 0.271960 0.063718 0.148389 0.354769 0.545869 0.712612 0.846850 0.941779 0.992318 0.995408 0.950233 0.858334 0.723607 0.552189 0.352206 0.133439 0.093146 0.315923 0.523206 0.703861 0.847924 0.947180 0.995663 0.990054 0.929951 0.817979 0.659738 0.463571 0.240171 0.002033 0.237223 0.463619 0.663641 0.825058 0.937705 0.994158 0.990275 0.925544 0.803226 0.630255 0.416910 0.176247 0.076651 0.325610 0.554380 0.747709 0.892395 0.978213 0.998702 0.951701 0.839624 0.669413 0.452191 0.202577 0.062230 0.323625 0.562892 0.762539 0.907633 0.986942 0.993883 0.927124 0.790829 0.594493 0.352343 0.082392 0.194881 0.458036 0.686356 0.861478 0.968942 0.999426 0.949647 0.822775 0.628338 0.381601 0.102426 0.186251 0.460291 0.696375 0.874000 0.977326 0.996661 0.929449 0.780682 0.562632 0.293942 0.001902 0.298560 0.569169 0.788788 0.936743 0.998638 0.967855 0.846352 0.644682 0.381193 0.080449 0.228995 0.517268 0.756076 0.921516 0.996547 0.972839 0.851812 0.644710 0.371685 0.059937 0.258927 0.552050 0.788743 0.943730 0.999939 0.950497 0.799685 0.562723 0.264376 0.063551 0.385522 0.666115 0.873929 0.985193 0.986582 0.876942 0.667690 0.381771 0.051266 0.286107 0.591277 0.828349 0.968887 0.995446 0.903868 0.704058 0.419081 0.082649 0.264784 0.580815 0.826304 0.970265 0.993916 0.893266 0.679921 0.379935 0.030758 0.323315 0.636729 0.868566 0.987948 0.978302 0.839824 0.589780 0.260542 0.104458 0.456370 0.747443 0.937550 0.999854
1.000000 1.000000 1.000000 1.000000 1.000000 1.000000 1.000000 1.000000 1.000000 1.000000 1.000000 1.000000 1.000000 1.000000 1.000000 1.000000 1.000000 1.000000 1.000000 1.000000 1.000000 1.000000 1.000000 1.000000 1.000000 1.000000 1.000000 1.000000 1.000000 1.000000 1.000000 1.000000 1.000000 1.000000 1.000000 1.000000 1.000000 1.000000 1.000000 1.000000 1.000000 1.000000 1.000000 1.000000 1.000000 1.000000 1.000000 1.000000 1.000000 1.000000 1.000000 1.000000 0.918365 0.918365 0.907191 0.907191 0.907191 0.907191 0.907191 0.907191 0.907191 0.907191 0.907191 0.907191 0.907191 0.907191 0.907191 0.907191 0.907191 0.907191 0.907191 0.907191 0.907191 0.907191 0.907191 0.907191 0.907191 0.907191 0.907191 0.907191 0.907191 0.907191 0.907191 0.907191 0.907191 0.907191 0.907191 0.907191 0.907191 0.907191 0.907191 0.907191 0.907191 0.907191 0.907191 0.904280 0.908824 0.910646 0.908890 0.912446 0.912533 0.911840 0.912176 0.911808 0.912089 0.913441 0.923987 0.935072 0.946412 0.946511 0.951585 0.956062 0.958398 0.959432 0.961003 0.967262 0.966041 0.965486 0.966205 0.967808 0.970055 0.968610 0.968425 0.971543 0.972278 0.970501 0.968465 0.967839 0.967210 0.967284 0.966870 0.966765 0.966666 0.967165 0.967389 0.967609 0.967747 0.967779 0.966081 0.966164 0.968487 0.969585 0.969376 0.968062 0.965780 0.969725 0.970303 0.969955 0.969862 0.969369 0.969706 0.958531 0.952654 0.952612 0.948419 0.947575 0.945165 0.942955 0.940018 0.940181 0.940151 0.940805 0.936140 0.924304 0.910662 0.897600 0.919983 0.904988 0.891630 0.869523 0.869875 0.869640 0.870308 0.864322 0.857147 0.853029 0.850204 0.851459 0.847969 0.850417 0.848116 0.837634 0.840243 0.838378 0.811302 0.796160 0.778667 0.778751 0.776543 0.777853 0.777225 0.775363 0.783494 0.772245 0.770420 0.762900 0.744707 0.706989 0.689505 0.699664 0.708100 0.712907 0.709132 0.693761 0.663821 0.674904 0.695864 0.694536 0.697437 0.688404 0.680052 0.679309 0.683631 0.672797 0.663496 0.662963 0.661325 0.670457 0.676119 0.676769 0.665791 0.649662 0.636506 0.620108 0.630255 0.637214 0.603433 0.596535 0.581680 0.573664 0.559657 0.545338 0.544249 0.518859 0.510203 0.513965 0.520045 0.523017 0.531015 0.532574 0.515701 0.532187 0.542263 0.567112 0.548026 0.544323 0.545473 0.550845 0.538139 0.520487 0.519877 0.520667 0.530024 0.555386 0.592569 0.582006 0.569557 0.556864 0.563361 0.531377 0.535275 0.552178 0.530382 0.473730 0.419580 0.417538 0.377703 0.376061 0.355959 0.347573 0.350968 0.341431 0.332978 0.319257 0.304102 0.238432 0.198077 0.182049 0.167659 0.171623 0.189520 0.190812 0.187954 0.203820 0.253668 0.254948 0.246879 0.242945 0.230771 0.198583 0.192598 0.214953 0.169760 0.161146 0.155575 0.130838 0.110540 0.059888 0.086742 -0.008036 -0.030043 -0.030175 -0.010323 0.001599 0.000109 0.005377 -0.029501 -0.013920 0.027099 0.030891 0.016446 -0.047051 -0.029652 -0.019274 -0.019218 -0.042613 -0.060995 -0.064277 -0.075201 -0.077845 -0.065356 0.005139 0.062535 0.065103 0.044590 0.077504 0.074026 0.058423 0.067363 0.048509 0.046123 0.025169 0.018234 -0.023811 -0.055357 -0.055357 -0.053644 -0.053644 -0.053644 -0.053644 -0.053644 -0.053644 -0.053644 -0.053644 -0.053644 -0.055893 -0.055893 -0.055893 -0.055893 -0.055893 -0.055893 -0.055893 -0.055893 -0.055893 -0.026261 -0.026261 -0.026261 -0.026261 -0.026261 -0.026261 -0.026261 -0.026261 -0.026261
0.000000 0.000000 0.000000 0.000000 0.000000 0.000000 0.000000 0.000000 0.000000 0.000000 0.000000 0.000000 0.000000 0.000000 0.000000 0.000000 0.000000 0.000000 0.000000 0.000000 0.000000 0.000000 0.000000 0.000000 0.000000 0.000000 0.000000 0.000000 0.000000 0.000000 0.000000 0.000000 0.000000 0.000000 0.000000 0.000000 0.000000 0.000000 0.000000 0.000000 0.000000 0.000000 0.000000 0.000000 0.000000 0.000000 0.000000 0.000000 0.000000 0.000000 0.000000 0.000000 0.181818 0.181818 0.199007 0.199007 0.199007 0.199007 0.199007 0.199007 0.199007 0.199007 0.199007 0.199007 0.199007 0.199007 0.199007 0.199007 0.199007 0.199007 0.199007 0.199007 0.199007 0.199007 0.199007 0.199007 0.199007 0.199007 0.199007 0.199007 0.199007 0.199007 0.199007 0.199007 0.199007 0.199007 0.199007 0.199007 0.199007 0.199007 0.199007 0.199007 0.199007 0.199007 0.199007 0.230940 0.230940 0.230940 0.230940 0.230940 0.230940 0.230940 0.230940 0.230940 0.230940 0.230940 0.230940 0.230940 0.230940 0.230940 0.230940 0.230940 0.230940 0.230940 0.230940 0.230940 0.230940 0.230940 0.230940 0.230940 0.230940 0.230940 0.230940 0.244339 0.244339 0.244339 0.244339 0.244339 0.244339 0.244339 0.244339 0.244339 0.244339 0.244339 0.244339 0.244339 0.244339 0.244339 0.244339 0.244339 0.244339 0.244339 0.244339 0.244339 0.244339 0.244339 0.251976 0.251976 0.251976 0.251976 0.251976 0.251976 0.251976 0.251976 0.251976 0.251976 0.251976 0.251976 0.251976 0.251976 0.251976 0.251976 0.251976 0.251976 0.251976 0.251976 0.264906 0.264906 0.264906 0.264906 0.264906 0.264906 0.264906 0.264906 0.264906 0.264906 0.264906 0.264906 0.264906 0.264906 0.264906 0.264906 0.264906 0.264906 0.264906 0.264906 0.264906 0.264906 0.264906 0.264906 0.264906 0.264906 0.264906 0.264906 0.264906 0.264906 0.264906 0.264906 0.264906 0.264906 0.264906 0.264906 0.264906 0.264906 0.264906 0.264906 0.264906 0.264906 0.264906 0.264906 0.264906 0.264906 0.264906 0.264906 0.264906 0.264906 0.264906 0.264906 0.264906 0.264906 0.264906 0.264906 0.264906 0.264906 0.264906 0.264906 0.264906 0.264906 0.264906 0.264906 0.264906 0.264906 0.264906 0.264906 0.264906 0.264906 0.264906 0.264906 0.264906 0.264906 0.264906 0.269680 0.269680 0.269680 0.269680 0.269680 0.269680 0.269680 0.269680 0.269680 0.269680 0.269680 0.269680 0.264906 0.264906 0.264906 0.264906 0.264906 0.264906 0.264906 0.264906 0.264906 0.264906 0.264906 0.264906 0.269680 0.269680 0.269680 0.269680 0.269680 0.269680 0.269680 0.269680 0.269680 0.269680 0.269680 0.264906 0.264906 0.264906 0.264906 0.264906 0.264906 0.264906 0.264906 0.264906 0.264906 0.264906 0.256074 0.256074 0.256074 0.256074 0.256074 0.256074 0.256074 0.256074 0.256074 0.256074 0.256074 0.264906 0.264906 0.264906 0.264906 0.264906 0.264906 0.264906 0.264906 0.264906 0.264906 0.260378 0.260378 0.260378 0.260378 0.260378 0.260378 0.260378 0.260378 0.260378 0.260378 0.264906 0.264906 0.264906 0.264906 0.264906 0.264906 0.264906 0.264906 0.264906 0.260378 0.260378 0.260378 0.260378 0.260378 0.260378 0.260378 0.260378 0.260378 0.256074 0.256074 0.256074 0.256074 0.256074 0.256074 0.256074 0.256074 0.256074 0.251976 0.251976 0.251976 0.251976 0.251976 0.251976 0.251976 0.251976 0.251976 0.264906 0.264906 0.264906 0.264906 0.264906 0.264906 0.264906 0.264906 0.264906
