# Output from CTFFind version 4.1.9, run on 2019-11-03 19:00:07
# Input file: stack1_bm3d_averaged_1_2.75_0_1000_half.mrc ; Number of micrographs: 1
# Pixel size: 3.000 Angstroms ; acceleration voltage: 300.0 keV ; spherical aberration: 0.00 mm ; amplitude contrast: 0.07
# Box size: 512 pixels ; min. res.: 30.0 Angstroms ; max. res.: 5.0 Angstroms ; min. def.: 5000.0 um; max. def. 50000.0 um; num. frames averaged: 1
# 6 lines per micrograph: #1 - spatial frequency (1/Angstroms); #2 - 1D rotational average of spectrum (assuming no astigmatism); #3 - 1D rotational average of spectrum; #4 - CTF fit; #5 - cross-correlation between spectrum and CTF fit; #6 - 2sigma of expected cross correlation of noise
0.000000 0.000651 0.001302 0.001953 0.002604 0.003255 0.003906 0.004557 0.005208 0.005859 0.006510 0.007161 0.007812 0.008464 0.009115 0.009766 0.010417 0.011068 0.011719 0.012370 0.013021 0.013672 0.014323 0.014974 0.015625 0.016276 0.016927 0.017578 0.018229 0.018880 0.019531 0.020182 0.020833 0.021484 0.022135 0.022786 0.023438 0.024089 0.024740 0.025391 0.026042 0.026693 0.027344 0.027995 0.028646 0.029297 0.029948 0.030599 0.031250 0.031901 0.032552 0.033203 0.033854 0.034505 0.035156 0.035807 0.036458 0.037109 0.037760 0.038411 0.039062 0.039714 0.040365 0.041016 0.041667 0.042318 0.042969 0.043620 0.044271 0.044922 0.045573 0.046224 0.046875 0.047526 0.048177 0.048828 0.049479 0.050130 0.050781 0.051432 0.052083 0.052734 0.053385 0.054036 0.054688 0.055339 0.055990 0.056641 0.057292 0.057943 0.058594 0.059245 0.059896 0.060547 0.061198 0.061849 0.062500 0.063151 0.063802 0.064453 0.065104 0.065755 0.066406 0.067057 0.067708 0.068359 0.069010 0.069661 0.070312 0.070964 0.071615 0.072266 0.072917 0.073568 0.074219 0.074870 0.075521 0.076172 0.076823 0.077474 0.078125 0.078776 0.079427 0.080078 0.080729 0.081380 0.082031 0.082682 0.083333 0.083984 0.084635 0.085286 0.085938 0.086589 0.087240 0.087891 0.088542 0.089193 0.089844 0.090495 0.091146 0.091797 0.092448 0.093099 0.093750 0.094401 0.095052 0.095703 0.096354 0.097005 0.097656 0.098307 0.098958 0.099609 0.100260 0.100911 0.101562 0.102214 0.102865 0.103516 0.104167 0.104818 0.105469 0.106120 0.106771 0.107422 0.108073 0.108724 0.109375 0.110026 0.110677 0.111328 0.111979 0.112630 0.113281 0.113932 0.114583 0.115234 0.115885 0.116536 0.117188 0.117839 0.118490 0.119141 0.119792 0.120443 0.121094 0.121745 0.122396 0.123047 0.123698 0.124349 0.125000 0.125651 0.126302 0.126953 0.127604 0.128255 0.128906 0.129557 0.130208 0.130859 0.131510 0.132161 0.132812 0.133464 0.134115 0.134766 0.135417 0.136068 0.136719 0.137370 0.138021 0.138672 0.139323 0.139974 0.140625 0.141276 0.141927 0.142578 0.143229 0.143880 0.144531 0.145182 0.145833 0.146484 0.147135 0.147786 0.148438 0.149089 0.149740 0.150391 0.151042 0.151693 0.152344 0.152995 0.153646 0.154297 0.154948 0.155599 0.156250 0.156901 0.157552 0.158203 0.158854 0.159505 0.160156 0.160807 0.161458 0.162109 0.162760 0.163411 0.164062 0.164714 0.165365 0.166016 0.166667 0.167318 0.167969 0.168620 0.169271 0.169922 0.170573 0.171224 0.171875 0.172526 0.173177 0.173828 0.174479 0.175130 0.175781 0.176432 0.177083 0.177734 0.178385 0.179036 0.179688 0.180339 0.180990 0.181641 0.182292 0.182943 0.183594 0.184245 0.184896 0.185547 0.186198 0.186849 0.187500 0.188151 0.188802 0.189453 0.190104 0.190755 0.191406 0.192057 0.192708 0.193359 0.194010 0.194661 0.195312 0.195964 0.196615 0.197266 0.197917 0.198568 0.199219 0.199870 0.200521 0.201172 0.201823 0.202474 0.203125 0.203776 0.204427 0.205078 0.205729 0.206380 0.207031 0.207682 0.208333 0.208984 0.209635 0.210286 0.210938 0.211589 0.212240 0.212891 0.213542 0.214193 0.214844 0.215495 0.216146 0.216797 0.217448 0.218099 0.218750 0.219401 0.220052 0.220703 0.221354 0.222005 0.222656 0.223307 0.223958 0.224609 0.225260 0.225911 0.226562 0.227214 0.227865 0.228516 0.229167 0.229818 0.230469 0.231120 0.231771 0.232422 0.233073 0.233724 0.234375 0.235026 0.235677
       0.34740        0.34740        0.34740        0.34740        0.34740        0.34740        0.34740        0.34740        0.34740        0.34740        0.34740        0.34740        0.34740        0.34740        0.34740        0.34740        0.34740        0.34740        0.34740        0.34740        0.34740        0.34740        0.34740        0.34740        0.34740        0.34740        0.34740        0.34740        0.34740        0.34740        0.34740        0.34740        0.34740        0.34740        0.34740        0.34740        0.34740        0.34740        0.34740        0.34740        0.34740        0.34740        0.34740        0.34740        0.34740        0.34740        0.34740        0.34740        0.34740        0.34740        0.34740        0.50133        0.71565        0.42467        0.21523       -0.04421       -0.22888       -0.04520       -0.10389       -0.06161        0.01892       -0.11899       -0.09231       -0.03527       -0.01594       -0.12687       -0.16020       -0.29227       -0.46084       -0.56676       -0.50197       -0.44700       -0.35525       -0.55531       -0.41576       -0.55695       -0.45902       -0.46805       -0.36665       -0.34108       -0.30059       -0.21192       -0.12338       -0.12300        0.02395        0.00499        0.15756        0.18919        0.33441        0.43232        0.50863        0.55855        0.56850        0.58749        0.70565        0.65366        0.68263        0.59224        0.55220        0.63843        0.51282        0.46267        0.41653        0.31370        0.27702        0.30061        0.26370        0.11136        0.09190       -0.00862        0.02018        0.04774        0.01020        0.09754        0.14060        0.22276        0.29371        0.29701        0.42475        0.57397        0.57014        0.57367        0.67085        0.65428        0.63083        0.68316        0.65127        0.55038        0.55220        0.42277        0.36027        0.27199        0.18678        0.11572        0.15254        0.12634        0.13974        0.13289        0.22796        0.23689        0.32352        0.36474        0.41653        0.51165        0.53746        0.56360        0.56954        0.60297        0.55660        0.49139        0.49086        0.35564        0.28119        0.27622        0.25593        0.17924        0.17212        0.18873        0.23360        0.27235        0.36257        0.39995        0.42140        0.45488        0.46030        0.48382        0.44665        0.49592        0.44763        0.38688        0.35879        0.36287        0.32724        0.29762        0.22524        0.23833        0.23280        0.27830        0.28532        0.37127        0.40864        0.38360        0.42749        0.45253        0.45046        0.44621        0.45629        0.37279        0.36204        0.29772        0.25784        0.30399        0.29256        0.32278        0.33555        0.36463        0.35221        0.42691        0.41523        0.45203        0.41139        0.44008        0.39405        0.36590        0.31457        0.29796        0.30031        0.28630        0.29285        0.35015        0.36321        0.35930        0.37091        0.36571        0.36761        0.43482        0.41145        0.37961        0.35431        0.31550        0.30456        0.34835        0.32231        0.34477        0.30778        0.32951        0.36161        0.38849        0.36887        0.34311        0.34478        0.35481        0.33254        0.31199        0.33882        0.32626        0.34946        0.33897        0.34886        0.37640        0.33135        0.32932        0.34766        0.31542        0.29059        0.28551        0.29161        0.32146        0.34120        0.36836        0.31092        0.31576        0.34158        0.31152        0.33357        0.30544        0.31406        0.30752        0.30302        0.30646        0.33984        0.33480        0.34410        0.33701        0.37052        0.36291        0.32800        0.34007        0.34260        0.25984        0.27876        0.34030        0.28310        0.30601        0.36516        0.33815        0.34114        0.37152        0.33810        0.27895        0.27203        0.31121        0.34960        0.36846        0.36178        0.32386        0.30720        0.30331        0.30871        0.27454        0.31329        0.30488        0.34117        0.33174        0.31131        0.28819        0.34568        0.34381        0.34274        0.29582        0.29076        0.35148        0.40330        0.36368        0.35602        0.33878        0.30522        0.31582        0.30921        0.31202        0.31165        0.21562        0.26470        0.33154        0.31245        0.30892        0.29448        0.25953        0.22989        0.24023        0.30561        0.31896        0.30284        0.28339        0.31112        0.39542        0.32348        0.24319        0.32190        0.29529        0.26299        0.29730        0.36628        0.31782        0.32164        0.30456        0.26255        0.29996        0.31682        0.25183        0.20448        0.25661        0.25126        0.21520        0.31146        0.26399        0.35724        0.31153        0.25511        0.23946        0.20280        0.28770        0.31913        0.24999        0.15896        0.19243        0.29013        0.24855        0.27844        0.11827        0.11617       -0.51091       -1.11502
2.731791 2.702900 2.674165 2.645587 2.617164 2.588899 2.560789 2.532837 2.505040 2.477400 2.449916 2.422589 2.395419 2.368404 2.341546 2.314845 2.288300 2.261911 2.235679 2.209603 2.183684 2.157921 2.132315 2.106865 2.081571 2.056434 2.031453 2.006629 1.981961 1.957449 1.933094 1.908896 1.884853 1.860967 1.837238 1.813665 1.790249 1.766989 1.743885 1.720938 1.698147 1.675512 1.653035 1.630713 1.608548 1.586539 1.564687 1.542991 1.521452 1.500069 1.478842 1.526633 1.852035 1.514580 1.252493 0.971423 0.568272 0.934803 0.674712 0.858100 0.922462 0.644914 0.686698 0.804624 0.796122 0.632446 0.604728 0.413538 0.106730 0.049992 0.051796 0.052522 0.319141 -0.043719 0.068203 -0.059777 0.019721 -0.018877 0.096260 0.091361 0.147703 0.194141 0.325629 0.273091 0.462240 0.381713 0.593174 0.559754 0.786807 0.814571 0.918244 1.011024 0.964393 0.988534 1.140484 0.956533 1.147651 0.930933 0.879597 0.978642 0.832413 0.782218 0.673700 0.555876 0.504350 0.480606 0.502620 0.263689 0.208902 0.145414 0.027738 0.196270 0.012334 0.124901 0.222874 0.256446 0.321464 0.347162 0.462254 0.570857 0.700785 0.533724 0.731575 0.805843 0.614153 0.752875 0.701073 0.612145 0.495198 0.486546 0.309093 0.229089 0.099368 0.007215 -0.001154 0.026245 -0.051000 -0.030874 0.083171 0.060782 0.119978 0.215068 0.247143 0.357369 0.417740 0.418881 0.468823 0.430542 0.472159 0.340467 0.336752 0.254571 0.079127 0.067218 0.035031 -0.042454 -0.065879 -0.078793 -0.011180 -0.034180 0.101459 0.145181 0.169756 0.240012 0.233599 0.269712 0.268899 0.226877 0.251105 0.201925 0.123078 0.102371 0.093239 0.033221 0.008735 -0.095183 -0.020994 0.000472 0.024713 0.016154 0.137012 0.120850 0.128799 0.205387 0.274541 0.165415 0.238966 0.113725 0.163602 0.039313 -0.032372 0.022785 0.006485 0.023620 0.029713 0.087791 0.070853 0.092978 0.176351 0.158735 0.161096 0.118034 0.174036 0.065955 0.065287 -0.007883 -0.016818 -0.009718 -0.036828 -0.002065 0.067419 0.088946 0.027075 0.088171 0.094860 0.080562 0.178098 0.087681 0.101038 0.059928 -0.021333 0.036898 0.052836 0.008133 0.067554 0.009373 0.038900 0.062262 0.071537 0.070053 0.044827 0.003952 0.073979 -0.001304 0.022365 0.037530 0.008804 0.073346 0.044312 0.058315 0.067176 0.023374 0.024550 0.032433 -0.002397 -0.039339 -0.014509 -0.009562 0.004239 0.044375 0.084895 -0.010964 0.028545 0.077707 -0.021726 0.060962 0.025451 0.020004 0.015395 0.034016 0.027247 0.059075 0.034259 0.090786 0.055867 0.135213 0.102936 0.071158 0.110732 0.055737 -0.022940 0.033284 0.089704 0.010256 0.066027 0.106563 0.023565 0.081858 0.085276 0.027604 -0.002451 -0.058160 0.047087 0.085519 0.093779 0.073667 0.030308 0.014650 0.022993 0.028922 -0.043935 0.047052 0.035078 0.064132 0.089771 -0.009139 0.052475 -0.004670 0.060265 0.031000 -0.018647 -0.029773 0.099391 0.114203 0.063192 0.036576 0.055625 -0.005738 -0.001802 0.014952 -0.017273 0.020969 -0.144405 -0.015757 0.031057 0.035597 -0.012223 -0.026476 -0.016971 -0.071151 -0.017866 -0.003382 0.066389 0.019565 0.028871 0.030455 0.165993 0.066303 -0.018362 0.094672 0.033807 0.022619 0.042998 0.155874 0.075580 0.058561 0.061807 0.017921 0.042686 0.082240 -0.015607 -0.105189 0.005936 -0.007352 -0.062006 0.050521 -0.046579 0.154968 0.016150 -0.015561 -0.046817 -0.084716 -0.019089 0.384600 0.300156 0.178982 0.241338 0.367477 0.287837 0.334971 0.031364 0.142735 -1.325755
0.072396 0.072910 0.074453 0.077025 0.080623 0.085249 0.090899 0.097574 0.105269 0.113983 0.123712 0.134451 0.146195 0.158937 0.172668 0.187379 0.203058 0.219692 0.237264 0.255755 0.275146 0.295411 0.316522 0.338448 0.361155 0.384601 0.408743 0.433532 0.458914 0.484829 0.511212 0.537991 0.565089 0.592422 0.619900 0.647423 0.674888 0.702184 0.729190 0.755782 0.781825 0.807180 0.831701 0.855232 0.877615 0.898685 0.918271 0.936198 0.952287 0.966357 0.978224 0.987703 0.994610 0.998764 0.999985 0.998099 0.992938 0.984343 0.972165 0.956268 0.936529 0.912843 0.885125 0.853309 0.817355 0.777247 0.733000 0.684657 0.632295 0.576028 0.516003 0.452408 0.385470 0.315459 0.242684 0.167498 0.090297 0.011517 0.068364 0.148828 0.229321 0.309254 0.388007 0.464934 0.539365 0.610615 0.677988 0.740786 0.798312 0.849885 0.894843 0.932553 0.962425 0.983916 0.996544 0.999898 0.993644 0.977540 0.951444 0.915319 0.869246 0.813426 0.748190 0.674000 0.591453 0.501279 0.404345 0.301645 0.194297 0.083535 0.029302 0.142788 0.255417 0.365633 0.471842 0.572437 0.665828 0.750463 0.824859 0.887631 0.937519 0.973419 0.994412 0.999788 0.989074 0.962052 0.918782 0.859612 0.785192 0.696472 0.594708 0.481445 0.358510 0.227987 0.092186 0.046391 0.185090 0.321157 0.451789 0.574195 0.685655 0.783585 0.865606 0.929604 0.973791 0.996769 0.997575 0.975732 0.931278 0.864795 0.777415 0.670823 0.547237 0.409376 0.260411 0.103907 0.056259 0.215989 0.371062 0.517247 0.650423 0.766698 0.862533 0.934858 0.981183 0.999697 0.989352 0.949927 0.882072 0.787320 0.668080 0.527597 0.369883 0.199614 0.022013 0.157310 0.332524 0.497768 0.647347 0.775941 0.878800 0.951941 0.992312 0.997943 0.968062 0.903166 0.805050 0.676797 0.522700 0.348146 0.159457 0.036335 0.231732 0.419054 0.590746 0.739678 0.859471 0.944774 0.991537 0.997223 0.960969 0.883689 0.768093 0.618629 0.441352 0.243701 0.034219 0.177809 0.382756 0.571085 0.733806 0.862920 0.951834 0.995729 0.991852 0.939720 0.841224 0.700603 0.524314 0.320774 0.099985 0.126929 0.348275 0.552382 0.728233 0.866072 0.957980 0.998358 0.984317 0.915915 0.796251 0.631381 0.430062 0.203330 0.036068 0.274378 0.497609 0.692370 0.846687 0.950772 0.997685 0.983844 0.909347 0.778074 0.597553 0.378584 0.134644 0.118906 0.365771 0.589766 0.775878 0.911318 0.986431 0.995443 0.936960 0.814190 0.634844 0.410725 0.157010 0.108743 0.367769 0.601430 0.792565 0.926780 0.993592 0.987301 0.907553 0.759503 0.553572 0.304784 0.031740 0.244738 0.503180 0.723138 0.886825 0.980610 0.996226 0.931570 0.791029 0.585294 0.330622 0.047634 0.240317 0.509035 0.735545 0.900059 0.987791 0.990345 0.906614 0.743058 0.513310 0.237131 0.061206 0.355018 0.617572 0.824547 0.956332 0.999958 0.950471 0.811595 0.595563 0.322178 0.017058 0.290687 0.571207 0.796835 0.944850 0.999846 0.955447 0.815145 0.592176 0.308395 0.007779 0.324133 0.607921 0.829280 0.964418 0.998267 0.926292 0.755189 0.502433 0.194591 0.135340 0.451447 0.718780 0.907268 0.995169 0.971712 0.838534 0.609769 0.310689 0.024961 0.358700 0.651697 0.869305 0.985245 0.984893 0.867266 0.645427 0.345198 0.002287 0.341873 0.645086 0.869602 0.986888 0.981393 0.852755 0.616157 0.300709 0.053981 0.402718 0.700427 0.908022 0.997642 0.956536 0.789040 0.516343 0.173995 0.192632 0.534241 0.804242 0.965205 0.994143
1.000000 1.000000 1.000000 1.000000 1.000000 1.000000 1.000000 1.000000 1.000000 1.000000 1.000000 1.000000 1.000000 1.000000 1.000000 1.000000 1.000000 1.000000 1.000000 1.000000 1.000000 1.000000 1.000000 1.000000 1.000000 1.000000 1.000000 1.000000 1.000000 1.000000 1.000000 1.000000 1.000000 1.000000 1.000000 1.000000 1.000000 1.000000 1.000000 1.000000 1.000000 1.000000 1.000000 1.000000 1.000000 1.000000 1.000000 1.000000 1.000000 1.000000 1.000000 1.000000 0.918943 0.918943 0.904599 0.904599 0.904599 0.904599 0.904599 0.904599 0.904599 0.904599 0.904599 0.904599 0.904599 0.904599 0.904599 0.904599 0.904599 0.904599 0.904599 0.904599 0.904599 0.904599 0.904599 0.904599 0.904599 0.904599 0.904599 0.904599 0.904599 0.904599 0.904599 0.904599 0.904599 0.904599 0.904599 0.904599 0.904599 0.904599 0.904599 0.904599 0.904599 0.904599 0.904599 0.896465 0.903286 0.906523 0.905150 0.908672 0.909038 0.907022 0.906204 0.906074 0.906442 0.907489 0.917945 0.932360 0.939745 0.941993 0.945536 0.952308 0.954725 0.954210 0.960672 0.968790 0.967489 0.967063 0.967715 0.969044 0.971069 0.969931 0.969303 0.972498 0.973091 0.971731 0.969304 0.968699 0.968112 0.968230 0.967893 0.967771 0.968378 0.968872 0.968601 0.968697 0.968842 0.968906 0.969908 0.971051 0.973541 0.974543 0.974451 0.973467 0.971719 0.973353 0.976693 0.973998 0.973771 0.973386 0.973632 0.958692 0.954596 0.954659 0.949001 0.947367 0.945737 0.943067 0.942759 0.943456 0.943983 0.945269 0.943082 0.934801 0.928432 0.911455 0.927678 0.923413 0.906461 0.889815 0.892044 0.893121 0.893560 0.891090 0.883432 0.880044 0.877036 0.879107 0.883390 0.887242 0.881643 0.874086 0.872491 0.869875 0.842291 0.822486 0.809444 0.804436 0.801135 0.801760 0.798536 0.795977 0.804301 0.798421 0.792843 0.781283 0.774076 0.742256 0.719728 0.728178 0.736518 0.739243 0.733975 0.707407 0.659610 0.674463 0.673418 0.671472 0.669998 0.657897 0.649968 0.658377 0.661195 0.648505 0.645358 0.645665 0.645183 0.656386 0.657545 0.646911 0.642810 0.629582 0.621662 0.597860 0.599341 0.617081 0.580512 0.571959 0.560316 0.550166 0.544878 0.530032 0.528567 0.526678 0.514377 0.506278 0.495653 0.499925 0.506778 0.507662 0.492995 0.516255 0.515445 0.550239 0.546710 0.538641 0.530657 0.530844 0.518144 0.506806 0.513523 0.513931 0.515014 0.548639 0.553894 0.558663 0.548246 0.542582 0.529600 0.513192 0.517686 0.546915 0.521972 0.494318 0.477147 0.479833 0.460427 0.444176 0.414216 0.404600 0.365358 0.364318 0.357998 0.338300 0.336638 0.256957 0.219033 0.205583 0.206540 0.212004 0.247725 0.256233 0.236739 0.254917 0.301849 0.293135 0.282490 0.261155 0.263981 0.263734 0.246815 0.218766 0.196181 0.178104 0.172895 0.128417 0.130210 0.127623 0.119332 0.134796 0.170165 0.177926 0.131434 0.113634 0.130681 0.150923 0.152593 0.136924 0.085035 0.043861 0.056348 0.067395 0.034496 0.031665 0.058320 0.068706 0.071784 0.001790 0.017561 0.045536 0.058623 0.042066 0.039481 0.071667 0.095549 0.097025 0.103913 0.138570 0.101102 0.092109 0.087680 0.041375 0.051428 -0.017130 -0.039749 -0.039749 -0.045508 -0.045508 -0.045508 -0.045508 -0.045508 -0.045508 -0.045508 -0.045508 -0.045508 -0.045523 -0.045523 -0.045523 -0.045523 -0.045523 -0.045523 -0.045523 -0.045523 -0.045523 -0.014785 -0.014785 -0.014785 -0.014785 -0.014785 -0.014785 -0.014785 -0.014785 -0.014785
0.000000 0.000000 0.000000 0.000000 0.000000 0.000000 0.000000 0.000000 0.000000 0.000000 0.000000 0.000000 0.000000 0.000000 0.000000 0.000000 0.000000 0.000000 0.000000 0.000000 0.000000 0.000000 0.000000 0.000000 0.000000 0.000000 0.000000 0.000000 0.000000 0.000000 0.000000 0.000000 0.000000 0.000000 0.000000 0.000000 0.000000 0.000000 0.000000 0.000000 0.000000 0.000000 0.000000 0.000000 0.000000 0.000000 0.000000 0.000000 0.000000 0.000000 0.000000 0.000000 0.181818 0.181818 0.199007 0.199007 0.199007 0.199007 0.199007 0.199007 0.199007 0.199007 0.199007 0.199007 0.199007 0.199007 0.199007 0.199007 0.199007 0.199007 0.199007 0.199007 0.199007 0.199007 0.199007 0.199007 0.199007 0.199007 0.199007 0.199007 0.199007 0.199007 0.199007 0.199007 0.199007 0.199007 0.199007 0.199007 0.199007 0.199007 0.199007 0.199007 0.199007 0.199007 0.199007 0.230940 0.230940 0.230940 0.230940 0.230940 0.230940 0.230940 0.230940 0.230940 0.230940 0.230940 0.230940 0.230940 0.230940 0.230940 0.230940 0.230940 0.230940 0.230940 0.230940 0.230940 0.230940 0.230940 0.230940 0.230940 0.230940 0.230940 0.230940 0.244339 0.244339 0.244339 0.244339 0.244339 0.244339 0.244339 0.244339 0.244339 0.244339 0.244339 0.244339 0.244339 0.244339 0.244339 0.244339 0.244339 0.244339 0.244339 0.244339 0.244339 0.244339 0.244339 0.251976 0.251976 0.251976 0.251976 0.251976 0.251976 0.251976 0.251976 0.251976 0.251976 0.251976 0.251976 0.251976 0.251976 0.251976 0.251976 0.251976 0.251976 0.251976 0.251976 0.264906 0.264906 0.264906 0.264906 0.264906 0.264906 0.264906 0.264906 0.264906 0.264906 0.264906 0.264906 0.264906 0.264906 0.264906 0.264906 0.264906 0.264906 0.264906 0.264906 0.264906 0.264906 0.264906 0.264906 0.264906 0.264906 0.264906 0.264906 0.264906 0.264906 0.264906 0.264906 0.264906 0.264906 0.264906 0.264906 0.264906 0.264906 0.264906 0.264906 0.264906 0.264906 0.264906 0.264906 0.264906 0.264906 0.264906 0.264906 0.264906 0.264906 0.264906 0.264906 0.264906 0.264906 0.264906 0.264906 0.264906 0.264906 0.264906 0.264906 0.264906 0.264906 0.264906 0.264906 0.264906 0.264906 0.264906 0.264906 0.264906 0.264906 0.264906 0.264906 0.264906 0.264906 0.264906 0.269680 0.269680 0.269680 0.269680 0.269680 0.269680 0.269680 0.269680 0.269680 0.269680 0.269680 0.269680 0.264906 0.264906 0.264906 0.264906 0.264906 0.264906 0.264906 0.264906 0.264906 0.264906 0.264906 0.264906 0.269680 0.269680 0.269680 0.269680 0.269680 0.269680 0.269680 0.269680 0.269680 0.269680 0.269680 0.264906 0.264906 0.264906 0.264906 0.264906 0.264906 0.264906 0.264906 0.264906 0.264906 0.264906 0.269680 0.269680 0.269680 0.269680 0.269680 0.269680 0.269680 0.269680 0.269680 0.269680 0.251976 0.251976 0.251976 0.251976 0.251976 0.251976 0.251976 0.251976 0.251976 0.251976 0.251976 0.269680 0.269680 0.269680 0.269680 0.269680 0.269680 0.269680 0.269680 0.269680 0.256074 0.256074 0.256074 0.256074 0.256074 0.256074 0.256074 0.256074 0.256074 0.256074 0.260378 0.260378 0.260378 0.260378 0.260378 0.260378 0.260378 0.260378 0.260378 0.256074 0.256074 0.256074 0.256074 0.256074 0.256074 0.256074 0.256074 0.256074 0.251976 0.251976 0.251976 0.251976 0.251976 0.251976 0.251976 0.251976 0.251976 0.264906 0.264906 0.264906 0.264906 0.264906 0.264906 0.264906 0.264906 0.264906
