# Output from CTFFind version 4.1.9, run on 2019-11-03 19:45:22
# Input file: stack16_bm3d_averaged_1_5.25_0_250_half.mrc ; Number of micrographs: 1
# Pixel size: 3.000 Angstroms ; acceleration voltage: 300.0 keV ; spherical aberration: 0.00 mm ; amplitude contrast: 0.07
# Box size: 512 pixels ; min. res.: 30.0 Angstroms ; max. res.: 5.0 Angstroms ; min. def.: 5000.0 um; max. def. 50000.0 um; num. frames averaged: 1
# 6 lines per micrograph: #1 - spatial frequency (1/Angstroms); #2 - 1D rotational average of spectrum (assuming no astigmatism); #3 - 1D rotational average of spectrum; #4 - CTF fit; #5 - cross-correlation between spectrum and CTF fit; #6 - 2sigma of expected cross correlation of noise
0.000000 0.000651 0.001302 0.001953 0.002604 0.003255 0.003906 0.004557 0.005208 0.005859 0.006510 0.007161 0.007812 0.008464 0.009115 0.009766 0.010417 0.011068 0.011719 0.012370 0.013021 0.013672 0.014323 0.014974 0.015625 0.016276 0.016927 0.017578 0.018229 0.018880 0.019531 0.020182 0.020833 0.021484 0.022135 0.022786 0.023438 0.024089 0.024740 0.025391 0.026042 0.026693 0.027344 0.027995 0.028646 0.029297 0.029948 0.030599 0.031250 0.031901 0.032552 0.033203 0.033854 0.034505 0.035156 0.035807 0.036458 0.037109 0.037760 0.038411 0.039062 0.039714 0.040365 0.041016 0.041667 0.042318 0.042969 0.043620 0.044271 0.044922 0.045573 0.046224 0.046875 0.047526 0.048177 0.048828 0.049479 0.050130 0.050781 0.051432 0.052083 0.052734 0.053385 0.054036 0.054688 0.055339 0.055990 0.056641 0.057292 0.057943 0.058594 0.059245 0.059896 0.060547 0.061198 0.061849 0.062500 0.063151 0.063802 0.064453 0.065104 0.065755 0.066406 0.067057 0.067708 0.068359 0.069010 0.069661 0.070312 0.070964 0.071615 0.072266 0.072917 0.073568 0.074219 0.074870 0.075521 0.076172 0.076823 0.077474 0.078125 0.078776 0.079427 0.080078 0.080729 0.081380 0.082031 0.082682 0.083333 0.083984 0.084635 0.085286 0.085938 0.086589 0.087240 0.087891 0.088542 0.089193 0.089844 0.090495 0.091146 0.091797 0.092448 0.093099 0.093750 0.094401 0.095052 0.095703 0.096354 0.097005 0.097656 0.098307 0.098958 0.099609 0.100260 0.100911 0.101562 0.102214 0.102865 0.103516 0.104167 0.104818 0.105469 0.106120 0.106771 0.107422 0.108073 0.108724 0.109375 0.110026 0.110677 0.111328 0.111979 0.112630 0.113281 0.113932 0.114583 0.115234 0.115885 0.116536 0.117188 0.117839 0.118490 0.119141 0.119792 0.120443 0.121094 0.121745 0.122396 0.123047 0.123698 0.124349 0.125000 0.125651 0.126302 0.126953 0.127604 0.128255 0.128906 0.129557 0.130208 0.130859 0.131510 0.132161 0.132812 0.133464 0.134115 0.134766 0.135417 0.136068 0.136719 0.137370 0.138021 0.138672 0.139323 0.139974 0.140625 0.141276 0.141927 0.142578 0.143229 0.143880 0.144531 0.145182 0.145833 0.146484 0.147135 0.147786 0.148438 0.149089 0.149740 0.150391 0.151042 0.151693 0.152344 0.152995 0.153646 0.154297 0.154948 0.155599 0.156250 0.156901 0.157552 0.158203 0.158854 0.159505 0.160156 0.160807 0.161458 0.162109 0.162760 0.163411 0.164062 0.164714 0.165365 0.166016 0.166667 0.167318 0.167969 0.168620 0.169271 0.169922 0.170573 0.171224 0.171875 0.172526 0.173177 0.173828 0.174479 0.175130 0.175781 0.176432 0.177083 0.177734 0.178385 0.179036 0.179688 0.180339 0.180990 0.181641 0.182292 0.182943 0.183594 0.184245 0.184896 0.185547 0.186198 0.186849 0.187500 0.188151 0.188802 0.189453 0.190104 0.190755 0.191406 0.192057 0.192708 0.193359 0.194010 0.194661 0.195312 0.195964 0.196615 0.197266 0.197917 0.198568 0.199219 0.199870 0.200521 0.201172 0.201823 0.202474 0.203125 0.203776 0.204427 0.205078 0.205729 0.206380 0.207031 0.207682 0.208333 0.208984 0.209635 0.210286 0.210938 0.211589 0.212240 0.212891 0.213542 0.214193 0.214844 0.215495 0.216146 0.216797 0.217448 0.218099 0.218750 0.219401 0.220052 0.220703 0.221354 0.222005 0.222656 0.223307 0.223958 0.224609 0.225260 0.225911 0.226562 0.227214 0.227865 0.228516 0.229167 0.229818 0.230469 0.231120 0.231771 0.232422 0.233073 0.233724 0.234375 0.235026 0.235677
       0.34239        0.34239        0.34239        0.34239        0.34239        0.34239        0.34239        0.34239        0.34239        0.34239        0.34239        0.34239        0.34239        0.34239        0.34239        0.34239        0.34239        0.34239        0.34239        0.34239        0.34239        0.34239        0.34239        0.34239        0.34239        0.34239        0.34239        0.34239        0.34239        0.34239        0.34239        0.34239        0.34239        0.34239        0.34239        0.34239        0.34239        0.34239        0.34239        0.34239        0.34239        0.34239        0.34239        0.34239        0.34239        0.34239        0.34239        0.34239        0.34239        0.34239        0.34239        0.42408        0.55742        0.34367       -0.21061       -0.45508       -0.55025       -0.64996       -0.72012       -0.73098       -0.82835       -0.89810       -0.69178       -0.84852       -0.82913       -0.97487       -1.01194       -0.89398       -0.85296       -0.80630       -0.72394       -0.65405       -0.56549       -0.47123       -0.40475       -0.17584       -0.07298        0.02603        0.25031        0.25197        0.30896        0.36912        0.39804        0.51233        0.53589        0.57180        0.53123        0.47188        0.50613        0.51884        0.44113        0.32729        0.20728        0.17550        0.10646       -0.00061       -0.01653       -0.02541        0.04819        0.01269        0.06757        0.04140        0.15692        0.19167        0.40377        0.45698        0.54889        0.65648        0.68752        0.71322        0.63481        0.61103        0.53509        0.43692        0.38399        0.26988        0.21203        0.20582        0.09408        0.10057        0.09360        0.07852        0.09118        0.30225        0.41142        0.51717        0.53247        0.57104        0.60765        0.58677        0.57460        0.58263        0.56461        0.46458        0.29944        0.25904        0.24520        0.14052        0.08461        0.15851        0.19416        0.27852        0.34937        0.42033        0.47000        0.52864        0.59942        0.54517        0.50541        0.49637        0.35306        0.26444        0.25091        0.17038        0.18242        0.22395        0.26615        0.27590        0.31842        0.42244        0.45437        0.49740        0.45080        0.44250        0.48082        0.38709        0.32572        0.28199        0.25262        0.22640        0.22461        0.23474        0.33261        0.43812        0.42618        0.48816        0.55208        0.44269        0.40829        0.35371        0.30762        0.26185        0.27482        0.26730        0.28491        0.33854        0.34894        0.42889        0.46956        0.43452        0.45485        0.36813        0.37503        0.35231        0.26366        0.24339        0.24113        0.31954        0.37311        0.36446        0.38687        0.43114        0.43574        0.36994        0.33568        0.31734        0.34670        0.30717        0.27519        0.27788        0.34724        0.36657        0.38227        0.38822        0.38343        0.41242        0.39679        0.31393        0.28348        0.31197        0.34082        0.36864        0.35792        0.40249        0.33898        0.36874        0.38956        0.33201        0.35173        0.31507        0.29601        0.33505        0.33572        0.32306        0.34598        0.36620        0.32327        0.34199        0.31367        0.31166        0.28801        0.31455        0.30996        0.32461        0.36334        0.36580        0.34795        0.30287        0.29237        0.28312        0.32581        0.30538        0.31108        0.36434        0.35673        0.33802        0.30870        0.30140        0.30840        0.27122        0.30571        0.31823        0.32871        0.36450        0.34231        0.30075        0.33059        0.33395        0.32056        0.35426        0.34166        0.30824        0.33040        0.28961        0.31935        0.29035        0.30816        0.28684        0.31813        0.35546        0.33026        0.35123        0.30627        0.32195        0.34405        0.33374        0.30734        0.30944        0.34720        0.33190        0.32720        0.31865        0.31065        0.30559        0.30921        0.31990        0.31978        0.34661        0.33678        0.33423        0.28731        0.27845        0.26473        0.26713        0.36019        0.30880        0.35002        0.29472        0.26009        0.27743        0.36009        0.30409        0.28032        0.29777        0.31332        0.29174        0.26579        0.30601        0.26814        0.27933        0.29997        0.32403        0.33137        0.31984        0.30098        0.26576        0.26581        0.25877        0.26735        0.29157        0.35720        0.28741        0.19690        0.30093        0.27972        0.31839        0.24282        0.30039        0.30359        0.33075        0.28654        0.27379        0.26590        0.23650        0.29290        0.34168        0.34689        0.24244        0.28557        0.22451        0.22216        0.20971        0.33545        0.24889        0.19143        0.12942        0.21768        0.30992        0.21737        0.18239        0.09274       -0.51950       -0.65438
3.155434 3.115583 3.075989 3.036654 2.997576 2.958757 2.920195 2.881892 2.843846 2.806059 2.768530 2.731258 2.694245 2.657490 2.620992 2.584753 2.548772 2.513049 2.477583 2.442376 2.407427 2.372736 2.338303 2.304128 2.270210 2.236551 2.203150 2.170007 2.137122 2.104495 2.072126 2.040015 2.008162 1.976567 1.945230 1.914151 1.883330 1.852767 1.822463 1.792416 1.762627 1.733096 1.703823 1.674808 1.646052 1.617553 1.589312 1.561329 1.533605 1.506138 1.478930 1.514317 1.598467 1.538420 0.847286 0.592610 0.452773 0.384196 0.289610 0.212040 0.176106 -0.053653 0.200285 0.065463 -0.035136 -0.115880 -0.241334 -0.149290 -0.061766 -0.094312 -0.079577 0.032283 0.028766 0.223216 0.104516 0.353480 0.460645 0.486323 0.764171 0.685458 0.690438 0.828059 0.798359 0.837065 0.919751 0.861253 0.891461 0.728719 0.796808 0.845519 0.682961 0.605926 0.438267 0.425980 0.341849 0.187151 0.184482 0.115562 0.210214 0.118564 0.211408 0.106010 0.220030 0.232551 0.447541 0.407626 0.581327 0.620250 0.651605 0.725841 0.613890 0.591403 0.464459 0.415510 0.296679 0.266828 0.099041 0.159350 -0.025066 0.037513 -0.033239 -0.041127 -0.047687 0.032609 0.277247 0.297287 0.370008 0.312918 0.394736 0.405318 0.431184 0.412808 0.363435 0.341034 0.131222 0.082123 0.065502 -0.013556 -0.152176 -0.044406 -0.066729 0.041403 0.084667 0.158683 0.226660 0.234260 0.324028 0.417490 0.298948 0.367763 0.244667 0.141470 0.066453 0.043457 0.002857 0.046753 0.071760 0.101884 0.117482 0.180191 0.242145 0.307158 0.282379 0.222214 0.258323 0.230134 0.111771 0.072564 0.049532 0.032058 0.007174 -0.010318 0.035855 0.172195 0.191484 0.194507 0.307323 0.190894 0.200555 0.079860 0.072384 0.002200 -0.005810 0.002866 -0.004763 0.043426 0.061353 0.096716 0.158321 0.143081 0.223075 0.132096 0.078686 0.102031 0.047655 -0.057517 -0.024984 0.020789 0.060669 0.074686 0.073555 0.154999 0.123151 0.152767 0.037286 0.054365 0.048266 0.049261 0.025910 -0.021415 0.039843 0.045929 0.088954 0.107229 0.091864 0.109498 0.126624 0.077361 0.012377 -0.004531 0.030830 0.080684 0.066179 0.098784 0.094510 0.050550 0.110754 0.067511 0.042562 0.082465 -0.018441 0.020273 0.061416 0.037479 0.042938 0.057343 0.073663 0.049813 0.061646 0.012210 0.020267 -0.001202 0.048937 0.004147 0.044357 0.068140 0.073760 0.039712 -0.010030 -0.006933 -0.018015 0.036810 -0.000496 0.012725 0.069155 0.055950 -0.005111 0.008304 -0.012939 0.009818 -0.043426 -0.002210 0.003751 0.032771 0.047848 0.021018 -0.014704 0.006973 0.013225 0.003003 0.043776 0.012404 -0.014086 0.034177 -0.043152 -0.020009 -0.049991 -0.013522 -0.048193 0.014349 0.036188 -0.000287 -0.001389 -0.003552 0.005511 0.026081 0.022818 -0.012221 0.002260 0.025115 0.039526 0.017825 0.010416 0.032646 -0.004064 0.001339 0.021479 0.000521 0.081131 0.052312 0.032087 0.000799 -0.009618 -0.033651 0.002590 0.079516 -0.000844 0.072538 -0.017521 -0.024138 -0.019992 0.096768 -0.002677 -0.015894 0.034656 0.046162 0.009605 0.007164 0.027447 0.003252 0.021007 0.027655 0.075198 0.070487 0.051398 0.036284 0.000523 0.001915 -0.008378 -0.011690 0.008098 0.107300 -0.023078 -0.094325 0.056792 -0.007740 0.057545 -0.061819 0.008448 0.014875 0.022968 -0.000018 -0.019208 -0.018746 -0.074142 0.027571 0.050592 0.064372 -0.125221 0.006612 -0.028421 -0.015411 -0.113504 0.111390 0.017379 -0.009528 -0.085219 0.198063 0.259830 0.153045 0.136870 0.096193 -0.622829
0.072396 0.073047 0.074998 0.078250 0.082801 0.088649 0.095794 0.104230 0.113956 0.124964 0.137250 0.150805 0.165617 0.181676 0.198964 0.217465 0.237155 0.258009 0.279996 0.303080 0.327221 0.352371 0.378477 0.405478 0.433306 0.461884 0.491127 0.520940 0.551220 0.581852 0.612712 0.643663 0.674559 0.705241 0.735540 0.765276 0.794254 0.822273 0.849118 0.874564 0.898379 0.920320 0.940138 0.957578 0.972380 0.984284 0.993026 0.998347 0.999990 0.997708 0.991262 0.980428 0.964999 0.944790 0.919640 0.889417 0.854022 0.813394 0.767514 0.716408 0.660153 0.598878 0.532772 0.462082 0.387119 0.308261 0.225951 0.140701 0.053090 0.036235 0.126566 0.217131 0.307102 0.395602 0.481709 0.564469 0.642901 0.716013 0.782813 0.842322 0.893593 0.935721 0.967870 0.989279 0.999292 0.997366 0.983095 0.956227 0.916675 0.864538 0.800109 0.723886 0.636581 0.539118 0.432640 0.318496 0.198240 0.073611 0.053486 0.181002 0.306776 0.428568 0.544098 0.651095 0.747335 0.830700 0.899222 0.951144 0.984962 0.999485 0.993875 0.967692 0.920929 0.854039 0.767953 0.664087 0.544340 0.411070 0.267066 0.115505 0.040113 0.196039 0.348354 0.493071 0.626242 0.744065 0.843007 0.919917 0.972140 0.997622 0.995008 0.963718 0.904009 0.817011 0.704740 0.570078 0.416725 0.249124 0.072342 0.108057 0.286189 0.456031 0.611629 0.747313 0.857919 0.938999 0.987022 0.999555 0.975406 0.914728 0.819083 0.691442 0.536135 0.358737 0.165901 0.034867 0.235492 0.427640 0.603066 0.753982 0.873416 0.955558 0.996080 0.992395 0.943851 0.851851 0.719869 0.553376 0.359665 0.147559 0.072950 0.291154 0.496147 0.677371 0.825176 0.931367 0.989692 0.996258 0.949834 0.852031 0.707315 0.522882 0.308354 0.075317 0.163254 0.393714 0.602520 0.777037 0.906340 0.981937 0.998385 0.953740 0.849812 0.692184 0.489999 0.255498 0.003331 0.250314 0.488739 0.695840 0.857215 0.961219 0.999863 0.969500 0.871236 0.711017 0.499366 0.250781 0.017198 0.285174 0.533287 0.742691 0.897021 0.983735 0.995211 0.929507 0.790700 0.588762 0.338947 0.060726 0.223670 0.490986 0.718864 0.887744 0.982600 0.994383 0.920979 0.767618 0.546634 0.276609 0.019121 0.314388 0.582504 0.798682 0.942390 0.999381 0.963229 0.836165 0.629131 0.360971 0.056850 0.254036 0.541224 0.775959 0.934153 0.998944 0.962617 0.827670 0.606840 0.322065 0.002432 0.318689 0.607118 0.831508 0.966829 0.997285 0.918308 0.737380 0.473510 0.155424 0.181453 0.498865 0.760065 0.934142 0.999775 0.948024 0.783712 0.525214 0.202601 0.145727 0.477503 0.751730 0.933787 0.999945 0.940629 0.761998 0.485559 0.145782 0.214027 0.547187 0.809681 0.966062 0.994393 0.889535 0.664257 0.347934 0.017069 0.380938 0.693155 0.909551 0.998703 0.946682 0.759478 0.462614 0.097915 0.282219 0.622231 0.871559 0.992281 0.965075 0.792583 0.499506 0.129358 0.261807 0.613757 0.871391 0.993482 0.959495 0.773325 0.463221 0.077803 0.321361 0.669488 0.909124 0.999787 0.925057 0.695856 0.349220 0.057414 0.455494 0.776896 0.965618 0.987793 0.838038 0.541040 0.147812 0.272757 0.645881 0.904159 0.999917 0.914320 0.661397 0.286181 0.143016 0.546818 0.849439 0.993021 0.948999 0.724133 0.359939 0.074607 0.495891 0.821682 0.987283 0.958686 0.739916 0.372999 0.069716 0.499558 0.829219 0.990608 0.949214 0.711897 0.326272 0.128431 0.557387 0.869890 0.998712 0.914873 0.634628 0.216819 0.249071 0.661857
1.000000 1.000000 1.000000 1.000000 1.000000 1.000000 1.000000 1.000000 1.000000 1.000000 1.000000 1.000000 1.000000 1.000000 1.000000 1.000000 1.000000 1.000000 1.000000 1.000000 1.000000 1.000000 1.000000 1.000000 1.000000 1.000000 1.000000 1.000000 1.000000 1.000000 1.000000 1.000000 1.000000 1.000000 1.000000 1.000000 1.000000 1.000000 1.000000 1.000000 1.000000 1.000000 1.000000 1.000000 1.000000 1.000000 1.000000 1.000000 1.000000 1.000000 1.000000 1.000000 0.926240 0.926240 0.926240 0.926240 0.926240 0.926240 0.926240 0.926240 0.926240 0.926240 0.926240 0.926240 0.926240 0.926240 0.926240 0.926240 0.926240 0.926240 0.926240 0.926240 0.926240 0.926240 0.926240 0.926240 0.926240 0.926240 0.926240 0.926240 0.926240 0.926240 0.926240 0.926240 0.926240 0.913320 0.911412 0.912575 0.913762 0.913669 0.913114 0.912748 0.913783 0.915333 0.917349 0.938966 0.941997 0.943163 0.944457 0.945881 0.948316 0.946297 0.954017 0.960642 0.959661 0.960670 0.954488 0.955796 0.955165 0.954437 0.956011 0.956082 0.954463 0.952554 0.951070 0.950566 0.950273 0.953797 0.954342 0.954511 0.955061 0.954993 0.955712 0.956318 0.954413 0.956597 0.948723 0.947521 0.952919 0.951034 0.952577 0.952541 0.953237 0.954012 0.954298 0.954543 0.951526 0.951174 0.950428 0.941519 0.934860 0.934038 0.936370 0.939554 0.936922 0.933417 0.934800 0.937238 0.936524 0.935839 0.925945 0.921783 0.897623 0.885547 0.874295 0.874698 0.878003 0.880426 0.878048 0.870519 0.861004 0.857088 0.857140 0.853093 0.845657 0.861786 0.856203 0.854572 0.858519 0.861587 0.867059 0.864247 0.859856 0.855191 0.850688 0.843315 0.845193 0.849466 0.853535 0.837211 0.828154 0.845207 0.835316 0.826118 0.833694 0.835687 0.832550 0.831385 0.832113 0.830395 0.823791 0.817737 0.821084 0.830153 0.829365 0.817844 0.814730 0.810630 0.810400 0.802764 0.806619 0.806996 0.803216 0.796441 0.812838 0.778439 0.801866 0.801080 0.786600 0.770143 0.757861 0.766608 0.777759 0.780038 0.773932 0.771076 0.770415 0.763222 0.736282 0.736746 0.744116 0.742408 0.729730 0.710999 0.718420 0.722578 0.718161 0.713448 0.716323 0.718060 0.691305 0.704628 0.708655 0.694832 0.709497 0.711802 0.702446 0.704149 0.706873 0.709296 0.702624 0.661611 0.664579 0.657295 0.651977 0.601594 0.601505 0.599125 0.544615 0.548576 0.513990 0.496340 0.496041 0.488191 0.540325 0.490052 0.479287 0.511197 0.438585 0.365018 0.380283 0.379546 0.392692 0.401410 0.382532 0.382724 0.369178 0.347168 0.356057 0.378136 0.393395 0.360619 0.362818 0.353982 0.327989 0.298675 0.314474 0.318076 0.341284 0.342860 0.320521 0.347739 0.388080 0.330285 0.306780 0.287419 0.300716 0.314349 0.319982 0.308052 0.288348 0.273458 0.249315 0.274173 0.271234 0.278039 0.296152 0.327681 0.321031 0.323279 0.347372 0.297946 0.315877 0.318776 0.308319 0.315376 0.319585 0.319362 0.309417 0.329060 0.305444 0.315093 0.299542 0.292673 0.350219 0.330193 0.302688 0.295578 0.302370 0.308550 0.280403 0.228407 0.212366 0.215441 0.151513 0.124035 0.125168 0.123704 0.080353 0.057250 0.040305 0.001474 0.001336 0.005722 0.040723 0.009366 0.032587 0.039883 0.039883 0.039883 0.039883 0.039883 0.039883 0.039883 0.039883 0.039883 0.039883 0.039883 0.039883 0.039883 0.039883 0.062823 0.062823 0.062823 0.062823 0.062823 0.062823 0.062823 0.062823 0.062823 0.062823 0.062823 0.062823
0.000000 0.000000 0.000000 0.000000 0.000000 0.000000 0.000000 0.000000 0.000000 0.000000 0.000000 0.000000 0.000000 0.000000 0.000000 0.000000 0.000000 0.000000 0.000000 0.000000 0.000000 0.000000 0.000000 0.000000 0.000000 0.000000 0.000000 0.000000 0.000000 0.000000 0.000000 0.000000 0.000000 0.000000 0.000000 0.000000 0.000000 0.000000 0.000000 0.000000 0.000000 0.000000 0.000000 0.000000 0.000000 0.000000 0.000000 0.000000 0.000000 0.000000 0.000000 0.000000 0.209657 0.209657 0.209657 0.209657 0.209657 0.209657 0.209657 0.209657 0.209657 0.209657 0.209657 0.209657 0.209657 0.209657 0.209657 0.209657 0.209657 0.209657 0.209657 0.209657 0.209657 0.209657 0.209657 0.209657 0.209657 0.209657 0.209657 0.209657 0.209657 0.209657 0.209657 0.209657 0.209657 0.244339 0.244339 0.244339 0.244339 0.244339 0.244339 0.244339 0.244339 0.244339 0.244339 0.244339 0.244339 0.244339 0.244339 0.244339 0.244339 0.244339 0.244339 0.244339 0.244339 0.244339 0.244339 0.244339 0.244339 0.244339 0.260378 0.260378 0.260378 0.260378 0.260378 0.260378 0.260378 0.260378 0.260378 0.260378 0.260378 0.260378 0.260378 0.260378 0.260378 0.260378 0.260378 0.260378 0.260378 0.260378 0.269680 0.269680 0.269680 0.269680 0.269680 0.269680 0.269680 0.269680 0.269680 0.269680 0.269680 0.269680 0.269680 0.269680 0.269680 0.269680 0.269680 0.269680 0.269680 0.269680 0.269680 0.269680 0.269680 0.269680 0.269680 0.269680 0.269680 0.269680 0.269680 0.269680 0.269680 0.269680 0.269680 0.280056 0.280056 0.280056 0.280056 0.280056 0.280056 0.280056 0.280056 0.280056 0.280056 0.280056 0.280056 0.280056 0.280056 0.280056 0.280056 0.280056 0.280056 0.280056 0.280056 0.280056 0.280056 0.280056 0.280056 0.280056 0.280056 0.280056 0.274721 0.274721 0.274721 0.274721 0.274721 0.274721 0.274721 0.274721 0.274721 0.274721 0.274721 0.274721 0.274721 0.285714 0.285714 0.285714 0.285714 0.285714 0.285714 0.285714 0.285714 0.285714 0.285714 0.285714 0.280056 0.280056 0.280056 0.280056 0.280056 0.280056 0.280056 0.280056 0.280056 0.280056 0.280056 0.274721 0.274721 0.274721 0.274721 0.274721 0.274721 0.274721 0.274721 0.274721 0.274721 0.274721 0.280056 0.280056 0.280056 0.280056 0.280056 0.280056 0.280056 0.280056 0.280056 0.280056 0.285714 0.285714 0.285714 0.285714 0.285714 0.285714 0.285714 0.285714 0.285714 0.269680 0.269680 0.269680 0.269680 0.269680 0.269680 0.269680 0.269680 0.269680 0.269680 0.274721 0.274721 0.274721 0.274721 0.274721 0.274721 0.274721 0.274721 0.274721 0.285714 0.285714 0.285714 0.285714 0.285714 0.285714 0.285714 0.285714 0.264906 0.264906 0.264906 0.264906 0.264906 0.264906 0.264906 0.264906 0.264906 0.274721 0.274721 0.274721 0.274721 0.274721 0.274721 0.274721 0.274721 0.269680 0.269680 0.269680 0.269680 0.269680 0.269680 0.269680 0.269680 0.269680 0.269680 0.269680 0.269680 0.269680 0.269680 0.269680 0.269680 0.280056 0.280056 0.280056 0.280056 0.280056 0.280056 0.280056 0.260378 0.260378 0.260378 0.260378 0.260378 0.260378 0.260378 0.260378 0.269680 0.269680 0.269680 0.269680 0.269680 0.269680 0.269680 0.264906 0.264906 0.264906 0.264906 0.264906 0.264906 0.264906 0.264906 0.264906 0.264906 0.264906 0.264906 0.264906 0.264906 0.260378 0.260378 0.260378 0.260378 0.260378 0.260378 0.260378 0.260378 0.260378 0.260378 0.260378 0.260378
