# Output from CTFFind version 4.1.9, run on 2019-11-02 17:48:08
# Input file: stack1_bm3d_averaged_1_1.25_0_2000_half.mrc ; Number of micrographs: 1
# Pixel size: 3.000 Angstroms ; acceleration voltage: 300.0 keV ; spherical aberration: 0.00 mm ; amplitude contrast: 0.07
# Box size: 512 pixels ; min. res.: 30.0 Angstroms ; max. res.: 5.0 Angstroms ; min. def.: 5000.0 um; max. def. 50000.0 um; num. frames averaged: 1
# 6 lines per micrograph: #1 - spatial frequency (1/Angstroms); #2 - 1D rotational average of spectrum (assuming no astigmatism); #3 - 1D rotational average of spectrum; #4 - CTF fit; #5 - cross-correlation between spectrum and CTF fit; #6 - 2sigma of expected cross correlation of noise
0.000000 0.000651 0.001302 0.001953 0.002604 0.003255 0.003906 0.004557 0.005208 0.005859 0.006510 0.007161 0.007812 0.008464 0.009115 0.009766 0.010417 0.011068 0.011719 0.012370 0.013021 0.013672 0.014323 0.014974 0.015625 0.016276 0.016927 0.017578 0.018229 0.018880 0.019531 0.020182 0.020833 0.021484 0.022135 0.022786 0.023438 0.024089 0.024740 0.025391 0.026042 0.026693 0.027344 0.027995 0.028646 0.029297 0.029948 0.030599 0.031250 0.031901 0.032552 0.033203 0.033854 0.034505 0.035156 0.035807 0.036458 0.037109 0.037760 0.038411 0.039062 0.039714 0.040365 0.041016 0.041667 0.042318 0.042969 0.043620 0.044271 0.044922 0.045573 0.046224 0.046875 0.047526 0.048177 0.048828 0.049479 0.050130 0.050781 0.051432 0.052083 0.052734 0.053385 0.054036 0.054688 0.055339 0.055990 0.056641 0.057292 0.057943 0.058594 0.059245 0.059896 0.060547 0.061198 0.061849 0.062500 0.063151 0.063802 0.064453 0.065104 0.065755 0.066406 0.067057 0.067708 0.068359 0.069010 0.069661 0.070312 0.070964 0.071615 0.072266 0.072917 0.073568 0.074219 0.074870 0.075521 0.076172 0.076823 0.077474 0.078125 0.078776 0.079427 0.080078 0.080729 0.081380 0.082031 0.082682 0.083333 0.083984 0.084635 0.085286 0.085938 0.086589 0.087240 0.087891 0.088542 0.089193 0.089844 0.090495 0.091146 0.091797 0.092448 0.093099 0.093750 0.094401 0.095052 0.095703 0.096354 0.097005 0.097656 0.098307 0.098958 0.099609 0.100260 0.100911 0.101562 0.102214 0.102865 0.103516 0.104167 0.104818 0.105469 0.106120 0.106771 0.107422 0.108073 0.108724 0.109375 0.110026 0.110677 0.111328 0.111979 0.112630 0.113281 0.113932 0.114583 0.115234 0.115885 0.116536 0.117188 0.117839 0.118490 0.119141 0.119792 0.120443 0.121094 0.121745 0.122396 0.123047 0.123698 0.124349 0.125000 0.125651 0.126302 0.126953 0.127604 0.128255 0.128906 0.129557 0.130208 0.130859 0.131510 0.132161 0.132812 0.133464 0.134115 0.134766 0.135417 0.136068 0.136719 0.137370 0.138021 0.138672 0.139323 0.139974 0.140625 0.141276 0.141927 0.142578 0.143229 0.143880 0.144531 0.145182 0.145833 0.146484 0.147135 0.147786 0.148438 0.149089 0.149740 0.150391 0.151042 0.151693 0.152344 0.152995 0.153646 0.154297 0.154948 0.155599 0.156250 0.156901 0.157552 0.158203 0.158854 0.159505 0.160156 0.160807 0.161458 0.162109 0.162760 0.163411 0.164062 0.164714 0.165365 0.166016 0.166667 0.167318 0.167969 0.168620 0.169271 0.169922 0.170573 0.171224 0.171875 0.172526 0.173177 0.173828 0.174479 0.175130 0.175781 0.176432 0.177083 0.177734 0.178385 0.179036 0.179688 0.180339 0.180990 0.181641 0.182292 0.182943 0.183594 0.184245 0.184896 0.185547 0.186198 0.186849 0.187500 0.188151 0.188802 0.189453 0.190104 0.190755 0.191406 0.192057 0.192708 0.193359 0.194010 0.194661 0.195312 0.195964 0.196615 0.197266 0.197917 0.198568 0.199219 0.199870 0.200521 0.201172 0.201823 0.202474 0.203125 0.203776 0.204427 0.205078 0.205729 0.206380 0.207031 0.207682 0.208333 0.208984 0.209635 0.210286 0.210938 0.211589 0.212240 0.212891 0.213542 0.214193 0.214844 0.215495 0.216146 0.216797 0.217448 0.218099 0.218750 0.219401 0.220052 0.220703 0.221354 0.222005 0.222656 0.223307 0.223958 0.224609 0.225260 0.225911 0.226562 0.227214 0.227865 0.228516 0.229167 0.229818 0.230469 0.231120 0.231771 0.232422 0.233073 0.233724 0.234375 0.235026 0.235677
       0.33342        0.33342        0.33342        0.33342        0.33342        0.33342        0.33342        0.33342        0.33342        0.33342        0.33342        0.33342        0.33342        0.33342        0.33342        0.33342        0.33342        0.33342        0.33342        0.33342        0.33342        0.33342        0.33342        0.33342        0.33342        0.33342        0.33342        0.33342        0.33342        0.33342        0.33342        0.33342        0.33342        0.33342        0.33342        0.33342        0.33342        0.33342        0.33342        0.33342        0.33342        0.33342        0.33342        0.33342        0.33342        0.33342        0.33342        0.33342        0.33342        0.33342        0.33342        0.50188        0.71767        0.42812        0.19113       -0.07938       -0.26140       -0.06841       -0.13141       -0.05557       -0.00118       -0.14620       -0.09420       -0.04720        0.00015       -0.15095       -0.21955       -0.34304       -0.46308       -0.56186       -0.51936       -0.45071       -0.37119       -0.54860       -0.44833       -0.62065       -0.50213       -0.47337       -0.39105       -0.38141       -0.33860       -0.24669       -0.16083       -0.13817        0.03250       -0.01233        0.11904        0.16988        0.30541        0.41053        0.46433        0.49499        0.54022        0.54951        0.69419        0.64658        0.67888        0.58933        0.55585        0.65423        0.52764        0.42890        0.38760        0.31976        0.23005        0.26534        0.25265        0.10530        0.08511        0.00085       -0.00669        0.03484       -0.00514        0.07465        0.09423        0.23139        0.28328        0.30505        0.38541        0.56036        0.53876        0.57860        0.67086        0.69677        0.63010        0.63484        0.63431        0.54893        0.57311        0.39395        0.34822        0.26710        0.18607        0.07336        0.14578        0.11914        0.09487        0.10856        0.20837        0.20765        0.31634        0.35776        0.41350        0.49363        0.58087        0.54548        0.55726        0.60751        0.54181        0.46499        0.48098        0.32431        0.25138        0.25599        0.24367        0.14267        0.14602        0.15282        0.22338        0.25016        0.33129        0.36735        0.39271        0.46646        0.44735        0.47612        0.44872        0.47163        0.44539        0.40419        0.37899        0.35659        0.31391        0.28708        0.20648        0.20361        0.22486        0.27066        0.26555        0.34695        0.37590        0.35749        0.41107        0.45697        0.44934        0.42466        0.43956        0.36524        0.33647        0.28253        0.26240        0.28859        0.26629        0.29544        0.30176        0.34846        0.33812        0.40204        0.40207        0.42448        0.41168        0.43285        0.40535        0.36773        0.28533        0.29208        0.30639        0.27950        0.25774        0.33289        0.37297        0.33857        0.35493        0.36208        0.35258        0.40560        0.40047        0.36050        0.34136        0.31082        0.31218        0.31777        0.31272        0.29960        0.28790        0.33860        0.35834        0.37532        0.33538        0.32935        0.33586        0.34585        0.30775        0.28105        0.30761        0.31965        0.33394        0.32277        0.33440        0.35536        0.33273        0.31720        0.33071        0.30210        0.26105        0.25101        0.26490        0.30521        0.32352        0.35291        0.30059        0.31415        0.33575        0.29411        0.32057        0.29372        0.28280        0.29155        0.29840        0.31040        0.34509        0.32170        0.32776        0.33154        0.32098        0.33532        0.31818        0.32113        0.31450        0.27959        0.29244        0.31171        0.29066        0.32680        0.33326        0.33493        0.31799        0.34463        0.32217        0.27691        0.25098        0.27345        0.33050        0.36179        0.35067        0.31772        0.29435        0.29830        0.31545        0.25128        0.29495        0.30039        0.32297        0.29572        0.31115        0.27896        0.33550        0.34426        0.34268        0.32669        0.29589        0.31353        0.39533        0.33324        0.31375        0.30635        0.29933        0.28441        0.29668        0.27398        0.30981        0.23432        0.27443        0.29770        0.31244        0.29811        0.27956        0.29507        0.24009        0.23082        0.26696        0.31155        0.30632        0.29717        0.28481        0.33598        0.25387        0.22078        0.30639        0.26587        0.26294        0.27690        0.38645        0.28762        0.28607        0.25730        0.24628        0.26395        0.24476        0.23173        0.16495        0.23920        0.23317        0.25054        0.31573        0.28190        0.34243        0.29287        0.26635        0.25093        0.22332        0.24323        0.28158        0.21873        0.12991        0.16766        0.24527        0.23349        0.32989        0.29315        0.04865       -0.41495       -0.92682
2.723879 2.694992 2.666261 2.637686 2.609267 2.581005 2.552898 2.524947 2.497152 2.469513 2.442030 2.414703 2.387532 2.360517 2.333658 2.306955 2.280407 2.254016 2.227781 2.201702 2.175779 2.150012 2.124400 2.098945 2.073646 2.048503 2.023516 1.998684 1.974009 1.949490 1.925126 1.900919 1.876868 1.852972 1.829233 1.805649 1.782222 1.758950 1.735835 1.712875 1.690072 1.667424 1.644933 1.622597 1.600418 1.578394 1.556526 1.534815 1.513259 1.491859 1.470616 1.540037 1.842064 1.533895 1.200367 0.949456 0.549747 0.920395 0.642326 0.878364 0.934141 0.598272 0.712424 0.791296 0.830763 0.632985 0.544352 0.353938 0.104839 0.076976 0.043914 0.076850 0.304136 -0.034826 0.082653 -0.134673 -0.014037 -0.015971 0.079468 0.067892 0.101148 0.180570 0.285289 0.250843 0.484002 0.399502 0.550634 0.531306 0.773351 0.793232 0.883541 0.925870 0.941445 0.951220 1.126099 0.943451 1.149308 0.951097 0.853848 1.022024 0.851438 0.763434 0.624174 0.596793 0.457132 0.422329 0.510612 0.265060 0.201494 0.158227 0.010032 0.204681 -0.007334 0.121037 0.175101 0.255867 0.334840 0.349582 0.433178 0.540094 0.669406 0.538916 0.744031 0.860362 0.641174 0.700363 0.670825 0.589978 0.540162 0.460549 0.302053 0.215966 0.118728 -0.043025 -0.017030 0.055161 -0.093912 -0.058632 0.049465 0.049261 0.111131 0.218300 0.240208 0.312360 0.444441 0.452137 0.437895 0.474772 0.457105 0.335913 0.335668 0.244820 0.053348 0.061635 0.016883 -0.043598 -0.097735 -0.095482 -0.013840 -0.045320 0.077439 0.125820 0.124079 0.263915 0.231923 0.240641 0.281258 0.241411 0.237497 0.211617 0.160945 0.111823 0.104798 0.022786 0.007291 -0.115882 -0.049265 0.005392 -0.002139 0.021103 0.096243 0.081884 0.125258 0.209533 0.269562 0.180026 0.189851 0.112500 0.144164 0.026606 -0.033610 0.026979 -0.021078 0.012712 -0.001233 0.042371 0.086778 0.058109 0.167998 0.103307 0.185655 0.080656 0.165267 0.105125 0.009150 -0.045487 -0.004546 -0.018305 -0.052139 -0.055102 0.078119 0.075049 -0.000893 0.097127 0.079382 0.077181 0.156944 0.083609 0.079866 0.068856 -0.007141 0.041705 0.013144 0.024453 0.015449 0.011407 0.058319 0.078859 0.082102 0.045361 0.057894 0.036039 0.073606 0.001536 -0.005132 0.035591 0.029510 0.068291 0.049352 0.068325 0.070281 0.057458 0.025653 0.039593 0.003803 -0.045548 -0.027380 -0.018732 0.027969 0.044618 0.104177 0.003858 0.061987 0.055785 -0.007079 0.069067 0.017788 0.003652 0.033746 0.048947 0.036197 0.089306 0.042389 0.066577 0.073715 0.082122 0.067487 0.071497 0.089412 0.042457 -0.009905 0.053845 0.044045 0.044144 0.077885 0.083906 0.023921 0.061619 0.086807 0.013514 0.003497 -0.062553 -0.013600 0.113464 0.086626 0.069800 0.027459 -0.001703 0.057967 0.027867 -0.060771 0.050106 0.031138 0.059697 0.041419 0.004352 0.044018 0.013511 0.057084 0.030778 0.043168 -0.045700 0.068715 0.114655 0.010966 -0.006127 0.007945 -0.006372 -0.039157 -0.022516 -0.042727 -0.016454 -0.100466 -0.026563 -0.033078 0.011921 -0.027179 -0.064662 0.020266 -0.063785 -0.045657 -0.079741 0.057414 0.012118 0.023883 -0.013489 0.085430 -0.053264 -0.073647 0.045026 -0.031466 0.004489 -0.012084 0.184421 -0.043734 0.019407 0.004854 -0.030281 -0.004450 -0.031635 -0.021526 -0.167941 0.005110 -0.030944 -0.014476 0.052747 0.024843 0.133832 0.036121 0.031430 0.008282 0.020142 -0.026044 0.324948 0.265705 0.162652 0.215284 0.252706 0.316069 0.358842 0.344334 0.059555 -1.093709
0.072396 0.072910 0.074453 0.077024 0.080623 0.085248 0.090898 0.097572 0.105267 0.113981 0.123709 0.134448 0.146191 0.158932 0.172662 0.187372 0.203050 0.219683 0.237254 0.255745 0.275134 0.295398 0.316508 0.338433 0.361138 0.384583 0.408724 0.433512 0.458893 0.484807 0.511188 0.537967 0.565064 0.592396 0.619872 0.647395 0.674859 0.702154 0.729160 0.755752 0.781795 0.807150 0.831671 0.855203 0.877587 0.898658 0.918246 0.936175 0.952266 0.966338 0.978208 0.987690 0.994602 0.998760 0.999986 0.998105 0.992949 0.984360 0.972189 0.956298 0.936567 0.912889 0.885179 0.853372 0.817426 0.777328 0.733089 0.684756 0.632404 0.576145 0.516130 0.452544 0.385615 0.315612 0.242845 0.167666 0.090471 0.011696 0.068180 0.148641 0.229133 0.309065 0.387820 0.464749 0.539185 0.610442 0.677824 0.740632 0.798171 0.849759 0.894733 0.932463 0.962355 0.983869 0.996522 0.999901 0.993675 0.977600 0.951533 0.915438 0.869395 0.813605 0.748398 0.674237 0.591716 0.501567 0.404656 0.301975 0.194643 0.083893 0.028937 0.142419 0.255051 0.365274 0.471495 0.572109 0.665524 0.750189 0.824621 0.887434 0.937367 0.973317 0.994364 0.999798 0.989142 0.962181 0.918971 0.859861 0.785498 0.696833 0.595118 0.481899 0.359002 0.228508 0.092726 0.045841 0.184541 0.320621 0.451276 0.573717 0.685223 0.783212 0.865301 0.929376 0.973648 0.996717 0.997620 0.975875 0.931519 0.865131 0.777842 0.671334 0.547821 0.410020 0.261103 0.104629 0.055525 0.215262 0.370361 0.516593 0.649835 0.766195 0.862131 0.934573 0.981026 0.999676 0.989472 0.950190 0.882473 0.787851 0.668729 0.528348 0.370713 0.200500 0.022927 0.156397 0.331642 0.496946 0.646617 0.775329 0.878333 0.951638 0.992187 0.998007 0.968318 0.903609 0.805670 0.677574 0.523610 0.349158 0.160534 0.035233 0.230649 0.418032 0.589828 0.738904 0.858876 0.944389 0.991383 0.997311 0.961302 0.884260 0.768881 0.619606 0.442479 0.244933 0.035500 0.176537 0.381549 0.570001 0.732901 0.862239 0.951417 0.995601 0.992027 0.940197 0.841986 0.701618 0.525537 0.322147 0.101440 0.125466 0.346879 0.551129 0.727192 0.865307 0.957536 0.998268 0.984593 0.916549 0.797216 0.632630 0.431528 0.204936 0.034415 0.272773 0.496149 0.691144 0.845775 0.950236 0.997565 0.984156 0.910082 0.779193 0.598995 0.380262 0.136456 0.117076 0.364042 0.588252 0.774685 0.910533 0.986114 0.995625 0.937639 0.815329 0.636372 0.412544 0.158995 0.106725 0.365867 0.599786 0.791300 0.925994 0.993352 0.987636 0.908448 0.760903 0.555378 0.306865 0.033944 0.242585 0.501251 0.721581 0.885773 0.980160 0.996423 0.932409 0.792455 0.587198 0.332857 0.050015 0.237983 0.506951 0.733891 0.898987 0.987403 0.990686 0.907669 0.744743 0.515488 0.239613 0.058635 0.352591 0.615515 0.823057 0.955555 0.999979 0.951303 0.813169 0.597745 0.324766 0.019812 0.288029 0.568912 0.795136 0.943919 0.999792 0.956289 0.816814 0.594516 0.311174 0.004838 0.321331 0.605553 0.827601 0.963615 0.998441 0.927439 0.757201 0.505105 0.197647 0.132236 0.448633 0.716573 0.905920 0.994849 0.972469 0.840300 0.612357 0.313816 0.021651 0.355589 0.649153 0.867634 0.984660 0.985478 0.868969 0.648060 0.348454 0.005778 0.338569 0.642382 0.867841 0.986305 0.982078 0.854638 0.619016 0.304200 0.050309 0.399329 0.697765 0.906446 0.997377 0.957633 0.791373 0.519620 0.177780 0.188835 0.530942 0.801910 0.964168 0.994563
1.000000 1.000000 1.000000 1.000000 1.000000 1.000000 1.000000 1.000000 1.000000 1.000000 1.000000 1.000000 1.000000 1.000000 1.000000 1.000000 1.000000 1.000000 1.000000 1.000000 1.000000 1.000000 1.000000 1.000000 1.000000 1.000000 1.000000 1.000000 1.000000 1.000000 1.000000 1.000000 1.000000 1.000000 1.000000 1.000000 1.000000 1.000000 1.000000 1.000000 1.000000 1.000000 1.000000 1.000000 1.000000 1.000000 1.000000 1.000000 1.000000 1.000000 1.000000 1.000000 0.920033 0.920033 0.906558 0.906558 0.906558 0.906558 0.906558 0.906558 0.906558 0.906558 0.906558 0.906558 0.906558 0.906558 0.906558 0.906558 0.906558 0.906558 0.906558 0.906558 0.906558 0.906558 0.906558 0.906558 0.906558 0.906558 0.906558 0.906558 0.906558 0.906558 0.906558 0.906558 0.906558 0.906558 0.906558 0.906558 0.906558 0.906558 0.906558 0.906558 0.906558 0.906558 0.906558 0.902526 0.907509 0.909474 0.908043 0.911514 0.911558 0.910861 0.911240 0.910930 0.911286 0.912667 0.923103 0.934040 0.945197 0.945691 0.950862 0.955202 0.957733 0.958566 0.960250 0.970546 0.967980 0.967562 0.968207 0.969524 0.971547 0.970395 0.969783 0.973005 0.973594 0.972120 0.969725 0.969129 0.968550 0.968670 0.968332 0.968211 0.968060 0.968576 0.968759 0.968859 0.969004 0.969067 0.970071 0.971214 0.973689 0.974683 0.974586 0.973599 0.968644 0.972205 0.973335 0.972773 0.972770 0.972389 0.972646 0.956962 0.953884 0.953780 0.950158 0.949059 0.946161 0.944538 0.943435 0.944102 0.942901 0.942741 0.939795 0.926406 0.912836 0.900892 0.921382 0.906215 0.894108 0.868885 0.869444 0.862115 0.862536 0.854500 0.848144 0.843673 0.841071 0.843039 0.842022 0.846308 0.843151 0.827232 0.830899 0.827020 0.793399 0.779181 0.764418 0.762317 0.759234 0.760370 0.759164 0.752847 0.761730 0.754059 0.751924 0.741928 0.719814 0.686827 0.674469 0.685897 0.696275 0.696475 0.692398 0.676510 0.639040 0.652472 0.680567 0.673745 0.674646 0.667941 0.661530 0.670166 0.670251 0.667705 0.661527 0.660738 0.660550 0.670538 0.674398 0.666899 0.659070 0.645337 0.635493 0.624630 0.638762 0.646034 0.615588 0.609300 0.604639 0.599406 0.588616 0.561219 0.560713 0.540378 0.526813 0.526390 0.528406 0.530949 0.541622 0.541546 0.519420 0.544825 0.545609 0.577704 0.553080 0.550824 0.552133 0.562160 0.542913 0.525592 0.517194 0.518650 0.534849 0.569298 0.609869 0.603872 0.592968 0.584658 0.594463 0.578098 0.586405 0.608140 0.585789 0.513146 0.472192 0.469548 0.436891 0.426502 0.416416 0.393365 0.375249 0.373924 0.368488 0.354004 0.344048 0.286234 0.252166 0.234020 0.216383 0.223586 0.237414 0.229389 0.227695 0.262288 0.309650 0.308580 0.298381 0.291285 0.293959 0.296282 0.256849 0.257100 0.221271 0.209691 0.239757 0.185481 0.190365 0.132611 0.124802 0.138791 0.167074 0.179492 0.133139 0.121064 0.144658 0.162339 0.155694 0.146659 0.102204 0.072568 0.060298 0.073079 0.059049 0.024095 0.035629 0.041837 0.026174 0.012502 0.023830 0.019274 0.025888 0.014104 0.013510 0.056385 0.082722 0.072088 0.074988 0.091849 0.087309 0.065960 0.057837 0.045948 0.040041 -0.012282 -0.038076 -0.038076 -0.034435 -0.034435 -0.034435 -0.034435 -0.034435 -0.034435 -0.034435 -0.034435 -0.034435 -0.035202 -0.035202 -0.035202 -0.035202 -0.035202 -0.035202 -0.035202 -0.035202 -0.035202 -0.012865 -0.012865 -0.012865 -0.012865 -0.012865 -0.012865 -0.012865 -0.012865 -0.012865
0.000000 0.000000 0.000000 0.000000 0.000000 0.000000 0.000000 0.000000 0.000000 0.000000 0.000000 0.000000 0.000000 0.000000 0.000000 0.000000 0.000000 0.000000 0.000000 0.000000 0.000000 0.000000 0.000000 0.000000 0.000000 0.000000 0.000000 0.000000 0.000000 0.000000 0.000000 0.000000 0.000000 0.000000 0.000000 0.000000 0.000000 0.000000 0.000000 0.000000 0.000000 0.000000 0.000000 0.000000 0.000000 0.000000 0.000000 0.000000 0.000000 0.000000 0.000000 0.000000 0.181818 0.181818 0.199007 0.199007 0.199007 0.199007 0.199007 0.199007 0.199007 0.199007 0.199007 0.199007 0.199007 0.199007 0.199007 0.199007 0.199007 0.199007 0.199007 0.199007 0.199007 0.199007 0.199007 0.199007 0.199007 0.199007 0.199007 0.199007 0.199007 0.199007 0.199007 0.199007 0.199007 0.199007 0.199007 0.199007 0.199007 0.199007 0.199007 0.199007 0.199007 0.199007 0.199007 0.230940 0.230940 0.230940 0.230940 0.230940 0.230940 0.230940 0.230940 0.230940 0.230940 0.230940 0.230940 0.230940 0.230940 0.230940 0.230940 0.230940 0.230940 0.230940 0.230940 0.230940 0.230940 0.230940 0.230940 0.230940 0.230940 0.230940 0.230940 0.244339 0.244339 0.244339 0.244339 0.244339 0.244339 0.244339 0.244339 0.244339 0.244339 0.244339 0.244339 0.244339 0.244339 0.244339 0.244339 0.244339 0.244339 0.244339 0.244339 0.244339 0.244339 0.244339 0.251976 0.251976 0.251976 0.251976 0.251976 0.251976 0.251976 0.251976 0.251976 0.251976 0.251976 0.251976 0.251976 0.251976 0.251976 0.251976 0.251976 0.251976 0.251976 0.251976 0.264906 0.264906 0.264906 0.264906 0.264906 0.264906 0.264906 0.264906 0.264906 0.264906 0.264906 0.264906 0.264906 0.264906 0.264906 0.264906 0.264906 0.264906 0.264906 0.264906 0.264906 0.264906 0.264906 0.264906 0.264906 0.264906 0.264906 0.264906 0.264906 0.264906 0.264906 0.264906 0.264906 0.264906 0.264906 0.264906 0.264906 0.264906 0.264906 0.264906 0.264906 0.264906 0.264906 0.264906 0.264906 0.264906 0.264906 0.264906 0.264906 0.264906 0.264906 0.264906 0.264906 0.264906 0.264906 0.264906 0.264906 0.264906 0.264906 0.264906 0.264906 0.264906 0.264906 0.264906 0.264906 0.264906 0.264906 0.264906 0.264906 0.264906 0.264906 0.264906 0.264906 0.264906 0.264906 0.269680 0.269680 0.269680 0.269680 0.269680 0.269680 0.269680 0.269680 0.269680 0.269680 0.269680 0.269680 0.264906 0.264906 0.264906 0.264906 0.264906 0.264906 0.264906 0.264906 0.264906 0.264906 0.264906 0.264906 0.269680 0.269680 0.269680 0.269680 0.269680 0.269680 0.269680 0.269680 0.269680 0.269680 0.269680 0.264906 0.264906 0.264906 0.264906 0.264906 0.264906 0.264906 0.264906 0.264906 0.264906 0.264906 0.269680 0.269680 0.269680 0.269680 0.269680 0.269680 0.269680 0.269680 0.269680 0.269680 0.251976 0.251976 0.251976 0.251976 0.251976 0.251976 0.251976 0.251976 0.251976 0.251976 0.251976 0.269680 0.269680 0.269680 0.269680 0.269680 0.269680 0.269680 0.269680 0.269680 0.256074 0.256074 0.256074 0.256074 0.256074 0.256074 0.256074 0.256074 0.256074 0.256074 0.260378 0.260378 0.260378 0.260378 0.260378 0.260378 0.260378 0.260378 0.260378 0.256074 0.256074 0.256074 0.256074 0.256074 0.256074 0.256074 0.256074 0.256074 0.251976 0.251976 0.251976 0.251976 0.251976 0.251976 0.251976 0.251976 0.251976 0.264906 0.264906 0.264906 0.264906 0.264906 0.264906 0.264906 0.264906 0.264906
