# Output from CTFFind version 4.1.9, run on 2019-11-02 17:58:59
# Input file: stack11_bm3d_averaged_1_1.75_0_1500_half.mrc ; Number of micrographs: 1
# Pixel size: 3.000 Angstroms ; acceleration voltage: 300.0 keV ; spherical aberration: 0.00 mm ; amplitude contrast: 0.07
# Box size: 512 pixels ; min. res.: 30.0 Angstroms ; max. res.: 5.0 Angstroms ; min. def.: 5000.0 um; max. def. 50000.0 um; num. frames averaged: 1
# 6 lines per micrograph: #1 - spatial frequency (1/Angstroms); #2 - 1D rotational average of spectrum (assuming no astigmatism); #3 - 1D rotational average of spectrum; #4 - CTF fit; #5 - cross-correlation between spectrum and CTF fit; #6 - 2sigma of expected cross correlation of noise
0.000000 0.000651 0.001302 0.001953 0.002604 0.003255 0.003906 0.004557 0.005208 0.005859 0.006510 0.007161 0.007812 0.008464 0.009115 0.009766 0.010417 0.011068 0.011719 0.012370 0.013021 0.013672 0.014323 0.014974 0.015625 0.016276 0.016927 0.017578 0.018229 0.018880 0.019531 0.020182 0.020833 0.021484 0.022135 0.022786 0.023438 0.024089 0.024740 0.025391 0.026042 0.026693 0.027344 0.027995 0.028646 0.029297 0.029948 0.030599 0.031250 0.031901 0.032552 0.033203 0.033854 0.034505 0.035156 0.035807 0.036458 0.037109 0.037760 0.038411 0.039062 0.039714 0.040365 0.041016 0.041667 0.042318 0.042969 0.043620 0.044271 0.044922 0.045573 0.046224 0.046875 0.047526 0.048177 0.048828 0.049479 0.050130 0.050781 0.051432 0.052083 0.052734 0.053385 0.054036 0.054688 0.055339 0.055990 0.056641 0.057292 0.057943 0.058594 0.059245 0.059896 0.060547 0.061198 0.061849 0.062500 0.063151 0.063802 0.064453 0.065104 0.065755 0.066406 0.067057 0.067708 0.068359 0.069010 0.069661 0.070312 0.070964 0.071615 0.072266 0.072917 0.073568 0.074219 0.074870 0.075521 0.076172 0.076823 0.077474 0.078125 0.078776 0.079427 0.080078 0.080729 0.081380 0.082031 0.082682 0.083333 0.083984 0.084635 0.085286 0.085938 0.086589 0.087240 0.087891 0.088542 0.089193 0.089844 0.090495 0.091146 0.091797 0.092448 0.093099 0.093750 0.094401 0.095052 0.095703 0.096354 0.097005 0.097656 0.098307 0.098958 0.099609 0.100260 0.100911 0.101562 0.102214 0.102865 0.103516 0.104167 0.104818 0.105469 0.106120 0.106771 0.107422 0.108073 0.108724 0.109375 0.110026 0.110677 0.111328 0.111979 0.112630 0.113281 0.113932 0.114583 0.115234 0.115885 0.116536 0.117188 0.117839 0.118490 0.119141 0.119792 0.120443 0.121094 0.121745 0.122396 0.123047 0.123698 0.124349 0.125000 0.125651 0.126302 0.126953 0.127604 0.128255 0.128906 0.129557 0.130208 0.130859 0.131510 0.132161 0.132812 0.133464 0.134115 0.134766 0.135417 0.136068 0.136719 0.137370 0.138021 0.138672 0.139323 0.139974 0.140625 0.141276 0.141927 0.142578 0.143229 0.143880 0.144531 0.145182 0.145833 0.146484 0.147135 0.147786 0.148438 0.149089 0.149740 0.150391 0.151042 0.151693 0.152344 0.152995 0.153646 0.154297 0.154948 0.155599 0.156250 0.156901 0.157552 0.158203 0.158854 0.159505 0.160156 0.160807 0.161458 0.162109 0.162760 0.163411 0.164062 0.164714 0.165365 0.166016 0.166667 0.167318 0.167969 0.168620 0.169271 0.169922 0.170573 0.171224 0.171875 0.172526 0.173177 0.173828 0.174479 0.175130 0.175781 0.176432 0.177083 0.177734 0.178385 0.179036 0.179688 0.180339 0.180990 0.181641 0.182292 0.182943 0.183594 0.184245 0.184896 0.185547 0.186198 0.186849 0.187500 0.188151 0.188802 0.189453 0.190104 0.190755 0.191406 0.192057 0.192708 0.193359 0.194010 0.194661 0.195312 0.195964 0.196615 0.197266 0.197917 0.198568 0.199219 0.199870 0.200521 0.201172 0.201823 0.202474 0.203125 0.203776 0.204427 0.205078 0.205729 0.206380 0.207031 0.207682 0.208333 0.208984 0.209635 0.210286 0.210938 0.211589 0.212240 0.212891 0.213542 0.214193 0.214844 0.215495 0.216146 0.216797 0.217448 0.218099 0.218750 0.219401 0.220052 0.220703 0.221354 0.222005 0.222656 0.223307 0.223958 0.224609 0.225260 0.225911 0.226562 0.227214 0.227865 0.228516 0.229167 0.229818 0.230469 0.231120 0.231771 0.232422 0.233073 0.233724 0.234375 0.235026 0.235677
       0.31672        0.31672        0.31672        0.31672        0.31672        0.31672        0.31672        0.31672        0.31672        0.31672        0.31672        0.31672        0.31672        0.31672        0.31672        0.31672        0.31672        0.31672        0.31672        0.31672        0.31672        0.31672        0.31672        0.31672        0.31672        0.31672        0.31672        0.31672        0.31672        0.31672        0.31672        0.31672        0.31672        0.31672        0.31672        0.31672        0.31672        0.31672        0.31672        0.31672        0.31672        0.31672        0.31672        0.31672        0.31672        0.31672        0.31672        0.31672        0.31672        0.31672        0.31672        0.68266        0.86722        0.52216        0.08769       -0.06380       -0.42598       -0.20482       -0.29718       -0.11888       -0.07682       -0.11926       -0.06877       -0.20790       -0.23537       -0.25700       -0.33136       -0.33912       -0.48964       -0.38212       -0.46463       -0.44907       -0.42054       -0.46712       -0.53850       -0.56106       -0.58677       -0.62067       -0.57779       -0.41416       -0.37786       -0.33097       -0.31454       -0.21095       -0.19864        0.02003        0.07556        0.10721        0.22546        0.37051        0.44245        0.51429        0.55825        0.55416        0.56982        0.69571        0.81141        0.73912        0.73307        0.66649        0.57753        0.48213        0.40526        0.49413        0.37643        0.20370        0.07680        0.04564        0.01295       -0.06137       -0.03822       -0.01948       -0.06889       -0.00841       -0.02039        0.21285        0.25138        0.28918        0.42735        0.45796        0.40258        0.53553        0.62474        0.69495        0.76219        0.68723        0.65542        0.69543        0.58317        0.49927        0.41830        0.28942        0.19176        0.15624        0.10975        0.03678        0.01128        0.00223        0.07451        0.13170        0.20567        0.27935        0.39652        0.41806        0.50508        0.60015        0.63235        0.61715        0.62825        0.55416        0.44618        0.44917        0.35246        0.22746        0.18303        0.14633        0.11111        0.12267        0.07283        0.10387        0.23008        0.26417        0.34438        0.35561        0.44845        0.51207        0.53728        0.54816        0.46961        0.42942        0.38928        0.36547        0.30518        0.25131        0.20400        0.18791        0.16512        0.19477        0.17846        0.27101        0.33348        0.36738        0.42481        0.45982        0.47630        0.43912        0.39199        0.41143        0.37173        0.28441        0.26852        0.22434        0.21439        0.19383        0.21631        0.22992        0.32726        0.37224        0.37090        0.46101        0.43444        0.43723        0.42844        0.39431        0.34368        0.32620        0.27868        0.24224        0.23685        0.27042        0.27317        0.30113        0.30347        0.33575        0.32734        0.40729        0.41835        0.37722        0.34672        0.36462        0.28015        0.28007        0.26112        0.27846        0.26213        0.28054        0.29005        0.30976        0.34682        0.35968        0.36124        0.33773        0.35300        0.28833        0.32317        0.26742        0.24276        0.28476        0.28560        0.31033        0.31174        0.32679        0.32637        0.31413        0.31790        0.28534        0.28732        0.26085        0.28206        0.26482        0.30670        0.28331        0.26630        0.30686        0.31062        0.31629        0.28351        0.29936        0.28396        0.25110        0.24533        0.21757        0.28000        0.27659        0.32156        0.31146        0.32106        0.31787        0.30965        0.27504        0.28685        0.32909        0.26706        0.25824        0.29239        0.28870        0.34079        0.33563        0.35328        0.33164        0.30709        0.28273        0.26832        0.25761        0.22419        0.27128        0.30680        0.29732        0.27974        0.29660        0.26835        0.32308        0.33067        0.25053        0.22036        0.27306        0.33187        0.27598        0.30889        0.32618        0.32405        0.29869        0.32039        0.34197        0.29994        0.28785        0.25474        0.28458        0.35293        0.35883        0.26513        0.26596        0.25442        0.28408        0.21885        0.28837        0.22694        0.25071        0.33186        0.32133        0.34987        0.29873        0.23786        0.23423        0.24165        0.23142        0.19027        0.22522        0.26858        0.30157        0.26478        0.30996        0.30185        0.27067        0.27438        0.20779        0.16869        0.19558        0.22928        0.19385        0.21041        0.22862        0.19772        0.25294        0.35130        0.30522        0.31937        0.22801        0.24153        0.22087        0.28720        0.29650        0.14716        0.23642        0.23178        0.10826        0.21662        0.11234        0.14453        0.22629        0.12689       -0.12902       -0.61825
2.587102 2.560114 2.533273 2.506579 2.480030 2.453628 2.427372 2.401262 2.375298 2.349481 2.323810 2.298285 2.272907 2.247675 2.222589 2.197649 2.172856 2.148209 2.123708 2.099353 2.075145 2.051083 2.027167 2.003397 1.979774 1.956297 1.932966 1.909782 1.886743 1.863851 1.841105 1.818506 1.796053 1.773746 1.751585 1.729571 1.707703 1.685981 1.664405 1.642976 1.621692 1.600556 1.579565 1.558721 1.538023 1.517471 1.497065 1.476806 1.456693 1.436726 1.416906 1.637687 2.044477 1.617826 1.129781 0.989874 0.418750 0.814256 0.559102 0.833353 0.772662 0.787953 0.750310 0.710814 0.562017 0.514764 0.483938 0.440707 0.206239 0.379200 0.201700 0.308267 0.236123 0.181948 0.135383 0.006899 0.039363 -0.010971 -0.056832 0.105266 0.208372 0.192169 0.154600 0.332483 0.198482 0.497189 0.581770 0.553800 0.595640 0.876564 0.811738 0.944559 0.888528 0.977007 0.944366 1.079524 1.140873 1.072813 1.130892 0.949571 0.941776 0.784877 0.650218 0.772753 0.709300 0.462541 0.309145 0.250925 0.217466 0.148345 0.090481 0.130831 0.074273 0.151250 0.053864 0.262890 0.380292 0.359847 0.479887 0.577450 0.463622 0.550023 0.699315 0.740740 0.781557 0.730920 0.733114 0.712499 0.627806 0.567129 0.429525 0.287121 0.211504 0.080379 0.134699 -0.043484 -0.032316 -0.074888 -0.038676 0.002495 0.150228 0.088708 0.296207 0.280486 0.362702 0.453744 0.525673 0.506866 0.521216 0.507547 0.335173 0.311732 0.283147 0.098372 0.050808 -0.009971 -0.028534 -0.040732 -0.085372 -0.101647 -0.003681 0.058313 0.136321 0.148560 0.228724 0.329095 0.314024 0.409894 0.398122 0.286251 0.231712 0.245505 0.202003 0.104626 0.080724 0.020175 0.002404 0.014106 -0.014169 0.061024 0.150699 0.143279 0.236157 0.253609 0.307946 0.250122 0.221608 0.180012 0.213399 0.140661 0.042953 0.039429 -0.009060 -0.011384 -0.032742 0.018544 0.018460 0.166339 0.132727 0.183185 0.237131 0.199885 0.189443 0.195458 0.141894 0.101258 0.061961 0.052391 -0.033056 0.008141 0.023268 0.056377 0.055138 0.077367 0.094798 0.121768 0.138899 0.189008 0.082327 0.098430 0.073911 0.001220 0.005356 0.009290 -0.004500 0.019425 0.006749 0.028666 0.065563 0.079047 0.127258 0.053854 0.106470 0.058571 0.017376 0.063150 -0.035228 -0.015310 0.028907 0.005869 0.059204 0.053500 0.049911 0.059492 0.057984 0.045906 0.024836 0.001003 0.016613 0.015066 -0.008496 0.072608 -0.012713 0.016329 0.060361 0.051889 0.038890 0.046764 0.039868 0.021111 -0.011915 -0.032208 -0.015565 0.025086 0.034837 0.078195 0.061360 0.067275 0.087168 0.070308 0.024844 0.071084 0.088744 0.016007 0.019794 0.062787 0.054565 0.105337 0.111357 0.108123 0.121140 0.070928 0.045759 0.039282 0.002842 0.003087 0.056160 0.087757 0.051029 0.036409 0.035209 0.022326 0.098149 0.063466 -0.043612 -0.046646 0.032956 0.095934 0.006745 0.026413 0.067109 0.087770 0.028163 0.060683 0.083132 0.038387 0.034990 -0.041693 0.030214 0.113638 0.077672 -0.042268 -0.022592 -0.044015 0.030274 -0.109215 0.038346 -0.096434 -0.028260 0.054856 0.041472 0.033049 -0.035116 -0.067301 -0.083675 -0.084139 -0.068273 -0.119290 -0.087103 -0.026978 0.042928 -0.041211 0.051207 -0.015352 -0.049842 0.048367 -0.107101 -0.103842 -0.085018 -0.009564 -0.062482 -0.028435 -0.014850 -0.005012 0.022724 0.201526 -0.013132 0.157105 0.021486 0.247885 0.237963 0.329405 0.275479 0.109592 0.239953 0.277325 0.030177 0.236239 0.114981 0.120916 0.314176 0.130341 -0.641408
0.072396 0.072899 0.074406 0.076917 0.080432 0.084950 0.090470 0.096990 0.104507 0.113020 0.122524 0.133015 0.144489 0.156938 0.170355 0.184731 0.200055 0.216314 0.233492 0.251573 0.270537 0.290361 0.311018 0.332480 0.354713 0.377680 0.401340 0.425648 0.450551 0.475995 0.501918 0.528253 0.554929 0.581865 0.608976 0.636172 0.663353 0.690416 0.717247 0.743728 0.769734 0.795133 0.819785 0.843547 0.866265 0.887785 0.907943 0.926573 0.943504 0.958562 0.971571 0.982354 0.990732 0.996527 0.999566 0.999676 0.996693 0.990455 0.980814 0.967628 0.950770 0.930128 0.905604 0.877122 0.844624 0.808078 0.767475 0.722836 0.674209 0.621678 0.565356 0.505395 0.441981 0.375342 0.305742 0.233487 0.158922 0.082435 0.004451 0.074565 0.154111 0.233648 0.312606 0.390386 0.466361 0.539887 0.610301 0.676932 0.739103 0.796145 0.847398 0.892221 0.930004 0.960171 0.982195 0.995606 0.999997 0.995039 0.980486 0.956186 0.922089 0.878252 0.824850 0.762180 0.690660 0.610841 0.523399 0.429141 0.328996 0.224014 0.115357 0.004290 0.107831 0.219576 0.329455 0.435938 0.537476 0.632526 0.719572 0.797156 0.863899 0.918535 0.959934 0.987129 0.999345 0.996022 0.976834 0.941713 0.890860 0.824760 0.744183 0.650193 0.544136 0.427630 0.302558 0.171027 0.035354 0.101979 0.238365 0.371120 0.497535 0.614934 0.720732 0.812495 0.888006 0.945318 0.982818 0.999276 0.993896 0.966350 0.916814 0.845982 0.755079 0.645851 0.520548 0.381890 0.233019 0.077437 0.081071 0.238521 0.390829 0.533918 0.663833 0.776848 0.869586 0.939130 0.983125 0.999868 0.988392 0.948518 0.880899 0.787034 0.669257 0.530696 0.375215 0.207313 0.032013 0.145281 0.318950 0.483328 0.632898 0.762479 0.867418 0.943769 0.988459 0.999429 0.975748 0.917689 0.826761 0.705707 0.558443 0.389959 0.206169 0.013723 0.180229 0.368290 0.543102 0.697635 0.825487 0.921158 0.980311 0.999995 0.978809 0.917024 0.816624 0.681280 0.516261 0.328239 0.125063 0.084562 0.291433 0.486251 0.660040 0.804573 0.912784 0.979132 0.999922 0.973536 0.900580 0.783932 0.628665 0.441879 0.232396 0.010381 0.213138 0.426807 0.619528 0.781039 0.902494 0.976962 0.999870 0.969316 0.886260 0.754553 0.580817 0.374153 0.145708 0.091905 0.325279 0.540966 0.726263 0.869981 0.963146 0.999607 0.976485 0.894441 0.757745 0.574106 0.354302 0.111580 0.139094 0.381958 0.601429 0.783122 0.914820 0.987333 0.995195 0.937130 0.816254 0.639976 0.419627 0.169764 0.092727 0.349763 0.583297 0.776602 0.915494 0.989422 0.992332 0.923220 0.786342 0.591040 0.351175 0.084193 0.190082 0.450917 0.678229 0.854148 0.964483 0.999912 0.956848 0.837865 0.651653 0.412461 0.139092 0.146551 0.421147 0.661895 0.848417 0.964525 0.999700 0.950123 0.819165 0.617274 0.361228 0.072824 0.222925 0.499935 0.733353 0.901823 0.989492 0.987600 0.895432 0.720585 0.478444 0.190932 0.115408 0.411820 0.670024 0.864947 0.977201 0.995116 0.916044 0.746823 0.503321 0.209040 0.107057 0.413343 0.678698 0.875691 0.983474 0.990098 0.893940 0.704101 0.439681 0.127972 0.198280 0.504273 0.756851 0.928157 0.998780 0.960067 0.815313 0.579642 0.278568 0.054664 0.382678 0.668136 0.878023 0.987536 0.983124 0.864312 0.644013 0.347292 0.008620 0.332024 0.633853 0.860173 0.982919 0.986253 0.868757 0.643892 0.338622 0.009677 0.357709 0.661602 0.882479 0.991493 0.973749 0.830493 0.579251 0.251877 0.109358
1.000000 1.000000 1.000000 1.000000 1.000000 1.000000 1.000000 1.000000 1.000000 1.000000 1.000000 1.000000 1.000000 1.000000 1.000000 1.000000 1.000000 1.000000 1.000000 1.000000 1.000000 1.000000 1.000000 1.000000 1.000000 1.000000 1.000000 1.000000 1.000000 1.000000 1.000000 1.000000 1.000000 1.000000 1.000000 1.000000 1.000000 1.000000 1.000000 1.000000 1.000000 1.000000 1.000000 1.000000 1.000000 1.000000 1.000000 1.000000 1.000000 1.000000 1.000000 1.000000 0.929065 0.929065 0.929065 0.918985 0.918985 0.918985 0.918985 0.918985 0.918985 0.918985 0.918985 0.918985 0.918985 0.918985 0.918985 0.918985 0.918985 0.918985 0.918985 0.918985 0.918985 0.918985 0.918985 0.918985 0.918985 0.918985 0.918985 0.918985 0.918985 0.918985 0.918985 0.918985 0.918985 0.918985 0.918985 0.918985 0.918985 0.918985 0.918985 0.918985 0.918985 0.918985 0.918985 0.918985 0.949301 0.950571 0.958484 0.958324 0.957820 0.955713 0.954789 0.953656 0.953201 0.953476 0.954089 0.954931 0.963663 0.964747 0.966336 0.967168 0.967884 0.968523 0.968338 0.969032 0.968218 0.967637 0.967109 0.963096 0.965873 0.965237 0.965342 0.966373 0.966249 0.968285 0.968467 0.967856 0.966960 0.966205 0.965479 0.965049 0.964765 0.965272 0.965567 0.966878 0.970064 0.969481 0.969191 0.969348 0.969448 0.969627 0.970061 0.971757 0.967990 0.968637 0.966969 0.964778 0.968994 0.966116 0.965901 0.967264 0.967645 0.968043 0.966113 0.962286 0.955574 0.954597 0.951337 0.941974 0.940339 0.941215 0.943599 0.944165 0.943061 0.936316 0.936867 0.931197 0.931524 0.934855 0.930403 0.930501 0.931645 0.930937 0.929507 0.928838 0.926221 0.923129 0.921241 0.920760 0.923800 0.924360 0.925599 0.925463 0.920299 0.911404 0.897956 0.895776 0.890452 0.893631 0.883306 0.882903 0.882853 0.877972 0.881578 0.882302 0.883353 0.879783 0.863219 0.843601 0.834355 0.837292 0.842628 0.838812 0.837593 0.830569 0.842854 0.824997 0.837938 0.850332 0.846265 0.847266 0.846804 0.844310 0.836701 0.837512 0.839994 0.841703 0.840872 0.839321 0.835360 0.819307 0.820437 0.755532 0.738859 0.733844 0.739234 0.744964 0.744547 0.743540 0.752450 0.757689 0.755401 0.740349 0.732460 0.723243 0.728265 0.731598 0.737038 0.726365 0.701852 0.694397 0.661552 0.678383 0.694956 0.653670 0.676307 0.686793 0.683335 0.683109 0.675445 0.671026 0.665611 0.668618 0.677539 0.693112 0.712205 0.737399 0.734602 0.723985 0.723880 0.704919 0.698295 0.689801 0.698952 0.679022 0.673481 0.691851 0.691225 0.678360 0.658444 0.645556 0.633047 0.631037 0.639220 0.631879 0.630173 0.617983 0.590488 0.584949 0.623182 0.639507 0.657821 0.633375 0.620527 0.613665 0.594464 0.608326 0.553113 0.553240 0.574160 0.581063 0.560470 0.540521 0.548319 0.559015 0.563601 0.555413 0.539135 0.528348 0.541917 0.571861 0.562949 0.537996 0.541621 0.541144 0.538452 0.463489 0.460367 0.430180 0.400402 0.338126 0.319863 0.312488 0.295353 0.280649 0.246592 0.243092 0.251855 0.262400 0.271672 0.272116 0.257427 0.261142 0.251828 0.238216 0.176854 0.164538 0.156862 0.146006 0.146797 0.122880 0.144887 0.210010 0.212563 0.212563 0.212563 0.212563 0.212563 0.212563 0.222851 0.222851 0.222851 0.222851 0.222851 0.222851 0.222851 0.222851 0.222851 0.232108 0.232108 0.232108 0.232108 0.232108 0.232108 0.232108 0.232108 0.232108 0.232108 0.232108 0.232108 0.232108 0.232108
0.000000 0.000000 0.000000 0.000000 0.000000 0.000000 0.000000 0.000000 0.000000 0.000000 0.000000 0.000000 0.000000 0.000000 0.000000 0.000000 0.000000 0.000000 0.000000 0.000000 0.000000 0.000000 0.000000 0.000000 0.000000 7.000000 4.000000 0.000000 0.000000 0.000000 0.000000 0.000000 0.000000 0.000000 0.000000 0.000000 0.000000 0.000000 0.000000 0.000000 0.000000 0.000000 0.000000 0.000000 0.000000 0.000000 0.000000 0.000000 0.000000 0.000000 0.000000 0.000000 0.180334 0.180334 0.180334 0.199007 0.199007 0.199007 0.199007 0.199007 0.199007 0.199007 0.199007 0.199007 0.199007 0.199007 0.199007 0.199007 0.199007 0.199007 0.199007 0.199007 0.199007 0.199007 0.199007 0.199007 0.199007 0.199007 0.199007 0.199007 0.199007 0.199007 0.199007 0.199007 0.199007 0.199007 0.199007 0.199007 0.199007 0.199007 0.199007 0.199007 0.199007 0.199007 0.199007 0.199007 0.225018 0.225018 0.225018 0.225018 0.225018 0.225018 0.225018 0.225018 0.225018 0.225018 0.225018 0.225018 0.225018 0.225018 0.225018 0.225018 0.225018 0.225018 0.225018 0.225018 0.225018 0.225018 0.225018 0.225018 0.225018 0.225018 0.225018 0.225018 0.225018 0.244339 0.244339 0.244339 0.244339 0.244339 0.244339 0.244339 0.244339 0.244339 0.244339 0.244339 0.244339 0.244339 0.244339 0.244339 0.244339 0.244339 0.244339 0.244339 0.244339 0.244339 0.244339 0.244339 0.251976 0.251976 0.251976 0.251976 0.251976 0.251976 0.251976 0.251976 0.251976 0.251976 0.251976 0.251976 0.251976 0.251976 0.251976 0.251976 0.251976 0.251976 0.251976 0.251976 0.264906 0.264906 0.264906 0.264906 0.264906 0.264906 0.264906 0.264906 0.264906 0.264906 0.264906 0.264906 0.264906 0.264906 0.264906 0.264906 0.264906 0.264906 0.264906 0.264906 0.264906 0.264906 0.264906 0.264906 0.264906 0.264906 0.264906 0.264906 0.264906 0.264906 0.264906 0.264906 0.264906 0.264906 0.264906 0.264906 0.264906 0.264906 0.264906 0.264906 0.264906 0.264906 0.264906 0.264906 0.264906 0.264906 0.264906 0.264906 0.264906 0.264906 0.264906 0.264906 0.264906 0.264906 0.264906 0.264906 0.264906 0.264906 0.264906 0.264906 0.264906 0.264906 0.256074 0.256074 0.256074 0.256074 0.256074 0.256074 0.256074 0.256074 0.256074 0.256074 0.256074 0.256074 0.256074 0.256074 0.269680 0.269680 0.269680 0.269680 0.269680 0.269680 0.269680 0.269680 0.269680 0.269680 0.269680 0.269680 0.264906 0.264906 0.264906 0.264906 0.264906 0.264906 0.264906 0.264906 0.264906 0.264906 0.264906 0.264906 0.269680 0.269680 0.269680 0.269680 0.269680 0.269680 0.269680 0.269680 0.269680 0.269680 0.269680 0.264906 0.264906 0.264906 0.264906 0.264906 0.264906 0.264906 0.264906 0.264906 0.264906 0.264906 0.256074 0.256074 0.256074 0.256074 0.256074 0.256074 0.256074 0.256074 0.256074 0.256074 0.256074 0.264906 0.264906 0.264906 0.264906 0.264906 0.264906 0.264906 0.264906 0.264906 0.264906 0.260378 0.260378 0.260378 0.260378 0.260378 0.260378 0.260378 0.260378 0.260378 0.260378 0.256074 0.256074 0.256074 0.256074 0.256074 0.256074 0.256074 0.256074 0.256074 0.256074 0.260378 0.260378 0.260378 0.260378 0.260378 0.260378 0.260378 0.260378 0.260378 0.256074 0.256074 0.256074 0.256074 0.256074 0.256074 0.256074 0.256074 0.256074 0.251976 0.251976 0.251976 0.251976 0.251976 0.251976 0.251976 0.251976 0.251976 0.251976 0.251976 0.251976 0.251976 0.251976
