# Output from CTFFind version 4.1.9, run on 2019-11-03 19:45:43
# Input file: stack6_bm3d_averaged_1_5.25_0_750_half.mrc ; Number of micrographs: 1
# Pixel size: 3.000 Angstroms ; acceleration voltage: 300.0 keV ; spherical aberration: 0.00 mm ; amplitude contrast: 0.07
# Box size: 512 pixels ; min. res.: 30.0 Angstroms ; max. res.: 5.0 Angstroms ; min. def.: 5000.0 um; max. def. 50000.0 um; num. frames averaged: 1
# 6 lines per micrograph: #1 - spatial frequency (1/Angstroms); #2 - 1D rotational average of spectrum (assuming no astigmatism); #3 - 1D rotational average of spectrum; #4 - CTF fit; #5 - cross-correlation between spectrum and CTF fit; #6 - 2sigma of expected cross correlation of noise
0.000000 0.000651 0.001302 0.001953 0.002604 0.003255 0.003906 0.004557 0.005208 0.005859 0.006510 0.007161 0.007812 0.008464 0.009115 0.009766 0.010417 0.011068 0.011719 0.012370 0.013021 0.013672 0.014323 0.014974 0.015625 0.016276 0.016927 0.017578 0.018229 0.018880 0.019531 0.020182 0.020833 0.021484 0.022135 0.022786 0.023438 0.024089 0.024740 0.025391 0.026042 0.026693 0.027344 0.027995 0.028646 0.029297 0.029948 0.030599 0.031250 0.031901 0.032552 0.033203 0.033854 0.034505 0.035156 0.035807 0.036458 0.037109 0.037760 0.038411 0.039062 0.039714 0.040365 0.041016 0.041667 0.042318 0.042969 0.043620 0.044271 0.044922 0.045573 0.046224 0.046875 0.047526 0.048177 0.048828 0.049479 0.050130 0.050781 0.051432 0.052083 0.052734 0.053385 0.054036 0.054688 0.055339 0.055990 0.056641 0.057292 0.057943 0.058594 0.059245 0.059896 0.060547 0.061198 0.061849 0.062500 0.063151 0.063802 0.064453 0.065104 0.065755 0.066406 0.067057 0.067708 0.068359 0.069010 0.069661 0.070312 0.070964 0.071615 0.072266 0.072917 0.073568 0.074219 0.074870 0.075521 0.076172 0.076823 0.077474 0.078125 0.078776 0.079427 0.080078 0.080729 0.081380 0.082031 0.082682 0.083333 0.083984 0.084635 0.085286 0.085938 0.086589 0.087240 0.087891 0.088542 0.089193 0.089844 0.090495 0.091146 0.091797 0.092448 0.093099 0.093750 0.094401 0.095052 0.095703 0.096354 0.097005 0.097656 0.098307 0.098958 0.099609 0.100260 0.100911 0.101562 0.102214 0.102865 0.103516 0.104167 0.104818 0.105469 0.106120 0.106771 0.107422 0.108073 0.108724 0.109375 0.110026 0.110677 0.111328 0.111979 0.112630 0.113281 0.113932 0.114583 0.115234 0.115885 0.116536 0.117188 0.117839 0.118490 0.119141 0.119792 0.120443 0.121094 0.121745 0.122396 0.123047 0.123698 0.124349 0.125000 0.125651 0.126302 0.126953 0.127604 0.128255 0.128906 0.129557 0.130208 0.130859 0.131510 0.132161 0.132812 0.133464 0.134115 0.134766 0.135417 0.136068 0.136719 0.137370 0.138021 0.138672 0.139323 0.139974 0.140625 0.141276 0.141927 0.142578 0.143229 0.143880 0.144531 0.145182 0.145833 0.146484 0.147135 0.147786 0.148438 0.149089 0.149740 0.150391 0.151042 0.151693 0.152344 0.152995 0.153646 0.154297 0.154948 0.155599 0.156250 0.156901 0.157552 0.158203 0.158854 0.159505 0.160156 0.160807 0.161458 0.162109 0.162760 0.163411 0.164062 0.164714 0.165365 0.166016 0.166667 0.167318 0.167969 0.168620 0.169271 0.169922 0.170573 0.171224 0.171875 0.172526 0.173177 0.173828 0.174479 0.175130 0.175781 0.176432 0.177083 0.177734 0.178385 0.179036 0.179688 0.180339 0.180990 0.181641 0.182292 0.182943 0.183594 0.184245 0.184896 0.185547 0.186198 0.186849 0.187500 0.188151 0.188802 0.189453 0.190104 0.190755 0.191406 0.192057 0.192708 0.193359 0.194010 0.194661 0.195312 0.195964 0.196615 0.197266 0.197917 0.198568 0.199219 0.199870 0.200521 0.201172 0.201823 0.202474 0.203125 0.203776 0.204427 0.205078 0.205729 0.206380 0.207031 0.207682 0.208333 0.208984 0.209635 0.210286 0.210938 0.211589 0.212240 0.212891 0.213542 0.214193 0.214844 0.215495 0.216146 0.216797 0.217448 0.218099 0.218750 0.219401 0.220052 0.220703 0.221354 0.222005 0.222656 0.223307 0.223958 0.224609 0.225260 0.225911 0.226562 0.227214 0.227865 0.228516 0.229167 0.229818 0.230469 0.231120 0.231771 0.232422 0.233073 0.233724 0.234375 0.235026 0.235677
       0.30670        0.30670        0.30670        0.30670        0.30670        0.30670        0.30670        0.30670        0.30670        0.30670        0.30670        0.30670        0.30670        0.30670        0.30670        0.30670        0.30670        0.30670        0.30670        0.30670        0.30670        0.30670        0.30670        0.30670        0.30670        0.30670        0.30670        0.30670        0.30670        0.30670        0.30670        0.30670        0.30670        0.30670        0.30670        0.30670        0.30670        0.30670        0.30670        0.30670        0.30670        0.30670        0.30670        0.30670        0.30670        0.30670        0.30670        0.30670        0.30670        0.30670        0.30670        0.59674        0.72247        0.35370        0.18230        0.12415       -0.15150        0.10470        0.02469        0.02912        0.08640        0.30491        0.32597        0.25316        0.14752       -0.04206       -0.01480        0.03863       -0.13535       -0.14440       -0.08840       -0.10812       -0.22939       -0.14969       -0.26863       -0.28166       -0.28298       -0.34790       -0.42527       -0.36836       -0.27600       -0.24575       -0.34522       -0.25712       -0.31455       -0.25225       -0.17665       -0.12628       -0.08929       -0.01868        0.01397        0.11647        0.16003        0.20961        0.33174        0.39648        0.35227        0.46042        0.54754        0.55590        0.63659        0.57732        0.61227        0.59683        0.61038        0.61162        0.55226        0.56905        0.54968        0.38996        0.32669        0.35887        0.34080        0.18884        0.15464        0.12401        0.07956        0.08400       -0.00485        0.05325        0.03028       -0.01277        0.09202        0.15768        0.25510        0.34768        0.33709        0.36611        0.45650        0.49024        0.42042        0.64557        0.53183        0.47808        0.56556        0.49755        0.52816        0.48819        0.36376        0.30334        0.26514        0.21768        0.20277        0.18633        0.16521        0.11579        0.19175        0.18146        0.22263        0.19491        0.25897        0.30113        0.32493        0.44284        0.42536        0.40731        0.43105        0.47261        0.44718        0.43645        0.38578        0.39764        0.33387        0.28026        0.23212        0.24196        0.23373        0.18348        0.15550        0.20906        0.21270        0.25954        0.33226        0.35055        0.40730        0.38758        0.43719        0.45316        0.44786        0.42014        0.38796        0.40586        0.36724        0.32740        0.32538        0.30547        0.25215        0.26859        0.26700        0.22245        0.28455        0.26589        0.27585        0.31351        0.36461        0.40274        0.39684        0.41513        0.37259        0.40432        0.38713        0.29884        0.28034        0.23769        0.25303        0.21477        0.19631        0.27951        0.33086        0.30626        0.27639        0.33327        0.25999        0.32412        0.36787        0.36321        0.35880        0.37822        0.32009        0.33135        0.31294        0.27834        0.27474        0.23952        0.28150        0.29566        0.30453        0.32560        0.36850        0.37198        0.36417        0.32968        0.34899        0.32866        0.31381        0.31185        0.27908        0.28120        0.25080        0.30772        0.31941        0.30913        0.28667        0.32027        0.32297        0.32651        0.33656        0.30594        0.27357        0.28539        0.28156        0.26225        0.24103        0.22846        0.24221        0.25646        0.24131        0.27562        0.27751        0.31962        0.31267        0.26945        0.29959        0.25723        0.20303        0.26018        0.24032        0.22426        0.26932        0.29772        0.28854        0.29280        0.29466        0.29259        0.30414        0.31557        0.26557        0.30416        0.29948        0.34352        0.27362        0.26418        0.25081        0.30246        0.30796        0.31731        0.33282        0.30845        0.21885        0.27693        0.25406        0.23972        0.23874        0.24345        0.28141        0.23938        0.29709        0.30645        0.34188        0.30481        0.28296        0.24110        0.25435        0.25605        0.23550        0.26120        0.27959        0.31126        0.32731        0.28796        0.28441        0.25972        0.29354        0.26539        0.22954        0.19474        0.26529        0.32905        0.31094        0.30234        0.28567        0.23218        0.22734        0.23880        0.21882        0.22231        0.26800        0.27451        0.25859        0.22410        0.21348        0.25891        0.23734        0.24956        0.26341        0.25606        0.17929        0.21950        0.25181        0.23809        0.28241        0.24108        0.22936        0.18373        0.25747        0.28505        0.19233        0.19863        0.12160        0.14237        0.29969        0.16781        0.17849        0.31989        0.19713        0.16703        0.11580        0.20283        0.12198        0.14905       -0.05427       -0.62903       -0.98956
2.323034 2.302982 2.283022 2.263154 2.243378 2.223694 2.204103 2.184603 2.165195 2.145880 2.126656 2.107525 2.088485 2.069538 2.050683 2.031920 2.013249 1.994670 1.976183 1.957788 1.939485 1.921275 1.903156 1.885130 1.867195 1.849353 1.831603 1.813944 1.796378 1.778904 1.761522 1.744232 1.727035 1.709929 1.692915 1.675994 1.659164 1.642427 1.625781 1.609228 1.592767 1.576398 1.560121 1.543936 1.527843 1.511842 1.495933 1.480117 1.464392 1.448759 1.433219 1.795882 2.127466 1.474537 1.346902 1.085839 0.539702 0.918811 0.812846 0.853751 0.714232 1.371185 1.225396 1.237246 0.992671 0.651400 0.503138 0.763692 0.567105 0.242713 0.318244 0.479526 0.226748 0.259158 0.112735 0.017936 -0.018608 -0.015365 -0.294225 -0.181960 -0.022968 -0.054658 -0.109890 -0.016688 -0.146700 -0.118033 0.061180 0.149759 0.216555 0.266020 0.336025 0.586615 0.538281 0.614496 0.830886 0.992944 0.808446 1.185896 1.162218 1.225587 1.323150 1.236517 1.186104 1.338880 1.206353 1.337858 1.162085 1.099299 1.189682 0.952110 0.662303 0.719543 0.777388 0.478456 0.398023 0.338500 0.195169 0.190242 0.039784 0.168349 0.132752 -0.003578 0.109677 0.230628 0.342472 0.601887 0.592054 0.558446 0.719710 0.878223 0.596132 1.028695 0.973615 0.767845 0.899755 0.754025 0.833398 0.851792 0.576242 0.418368 0.376106 0.315878 0.211729 0.158960 0.174147 -0.014553 0.159590 0.134769 0.222167 0.106711 0.278494 0.312690 0.276469 0.490829 0.594374 0.505262 0.411208 0.602586 0.592667 0.493085 0.489802 0.439745 0.319219 0.325602 0.117812 0.168948 0.057487 0.169442 -0.064005 0.039582 0.013539 0.220420 0.103166 0.354101 0.318941 0.370251 0.422078 0.415466 0.588400 0.375358 0.394462 0.447084 0.248902 0.337932 0.184203 0.270772 0.106368 0.146783 0.105148 0.100122 0.041378 0.161600 0.065652 0.154183 0.250212 0.279649 0.345716 0.326635 0.359874 0.277220 0.321161 0.216939 0.123782 0.079032 0.021607 0.035711 -0.052893 -0.022664 0.114440 0.211924 0.091201 0.119585 0.121903 0.065976 0.212209 0.248087 0.216409 0.272835 0.169358 0.155653 0.138921 0.121865 0.079649 -0.025595 0.014496 0.163466 0.017204 0.154532 0.128537 0.260012 0.189495 0.222762 0.196847 0.209387 0.108193 0.139763 0.138085 0.066342 0.017738 0.056253 0.127481 0.148211 0.116842 0.073083 0.152816 0.092052 0.111596 0.125268 0.027998 -0.011610 0.045580 -0.008259 -0.006393 -0.074381 -0.085811 -0.012953 -0.047644 -0.066755 0.006702 0.025378 0.089930 0.050066 -0.033682 0.045029 -0.085539 -0.116695 0.009546 -0.089324 -0.105984 0.033654 0.035405 0.005037 0.057745 -0.052900 0.054785 0.120442 -0.031040 -0.010989 0.096444 0.022623 0.124419 -0.039921 -0.009919 -0.058021 0.120880 0.043683 0.069770 0.124454 0.043452 -0.092179 0.010225 -0.016612 -0.042731 -0.051364 -0.030634 0.016526 -0.061517 0.073247 0.121270 0.167205 0.064003 -0.000033 -0.015243 0.001029 0.018591 -0.041719 0.051564 0.038849 0.137035 0.128397 0.076473 0.071021 0.037653 0.139870 -0.005134 0.008393 -0.105754 0.099170 0.186406 0.070559 0.134350 0.056102 -0.003039 -0.028891 -0.019130 -0.035313 -0.020457 0.056139 0.097891 0.034184 -0.028824 -0.002217 0.078185 0.058858 0.067297 0.101494 0.050777 -0.006310 0.019241 0.128450 0.067664 0.202739 0.107933 0.058015 0.075747 0.168295 0.230965 0.084624 0.096284 -0.060713 -0.098630 0.470392 0.304154 0.315082 0.614962 0.282362 0.292563 0.131228 0.472657 0.213554 0.292007 -0.086532 -1.752408
0.072396 0.072837 0.074161 0.076367 0.079455 0.083423 0.088272 0.094000 0.100604 0.108085 0.116438 0.125660 0.135749 0.146699 0.158504 0.171159 0.184655 0.198984 0.214135 0.230096 0.246852 0.264389 0.282688 0.301727 0.321486 0.341937 0.363052 0.384799 0.407142 0.430044 0.453461 0.477347 0.501651 0.526317 0.551287 0.576496 0.601875 0.627348 0.652839 0.678260 0.703524 0.728535 0.753193 0.777392 0.801022 0.823967 0.846106 0.867315 0.887464 0.906420 0.924045 0.940199 0.954740 0.967523 0.978401 0.987229 0.993859 0.998147 0.999950 0.999128 0.995547 0.989077 0.979596 0.966989 0.951152 0.931994 0.909432 0.883402 0.853854 0.820756 0.784094 0.743877 0.700134 0.652920 0.602314 0.548421 0.491376 0.431339 0.368505 0.303096 0.235364 0.165596 0.094107 0.021244 0.052615 0.127066 0.201673 0.275976 0.349493 0.421719 0.492130 0.560189 0.625349 0.687055 0.744751 0.797886 0.845918 0.888320 0.924586 0.954239 0.976838 0.991982 0.999319 0.998554 0.989452 0.971849 0.945655 0.910861 0.867545 0.815873 0.756108 0.688609 0.613834 0.532339 0.444781 0.351913 0.254580 0.153716 0.050335 0.054471 0.159554 0.263708 0.365690 0.464234 0.558062 0.645909 0.726533 0.798739 0.861398 0.913465 0.954001 0.982190 0.997362 0.999006 0.986791 0.960576 0.920426 0.866619 0.799653 0.720252 0.629359 0.528137 0.417960 0.300394 0.177189 0.050246 0.078398 0.206612 0.332192 0.452911 0.566551 0.670947 0.764032 0.843884 0.908761 0.957156 0.987828 0.999843 0.992609 0.965897 0.919871 0.855094 0.772538 0.673578 0.559983 0.433890 0.297776 0.154413 0.006820 0.141799 0.288119 0.428768 0.560411 0.679822 0.783974 0.870122 0.935877 0.979289 0.998904 0.993831 0.963781 0.909099 0.830784 0.730483 0.610473 0.473625 0.323344 0.163498 0.001675 0.167674 0.329855 0.483559 0.624246 0.747639 0.849861 0.927558 0.978035 0.999348 0.990403 0.951014 0.881945 0.784915 0.662582 0.518483 0.356958 0.183018 0.002218 0.179527 0.356120 0.521497 0.669832 0.795750 0.894536 0.962324 0.996265 0.994664 0.957083 0.884393 0.778790 0.643755 0.483956 0.305113 0.113815 0.082724 0.276917 0.461100 0.627836 0.770221 0.882190 0.958782 0.996386 0.992937 0.948044 0.863063 0.741088 0.586871 0.406669 0.208007 0.000615 0.210077 0.411024 0.594293 0.751331 0.874622 0.958050 0.997239 0.989807 0.935538 0.836452 0.696773 0.522787 0.322586 0.105723 0.117236 0.335200 0.537115 0.712528 0.852139 0.948323 0.995571 0.990838 0.933776 0.826822 0.675143 0.486429 0.270539 0.039015 0.195522 0.420039 0.621825 0.789223 0.912313 0.983545 0.998233 0.954901 0.855457 0.705164 0.512416 0.288296 0.045998 0.199947 0.434522 0.643140 0.812580 0.931829 0.992852 0.991170 0.926232 0.801558 0.624596 0.406344 0.160700 0.096389 0.347926 0.577010 0.767962 0.907430 0.985362 0.995777 0.937276 0.813251 0.631757 0.405049 0.148808 0.118910 0.378919 0.612289 0.801717 0.932853 0.995437 0.984146 0.899118 0.746053 0.535921 0.284225 0.009908 0.266021 0.522107 0.738107 0.896626 0.984553 0.994217 0.924116 0.779175 0.570486 0.314530 0.031935 0.254147 0.519916 0.742925 0.903981 0.988867 0.989655 0.905524 0.742982 0.515447 0.242225 0.053069 0.344524 0.606187 0.814383 0.949913 0.999877 0.958983 0.830187 0.624594 0.360584 0.062251 0.242747 0.525726 0.759683 0.921905 0.996235 0.974769 0.858781 0.658789 0.393688 0.089069 0.225198 0.517878 0.759454 0.925163 0.997589
1.000000 1.000000 1.000000 1.000000 1.000000 1.000000 1.000000 1.000000 1.000000 1.000000 1.000000 1.000000 1.000000 1.000000 1.000000 1.000000 1.000000 1.000000 1.000000 1.000000 1.000000 1.000000 1.000000 1.000000 1.000000 1.000000 1.000000 1.000000 1.000000 1.000000 1.000000 1.000000 1.000000 1.000000 1.000000 1.000000 1.000000 1.000000 1.000000 1.000000 1.000000 1.000000 1.000000 1.000000 1.000000 1.000000 1.000000 1.000000 1.000000 1.000000 1.000000 1.000000 0.777948 0.777948 0.777948 0.777948 0.777948 0.777948 0.777948 0.762861 0.762861 0.762861 0.762861 0.762861 0.762861 0.762861 0.762861 0.762861 0.762861 0.762861 0.762861 0.762861 0.762861 0.762861 0.762861 0.762861 0.762861 0.762861 0.762861 0.762861 0.762861 0.762861 0.762861 0.762861 0.762861 0.762861 0.762861 0.762861 0.762861 0.762861 0.762861 0.762861 0.762861 0.762861 0.762861 0.762861 0.762861 0.762861 0.762861 0.762861 0.762861 0.762861 0.762861 0.909965 0.910244 0.912951 0.907284 0.909114 0.906829 0.900805 0.903741 0.902911 0.902774 0.903707 0.904960 0.906873 0.910230 0.916758 0.919629 0.927427 0.930857 0.932053 0.931861 0.928924 0.935753 0.933146 0.931074 0.919778 0.923261 0.922733 0.923284 0.921894 0.922251 0.923172 0.923485 0.921095 0.919406 0.916955 0.915173 0.915666 0.915195 0.915147 0.915313 0.914656 0.915695 0.916332 0.912202 0.914713 0.913363 0.910191 0.906363 0.906295 0.907384 0.900924 0.898332 0.888444 0.890293 0.889382 0.893351 0.890568 0.889867 0.891013 0.891805 0.892497 0.892372 0.892459 0.889619 0.891539 0.888412 0.883456 0.879975 0.879752 0.882349 0.888708 0.891931 0.891885 0.889157 0.883687 0.874409 0.872639 0.858076 0.833840 0.835327 0.837415 0.838916 0.839554 0.838438 0.837281 0.834424 0.830143 0.825156 0.830019 0.830052 0.823224 0.808559 0.808219 0.803913 0.811258 0.815651 0.807898 0.811232 0.810487 0.816359 0.816639 0.814407 0.813642 0.807563 0.809755 0.817874 0.817930 0.810583 0.804371 0.799510 0.781958 0.783742 0.787821 0.800075 0.802611 0.796725 0.783215 0.791275 0.788069 0.794872 0.807921 0.808161 0.806858 0.789768 0.751818 0.735928 0.729504 0.732137 0.733528 0.725268 0.722882 0.721490 0.724550 0.685966 0.677236 0.667188 0.664252 0.672316 0.673383 0.676621 0.632703 0.649986 0.647271 0.628752 0.625036 0.585193 0.572679 0.518731 0.523172 0.522433 0.493860 0.481360 0.471751 0.484743 0.497220 0.497281 0.490997 0.466065 0.449711 0.441733 0.444504 0.454117 0.454363 0.460018 0.425243 0.398445 0.398440 0.418311 0.422399 0.421106 0.440183 0.453773 0.455244 0.442999 0.421553 0.416374 0.431659 0.440799 0.450318 0.450424 0.440319 0.420051 0.398073 0.403022 0.441631 0.439429 0.433496 0.416944 0.424918 0.437295 0.427146 0.411492 0.393739 0.436514 0.437786 0.426086 0.379890 0.351673 0.359717 0.355294 0.352365 0.340269 0.378732 0.401884 0.401703 0.407714 0.398108 0.441811 0.518356 0.508888 0.501711 0.522817 0.512483 0.491384 0.476413 0.462606 0.458460 0.446380 0.433006 0.412430 0.406017 0.391824 0.390321 0.410376 0.415676 0.440948 0.426215 0.375624 0.221424 0.265996 0.265996 0.265996 0.265996 0.265996 0.265996 0.265996 0.265996 0.265996 0.265996 0.265996 0.218655 0.218655 0.218655 0.218655 0.218655 0.218655 0.218655 0.218655 0.218655 0.218655 0.218655 0.218655 0.218655 0.218655 0.218655 0.218655 0.218655 0.218655 0.218655 0.218655
0.000000 0.000000 0.000000 0.000000 0.000000 0.000000 0.000000 0.000000 0.000000 0.000000 0.000000 0.000000 0.000000 0.000000 0.000000 0.000000 0.000000 0.000000 0.000000 0.000000 0.000000 0.000000 0.000000 0.000000 0.000000 0.000000 0.000000 0.000000 0.000000 0.000000 0.000000 0.000000 0.000000 0.000000 0.000000 0.000000 0.000000 0.000000 0.000000 0.000000 0.000000 0.000000 0.000000 0.000000 0.000000 0.000000 0.000000 0.000000 0.000000 0.000000 0.000000 0.000000 0.173422 0.173422 0.173422 0.173422 0.173422 0.173422 0.173422 0.191565 0.191565 0.191565 0.191565 0.191565 0.191565 0.191565 0.191565 0.191565 0.191565 0.191565 0.191565 0.191565 0.191565 0.191565 0.191565 0.191565 0.191565 0.191565 0.191565 0.191565 0.191565 0.191565 0.191565 0.191565 0.191565 0.191565 0.191565 0.191565 0.191565 0.191565 0.191565 0.191565 0.191565 0.191565 0.191565 0.191565 0.191565 0.191565 0.191565 0.191565 0.191565 0.191565 0.191565 0.222222 0.222222 0.222222 0.222222 0.222222 0.222222 0.222222 0.222222 0.222222 0.222222 0.222222 0.222222 0.222222 0.222222 0.222222 0.222222 0.222222 0.222222 0.222222 0.222222 0.222222 0.222222 0.222222 0.222222 0.222222 0.222222 0.222222 0.222222 0.222222 0.222222 0.234082 0.234082 0.234082 0.234082 0.234082 0.234082 0.234082 0.234082 0.234082 0.234082 0.234082 0.234082 0.234082 0.234082 0.234082 0.234082 0.234082 0.234082 0.234082 0.234082 0.234082 0.234082 0.234082 0.234082 0.234082 0.244339 0.244339 0.244339 0.244339 0.244339 0.244339 0.244339 0.244339 0.244339 0.244339 0.244339 0.244339 0.244339 0.244339 0.244339 0.244339 0.244339 0.244339 0.244339 0.244339 0.244339 0.248069 0.248069 0.248069 0.248069 0.248069 0.248069 0.248069 0.248069 0.248069 0.248069 0.248069 0.248069 0.248069 0.248069 0.248069 0.248069 0.248069 0.248069 0.248069 0.256074 0.256074 0.256074 0.256074 0.256074 0.256074 0.256074 0.256074 0.256074 0.256074 0.256074 0.256074 0.256074 0.256074 0.256074 0.256074 0.256074 0.256074 0.256074 0.256074 0.256074 0.256074 0.256074 0.256074 0.256074 0.256074 0.256074 0.256074 0.256074 0.256074 0.256074 0.256074 0.256074 0.256074 0.256074 0.256074 0.256074 0.256074 0.256074 0.256074 0.256074 0.256074 0.256074 0.256074 0.256074 0.256074 0.256074 0.256074 0.256074 0.256074 0.256074 0.256074 0.256074 0.256074 0.256074 0.256074 0.256074 0.256074 0.256074 0.256074 0.256074 0.256074 0.260378 0.260378 0.260378 0.260378 0.260378 0.260378 0.260378 0.260378 0.260378 0.260378 0.260378 0.260378 0.260378 0.256074 0.256074 0.256074 0.256074 0.256074 0.256074 0.256074 0.256074 0.256074 0.256074 0.256074 0.256074 0.256074 0.260378 0.260378 0.260378 0.260378 0.260378 0.260378 0.260378 0.260378 0.260378 0.260378 0.260378 0.260378 0.251976 0.251976 0.251976 0.251976 0.251976 0.251976 0.251976 0.251976 0.251976 0.251976 0.251976 0.251976 0.256074 0.256074 0.256074 0.256074 0.256074 0.256074 0.256074 0.256074 0.256074 0.256074 0.256074 0.251976 0.251976 0.251976 0.251976 0.251976 0.251976 0.251976 0.251976 0.251976 0.251976 0.251976 0.248069 0.248069 0.248069 0.248069 0.248069 0.248069 0.248069 0.248069 0.248069 0.248069 0.248069 0.256074 0.256074 0.256074 0.256074 0.256074 0.256074 0.256074 0.256074 0.256074 0.256074 0.256074 0.256074 0.256074 0.256074 0.256074 0.256074 0.256074 0.256074 0.256074 0.256074
