# Output from CTFFind version 4.1.9, run on 2019-11-03 19:43:26
# Input file: stack1_bm3d_averaged_1_4.75_0_3000_half.mrc ; Number of micrographs: 1
# Pixel size: 3.000 Angstroms ; acceleration voltage: 300.0 keV ; spherical aberration: 0.00 mm ; amplitude contrast: 0.07
# Box size: 512 pixels ; min. res.: 30.0 Angstroms ; max. res.: 5.0 Angstroms ; min. def.: 5000.0 um; max. def. 50000.0 um; num. frames averaged: 1
# 6 lines per micrograph: #1 - spatial frequency (1/Angstroms); #2 - 1D rotational average of spectrum (assuming no astigmatism); #3 - 1D rotational average of spectrum; #4 - CTF fit; #5 - cross-correlation between spectrum and CTF fit; #6 - 2sigma of expected cross correlation of noise
0.000000 0.000651 0.001302 0.001953 0.002604 0.003255 0.003906 0.004557 0.005208 0.005859 0.006510 0.007161 0.007812 0.008464 0.009115 0.009766 0.010417 0.011068 0.011719 0.012370 0.013021 0.013672 0.014323 0.014974 0.015625 0.016276 0.016927 0.017578 0.018229 0.018880 0.019531 0.020182 0.020833 0.021484 0.022135 0.022786 0.023438 0.024089 0.024740 0.025391 0.026042 0.026693 0.027344 0.027995 0.028646 0.029297 0.029948 0.030599 0.031250 0.031901 0.032552 0.033203 0.033854 0.034505 0.035156 0.035807 0.036458 0.037109 0.037760 0.038411 0.039062 0.039714 0.040365 0.041016 0.041667 0.042318 0.042969 0.043620 0.044271 0.044922 0.045573 0.046224 0.046875 0.047526 0.048177 0.048828 0.049479 0.050130 0.050781 0.051432 0.052083 0.052734 0.053385 0.054036 0.054688 0.055339 0.055990 0.056641 0.057292 0.057943 0.058594 0.059245 0.059896 0.060547 0.061198 0.061849 0.062500 0.063151 0.063802 0.064453 0.065104 0.065755 0.066406 0.067057 0.067708 0.068359 0.069010 0.069661 0.070312 0.070964 0.071615 0.072266 0.072917 0.073568 0.074219 0.074870 0.075521 0.076172 0.076823 0.077474 0.078125 0.078776 0.079427 0.080078 0.080729 0.081380 0.082031 0.082682 0.083333 0.083984 0.084635 0.085286 0.085938 0.086589 0.087240 0.087891 0.088542 0.089193 0.089844 0.090495 0.091146 0.091797 0.092448 0.093099 0.093750 0.094401 0.095052 0.095703 0.096354 0.097005 0.097656 0.098307 0.098958 0.099609 0.100260 0.100911 0.101562 0.102214 0.102865 0.103516 0.104167 0.104818 0.105469 0.106120 0.106771 0.107422 0.108073 0.108724 0.109375 0.110026 0.110677 0.111328 0.111979 0.112630 0.113281 0.113932 0.114583 0.115234 0.115885 0.116536 0.117188 0.117839 0.118490 0.119141 0.119792 0.120443 0.121094 0.121745 0.122396 0.123047 0.123698 0.124349 0.125000 0.125651 0.126302 0.126953 0.127604 0.128255 0.128906 0.129557 0.130208 0.130859 0.131510 0.132161 0.132812 0.133464 0.134115 0.134766 0.135417 0.136068 0.136719 0.137370 0.138021 0.138672 0.139323 0.139974 0.140625 0.141276 0.141927 0.142578 0.143229 0.143880 0.144531 0.145182 0.145833 0.146484 0.147135 0.147786 0.148438 0.149089 0.149740 0.150391 0.151042 0.151693 0.152344 0.152995 0.153646 0.154297 0.154948 0.155599 0.156250 0.156901 0.157552 0.158203 0.158854 0.159505 0.160156 0.160807 0.161458 0.162109 0.162760 0.163411 0.164062 0.164714 0.165365 0.166016 0.166667 0.167318 0.167969 0.168620 0.169271 0.169922 0.170573 0.171224 0.171875 0.172526 0.173177 0.173828 0.174479 0.175130 0.175781 0.176432 0.177083 0.177734 0.178385 0.179036 0.179688 0.180339 0.180990 0.181641 0.182292 0.182943 0.183594 0.184245 0.184896 0.185547 0.186198 0.186849 0.187500 0.188151 0.188802 0.189453 0.190104 0.190755 0.191406 0.192057 0.192708 0.193359 0.194010 0.194661 0.195312 0.195964 0.196615 0.197266 0.197917 0.198568 0.199219 0.199870 0.200521 0.201172 0.201823 0.202474 0.203125 0.203776 0.204427 0.205078 0.205729 0.206380 0.207031 0.207682 0.208333 0.208984 0.209635 0.210286 0.210938 0.211589 0.212240 0.212891 0.213542 0.214193 0.214844 0.215495 0.216146 0.216797 0.217448 0.218099 0.218750 0.219401 0.220052 0.220703 0.221354 0.222005 0.222656 0.223307 0.223958 0.224609 0.225260 0.225911 0.226562 0.227214 0.227865 0.228516 0.229167 0.229818 0.230469 0.231120 0.231771 0.232422 0.233073 0.233724 0.234375 0.235026 0.235677
       0.35746        0.35746        0.35746        0.35746        0.35746        0.35746        0.35746        0.35746        0.35746        0.35746        0.35746        0.35746        0.35746        0.35746        0.35746        0.35746        0.35746        0.35746        0.35746        0.35746        0.35746        0.35746        0.35746        0.35746        0.35746        0.35746        0.35746        0.35746        0.35746        0.35746        0.35746        0.35746        0.35746        0.35746        0.35746        0.35746        0.35746        0.35746        0.35746        0.35746        0.35746        0.35746        0.35746        0.35746        0.35746        0.35746        0.35746        0.35746        0.35746        0.35746        0.35746        0.43731        0.63677        0.31707        0.15634       -0.01576       -0.25933       -0.07654       -0.15733       -0.16997        0.02400       -0.11103       -0.11076       -0.04515       -0.02349       -0.11968       -0.15048       -0.29677       -0.42286       -0.51290       -0.46686       -0.37280       -0.28061       -0.41843       -0.32742       -0.43862       -0.35504       -0.40387       -0.23418       -0.22120       -0.26137       -0.11495       -0.06844       -0.04522        0.08576        0.03947        0.20442        0.20541        0.32972        0.37761        0.48380        0.51333        0.55952        0.61163        0.70726        0.60393        0.56204        0.51467        0.50846        0.59384        0.49937        0.46085        0.41736        0.32937        0.28928        0.30830        0.29934        0.20575        0.19320        0.07302        0.13130        0.12716        0.13136        0.11703        0.16822        0.23165        0.29962        0.30063        0.32656        0.46939        0.46154        0.49977        0.64403        0.64104        0.57666        0.57832        0.58684        0.45411        0.48400        0.37482        0.33633        0.29920        0.23613        0.24184        0.20429        0.16898        0.18579        0.24112        0.24665        0.28071        0.33813        0.35630        0.39741        0.47842        0.49061        0.47131        0.47784        0.57338        0.50103        0.50320        0.45125        0.37800        0.35058        0.26754        0.30014        0.23637        0.22942        0.28198        0.22754        0.24869        0.32419        0.39431        0.42366        0.47172        0.44833        0.51196        0.49265        0.46446        0.42318        0.40773        0.38099        0.38534        0.40397        0.38375        0.28311        0.32508        0.29254        0.29314        0.30239        0.35660        0.38789        0.41683        0.46620        0.50083        0.44808        0.43486        0.45428        0.40012        0.35896        0.37803        0.33072        0.33775        0.31831        0.33296        0.30654        0.34459        0.35690        0.39456        0.43719        0.44010        0.41859        0.39961        0.38690        0.38806        0.30370        0.32457        0.35295        0.28334        0.33810        0.32426        0.34165        0.35421        0.35376        0.38053        0.38880        0.46062        0.39148        0.36012        0.37429        0.32647        0.32885        0.34213        0.33032        0.36194        0.33756        0.36340        0.35080        0.40430        0.38002        0.39178        0.41558        0.39862        0.35992        0.34280        0.34748        0.32183        0.36598        0.33166        0.34319        0.35537        0.37814        0.34321        0.35505        0.33992        0.29924        0.29782        0.28554        0.31341        0.35298        0.35567        0.34567        0.31560        0.36278        0.34794        0.34557        0.31762        0.33349        0.35115        0.33214        0.30807        0.35711        0.33983        0.33987        0.31704        0.33195        0.35466        0.33434        0.31486        0.33902        0.30215        0.31045        0.36297        0.33185        0.32899        0.36545        0.33075        0.32998        0.37258        0.34550        0.29118        0.29575        0.27847        0.33979        0.34490        0.35839        0.32416        0.29873        0.34095        0.32359        0.28673        0.32380        0.33091        0.33096        0.35533        0.31983        0.28941        0.32910        0.32045        0.35424        0.33083        0.29981        0.35460        0.38977        0.39652        0.31903        0.34797        0.31960        0.33496        0.29408        0.35209        0.33795        0.25773        0.28933        0.36579        0.33537        0.32724        0.30601        0.33939        0.31939        0.29972        0.29560        0.32520        0.30765        0.26406        0.26718        0.29754        0.32743        0.28378        0.29139        0.31093        0.33100        0.28730        0.34755        0.31549        0.30619        0.30562        0.25346        0.31557        0.28136        0.24295        0.20974        0.20935        0.22053        0.24639        0.30032        0.25834        0.34449        0.28578        0.30566        0.28886        0.23587        0.27224        0.29560        0.23101        0.16666        0.23231        0.30979        0.43831        0.35528       -0.04477        0.03091       -0.41599       -0.72845
3.089983 3.056114 3.022433 2.988939 2.955633 2.922515 2.889584 2.856841 2.824285 2.791917 2.759736 2.727743 2.695938 2.664320 2.632889 2.601646 2.570591 2.539723 2.509043 2.478551 2.448246 2.418128 2.388198 2.358456 2.328901 2.299534 2.270354 2.241362 2.212557 2.183940 2.155511 2.127269 2.099215 2.071348 2.043669 2.016177 1.988873 1.961756 1.934828 1.908086 1.881532 1.855166 1.828987 1.802996 1.777193 1.751577 1.726148 1.700907 1.675854 1.650988 1.626310 1.609953 1.983054 1.483522 1.304174 1.035399 0.489001 0.953450 0.575579 0.731312 0.923087 0.726150 0.612684 0.800606 0.753044 0.642821 0.570152 0.350732 0.086722 -0.002329 -0.014335 -0.018131 0.391119 -0.037651 0.102971 -0.033242 0.037782 -0.054012 0.166427 0.165447 0.085344 0.248461 0.348612 0.298040 0.489163 0.405730 0.676433 0.553360 0.809079 0.761995 0.921734 1.060672 0.964233 1.125580 1.215881 1.028196 0.976617 0.893674 0.895655 0.961129 0.858821 0.791883 0.679673 0.584960 0.496685 0.480342 0.488208 0.309317 0.328096 0.147092 0.115083 0.173152 0.140710 0.088314 0.149901 0.203684 0.329211 0.323070 0.374232 0.387105 0.590871 0.387540 0.757553 0.756625 0.600426 0.635050 0.663083 0.464532 0.411422 0.379265 0.211901 0.232492 0.037422 0.121605 -0.012486 -0.005494 -0.069236 -0.014958 0.076917 0.028803 0.093732 0.177633 0.216365 0.252842 0.353568 0.328397 0.304744 0.411566 0.371291 0.344925 0.295056 0.218430 0.124255 0.048183 -0.027616 -0.014056 -0.132953 -0.001558 -0.026080 -0.106162 -0.071559 0.070168 0.206592 0.201473 0.255582 0.187483 0.333680 0.221574 0.214986 0.238947 0.110585 0.081369 0.224665 0.087546 0.047256 -0.000704 0.049433 -0.048080 0.030187 -0.017689 0.152019 0.074142 0.166623 0.281769 0.265005 0.106277 0.194865 0.149315 0.110065 0.056123 0.055491 0.028860 -0.005208 0.020082 -0.024154 -0.047792 0.086338 0.022833 0.144220 0.125501 0.135865 0.061597 0.071126 0.086467 0.004996 -0.079163 -0.011705 -0.012724 -0.075258 -0.010847 -0.036369 0.029715 -0.023055 0.055344 0.095724 0.113973 0.205675 0.022204 0.099576 0.065143 -0.032166 0.038839 0.021680 0.023629 0.088073 0.027757 0.045974 0.005469 0.113413 0.089449 0.099984 0.159354 0.055040 0.058036 0.027504 0.028323 0.005568 0.075753 0.020915 0.048645 0.016847 0.088533 0.015839 0.050664 0.016714 -0.035275 -0.037977 -0.046974 0.005040 0.066781 0.068345 0.040598 0.015221 0.100738 0.000822 0.071449 0.009828 0.026353 0.065603 0.011905 0.027930 0.071362 0.034388 0.022864 0.062598 0.064900 0.061719 0.060881 0.039507 0.059041 -0.031681 0.036394 0.105116 0.048555 0.037092 0.110820 0.006899 -0.003692 0.092887 0.013361 -0.010353 -0.054692 -0.061673 0.066508 0.050575 0.041024 0.008809 -0.047199 0.089295 -0.042344 -0.020379 0.012071 0.034493 0.048907 0.048257 -0.004314 -0.006280 0.024490 0.039660 0.014724 0.047596 -0.009726 0.091982 0.131471 0.092800 -0.012208 0.021995 0.045235 -0.008401 -0.038385 0.032547 0.031624 -0.096407 -0.024090 0.089240 0.001188 0.028304 -0.061845 0.153270 -0.014540 0.039550 -0.038135 0.080915 -0.020516 -0.028624 -0.051456 0.000123 0.073274 -0.000815 0.052012 0.003555 0.137640 -0.047120 0.126257 0.050345 0.000093 0.046962 -0.070497 0.109010 -0.053568 -0.070766 -0.121782 -0.113495 -0.105662 -0.208241 0.022797 -0.077314 0.064354 -0.139858 0.006556 -0.088631 -0.244743 -0.057733 0.366082 0.283418 0.153004 0.319233 0.548913 0.664144 0.540187 -0.319064 0.049545 -1.029081
0.072396 0.072911 0.074456 0.077030 0.080632 0.085263 0.090920 0.097601 0.105305 0.114029 0.123768 0.134519 0.146276 0.159031 0.172777 0.187504 0.203200 0.219851 0.237442 0.255953 0.275364 0.295649 0.316782 0.338730 0.361458 0.384927 0.409092 0.433904 0.459308 0.485245 0.511649 0.538449 0.565567 0.592919 0.620412 0.647951 0.675429 0.702735 0.729749 0.756345 0.782389 0.807741 0.832254 0.855773 0.878140 0.899187 0.918744 0.936636 0.952684 0.966705 0.978516 0.987932 0.994768 0.998842 0.999975 0.997992 0.992726 0.984017 0.971718 0.955690 0.935813 0.911982 0.884111 0.852137 0.816018 0.775742 0.731322 0.682804 0.630267 0.573825 0.513627 0.449863 0.382763 0.312597 0.239678 0.164361 0.087043 0.008164 0.071796 0.152317 0.232843 0.312781 0.391509 0.468380 0.542721 0.613846 0.681057 0.743654 0.800942 0.852237 0.896878 0.934234 0.963714 0.984778 0.996947 0.999812 0.993044 0.976405 0.949758 0.913073 0.866436 0.810056 0.744273 0.669555 0.586509 0.495874 0.398525 0.295465 0.187822 0.076837 0.036142 0.149681 0.262271 0.372346 0.478309 0.578554 0.671486 0.755557 0.829285 0.891291 0.940321 0.975282 0.995265 0.999576 0.987754 0.959603 0.915200 0.854915 0.779419 0.689687 0.586996 0.472915 0.349294 0.218235 0.082069 0.056685 0.195360 0.331192 0.461372 0.583107 0.693681 0.790522 0.871260 0.933804 0.976391 0.997653 0.996663 0.972983 0.926693 0.858422 0.769348 0.661204 0.536253 0.397261 0.247438 0.090384 0.069996 0.229580 0.384135 0.529431 0.661352 0.776027 0.869949 0.940087 0.984006 0.999957 0.986963 0.944881 0.874439 0.777258 0.655829 0.513477 0.354286 0.183000 0.004892 0.174391 0.348994 0.513056 0.660900 0.787244 0.887397 0.957452 0.994456 0.996550 0.963085 0.894687 0.793291 0.662106 0.505554 0.329138 0.139269 0.056946 0.251962 0.438089 0.607785 0.753978 0.870373 0.951739 0.994172 0.995305 0.954465 0.872764 0.753111 0.600150 0.420111 0.220584 0.010224 0.201603 0.405245 0.591188 0.750521 0.875370 0.959319 0.997770 0.988219 0.930461 0.826665 0.681354 0.501240 0.294968 0.072714 0.154278 0.374266 0.575606 0.747386 0.880029 0.965865 0.999603 0.978706 0.903609 0.777797 0.607693 0.402384 0.173176 0.066995 0.304273 0.524680 0.714938 0.863297 0.960286 0.999371 0.977433 0.895070 0.756665 0.570220 0.346950 0.100658 0.153089 0.397919 0.617715 0.797688 0.925405 0.991690 0.991339 0.923589 0.792292 0.605778 0.376389 0.119727 0.146367 0.403043 0.631757 0.815637 0.940762 0.997274 0.980214 0.890025 0.732664 0.519294 0.265562 0.009483 0.284787 0.538893 0.751602 0.905641 0.988092 0.991563 0.914920 0.763540 0.549042 0.288462 0.002993 0.283717 0.547490 0.765673 0.919122 0.993938 0.982814 0.885829 0.710629 0.471924 0.190349 0.109251 0.399972 0.655268 0.851386 0.969636 0.998255 0.933669 0.781029 0.553921 0.273266 0.034516 0.339953 0.613310 0.827508 0.960862 0.999360 0.938243 0.782691 0.547526 0.255924 0.062792 0.376025 0.651232 0.859321 0.977803 0.993313 0.903238 0.716234 0.451544 0.137129 0.193178 0.503282 0.758767 0.930757 0.999270 0.955661 0.803849 0.560134 0.251593 0.086820 0.416157 0.697955 0.898741 0.994117 0.971836 0.833522 0.594762 0.283513 0.063051 0.402892 0.694187 0.900507 0.995473 0.966254 0.815462 0.561133 0.234733 0.122588 0.465121 0.748419 0.935126 0.999998 0.933483 0.743287 0.453686 0.102621 0.263193 0.594386 0.845607 0.981841 0.983412
1.000000 1.000000 1.000000 1.000000 1.000000 1.000000 1.000000 1.000000 1.000000 1.000000 1.000000 1.000000 1.000000 1.000000 1.000000 1.000000 1.000000 1.000000 1.000000 1.000000 1.000000 1.000000 1.000000 1.000000 1.000000 1.000000 1.000000 1.000000 1.000000 1.000000 1.000000 1.000000 1.000000 1.000000 1.000000 1.000000 1.000000 1.000000 1.000000 1.000000 1.000000 1.000000 1.000000 1.000000 1.000000 1.000000 1.000000 1.000000 1.000000 1.000000 1.000000 1.000000 0.845769 0.845769 0.873844 0.873844 0.873844 0.873844 0.873844 0.873844 0.873844 0.873844 0.873844 0.873844 0.873844 0.873844 0.873844 0.873844 0.873844 0.873844 0.873844 0.873844 0.873844 0.873844 0.873844 0.873844 0.873844 0.873844 0.873844 0.873844 0.873844 0.873844 0.873844 0.873844 0.873844 0.873844 0.873844 0.873844 0.873844 0.873844 0.873844 0.873844 0.873844 0.873844 0.873844 0.862615 0.869791 0.875567 0.878014 0.879823 0.881511 0.879467 0.877685 0.877684 0.878156 0.879947 0.890653 0.913700 0.928155 0.932166 0.939356 0.940469 0.945412 0.945148 0.951606 0.959674 0.959205 0.959744 0.958216 0.959742 0.949023 0.948321 0.940962 0.963037 0.950315 0.949141 0.939390 0.930892 0.929593 0.928489 0.927661 0.929835 0.919609 0.920434 0.920342 0.919823 0.917026 0.915488 0.909367 0.883974 0.885720 0.890292 0.879700 0.858438 0.844273 0.844950 0.841166 0.841038 0.828348 0.829703 0.830982 0.819255 0.820159 0.819920 0.801735 0.797851 0.795118 0.792272 0.792419 0.793467 0.797655 0.801800 0.801363 0.785103 0.747957 0.736098 0.746027 0.709774 0.697886 0.664660 0.670159 0.673603 0.674592 0.666762 0.660925 0.655550 0.649573 0.656236 0.651566 0.653376 0.653357 0.651690 0.635961 0.622846 0.593175 0.551217 0.564067 0.566364 0.565960 0.562102 0.559059 0.554925 0.571304 0.563899 0.568050 0.552274 0.541138 0.516619 0.498601 0.453559 0.461178 0.501978 0.504048 0.456311 0.478471 0.511796 0.523497 0.535700 0.537358 0.529750 0.492214 0.469379 0.449284 0.451086 0.452649 0.450762 0.450279 0.462518 0.478356 0.499478 0.496256 0.476590 0.476022 0.483955 0.474107 0.492216 0.474792 0.461571 0.441137 0.427953 0.382511 0.394638 0.405072 0.403676 0.380694 0.369119 0.381962 0.382213 0.388616 0.395189 0.389416 0.412948 0.384138 0.408900 0.390151 0.371229 0.378395 0.383831 0.374950 0.365583 0.351041 0.348647 0.347085 0.382350 0.412379 0.412913 0.458631 0.455064 0.444855 0.398024 0.423692 0.408110 0.412811 0.392107 0.358250 0.356211 0.367405 0.386678 0.376999 0.312733 0.289823 0.275047 0.264424 0.250637 0.245269 0.170292 0.131890 0.108727 0.118058 0.128680 0.123723 0.142801 0.106696 0.116953 0.153375 0.157507 0.148729 0.139320 0.131278 0.135656 0.104778 0.142324 0.127937 0.117246 0.140369 0.120662 0.126232 0.089148 0.088192 0.050887 0.048307 0.060874 0.070200 0.007038 -0.007825 -0.001589 0.007353 0.025887 0.003840 0.000667 0.004319 -0.016367 -0.025647 -0.023025 -0.043195 -0.079286 -0.057019 -0.061224 -0.030134 -0.089661 -0.087206 -0.101530 -0.086739 -0.060555 -0.042839 -0.042287 -0.043184 -0.005528 -0.036590 -0.058860 -0.060608 -0.106969 -0.110144 -0.137393 -0.158442 -0.158442 -0.148345 -0.148345 -0.148345 -0.148345 -0.148345 -0.148345 -0.148345 -0.148345 -0.148345 -0.134460 -0.134460 -0.134460 -0.134460 -0.134460 -0.134460 -0.134460 -0.134460 -0.165881 -0.165881 -0.165881 -0.165881 -0.165881 -0.165881 -0.165881 -0.165881 -0.165881 -0.165881
0.000000 0.000000 0.000000 0.000000 0.000000 0.000000 0.000000 0.000000 0.000000 0.000000 0.000000 0.000000 0.000000 0.000000 0.000000 0.000000 0.000000 0.000000 0.000000 0.000000 0.000000 0.000000 0.000000 0.000000 0.000000 0.000000 0.000000 0.000000 0.000000 0.000000 0.000000 0.000000 0.000000 0.000000 0.000000 0.000000 0.000000 0.000000 0.000000 0.000000 0.000000 0.000000 0.000000 0.000000 0.000000 0.000000 0.000000 0.000000 0.000000 0.000000 0.000000 0.000000 0.181818 0.181818 0.199007 0.199007 0.199007 0.199007 0.199007 0.199007 0.199007 0.199007 0.199007 0.199007 0.199007 0.199007 0.199007 0.199007 0.199007 0.199007 0.199007 0.199007 0.199007 0.199007 0.199007 0.199007 0.199007 0.199007 0.199007 0.199007 0.199007 0.199007 0.199007 0.199007 0.199007 0.199007 0.199007 0.199007 0.199007 0.199007 0.199007 0.199007 0.199007 0.199007 0.199007 0.230940 0.230940 0.230940 0.230940 0.230940 0.230940 0.230940 0.230940 0.230940 0.230940 0.230940 0.230940 0.230940 0.230940 0.230940 0.230940 0.230940 0.230940 0.230940 0.230940 0.230940 0.230940 0.230940 0.230940 0.230940 0.230940 0.230940 0.230940 0.244339 0.244339 0.244339 0.244339 0.244339 0.244339 0.244339 0.244339 0.244339 0.244339 0.244339 0.244339 0.244339 0.244339 0.244339 0.244339 0.244339 0.244339 0.244339 0.244339 0.244339 0.244339 0.244339 0.251976 0.251976 0.251976 0.251976 0.251976 0.251976 0.251976 0.251976 0.251976 0.251976 0.251976 0.251976 0.251976 0.251976 0.251976 0.251976 0.251976 0.251976 0.251976 0.251976 0.264906 0.264906 0.264906 0.264906 0.264906 0.264906 0.264906 0.264906 0.264906 0.264906 0.264906 0.264906 0.264906 0.264906 0.264906 0.264906 0.264906 0.264906 0.264906 0.264906 0.264906 0.264906 0.264906 0.264906 0.264906 0.264906 0.264906 0.264906 0.264906 0.264906 0.264906 0.264906 0.264906 0.264906 0.264906 0.264906 0.264906 0.264906 0.264906 0.264906 0.264906 0.264906 0.264906 0.264906 0.264906 0.264906 0.264906 0.264906 0.264906 0.264906 0.264906 0.264906 0.264906 0.264906 0.264906 0.264906 0.264906 0.264906 0.264906 0.264906 0.264906 0.264906 0.264906 0.264906 0.264906 0.264906 0.264906 0.264906 0.264906 0.264906 0.264906 0.264906 0.264906 0.264906 0.264906 0.269680 0.269680 0.269680 0.269680 0.269680 0.269680 0.269680 0.269680 0.269680 0.269680 0.269680 0.269680 0.264906 0.264906 0.264906 0.264906 0.264906 0.264906 0.264906 0.264906 0.264906 0.264906 0.264906 0.264906 0.269680 0.269680 0.269680 0.269680 0.269680 0.269680 0.269680 0.269680 0.269680 0.269680 0.269680 0.264906 0.264906 0.264906 0.264906 0.264906 0.264906 0.264906 0.264906 0.264906 0.264906 0.264906 0.269680 0.269680 0.269680 0.269680 0.269680 0.269680 0.269680 0.269680 0.269680 0.269680 0.264906 0.264906 0.264906 0.264906 0.264906 0.264906 0.264906 0.264906 0.264906 0.264906 0.260378 0.260378 0.260378 0.260378 0.260378 0.260378 0.260378 0.260378 0.260378 0.260378 0.256074 0.256074 0.256074 0.256074 0.256074 0.256074 0.256074 0.256074 0.256074 0.256074 0.260378 0.260378 0.260378 0.260378 0.260378 0.260378 0.260378 0.260378 0.260378 0.256074 0.256074 0.256074 0.256074 0.256074 0.256074 0.256074 0.256074 0.256074 0.269680 0.269680 0.269680 0.269680 0.269680 0.269680 0.269680 0.269680 0.248069 0.248069 0.248069 0.248069 0.248069 0.248069 0.248069 0.248069 0.248069 0.248069
