# Output from CTFFind version 4.1.9, run on 2019-11-03 19:02:22
# Input file: stack16_bm3d_averaged_1_2.75_0_3000_half.mrc ; Number of micrographs: 1
# Pixel size: 3.000 Angstroms ; acceleration voltage: 300.0 keV ; spherical aberration: 0.00 mm ; amplitude contrast: 0.07
# Box size: 512 pixels ; min. res.: 30.0 Angstroms ; max. res.: 5.0 Angstroms ; min. def.: 5000.0 um; max. def. 50000.0 um; num. frames averaged: 1
# 6 lines per micrograph: #1 - spatial frequency (1/Angstroms); #2 - 1D rotational average of spectrum (assuming no astigmatism); #3 - 1D rotational average of spectrum; #4 - CTF fit; #5 - cross-correlation between spectrum and CTF fit; #6 - 2sigma of expected cross correlation of noise
0.000000 0.000651 0.001302 0.001953 0.002604 0.003255 0.003906 0.004557 0.005208 0.005859 0.006510 0.007161 0.007812 0.008464 0.009115 0.009766 0.010417 0.011068 0.011719 0.012370 0.013021 0.013672 0.014323 0.014974 0.015625 0.016276 0.016927 0.017578 0.018229 0.018880 0.019531 0.020182 0.020833 0.021484 0.022135 0.022786 0.023438 0.024089 0.024740 0.025391 0.026042 0.026693 0.027344 0.027995 0.028646 0.029297 0.029948 0.030599 0.031250 0.031901 0.032552 0.033203 0.033854 0.034505 0.035156 0.035807 0.036458 0.037109 0.037760 0.038411 0.039062 0.039714 0.040365 0.041016 0.041667 0.042318 0.042969 0.043620 0.044271 0.044922 0.045573 0.046224 0.046875 0.047526 0.048177 0.048828 0.049479 0.050130 0.050781 0.051432 0.052083 0.052734 0.053385 0.054036 0.054688 0.055339 0.055990 0.056641 0.057292 0.057943 0.058594 0.059245 0.059896 0.060547 0.061198 0.061849 0.062500 0.063151 0.063802 0.064453 0.065104 0.065755 0.066406 0.067057 0.067708 0.068359 0.069010 0.069661 0.070312 0.070964 0.071615 0.072266 0.072917 0.073568 0.074219 0.074870 0.075521 0.076172 0.076823 0.077474 0.078125 0.078776 0.079427 0.080078 0.080729 0.081380 0.082031 0.082682 0.083333 0.083984 0.084635 0.085286 0.085938 0.086589 0.087240 0.087891 0.088542 0.089193 0.089844 0.090495 0.091146 0.091797 0.092448 0.093099 0.093750 0.094401 0.095052 0.095703 0.096354 0.097005 0.097656 0.098307 0.098958 0.099609 0.100260 0.100911 0.101562 0.102214 0.102865 0.103516 0.104167 0.104818 0.105469 0.106120 0.106771 0.107422 0.108073 0.108724 0.109375 0.110026 0.110677 0.111328 0.111979 0.112630 0.113281 0.113932 0.114583 0.115234 0.115885 0.116536 0.117188 0.117839 0.118490 0.119141 0.119792 0.120443 0.121094 0.121745 0.122396 0.123047 0.123698 0.124349 0.125000 0.125651 0.126302 0.126953 0.127604 0.128255 0.128906 0.129557 0.130208 0.130859 0.131510 0.132161 0.132812 0.133464 0.134115 0.134766 0.135417 0.136068 0.136719 0.137370 0.138021 0.138672 0.139323 0.139974 0.140625 0.141276 0.141927 0.142578 0.143229 0.143880 0.144531 0.145182 0.145833 0.146484 0.147135 0.147786 0.148438 0.149089 0.149740 0.150391 0.151042 0.151693 0.152344 0.152995 0.153646 0.154297 0.154948 0.155599 0.156250 0.156901 0.157552 0.158203 0.158854 0.159505 0.160156 0.160807 0.161458 0.162109 0.162760 0.163411 0.164062 0.164714 0.165365 0.166016 0.166667 0.167318 0.167969 0.168620 0.169271 0.169922 0.170573 0.171224 0.171875 0.172526 0.173177 0.173828 0.174479 0.175130 0.175781 0.176432 0.177083 0.177734 0.178385 0.179036 0.179688 0.180339 0.180990 0.181641 0.182292 0.182943 0.183594 0.184245 0.184896 0.185547 0.186198 0.186849 0.187500 0.188151 0.188802 0.189453 0.190104 0.190755 0.191406 0.192057 0.192708 0.193359 0.194010 0.194661 0.195312 0.195964 0.196615 0.197266 0.197917 0.198568 0.199219 0.199870 0.200521 0.201172 0.201823 0.202474 0.203125 0.203776 0.204427 0.205078 0.205729 0.206380 0.207031 0.207682 0.208333 0.208984 0.209635 0.210286 0.210938 0.211589 0.212240 0.212891 0.213542 0.214193 0.214844 0.215495 0.216146 0.216797 0.217448 0.218099 0.218750 0.219401 0.220052 0.220703 0.221354 0.222005 0.222656 0.223307 0.223958 0.224609 0.225260 0.225911 0.226562 0.227214 0.227865 0.228516 0.229167 0.229818 0.230469 0.231120 0.231771 0.232422 0.233073 0.233724 0.234375 0.235026 0.235677
       0.33986        0.33986        0.33986        0.33986        0.33986        0.33986        0.33986        0.33986        0.33986        0.33986        0.33986        0.33986        0.33986        0.33986        0.33986        0.33986        0.33986        0.33986        0.33986        0.33986        0.33986        0.33986        0.33986        0.33986        0.33986        0.33986        0.33986        0.33986        0.33986        0.33986        0.33986        0.33986        0.33986        0.33986        0.33986        0.33986        0.33986        0.33986        0.33986        0.33986        0.33986        0.33986        0.33986        0.33986        0.33986        0.33986        0.33986        0.33986        0.33986        0.33986        0.33986        0.46230        0.64640        0.42879       -0.12042       -0.42600       -0.56794       -0.65784       -0.73274       -0.75156       -0.89100       -0.92424       -0.74884       -0.93258       -0.87694       -1.02253       -1.08450       -0.97169       -0.93592       -0.85722       -0.80672       -0.71199       -0.61861       -0.50100       -0.42190       -0.22993       -0.10997       -0.02435        0.18823        0.22618        0.30608        0.37290        0.40882        0.49107        0.57191        0.60008        0.57468        0.49631        0.55268        0.49029        0.40379        0.32809        0.19370        0.17560        0.10668       -0.04921       -0.10541       -0.07455        0.02657       -0.01142        0.02078        0.02776        0.18031        0.20542        0.38701        0.46150        0.57012        0.70113        0.77944        0.72641        0.68310        0.65367        0.57787        0.49090        0.37075        0.28833        0.19091        0.17706        0.08996        0.02460        0.00368        0.03186        0.08279        0.27025        0.38462        0.49244        0.55471        0.60916        0.69869        0.65218        0.65362        0.65338        0.59288        0.48585        0.28854        0.25249        0.21426        0.11648        0.05083        0.10126        0.12716        0.25919        0.34147        0.41577        0.48575        0.55535        0.65572        0.59494        0.54120        0.50936        0.38464        0.21103        0.23182        0.16995        0.13563        0.14521        0.22746        0.25847        0.35765        0.43451        0.43214        0.53472        0.50707        0.45834        0.44555        0.36464        0.31718        0.25672        0.21785        0.22331        0.19866        0.21464        0.30750        0.41544        0.46300        0.47743        0.54486        0.48225        0.43985        0.38777        0.30871        0.22982        0.23897        0.24410        0.26587        0.28705        0.32460        0.43335        0.50916        0.49330        0.45418        0.38225        0.36775        0.36415        0.21811        0.23624        0.25787        0.28885        0.34655        0.36469        0.40612        0.43718        0.44975        0.38215        0.34787        0.31975        0.32003        0.27381        0.24969        0.27998        0.33076        0.40497        0.41623        0.40258        0.39670        0.41102        0.35392        0.28073        0.28294        0.29021        0.31782        0.37355        0.36554        0.40743        0.34933        0.37716        0.38093        0.34810        0.30688        0.27036        0.28146        0.32479        0.33141        0.33149        0.34406        0.37940        0.33646        0.35943        0.29081        0.30325        0.26114        0.27619        0.30440        0.33141        0.39008        0.36595        0.35400        0.32032        0.27512        0.26355        0.29741        0.29015        0.32146        0.35323        0.37735        0.34015        0.31920        0.30107        0.29926        0.29878        0.28693        0.31584        0.33915        0.33678        0.32522        0.29332        0.33715        0.31908        0.29207        0.31213        0.32840        0.34620        0.35196        0.31025        0.31734        0.28707        0.29594        0.30300        0.32619        0.39068        0.32518        0.36809        0.29937        0.30467        0.30760        0.30715        0.30581        0.30397        0.30628        0.34023        0.35141        0.29252        0.31404        0.30104        0.29361        0.30794        0.30648        0.32499        0.35188        0.36449        0.31220        0.30424        0.28307        0.23998        0.31391        0.34464        0.29994        0.29682        0.26983        0.29274        0.31793        0.31593        0.28893        0.31304        0.32540        0.32090        0.24295        0.28575        0.29969        0.28380        0.33151        0.28919        0.35390        0.37903        0.28530        0.29312        0.26932        0.27756        0.30928        0.28160        0.25189        0.24596        0.27313        0.31273        0.28226        0.26891        0.25971        0.33665        0.31437        0.27706        0.22824        0.21471        0.25822        0.23167        0.21428        0.27681        0.36590        0.23810        0.25339        0.29473        0.22797        0.22505        0.29739        0.27723        0.21498        0.19107        0.27556        0.33874        0.29683        0.13735       -0.03741       -0.49385       -0.77732
2.969322 2.932426 2.895767 2.859345 2.823161 2.787214 2.751503 2.716030 2.680794 2.645795 2.611034 2.576509 2.542222 2.508172 2.474358 2.440782 2.407444 2.374342 2.341477 2.308850 2.276460 2.244306 2.212390 2.180711 2.149270 2.118065 2.087098 2.056367 2.025874 1.995618 1.965599 1.935817 1.906273 1.876965 1.847895 1.819062 1.790466 1.762107 1.733985 1.706100 1.678453 1.651042 1.623869 1.596933 1.570234 1.543772 1.517547 1.491560 1.465809 1.440296 1.415020 1.465144 1.608508 1.552087 0.925036 0.627954 0.445234 0.389207 0.300586 0.235643 0.151028 -0.029065 0.179250 0.040583 -0.053342 -0.090238 -0.228639 -0.168022 -0.097083 -0.094832 -0.087132 0.012516 0.032600 0.202191 0.130554 0.331951 0.429962 0.455570 0.674153 0.675280 0.679894 0.812687 0.784815 0.802245 0.929375 0.859200 0.914420 0.727240 0.829096 0.830357 0.625679 0.585617 0.450929 0.418593 0.368219 0.199590 0.123285 0.098091 0.215782 0.137336 0.197645 0.097674 0.285701 0.266815 0.436677 0.407581 0.595203 0.631806 0.759222 0.729136 0.635917 0.625679 0.509824 0.474074 0.310667 0.302315 0.124791 0.164095 0.020860 -0.015403 -0.043536 -0.068033 -0.017098 0.043220 0.247459 0.314133 0.377968 0.346725 0.480261 0.469621 0.506790 0.488224 0.376845 0.397645 0.148667 0.094995 0.078228 -0.011313 -0.129484 -0.032947 -0.095135 0.019308 0.129657 0.164078 0.250176 0.264601 0.367540 0.487141 0.355885 0.385519 0.305131 0.136388 0.066961 0.070833 0.032701 0.023649 0.041976 0.114949 0.133599 0.263603 0.237202 0.300724 0.341941 0.257933 0.249855 0.206460 0.122705 0.072041 0.032974 0.032294 0.018056 -0.011169 0.031435 0.163864 0.191787 0.232457 0.291338 0.217285 0.221873 0.133363 0.109803 -0.002768 -0.019309 -0.001862 0.003360 0.026228 0.021838 0.101462 0.190601 0.207690 0.207277 0.134479 0.104260 0.089314 0.041550 -0.073350 -0.003010 0.010141 0.039714 0.052512 0.101755 0.156269 0.129546 0.163862 0.064878 0.061150 0.046985 0.045257 -0.003036 -0.008082 0.021375 0.077917 0.120768 0.150330 0.074910 0.142689 0.118578 0.019406 0.010450 0.008384 0.017821 0.070586 0.084631 0.098877 0.098889 0.080096 0.105784 0.083394 0.058847 0.024726 -0.015515 0.022746 0.066302 0.043487 0.051642 0.052870 0.077959 0.083484 0.035581 0.013813 0.012184 -0.036991 0.001877 0.021295 0.044842 0.100922 0.070039 0.056544 0.016264 -0.034128 -0.015285 0.011264 0.010479 0.024014 0.071274 0.055651 0.008112 0.037677 -0.028646 0.019972 -0.015917 -0.025533 0.030820 0.054094 0.004195 0.012407 -0.011384 0.033874 -0.004715 -0.011375 0.009614 0.027696 0.033907 0.049243 0.009909 -0.006196 -0.031535 -0.001571 0.003865 0.028905 0.071925 0.018743 0.047200 -0.020209 0.024424 -0.013616 0.015696 0.008266 0.007556 -0.004708 0.049624 0.025930 0.009036 0.021719 -0.021134 -0.002084 0.004739 -0.011269 0.044286 0.049295 0.061483 0.010067 0.015659 -0.024791 -0.032315 0.006203 0.036732 0.006241 0.025971 -0.030865 -0.009221 0.022487 0.030317 0.000396 0.003618 0.035426 0.038368 -0.059905 0.002524 0.034967 -0.015045 0.033704 0.024694 0.081714 0.097950 0.016971 0.027494 -0.017876 0.018497 -0.005283 -0.001263 -0.009869 -0.029577 -0.025603 0.046992 -0.009508 -0.005792 -0.084591 0.022105 -0.014702 -0.048220 -0.104264 -0.089323 -0.036892 -0.085598 -0.102451 -0.006707 0.071089 -0.101541 -0.024563 0.042264 -0.002038 -0.058143 0.052340 0.077995 0.080020 -0.010187 0.111032 0.305167 0.239309 0.094254 -0.029149 -0.686248
0.072396 0.073047 0.074998 0.078249 0.082799 0.088646 0.095789 0.104224 0.113947 0.124954 0.137237 0.150788 0.165598 0.181653 0.198938 0.217435 0.237121 0.257971 0.279953 0.303033 0.327169 0.352315 0.378416 0.405412 0.433235 0.461808 0.491047 0.520856 0.551131 0.581759 0.612615 0.643563 0.674456 0.705136 0.735434 0.765168 0.794147 0.822167 0.849014 0.874464 0.898283 0.920230 0.940056 0.957505 0.972319 0.984235 0.992992 0.998329 0.999991 0.997730 0.991306 0.980497 0.965096 0.944915 0.919796 0.889605 0.854244 0.813651 0.767807 0.716738 0.660520 0.599283 0.533214 0.462560 0.387632 0.308807 0.226527 0.141305 0.053718 0.035589 0.125906 0.216462 0.306431 0.394937 0.481057 0.563838 0.642300 0.715451 0.782298 0.841865 0.893202 0.935407 0.967640 0.989142 0.999255 0.997437 0.983279 0.956527 0.917095 0.865078 0.800769 0.724662 0.637467 0.540108 0.433722 0.319659 0.199468 0.074886 0.052183 0.179692 0.305482 0.427315 0.542912 0.650000 0.746358 0.829865 0.898553 0.950662 0.984687 0.999432 0.994055 0.968113 0.921592 0.854940 0.769083 0.665430 0.545873 0.412765 0.268890 0.117417 0.038158 0.194088 0.346458 0.491282 0.624612 0.742645 0.841845 0.919056 0.971616 0.997464 0.995235 0.964338 0.905019 0.818395 0.706469 0.572111 0.419009 0.251593 0.074923 0.105446 0.283636 0.453625 0.609459 0.745464 0.856468 0.938012 0.986553 0.999638 0.976058 0.915943 0.820834 0.693677 0.538782 0.361704 0.169079 0.031604 0.232277 0.424610 0.600356 0.751722 0.871716 0.954513 0.995758 0.992833 0.945052 0.853783 0.722463 0.556529 0.363241 0.151397 0.069033 0.287349 0.492652 0.674374 0.822845 0.929844 0.989081 0.996617 0.951172 0.854301 0.710420 0.526673 0.312633 0.079854 0.158713 0.389435 0.598761 0.774037 0.904300 0.981007 0.998651 0.955219 0.852442 0.695828 0.494451 0.260490 0.008552 0.245203 0.484084 0.691964 0.854403 0.959691 0.999756 0.970857 0.873998 0.715021 0.504355 0.256413 0.011318 0.279478 0.528207 0.738626 0.894305 0.982609 0.995800 0.931805 0.794567 0.593923 0.345016 0.067230 0.217253 0.485193 0.714194 0.884613 0.981311 0.995087 0.923662 0.772088 0.552537 0.283449 0.011935 0.307495 0.576541 0.794220 0.939874 0.999089 0.965235 0.840327 0.635096 0.368199 0.064663 0.246395 0.534512 0.770871 0.931235 0.998536 0.964812 0.832294 0.613462 0.330028 0.010928 0.310560 0.600236 0.826643 0.964552 0.997897 0.921798 0.743410 0.481457 0.164424 0.172412 0.490819 0.753971 0.930746 0.999529 0.951017 0.789649 0.533435 0.212147 0.135991 0.468775 0.745109 0.930141 0.999788 0.944044 0.768613 0.494580 0.156092 0.203757 0.538303 0.803383 0.963235 0.995478 0.894454 0.672412 0.358263 0.005954 0.370563 0.684986 0.904776 0.998056 0.950327 0.766966 0.472928 0.109597 0.270855 0.612867 0.865620 0.990712 0.968187 0.799981 0.510135 0.141637 0.249744 0.603794 0.865120 0.991951 0.963025 0.781433 0.474683 0.090818 0.308885 0.659603 0.903499 0.999420 0.930094 0.705539 0.361984 0.043684 0.443144 0.768059 0.961884 0.989889 0.845688 0.552983 0.161997 0.258835 0.634723 0.897815 0.999620 0.920211 0.672494 0.300506 0.128087 0.534063 0.841293 0.991095 0.953752 0.734753 0.374465 0.058934 0.482108 0.812516 0.984615 0.963137 0.750699 0.388048 0.053382 0.485235 0.819852 0.988195 0.954350 0.723620 0.342234 0.111518 0.543085 0.861268 0.997684 0.921766 0.648067 0.233982 0.231875 0.648404
1.000000 1.000000 1.000000 1.000000 1.000000 1.000000 1.000000 1.000000 1.000000 1.000000 1.000000 1.000000 1.000000 1.000000 1.000000 1.000000 1.000000 1.000000 1.000000 1.000000 1.000000 1.000000 1.000000 1.000000 1.000000 1.000000 1.000000 1.000000 1.000000 1.000000 1.000000 1.000000 1.000000 1.000000 1.000000 1.000000 1.000000 1.000000 1.000000 1.000000 1.000000 1.000000 1.000000 1.000000 1.000000 1.000000 1.000000 1.000000 1.000000 1.000000 1.000000 1.000000 0.935489 0.935489 0.935489 0.935489 0.935489 0.935489 0.935489 0.935489 0.935489 0.935489 0.935489 0.935489 0.935489 0.935489 0.935489 0.935489 0.935489 0.935489 0.935489 0.935489 0.935489 0.935489 0.935489 0.935489 0.935489 0.935489 0.935489 0.935489 0.935489 0.935489 0.935489 0.935489 0.935489 0.922482 0.923976 0.926843 0.927863 0.927811 0.927370 0.927089 0.927344 0.928666 0.930504 0.946959 0.948755 0.949789 0.951012 0.949718 0.952258 0.950411 0.954551 0.965106 0.964158 0.964995 0.958642 0.959919 0.959255 0.958498 0.958869 0.958957 0.957339 0.955459 0.953887 0.954100 0.953803 0.955460 0.955854 0.955645 0.956148 0.956063 0.955877 0.952966 0.951206 0.952586 0.954303 0.953326 0.958939 0.958835 0.966956 0.967934 0.966771 0.966588 0.966788 0.966967 0.963381 0.960694 0.956587 0.945986 0.936966 0.933733 0.937080 0.940815 0.938403 0.933797 0.932885 0.930379 0.926406 0.925801 0.923176 0.923281 0.916258 0.912814 0.902373 0.901560 0.903496 0.904660 0.902531 0.891717 0.886449 0.887538 0.890377 0.884309 0.881351 0.897166 0.893700 0.896585 0.900439 0.903255 0.907407 0.895359 0.891098 0.887934 0.883804 0.882279 0.884229 0.886488 0.888536 0.885236 0.881043 0.875672 0.872481 0.879107 0.884863 0.889152 0.887733 0.888423 0.887874 0.872806 0.873125 0.861264 0.861980 0.868885 0.873547 0.870737 0.869297 0.868614 0.867696 0.870642 0.870457 0.867744 0.861489 0.857289 0.855679 0.854406 0.867924 0.865693 0.855046 0.847841 0.842085 0.849741 0.855805 0.849737 0.847535 0.828245 0.828140 0.826202 0.824235 0.825543 0.830464 0.828353 0.834259 0.833305 0.835989 0.836729 0.836602 0.831146 0.830982 0.832675 0.813931 0.823518 0.819879 0.800236 0.804846 0.791199 0.787445 0.788896 0.790269 0.758525 0.765441 0.724600 0.694815 0.712184 0.720915 0.704665 0.693057 0.691669 0.697598 0.692836 0.671687 0.650677 0.646231 0.651020 0.648710 0.656719 0.617272 0.615123 0.601646 0.574487 0.579987 0.578817 0.555083 0.563071 0.554862 0.551212 0.550071 0.555020 0.560441 0.564467 0.564566 0.534940 0.530363 0.533434 0.504391 0.502553 0.502108 0.501251 0.488225 0.488209 0.464132 0.467844 0.512788 0.476440 0.459395 0.461712 0.464060 0.473493 0.482384 0.480597 0.447352 0.481633 0.454439 0.458284 0.472200 0.457247 0.411759 0.417686 0.398741 0.411916 0.388307 0.365675 0.354787 0.352201 0.343772 0.353933 0.374674 0.359380 0.342857 0.335243 0.294706 0.327270 0.312980 0.295693 0.314909 0.328232 0.310599 0.282446 0.280536 0.269697 0.223972 0.202191 0.212229 0.208676 0.156935 0.108344 0.103259 0.098181 0.065846 0.038775 0.035305 0.001837 -0.002222 0.028298 0.030515 0.017426 0.024211 0.052241 0.052241 0.052241 0.052241 0.052241 0.052241 0.052241 0.052241 0.052241 0.052241 0.052241 0.052241 0.052241 0.052241 0.072731 0.072731 0.072731 0.072731 0.072731 0.072731 0.072731 0.072731 0.072731 0.072731 0.072731 0.072731
0.000000 0.000000 0.000000 0.000000 0.000000 0.000000 0.000000 0.000000 0.000000 0.000000 0.000000 0.000000 0.000000 0.000000 0.000000 0.000000 0.000000 0.000000 0.000000 0.000000 0.000000 0.000000 0.000000 0.000000 0.000000 7.000000 4.000000 0.000000 0.000000 0.000000 0.000000 0.000000 0.000000 0.000000 0.000000 0.000000 0.000000 0.000000 0.000000 0.000000 0.000000 0.000000 0.000000 0.000000 0.000000 0.000000 0.000000 0.000000 0.000000 0.000000 0.000000 0.000000 0.209657 0.209657 0.209657 0.209657 0.209657 0.209657 0.209657 0.209657 0.209657 0.209657 0.209657 0.209657 0.209657 0.209657 0.209657 0.209657 0.209657 0.209657 0.209657 0.209657 0.209657 0.209657 0.209657 0.209657 0.209657 0.209657 0.209657 0.209657 0.209657 0.209657 0.209657 0.209657 0.209657 0.244339 0.244339 0.244339 0.244339 0.244339 0.244339 0.244339 0.244339 0.244339 0.244339 0.244339 0.244339 0.244339 0.244339 0.244339 0.244339 0.244339 0.244339 0.244339 0.244339 0.244339 0.244339 0.244339 0.244339 0.244339 0.260378 0.260378 0.260378 0.260378 0.260378 0.260378 0.260378 0.260378 0.260378 0.260378 0.260378 0.260378 0.260378 0.260378 0.260378 0.260378 0.260378 0.260378 0.260378 0.260378 0.269680 0.269680 0.269680 0.269680 0.269680 0.269680 0.269680 0.269680 0.269680 0.269680 0.269680 0.269680 0.269680 0.269680 0.269680 0.269680 0.269680 0.269680 0.269680 0.269680 0.269680 0.269680 0.269680 0.269680 0.269680 0.269680 0.269680 0.269680 0.269680 0.269680 0.269680 0.269680 0.269680 0.280056 0.280056 0.280056 0.280056 0.280056 0.280056 0.280056 0.280056 0.280056 0.280056 0.280056 0.280056 0.280056 0.280056 0.280056 0.280056 0.280056 0.280056 0.280056 0.280056 0.280056 0.280056 0.280056 0.280056 0.280056 0.280056 0.280056 0.274721 0.274721 0.274721 0.274721 0.274721 0.274721 0.274721 0.274721 0.274721 0.274721 0.274721 0.274721 0.274721 0.285714 0.285714 0.285714 0.285714 0.285714 0.285714 0.285714 0.285714 0.285714 0.285714 0.285714 0.280056 0.280056 0.280056 0.280056 0.280056 0.280056 0.280056 0.280056 0.280056 0.280056 0.280056 0.274721 0.274721 0.274721 0.274721 0.274721 0.274721 0.274721 0.274721 0.274721 0.274721 0.274721 0.280056 0.280056 0.280056 0.280056 0.280056 0.280056 0.280056 0.280056 0.280056 0.280056 0.285714 0.285714 0.285714 0.285714 0.285714 0.285714 0.285714 0.285714 0.285714 0.269680 0.269680 0.269680 0.269680 0.269680 0.269680 0.269680 0.269680 0.269680 0.269680 0.274721 0.274721 0.274721 0.274721 0.274721 0.274721 0.274721 0.274721 0.274721 0.285714 0.285714 0.285714 0.285714 0.285714 0.285714 0.285714 0.285714 0.264906 0.264906 0.264906 0.264906 0.264906 0.264906 0.264906 0.264906 0.264906 0.274721 0.274721 0.274721 0.274721 0.274721 0.274721 0.274721 0.274721 0.269680 0.269680 0.269680 0.269680 0.269680 0.269680 0.269680 0.269680 0.269680 0.269680 0.269680 0.269680 0.269680 0.269680 0.269680 0.269680 0.280056 0.280056 0.280056 0.280056 0.280056 0.280056 0.280056 0.260378 0.260378 0.260378 0.260378 0.260378 0.260378 0.260378 0.260378 0.269680 0.269680 0.269680 0.269680 0.269680 0.269680 0.269680 0.264906 0.264906 0.264906 0.264906 0.264906 0.264906 0.264906 0.264906 0.264906 0.264906 0.264906 0.264906 0.264906 0.264906 0.260378 0.260378 0.260378 0.260378 0.260378 0.260378 0.260378 0.260378 0.260378 0.260378 0.260378 0.260378
