# Output from CTFFind version 4.1.9, run on 2019-11-02 17:49:15
# Input file: stack6_bm3d_averaged_1_0.5_0_2500_half.mrc ; Number of micrographs: 1
# Pixel size: 3.000 Angstroms ; acceleration voltage: 300.0 keV ; spherical aberration: 0.00 mm ; amplitude contrast: 0.07
# Box size: 512 pixels ; min. res.: 30.0 Angstroms ; max. res.: 5.0 Angstroms ; min. def.: 5000.0 um; max. def. 50000.0 um; num. frames averaged: 1
# 6 lines per micrograph: #1 - spatial frequency (1/Angstroms); #2 - 1D rotational average of spectrum (assuming no astigmatism); #3 - 1D rotational average of spectrum; #4 - CTF fit; #5 - cross-correlation between spectrum and CTF fit; #6 - 2sigma of expected cross correlation of noise
0.000000 0.000651 0.001302 0.001953 0.002604 0.003255 0.003906 0.004557 0.005208 0.005859 0.006510 0.007161 0.007812 0.008464 0.009115 0.009766 0.010417 0.011068 0.011719 0.012370 0.013021 0.013672 0.014323 0.014974 0.015625 0.016276 0.016927 0.017578 0.018229 0.018880 0.019531 0.020182 0.020833 0.021484 0.022135 0.022786 0.023438 0.024089 0.024740 0.025391 0.026042 0.026693 0.027344 0.027995 0.028646 0.029297 0.029948 0.030599 0.031250 0.031901 0.032552 0.033203 0.033854 0.034505 0.035156 0.035807 0.036458 0.037109 0.037760 0.038411 0.039062 0.039714 0.040365 0.041016 0.041667 0.042318 0.042969 0.043620 0.044271 0.044922 0.045573 0.046224 0.046875 0.047526 0.048177 0.048828 0.049479 0.050130 0.050781 0.051432 0.052083 0.052734 0.053385 0.054036 0.054688 0.055339 0.055990 0.056641 0.057292 0.057943 0.058594 0.059245 0.059896 0.060547 0.061198 0.061849 0.062500 0.063151 0.063802 0.064453 0.065104 0.065755 0.066406 0.067057 0.067708 0.068359 0.069010 0.069661 0.070312 0.070964 0.071615 0.072266 0.072917 0.073568 0.074219 0.074870 0.075521 0.076172 0.076823 0.077474 0.078125 0.078776 0.079427 0.080078 0.080729 0.081380 0.082031 0.082682 0.083333 0.083984 0.084635 0.085286 0.085938 0.086589 0.087240 0.087891 0.088542 0.089193 0.089844 0.090495 0.091146 0.091797 0.092448 0.093099 0.093750 0.094401 0.095052 0.095703 0.096354 0.097005 0.097656 0.098307 0.098958 0.099609 0.100260 0.100911 0.101562 0.102214 0.102865 0.103516 0.104167 0.104818 0.105469 0.106120 0.106771 0.107422 0.108073 0.108724 0.109375 0.110026 0.110677 0.111328 0.111979 0.112630 0.113281 0.113932 0.114583 0.115234 0.115885 0.116536 0.117188 0.117839 0.118490 0.119141 0.119792 0.120443 0.121094 0.121745 0.122396 0.123047 0.123698 0.124349 0.125000 0.125651 0.126302 0.126953 0.127604 0.128255 0.128906 0.129557 0.130208 0.130859 0.131510 0.132161 0.132812 0.133464 0.134115 0.134766 0.135417 0.136068 0.136719 0.137370 0.138021 0.138672 0.139323 0.139974 0.140625 0.141276 0.141927 0.142578 0.143229 0.143880 0.144531 0.145182 0.145833 0.146484 0.147135 0.147786 0.148438 0.149089 0.149740 0.150391 0.151042 0.151693 0.152344 0.152995 0.153646 0.154297 0.154948 0.155599 0.156250 0.156901 0.157552 0.158203 0.158854 0.159505 0.160156 0.160807 0.161458 0.162109 0.162760 0.163411 0.164062 0.164714 0.165365 0.166016 0.166667 0.167318 0.167969 0.168620 0.169271 0.169922 0.170573 0.171224 0.171875 0.172526 0.173177 0.173828 0.174479 0.175130 0.175781 0.176432 0.177083 0.177734 0.178385 0.179036 0.179688 0.180339 0.180990 0.181641 0.182292 0.182943 0.183594 0.184245 0.184896 0.185547 0.186198 0.186849 0.187500 0.188151 0.188802 0.189453 0.190104 0.190755 0.191406 0.192057 0.192708 0.193359 0.194010 0.194661 0.195312 0.195964 0.196615 0.197266 0.197917 0.198568 0.199219 0.199870 0.200521 0.201172 0.201823 0.202474 0.203125 0.203776 0.204427 0.205078 0.205729 0.206380 0.207031 0.207682 0.208333 0.208984 0.209635 0.210286 0.210938 0.211589 0.212240 0.212891 0.213542 0.214193 0.214844 0.215495 0.216146 0.216797 0.217448 0.218099 0.218750 0.219401 0.220052 0.220703 0.221354 0.222005 0.222656 0.223307 0.223958 0.224609 0.225260 0.225911 0.226562 0.227214 0.227865 0.228516 0.229167 0.229818 0.230469 0.231120 0.231771 0.232422 0.233073 0.233724 0.234375 0.235026 0.235677
       0.31401        0.31401        0.31401        0.31401        0.31401        0.31401        0.31401        0.31401        0.31401        0.31401        0.31401        0.31401        0.31401        0.31401        0.31401        0.31401        0.31401        0.31401        0.31401        0.31401        0.31401        0.31401        0.31401        0.31401        0.31401        0.31401        0.31401        0.31401        0.31401        0.31401        0.31401        0.31401        0.31401        0.31401        0.31401        0.31401        0.31401        0.31401        0.31401        0.31401        0.31401        0.31401        0.31401        0.31401        0.31401        0.31401        0.31401        0.31401        0.31401        0.31401        0.31401        0.63823        0.82372        0.41869        0.31433        0.19288       -0.10291        0.11384       -0.00109        0.03613        0.12026        0.33916        0.42835        0.41158        0.22763       -0.00801        0.04990        0.07417       -0.16237       -0.17527       -0.08743       -0.10490       -0.29019       -0.18493       -0.30061       -0.25366       -0.28181       -0.39762       -0.47473       -0.47702       -0.42045       -0.33617       -0.43782       -0.36645       -0.40563       -0.34666       -0.27138       -0.19609       -0.19069       -0.13293       -0.09410        0.03714        0.08690        0.25025        0.28252        0.37342        0.40342        0.51923        0.58950        0.60726        0.74422        0.70204        0.74232        0.65011        0.66824        0.70069        0.63621        0.61656        0.61064        0.43879        0.40269        0.36257        0.32577        0.22447        0.13794        0.06209        0.06193       -0.00094       -0.07727       -0.03168       -0.02959       -0.06678        0.06304        0.16750        0.25706        0.32380        0.34020        0.43556        0.54865        0.59249        0.54636        0.66900        0.56715        0.54654        0.60026        0.64544        0.53384        0.46041        0.41116        0.37664        0.25406        0.21929        0.13235        0.11756        0.05804        0.06425        0.11394        0.17166        0.14817        0.18084        0.21946        0.24291        0.33733        0.46097        0.49907        0.50028        0.52424        0.57856        0.57110        0.52664        0.42814        0.38749        0.36904        0.27194        0.25092        0.21992        0.20841        0.20910        0.18660        0.15995        0.12615        0.19235        0.25225        0.35171        0.38490        0.40696        0.46375        0.53899        0.48021        0.48446        0.42186        0.40218        0.38537        0.36575        0.29189        0.26233        0.20463        0.23600        0.22064        0.19406        0.21868        0.22624        0.24515        0.29937        0.40344        0.40437        0.37223        0.39286        0.45763        0.48633        0.42795        0.35684        0.32953        0.28587        0.26343        0.24599        0.21333        0.28687        0.29441        0.29577        0.31917        0.31358        0.35251        0.37228        0.37613        0.37782        0.35833        0.32142        0.33877        0.32088        0.30227        0.28227        0.27337        0.22050        0.27417        0.27531        0.30568        0.32476        0.34670        0.37749        0.34308        0.32276        0.35990        0.37323        0.27220        0.29895        0.30631        0.24474        0.21471        0.26002        0.27119        0.27844        0.30105        0.30724        0.33716        0.33726        0.36600        0.33135        0.32645        0.31206        0.29475        0.27601        0.25148        0.25632        0.25987        0.27456        0.30010        0.29530        0.30233        0.31560        0.33015        0.26668        0.30793        0.27100        0.26622        0.28104        0.26650        0.26245        0.26840        0.31417        0.28953        0.32187        0.28872        0.27766        0.30723        0.31142        0.33211        0.31826        0.29642        0.25863        0.27435        0.27913        0.26964        0.31250        0.31691        0.34187        0.32488        0.30542        0.26423        0.28343        0.21360        0.20889        0.23906        0.26328        0.25419        0.29278        0.30994        0.29423        0.34898        0.31387        0.26956        0.23857        0.23727        0.28546        0.30936        0.30692        0.26724        0.27775        0.25586        0.32626        0.28907        0.25259        0.26912        0.25558        0.29176        0.25270        0.29348        0.32916        0.28704        0.21879        0.22914        0.28345        0.32612        0.28319        0.27076        0.24797        0.27593        0.28945        0.37196        0.30094        0.28860        0.25774        0.26897        0.22833        0.17972        0.25664        0.23670        0.21165        0.19543        0.19678        0.23614        0.23332        0.24280        0.19261        0.24937        0.22879        0.20499        0.17771        0.17333        0.20160        0.23697        0.15421        0.07221        0.18763        0.20162        0.15680        0.25494        0.14584        0.22262        0.22482       -0.07230       -0.46538       -0.90950
2.859447 2.831326 2.803349 2.775517 2.747830 2.720287 2.692888 2.665635 2.638525 2.611561 2.584741 2.558065 2.531535 2.505148 2.478907 2.452810 2.426857 2.401049 2.375386 2.349867 2.324493 2.299263 2.274179 2.249238 2.224442 2.199791 2.175285 2.150923 2.126705 2.102632 2.078704 2.054920 2.031281 2.007787 1.984437 1.961231 1.938171 1.915255 1.892483 1.869856 1.847374 1.825036 1.802843 1.780794 1.758890 1.737131 1.715516 1.694045 1.672720 1.651539 1.630502 1.928431 2.288984 1.704601 1.747700 1.387458 0.948215 1.203693 1.035103 1.067595 1.035402 1.497709 1.526294 1.554752 1.284337 0.947937 0.827056 1.013344 0.722539 0.496652 0.584637 0.681383 0.422030 0.491541 0.324370 0.371339 0.247458 0.164841 -0.039034 -0.001640 0.023909 0.078481 0.038167 0.070283 -0.038872 0.025929 0.113469 0.227043 0.289147 0.208435 0.317744 0.548509 0.454399 0.728682 0.791081 0.884416 0.912900 1.120507 1.143877 1.176096 1.335699 1.241121 1.379514 1.184725 1.119909 1.304298 1.149748 1.057753 1.128945 0.893290 0.748359 0.684775 0.675651 0.459801 0.401094 0.258744 0.234108 0.087673 -0.010268 0.084993 0.025298 -0.063768 0.113741 0.252737 0.306897 0.469130 0.489383 0.563265 0.725421 0.822087 0.666733 0.958559 0.798690 0.672203 0.770312 0.809276 0.714381 0.640646 0.452763 0.501671 0.282133 0.199245 0.140422 0.004546 -0.021611 -0.100075 -0.013393 0.026170 0.096649 -0.054177 0.250084 0.097925 0.211874 0.380900 0.445005 0.533306 0.441506 0.587703 0.613375 0.520629 0.393990 0.335881 0.324726 0.153817 0.128648 0.022445 0.087616 0.037985 -0.001143 -0.023449 -0.125948 -0.012955 0.020691 0.112273 0.296427 0.200288 0.354285 0.372327 0.427150 0.435384 0.370778 0.323985 0.228598 0.304486 0.166073 0.153634 0.014429 0.044660 0.065362 -0.027079 -0.012235 0.014462 0.057545 0.073661 0.208171 0.309732 0.239599 0.209315 0.376619 0.408096 0.350362 0.241460 0.177595 0.154556 0.081761 0.075757 0.016410 0.019887 0.136336 0.048245 0.189339 0.095306 0.137837 0.231200 0.208772 0.222379 0.211847 0.194700 0.125274 0.163286 0.122725 0.097237 0.106689 -0.000131 0.030065 0.087391 0.048563 0.149166 0.122818 0.208533 0.205522 0.139707 0.125518 0.229957 0.121143 0.076506 0.087185 0.052361 -0.000907 -0.027845 0.038404 0.069177 0.026331 0.113173 0.107227 0.124792 0.125894 0.179559 0.115109 0.078638 0.096806 0.078913 0.014230 0.012574 0.027546 -0.006432 0.062478 0.098678 0.055590 0.064076 0.138157 0.088261 0.013654 0.112406 0.021378 0.032494 0.062207 0.019390 0.012212 0.058480 0.086504 0.036442 0.111503 0.060360 0.013999 0.122543 0.073398 0.093187 0.094960 0.029883 -0.001519 0.012994 0.055051 0.024159 0.059242 0.101485 0.109576 0.053454 0.129884 0.003267 0.030618 -0.085782 -0.012787 -0.048261 0.018315 0.017519 0.046003 0.066279 0.081452 0.119822 0.024337 0.002775 -0.059965 -0.076131 0.070011 0.048005 0.060943 -0.017126 0.000669 -0.035143 0.072633 0.038040 -0.047013 -0.005022 -0.059846 0.039732 -0.032532 0.042304 0.070729 -0.007359 -0.065952 -0.057666 0.108228 0.040630 0.013116 -0.004592 -0.054278 0.059100 0.056841 0.156244 0.046972 0.014602 0.019618 0.058949 -0.068669 -0.062897 0.041902 0.013733 -0.035413 -0.050693 -0.061611 0.071683 -0.065977 0.051283 -0.017834 0.092206 -0.031380 0.029080 -0.114109 -0.035267 -0.057556 0.079797 -0.053955 -0.146345 0.255036 0.297587 0.222529 0.435084 0.165282 0.292490 0.392484 -0.100049 -1.277901
0.072396 0.072834 0.074148 0.076337 0.079402 0.083341 0.088153 0.093838 0.100394 0.107818 0.116109 0.125263 0.135276 0.146145 0.157863 0.170425 0.183822 0.198046 0.213087 0.228932 0.245569 0.262981 0.281150 0.300057 0.319679 0.339992 0.360965 0.382570 0.404770 0.427529 0.450803 0.474549 0.498715 0.523248 0.548090 0.573178 0.598442 0.623813 0.649210 0.674552 0.699750 0.724712 0.749339 0.773527 0.797168 0.820149 0.842352 0.863652 0.883923 0.903034 0.920849 0.937231 0.952039 0.965130 0.976360 0.985584 0.992656 0.997435 0.999776 0.999543 0.996600 0.990818 0.982074 0.970254 0.955251 0.936972 0.915334 0.890269 0.861722 0.829658 0.794059 0.754927 0.712285 0.666181 0.616686 0.563898 0.507940 0.448964 0.387154 0.322720 0.255903 0.186977 0.116244 0.044039 0.029275 0.103305 0.177632 0.251807 0.325360 0.397798 0.468611 0.537271 0.603239 0.665970 0.724913 0.779521 0.829255 0.873586 0.912007 0.944035 0.969220 0.987149 0.997456 0.999826 0.994004 0.979800 0.957094 0.925847 0.886099 0.837981 0.781711 0.717607 0.646080 0.567639 0.482894 0.392546 0.297394 0.198324 0.096306 0.007616 0.112327 0.216660 0.319401 0.419306 0.515116 0.605571 0.689430 0.765488 0.832593 0.889672 0.935742 0.969936 0.991518 0.999902 0.994672 0.975593 0.942623 0.895932 0.835898 0.763123 0.678426 0.582845 0.477630 0.364231 0.244283 0.119588 0.007908 0.136145 0.262979 0.386217 0.503653 0.613114 0.712497 0.799811 0.873229 0.931122 0.972104 0.995073 0.999239 0.984162 0.949772 0.896386 0.824724 0.735904 0.631440 0.513227 0.383509 0.244851 0.100093 0.047703 0.195318 0.339439 0.476736 0.603938 0.717918 0.815770 0.894892 0.953064 0.988514 0.999987 0.986794 0.948852 0.886710 0.801561 0.695234 0.570168 0.429373 0.276363 0.115083 0.050188 0.214944 0.374575 0.524493 0.660272 0.777775 0.873300 0.943696 0.986485 0.999961 0.983268 0.936461 0.860532 0.757418 0.629964 0.481869 0.317592 0.142226 0.038635 0.219087 0.393090 0.554682 0.698179 0.818385 0.910801 0.971794 0.998766 0.990276 0.946137 0.867460 0.756654 0.617380 0.454452 0.273691 0.081729 0.114215 0.306610 0.487891 0.650765 0.788514 0.895283 0.966345 0.998333 0.989424 0.939456 0.849992 0.724303 0.567281 0.385267 0.185829 0.022542 0.230781 0.429642 0.610102 0.763787 0.883374 0.962951 0.998350 0.987381 0.929995 0.828350 0.686772 0.511594 0.310923 0.094270 0.127872 0.344526 0.544776 0.718324 0.856028 0.950413 0.996101 0.990154 0.932290 0.824974 0.673358 0.485074 0.269887 0.039217 0.194454 0.418240 0.619567 0.786892 0.910376 0.982513 0.998600 0.957096 0.859787 0.711774 0.521246 0.299075 0.058222 0.186983 0.421694 0.631443 0.803049 0.925461 0.990519 0.993531 0.933660 0.814072 0.641828 0.427525 0.184679 0.071077 0.323002 0.554315 0.749335 0.894563 0.979654 0.998195 0.948250 0.832592 0.658619 0.437948 0.185686 0.080564 0.341912 0.579513 0.775930 0.916453 0.990236 0.991191 0.918550 0.777038 0.576646 0.331992 0.061292 0.214941 0.475446 0.699850 0.870287 0.972853 0.998809 0.945377 0.816108 0.620715 0.374436 0.096894 0.189423 0.460960 0.695026 0.871725 0.975690 0.997476 0.934497 0.791386 0.579753 0.317319 0.026492 0.267491 0.538746 0.763029 0.919931 0.994792 0.980151 0.876561 0.692708 0.444782 0.155115 0.149755 0.441497 0.692599 0.879012 0.982486 0.992442 0.907141 0.734022 0.489167 0.195891 0.117408 0.419965 0.681647 0.875993
1.000000 1.000000 1.000000 1.000000 1.000000 1.000000 1.000000 1.000000 1.000000 1.000000 1.000000 1.000000 1.000000 1.000000 1.000000 1.000000 1.000000 1.000000 1.000000 1.000000 1.000000 1.000000 1.000000 1.000000 1.000000 1.000000 1.000000 1.000000 1.000000 1.000000 1.000000 1.000000 1.000000 1.000000 1.000000 1.000000 1.000000 1.000000 1.000000 1.000000 1.000000 1.000000 1.000000 1.000000 1.000000 1.000000 1.000000 1.000000 1.000000 1.000000 1.000000 1.000000 0.834445 0.834445 0.834445 0.834445 0.834445 0.834445 0.834445 0.811795 0.811795 0.811795 0.811795 0.811795 0.811795 0.811795 0.811795 0.811795 0.811795 0.811795 0.811795 0.811795 0.811795 0.811795 0.811795 0.811795 0.811795 0.811795 0.811795 0.811795 0.811795 0.811795 0.811795 0.811795 0.811795 0.811795 0.811795 0.811795 0.811795 0.811795 0.811795 0.811795 0.811795 0.811795 0.811795 0.811795 0.811795 0.811795 0.811795 0.811795 0.811795 0.811795 0.811795 0.950936 0.951609 0.943885 0.942747 0.940952 0.937806 0.933270 0.932810 0.934172 0.934380 0.935022 0.937235 0.938323 0.940088 0.941376 0.942293 0.943161 0.951229 0.954844 0.955252 0.954759 0.950057 0.956634 0.955811 0.955646 0.956467 0.956786 0.957511 0.957377 0.957199 0.956627 0.955459 0.956208 0.956061 0.955319 0.954260 0.952330 0.952330 0.951870 0.951863 0.952834 0.953718 0.954363 0.954880 0.954832 0.955027 0.955004 0.954900 0.949767 0.949802 0.943460 0.944202 0.945411 0.945110 0.944021 0.942617 0.942661 0.942511 0.942406 0.942185 0.942419 0.924211 0.923578 0.923612 0.923730 0.916193 0.905831 0.899334 0.893021 0.893927 0.897766 0.902525 0.902608 0.899517 0.898754 0.883941 0.887805 0.874506 0.871475 0.859828 0.870204 0.872441 0.873816 0.869420 0.868851 0.867649 0.865675 0.857362 0.861356 0.862089 0.858026 0.854588 0.852274 0.851124 0.852415 0.857237 0.854183 0.848814 0.846133 0.834787 0.825591 0.824352 0.827160 0.834858 0.846860 0.847659 0.847021 0.839443 0.835622 0.828535 0.822446 0.819552 0.821411 0.818609 0.822659 0.820913 0.827503 0.817671 0.813158 0.818184 0.826950 0.832393 0.835267 0.837756 0.835759 0.832880 0.815141 0.815772 0.811066 0.761954 0.764960 0.752319 0.752374 0.741536 0.739176 0.736189 0.736640 0.730271 0.720139 0.730940 0.727842 0.685940 0.694284 0.687384 0.676719 0.655090 0.658735 0.673354 0.681502 0.679590 0.685268 0.671884 0.670664 0.683414 0.682909 0.690792 0.686514 0.684509 0.676404 0.678857 0.667872 0.670127 0.662960 0.662030 0.662149 0.658113 0.645843 0.652972 0.649872 0.647000 0.637226 0.599940 0.565653 0.544626 0.538071 0.519516 0.493687 0.511326 0.522066 0.503797 0.494082 0.476086 0.435447 0.426992 0.425237 0.397202 0.382681 0.361259 0.327659 0.325035 0.332523 0.337648 0.326747 0.326056 0.312436 0.271226 0.266371 0.229684 0.245343 0.267869 0.252090 0.229469 0.229200 0.249905 0.244005 0.255956 0.254563 0.267749 0.223908 0.171701 0.188671 0.187196 0.200683 0.186650 0.157065 0.183868 0.168949 0.177555 0.180159 0.141538 0.109842 0.090178 0.060728 0.067331 0.092042 0.107674 0.102230 0.082933 -0.003691 0.027816 0.052028 0.052028 0.052028 0.052028 0.052028 0.052028 0.052028 0.052028 0.052028 0.052028 0.052028 -0.008434 -0.008434 -0.008434 -0.008434 -0.008434 -0.008434 -0.008434 -0.008434 -0.008434 -0.008434 -0.008434 -0.008434 -0.008434 -0.008434 -0.008434 -0.008434 -0.008434 -0.008434 -0.008434
0.000000 0.000000 0.000000 0.000000 0.000000 0.000000 0.000000 0.000000 0.000000 0.000000 0.000000 0.000000 0.000000 0.000000 0.000000 0.000000 0.000000 0.000000 0.000000 0.000000 0.000000 0.000000 0.000000 0.000000 0.000000 0.000000 0.000000 0.000000 0.000000 0.000000 0.000000 0.000000 0.000000 0.000000 0.000000 0.000000 0.000000 0.000000 0.000000 0.000000 0.000000 0.000000 0.000000 0.000000 0.000000 0.000000 0.000000 0.000000 0.000000 0.000000 0.000000 0.000000 0.173422 0.173422 0.173422 0.173422 0.173422 0.173422 0.173422 0.191565 0.191565 0.191565 0.191565 0.191565 0.191565 0.191565 0.191565 0.191565 0.191565 0.191565 0.191565 0.191565 0.191565 0.191565 0.191565 0.191565 0.191565 0.191565 0.191565 0.191565 0.191565 0.191565 0.191565 0.191565 0.191565 0.191565 0.191565 0.191565 0.191565 0.191565 0.191565 0.191565 0.191565 0.191565 0.191565 0.191565 0.191565 0.191565 0.191565 0.191565 0.191565 0.191565 0.191565 0.219529 0.219529 0.219529 0.219529 0.219529 0.219529 0.219529 0.219529 0.219529 0.219529 0.219529 0.219529 0.219529 0.219529 0.219529 0.219529 0.219529 0.219529 0.219529 0.219529 0.219529 0.219529 0.219529 0.219529 0.219529 0.219529 0.219529 0.219529 0.219529 0.219529 0.219529 0.237356 0.237356 0.237356 0.237356 0.237356 0.237356 0.237356 0.237356 0.237356 0.237356 0.237356 0.237356 0.237356 0.237356 0.237356 0.237356 0.237356 0.237356 0.237356 0.237356 0.237356 0.237356 0.237356 0.237356 0.244339 0.244339 0.244339 0.244339 0.244339 0.244339 0.244339 0.244339 0.244339 0.244339 0.244339 0.244339 0.244339 0.244339 0.244339 0.244339 0.244339 0.244339 0.244339 0.244339 0.244339 0.248069 0.248069 0.248069 0.248069 0.248069 0.248069 0.248069 0.248069 0.248069 0.248069 0.248069 0.248069 0.248069 0.248069 0.248069 0.248069 0.248069 0.248069 0.248069 0.248069 0.248069 0.248069 0.248069 0.248069 0.248069 0.248069 0.248069 0.248069 0.248069 0.248069 0.248069 0.248069 0.248069 0.248069 0.248069 0.248069 0.248069 0.256074 0.256074 0.256074 0.256074 0.256074 0.256074 0.256074 0.256074 0.256074 0.256074 0.256074 0.256074 0.256074 0.256074 0.256074 0.256074 0.256074 0.256074 0.256074 0.256074 0.256074 0.256074 0.256074 0.256074 0.256074 0.256074 0.256074 0.256074 0.256074 0.256074 0.256074 0.256074 0.256074 0.256074 0.256074 0.256074 0.256074 0.256074 0.256074 0.256074 0.256074 0.256074 0.256074 0.256074 0.256074 0.260378 0.260378 0.260378 0.260378 0.260378 0.260378 0.260378 0.260378 0.260378 0.260378 0.260378 0.260378 0.260378 0.256074 0.256074 0.256074 0.256074 0.256074 0.256074 0.256074 0.256074 0.256074 0.256074 0.256074 0.256074 0.256074 0.260378 0.260378 0.260378 0.260378 0.260378 0.260378 0.260378 0.260378 0.260378 0.260378 0.260378 0.260378 0.251976 0.251976 0.251976 0.251976 0.251976 0.251976 0.251976 0.251976 0.251976 0.251976 0.251976 0.251976 0.256074 0.256074 0.256074 0.256074 0.256074 0.256074 0.256074 0.256074 0.256074 0.256074 0.256074 0.251976 0.251976 0.251976 0.251976 0.251976 0.251976 0.251976 0.251976 0.251976 0.251976 0.251976 0.248069 0.248069 0.248069 0.248069 0.248069 0.248069 0.248069 0.248069 0.248069 0.248069 0.248069 0.256074 0.256074 0.256074 0.256074 0.256074 0.256074 0.256074 0.256074 0.256074 0.256074 0.256074 0.256074 0.256074 0.256074 0.256074 0.256074 0.256074 0.256074 0.256074
