# Output from CTFFind version 4.1.9, run on 2019-11-03 20:10:19
# Input file: stack1_bm3d_averaged_1_6.5_0_3000_half.mrc ; Number of micrographs: 1
# Pixel size: 3.000 Angstroms ; acceleration voltage: 300.0 keV ; spherical aberration: 0.00 mm ; amplitude contrast: 0.07
# Box size: 512 pixels ; min. res.: 30.0 Angstroms ; max. res.: 5.0 Angstroms ; min. def.: 5000.0 um; max. def. 50000.0 um; num. frames averaged: 1
# 6 lines per micrograph: #1 - spatial frequency (1/Angstroms); #2 - 1D rotational average of spectrum (assuming no astigmatism); #3 - 1D rotational average of spectrum; #4 - CTF fit; #5 - cross-correlation between spectrum and CTF fit; #6 - 2sigma of expected cross correlation of noise
0.000000 0.000651 0.001302 0.001953 0.002604 0.003255 0.003906 0.004557 0.005208 0.005859 0.006510 0.007161 0.007812 0.008464 0.009115 0.009766 0.010417 0.011068 0.011719 0.012370 0.013021 0.013672 0.014323 0.014974 0.015625 0.016276 0.016927 0.017578 0.018229 0.018880 0.019531 0.020182 0.020833 0.021484 0.022135 0.022786 0.023438 0.024089 0.024740 0.025391 0.026042 0.026693 0.027344 0.027995 0.028646 0.029297 0.029948 0.030599 0.031250 0.031901 0.032552 0.033203 0.033854 0.034505 0.035156 0.035807 0.036458 0.037109 0.037760 0.038411 0.039062 0.039714 0.040365 0.041016 0.041667 0.042318 0.042969 0.043620 0.044271 0.044922 0.045573 0.046224 0.046875 0.047526 0.048177 0.048828 0.049479 0.050130 0.050781 0.051432 0.052083 0.052734 0.053385 0.054036 0.054688 0.055339 0.055990 0.056641 0.057292 0.057943 0.058594 0.059245 0.059896 0.060547 0.061198 0.061849 0.062500 0.063151 0.063802 0.064453 0.065104 0.065755 0.066406 0.067057 0.067708 0.068359 0.069010 0.069661 0.070312 0.070964 0.071615 0.072266 0.072917 0.073568 0.074219 0.074870 0.075521 0.076172 0.076823 0.077474 0.078125 0.078776 0.079427 0.080078 0.080729 0.081380 0.082031 0.082682 0.083333 0.083984 0.084635 0.085286 0.085938 0.086589 0.087240 0.087891 0.088542 0.089193 0.089844 0.090495 0.091146 0.091797 0.092448 0.093099 0.093750 0.094401 0.095052 0.095703 0.096354 0.097005 0.097656 0.098307 0.098958 0.099609 0.100260 0.100911 0.101562 0.102214 0.102865 0.103516 0.104167 0.104818 0.105469 0.106120 0.106771 0.107422 0.108073 0.108724 0.109375 0.110026 0.110677 0.111328 0.111979 0.112630 0.113281 0.113932 0.114583 0.115234 0.115885 0.116536 0.117188 0.117839 0.118490 0.119141 0.119792 0.120443 0.121094 0.121745 0.122396 0.123047 0.123698 0.124349 0.125000 0.125651 0.126302 0.126953 0.127604 0.128255 0.128906 0.129557 0.130208 0.130859 0.131510 0.132161 0.132812 0.133464 0.134115 0.134766 0.135417 0.136068 0.136719 0.137370 0.138021 0.138672 0.139323 0.139974 0.140625 0.141276 0.141927 0.142578 0.143229 0.143880 0.144531 0.145182 0.145833 0.146484 0.147135 0.147786 0.148438 0.149089 0.149740 0.150391 0.151042 0.151693 0.152344 0.152995 0.153646 0.154297 0.154948 0.155599 0.156250 0.156901 0.157552 0.158203 0.158854 0.159505 0.160156 0.160807 0.161458 0.162109 0.162760 0.163411 0.164062 0.164714 0.165365 0.166016 0.166667 0.167318 0.167969 0.168620 0.169271 0.169922 0.170573 0.171224 0.171875 0.172526 0.173177 0.173828 0.174479 0.175130 0.175781 0.176432 0.177083 0.177734 0.178385 0.179036 0.179688 0.180339 0.180990 0.181641 0.182292 0.182943 0.183594 0.184245 0.184896 0.185547 0.186198 0.186849 0.187500 0.188151 0.188802 0.189453 0.190104 0.190755 0.191406 0.192057 0.192708 0.193359 0.194010 0.194661 0.195312 0.195964 0.196615 0.197266 0.197917 0.198568 0.199219 0.199870 0.200521 0.201172 0.201823 0.202474 0.203125 0.203776 0.204427 0.205078 0.205729 0.206380 0.207031 0.207682 0.208333 0.208984 0.209635 0.210286 0.210938 0.211589 0.212240 0.212891 0.213542 0.214193 0.214844 0.215495 0.216146 0.216797 0.217448 0.218099 0.218750 0.219401 0.220052 0.220703 0.221354 0.222005 0.222656 0.223307 0.223958 0.224609 0.225260 0.225911 0.226562 0.227214 0.227865 0.228516 0.229167 0.229818 0.230469 0.231120 0.231771 0.232422 0.233073 0.233724 0.234375 0.235026 0.235677
       0.34820        0.34820        0.34820        0.34820        0.34820        0.34820        0.34820        0.34820        0.34820        0.34820        0.34820        0.34820        0.34820        0.34820        0.34820        0.34820        0.34820        0.34820        0.34820        0.34820        0.34820        0.34820        0.34820        0.34820        0.34820        0.34820        0.34820        0.34820        0.34820        0.34820        0.34820        0.34820        0.34820        0.34820        0.34820        0.34820        0.34820        0.34820        0.34820        0.34820        0.34820        0.34820        0.34820        0.34820        0.34820        0.34820        0.34820        0.34820        0.34820        0.34820        0.34820        0.35994        0.51577        0.23784        0.08914       -0.00124       -0.27145       -0.11121       -0.16542       -0.22161        0.01335       -0.14126       -0.08338       -0.06085       -0.04311       -0.12726       -0.15830       -0.26406       -0.32845       -0.44304       -0.37811       -0.27667       -0.23589       -0.33464       -0.25191       -0.32237       -0.28735       -0.31393       -0.14661       -0.15440       -0.21835       -0.04747        0.01359       -0.03175        0.07917        0.03216        0.22295        0.24341        0.33932        0.35481        0.40032        0.43903        0.51182        0.57213        0.59352        0.52193        0.49300        0.51147        0.46579        0.53739        0.45779        0.41529        0.41526        0.34852        0.29760        0.30936        0.33749        0.23189        0.19734        0.12258        0.14686        0.15932        0.18476        0.15634        0.22520        0.27536        0.31319        0.29913        0.37654        0.46800        0.40173        0.48987        0.61006        0.57460        0.53053        0.55899        0.59877        0.42014        0.48695        0.38922        0.31991        0.29920        0.28008        0.25655        0.18715        0.18342        0.14699        0.20994        0.26158        0.29099        0.34889        0.30941        0.41472        0.44171        0.46351        0.47657        0.48940        0.52674        0.47068        0.44213        0.41361        0.34246        0.33067        0.30600        0.31808        0.25000        0.23931        0.26340        0.24754        0.27193        0.32728        0.43273        0.44786        0.42605        0.41705        0.48130        0.47373        0.46877        0.46128        0.38046        0.37058        0.40738        0.37028        0.30693        0.29517        0.32581        0.29139        0.30310        0.29807        0.31986        0.35706        0.38413        0.44595        0.46387        0.37229        0.45395        0.42984        0.36484        0.30466        0.35830        0.33119        0.31136        0.33024        0.27626        0.27268        0.32194        0.33868        0.44522        0.41496        0.37323        0.38463        0.42652        0.36165        0.35928        0.33710        0.33931        0.29377        0.29129        0.29669        0.36999        0.37650        0.34195        0.35019        0.40083        0.39781        0.45658        0.40569        0.35971        0.33960        0.34427        0.33062        0.31995        0.34336        0.39245        0.36299        0.36814        0.33240        0.44125        0.36932        0.34953        0.33529        0.37808        0.37710        0.32175        0.32153        0.29010        0.31278        0.33397        0.31328        0.33236        0.34309        0.36133        0.34936        0.33950        0.30318        0.29929        0.28719        0.33790        0.33137        0.35272        0.31049        0.34905        0.35358        0.33948        0.33669        0.30844        0.28489        0.32662        0.32663        0.32854        0.31913        0.31229        0.32467        0.32858        0.33623        0.34434        0.37514        0.34377        0.28356        0.32591        0.31983        0.33217        0.33477        0.27960        0.32430        0.29567        0.32248        0.31273        0.38341        0.33216        0.30662        0.27800        0.29568        0.37705        0.35608        0.32701        0.33421        0.31144        0.31764        0.33328        0.33060        0.28967        0.32185        0.26574        0.27276        0.29688        0.30389        0.30280        0.31924        0.23328        0.29491        0.34374        0.35989        0.35392        0.32470        0.31636        0.29918        0.31903        0.31518        0.25770        0.29856        0.28582        0.32482        0.33231        0.36515        0.35861        0.31478        0.31472        0.34312        0.32841        0.31926        0.33630        0.34139        0.27598        0.29487        0.33295        0.32646        0.24505        0.20005        0.22592        0.28501        0.30456        0.30426        0.26062        0.29692        0.28676        0.24327        0.26447        0.27470        0.22311        0.27268        0.28895        0.25545        0.20364        0.24286        0.32270        0.40201        0.28927        0.24950        0.18377        0.20370        0.29996        0.29919        0.38965        0.23081        0.20693        0.26899        0.34724        0.25113        0.10513       -0.08173       -0.54262       -0.76856
2.499777 2.474162 2.448683 2.423341 2.398135 2.373066 2.348133 2.323337 2.298677 2.274154 2.249767 2.225517 2.201403 2.177425 2.153584 2.129880 2.106312 2.082880 2.059585 2.036427 2.013405 1.990519 1.967770 1.945158 1.922681 1.900342 1.878139 1.856072 1.834142 1.812348 1.790691 1.769170 1.747786 1.726538 1.705426 1.684452 1.663613 1.642911 1.622346 1.601917 1.581624 1.561468 1.541449 1.521566 1.501819 1.482209 1.462736 1.443398 1.424198 1.405134 1.386206 1.300520 1.690091 1.384621 0.915640 0.648051 -0.103706 0.519532 0.089239 0.235109 0.571664 0.301981 0.258778 0.417143 0.351133 0.293910 0.125289 -0.029205 -0.219582 -0.425020 -0.411488 -0.293132 0.092749 -0.403344 -0.173110 -0.304474 -0.196531 -0.403540 -0.029289 -0.096964 -0.195696 0.044688 0.265583 0.048324 0.273898 0.178351 0.606266 0.481796 0.751972 0.745528 0.739529 0.993419 0.881518 1.202124 1.139634 1.063582 0.918835 0.983704 0.916452 0.884547 0.926134 0.732568 0.681611 0.610620 0.565784 0.420318 0.527261 0.401265 0.239406 0.123873 0.065704 0.120759 0.180208 0.108132 0.131785 0.322288 0.338729 0.360305 0.473028 0.538286 0.575125 0.428850 0.906197 0.879088 0.728130 0.719351 0.846792 0.578761 0.493439 0.540017 0.222584 0.270219 0.116796 0.210669 -0.015195 -0.016977 -0.098533 -0.095905 0.160708 0.051737 0.183631 0.238461 0.241630 0.404124 0.421610 0.420460 0.483915 0.518788 0.450522 0.363915 0.331465 0.214183 0.177189 0.109785 0.074028 0.049738 -0.053232 -0.030160 -0.010841 -0.041969 -0.008504 0.205587 0.396654 0.262551 0.298019 0.310586 0.499681 0.302168 0.370666 0.320417 0.185722 0.153483 0.341185 0.011903 0.055936 0.040828 0.083131 0.006497 0.105846 -0.014028 0.164781 -0.012391 0.256848 0.354303 0.258845 0.272059 0.263862 0.194827 0.060661 0.097424 0.122022 0.022263 0.018747 0.068475 -0.099761 -0.029043 0.027552 0.144051 0.335989 0.154775 0.120731 0.230444 0.170326 0.116097 0.082081 0.038113 0.063351 -0.067772 -0.019102 0.038385 0.129815 0.118216 0.036880 0.108433 0.168157 0.189719 0.328854 0.116730 0.089370 0.069603 0.031681 0.066800 0.024503 0.102603 0.181415 0.084979 0.099907 0.050172 0.289740 0.048451 0.055976 0.045679 0.123011 0.086218 -0.015330 0.016369 -0.062137 -0.011746 0.036711 0.005750 -0.002459 0.074621 0.029258 0.018272 -0.003702 -0.081935 -0.051086 -0.063276 -0.017818 0.021465 0.005668 -0.008605 0.022763 0.057204 -0.046410 0.032411 -0.068232 -0.065284 0.007840 -0.012677 0.017888 -0.000485 -0.029273 -0.010915 0.005775 0.044420 0.040357 0.140172 -0.043144 -0.059153 0.012342 0.001424 0.023466 0.021985 -0.083237 0.027056 -0.078186 0.023488 -0.004050 0.145624 -0.004140 -0.064623 -0.081515 -0.029753 0.127551 0.047101 -0.018703 0.022436 -0.019865 -0.021429 0.005442 -0.002124 -0.063845 0.013824 -0.133335 -0.096430 -0.049277 -0.016807 -0.060983 -0.083879 -0.282788 -0.015034 0.044001 0.015243 -0.007735 0.028278 -0.094741 -0.063787 -0.061328 -0.065155 -0.123621 -0.091432 -0.130339 -0.030487 0.017356 0.031043 0.012685 -0.038447 -0.014473 -0.036920 0.043208 -0.083613 0.023784 0.022579 -0.101237 -0.034695 0.021968 -0.029902 -0.156967 -0.262432 -0.136440 0.059758 0.021148 -0.051111 -0.076655 0.066406 0.010303 -0.201519 0.024848 -0.014598 -0.129298 0.040511 0.027476 -0.002755 -0.139666 0.012839 0.031382 0.331335 0.057068 0.063584 -0.196979 -0.046472 0.160476 0.101652 0.345012 0.324275 0.449823 0.532612 0.716388 0.361627 0.140414 -0.145676 -1.462443
0.072396 0.072905 0.074433 0.076979 0.080542 0.085122 0.090717 0.097325 0.104945 0.113574 0.123207 0.133841 0.145470 0.158087 0.171685 0.186254 0.201782 0.218256 0.235661 0.253978 0.273187 0.293265 0.314183 0.335913 0.358418 0.381661 0.405599 0.430184 0.455363 0.481079 0.507268 0.533860 0.560780 0.587946 0.615270 0.642657 0.670004 0.697204 0.724139 0.750688 0.776720 0.802098 0.826680 0.850315 0.872847 0.894115 0.913952 0.932186 0.948641 0.963140 0.975502 0.985546 0.993089 0.997951 0.999956 0.998930 0.994706 0.987124 0.976036 0.961302 0.942798 0.920415 0.894063 0.863672 0.829192 0.790602 0.747906 0.701136 0.650359 0.595673 0.537212 0.475147 0.409690 0.341089 0.269636 0.195663 0.119544 0.041695 0.037429 0.117333 0.197485 0.277317 0.356230 0.433598 0.508769 0.581074 0.649832 0.714353 0.773951 0.827946 0.875676 0.916506 0.949832 0.975098 0.991800 0.999499 0.997831 0.986512 0.965354 0.934270 0.893281 0.842528 0.782272 0.712903 0.634941 0.549039 0.455982 0.356683 0.252180 0.143631 0.032299 0.080453 0.193185 0.304388 0.412507 0.515966 0.613185 0.702611 0.782738 0.852144 0.909511 0.953657 0.983564 0.998407 0.997574 0.980695 0.947659 0.898630 0.834062 0.754704 0.661602 0.556098 0.439815 0.314642 0.182714 0.046375 0.091855 0.229323 0.363293 0.491003 0.609716 0.716787 0.809727 0.886262 0.944398 0.982479 0.999244 0.993876 0.966040 0.915917 0.844222 0.752215 0.641691 0.514963 0.374824 0.224497 0.067575 0.092065 0.250347 0.403101 0.546173 0.675539 0.787427 0.878433 0.945636 0.986703 0.999983 0.984589 0.940451 0.868356 0.769961 0.647775 0.505119 0.346051 0.175266 0.002028 0.180262 0.353678 0.516508 0.663178 0.788500 0.887871 0.957455 0.994348 0.996719 0.963920 0.896550 0.796486 0.666855 0.511972 0.337216 0.148859 0.046136 0.240360 0.426252 0.596372 0.743723 0.862047 0.946104 0.991934 0.997065 0.960669 0.883660 0.768713 0.620207 0.444096 0.247698 0.039410 0.171631 0.375939 0.564112 0.727262 0.857461 0.948138 0.994446 0.993553 0.944841 0.850015 0.713091 0.540270 0.339701 0.121121 0.104591 0.325939 0.531398 0.710012 0.852005 0.949334 0.996187 0.989362 0.928529 0.816337 0.658351 0.462834 0.240356 0.003256 0.235024 0.460682 0.660364 0.821973 0.935422 0.993309 0.991447 0.929208 0.809673 0.639544 0.428827 0.190295 0.061254 0.309880 0.539517 0.735010 0.883141 0.973571 0.999595 0.958710 0.852897 0.688606 0.476438 0.230518 0.032391 0.294017 0.535820 0.740324 0.892404 0.980455 0.997330 0.940990 0.814789 0.627365 0.392127 0.126363 0.149994 0.415820 0.650429 0.835189 0.955049 0.999827 0.965148 0.852943 0.671449 0.434704 0.161523 0.125929 0.403904 0.649038 0.840324 0.960962 0.999912 0.952975 0.823334 0.621452 0.364324 0.074129 0.223624 0.502322 0.736617 0.904775 0.990748 0.985803 0.889492 0.709900 0.463071 0.171680 0.136974 0.433499 0.689177 0.878809 0.983227 0.991348 0.901441 0.721520 0.468757 0.167950 0.150825 0.455186 0.713708 0.899225 0.991747 0.980717 0.866334 0.659771 0.382210 0.062799 0.264344 0.563746 0.802410 0.953532 0.999597 0.934523 0.764601 0.508038 0.193149 0.144678 0.466887 0.736151 0.920747 0.998366 0.958956 0.806148 0.557114 0.240788 0.105373 0.439770 0.721614 0.915981 0.998199 0.957140 0.796861 0.536417 0.207744 0.148126 0.486113 0.762790 0.942026 0.999803 0.927587 0.733756 0.442822 0.092500 0.271060 0.599320 0.847799
1.000000 1.000000 1.000000 1.000000 1.000000 1.000000 1.000000 1.000000 1.000000 1.000000 1.000000 1.000000 1.000000 1.000000 1.000000 1.000000 1.000000 1.000000 1.000000 1.000000 1.000000 1.000000 1.000000 1.000000 1.000000 1.000000 1.000000 1.000000 1.000000 1.000000 1.000000 1.000000 1.000000 1.000000 1.000000 1.000000 1.000000 1.000000 1.000000 1.000000 1.000000 1.000000 1.000000 1.000000 1.000000 1.000000 1.000000 1.000000 1.000000 1.000000 1.000000 1.000000 0.798289 0.798289 0.798289 0.784411 0.784411 0.784411 0.784411 0.784411 0.784411 0.784411 0.784411 0.784411 0.784411 0.784411 0.784411 0.784411 0.784411 0.784411 0.784411 0.784411 0.784411 0.784411 0.784411 0.784411 0.784411 0.784411 0.784411 0.784411 0.784411 0.784411 0.784411 0.784411 0.784411 0.784411 0.784411 0.784411 0.784411 0.784411 0.784411 0.784411 0.784411 0.784411 0.784411 0.784411 0.813145 0.822530 0.826276 0.829986 0.830984 0.827823 0.826375 0.825507 0.825343 0.826679 0.833782 0.858980 0.876695 0.880736 0.893112 0.896763 0.901059 0.902871 0.916104 0.915399 0.955636 0.954761 0.954854 0.956310 0.954630 0.950509 0.948449 0.948851 0.956410 0.951821 0.948270 0.946567 0.944899 0.941326 0.942454 0.942136 0.941244 0.941776 0.935916 0.936561 0.936684 0.934387 0.931915 0.920789 0.914777 0.914614 0.914638 0.892745 0.884596 0.872378 0.858771 0.879157 0.871694 0.854404 0.853117 0.830747 0.833358 0.833376 0.827121 0.823404 0.820943 0.815939 0.806118 0.806763 0.805564 0.815471 0.818803 0.820985 0.812836 0.794923 0.771813 0.756346 0.755612 0.756553 0.746908 0.751935 0.753530 0.751794 0.749328 0.747737 0.741139 0.750992 0.752452 0.748579 0.741639 0.739399 0.724295 0.721594 0.712875 0.691879 0.676151 0.669784 0.670758 0.654381 0.644035 0.644793 0.649907 0.656306 0.666059 0.660128 0.655780 0.635285 0.612398 0.571682 0.586556 0.590695 0.569347 0.558217 0.544432 0.582700 0.605768 0.627836 0.646299 0.651876 0.656645 0.634435 0.598643 0.600939 0.602278 0.603035 0.602805 0.591748 0.595754 0.612941 0.585934 0.550109 0.546156 0.541872 0.550524 0.567303 0.535036 0.531788 0.492748 0.475795 0.453730 0.438139 0.395752 0.387762 0.388297 0.396123 0.370474 0.365409 0.370718 0.395938 0.384868 0.385623 0.374937 0.367168 0.338432 0.329689 0.331196 0.320653 0.309190 0.256128 0.221429 0.206369 0.224888 0.227722 0.270862 0.288555 0.280506 0.251061 0.255284 0.289635 0.310997 0.322989 0.332225 0.309928 0.293475 0.196027 0.229323 0.223066 0.235831 0.250625 0.274785 0.222989 0.208098 0.175184 0.132565 0.104200 0.080467 0.054766 0.090727 0.059454 0.028839 0.063208 0.043085 0.061540 0.041879 0.037936 0.045370 0.046265 0.003274 0.003260 0.011585 0.018841 0.000657 -0.030694 0.006515 0.009300 0.010236 0.024047 -0.010936 0.007467 -0.020587 -0.053936 -0.059904 -0.073624 -0.093827 -0.068010 -0.058947 -0.036826 -0.046114 -0.055864 -0.048124 -0.062214 -0.140099 -0.200276 -0.192151 -0.194962 -0.180194 -0.212107 -0.196373 -0.217655 -0.220599 -0.226965 -0.140809 -0.157396 -0.167935 -0.169750 -0.190436 -0.214816 -0.164075 -0.143110 -0.140396 -0.171905 -0.164115 -0.164115 -0.164115 -0.164115 -0.164115 -0.164115 -0.154840 -0.154840 -0.154840 -0.154840 -0.154840 -0.154840 -0.154840 -0.154840 -0.154840 -0.090293 -0.090293 -0.090293 -0.090293 -0.090293 -0.090293 -0.090293 -0.090293 -0.090293 -0.090293 -0.090293 -0.090293 -0.090293 -0.090293 -0.090293 -0.090293
0.000000 0.000000 0.000000 0.000000 0.000000 0.000000 0.000000 0.000000 0.000000 0.000000 0.000000 0.000000 0.000000 0.000000 0.000000 0.000000 0.000000 0.000000 0.000000 0.000000 0.000000 0.000000 0.000000 0.000000 0.000000 0.000000 0.000000 0.000000 0.000000 0.000000 0.000000 0.000000 0.000000 0.000000 0.000000 0.000000 0.000000 0.000000 0.000000 0.000000 0.000000 0.000000 0.000000 0.000000 0.000000 0.000000 0.000000 0.000000 0.000000 0.000000 0.000000 0.000000 0.180334 0.180334 0.180334 0.199007 0.199007 0.199007 0.199007 0.199007 0.199007 0.199007 0.199007 0.199007 0.199007 0.199007 0.199007 0.199007 0.199007 0.199007 0.199007 0.199007 0.199007 0.199007 0.199007 0.199007 0.199007 0.199007 0.199007 0.199007 0.199007 0.199007 0.199007 0.199007 0.199007 0.199007 0.199007 0.199007 0.199007 0.199007 0.199007 0.199007 0.199007 0.199007 0.199007 0.199007 0.230940 0.230940 0.230940 0.230940 0.230940 0.230940 0.230940 0.230940 0.230940 0.230940 0.230940 0.230940 0.230940 0.230940 0.230940 0.230940 0.230940 0.230940 0.230940 0.230940 0.230940 0.230940 0.230940 0.230940 0.230940 0.230940 0.230940 0.230940 0.244339 0.244339 0.244339 0.244339 0.244339 0.244339 0.244339 0.244339 0.244339 0.244339 0.244339 0.244339 0.244339 0.244339 0.244339 0.244339 0.244339 0.244339 0.244339 0.244339 0.244339 0.244339 0.244339 0.256074 0.256074 0.256074 0.256074 0.256074 0.256074 0.256074 0.256074 0.256074 0.256074 0.256074 0.256074 0.256074 0.256074 0.256074 0.256074 0.256074 0.256074 0.256074 0.256074 0.256074 0.256074 0.256074 0.256074 0.256074 0.256074 0.256074 0.256074 0.256074 0.256074 0.256074 0.256074 0.256074 0.256074 0.256074 0.256074 0.256074 0.264906 0.264906 0.264906 0.264906 0.264906 0.264906 0.264906 0.264906 0.264906 0.264906 0.264906 0.264906 0.264906 0.264906 0.264906 0.264906 0.264906 0.264906 0.264906 0.264906 0.264906 0.264906 0.264906 0.264906 0.264906 0.264906 0.264906 0.264906 0.264906 0.264906 0.264906 0.264906 0.264906 0.264906 0.264906 0.264906 0.264906 0.264906 0.264906 0.264906 0.264906 0.264906 0.264906 0.264906 0.264906 0.264906 0.264906 0.264906 0.264906 0.264906 0.264906 0.264906 0.264906 0.264906 0.264906 0.264906 0.264906 0.264906 0.269680 0.269680 0.269680 0.269680 0.269680 0.269680 0.269680 0.269680 0.269680 0.269680 0.269680 0.269680 0.264906 0.264906 0.264906 0.264906 0.264906 0.264906 0.264906 0.264906 0.264906 0.264906 0.264906 0.264906 0.260378 0.260378 0.260378 0.260378 0.260378 0.260378 0.260378 0.260378 0.260378 0.260378 0.260378 0.260378 0.274721 0.274721 0.274721 0.274721 0.274721 0.274721 0.274721 0.274721 0.274721 0.274721 0.256074 0.256074 0.256074 0.256074 0.256074 0.256074 0.256074 0.256074 0.256074 0.256074 0.256074 0.264906 0.264906 0.264906 0.264906 0.264906 0.264906 0.264906 0.264906 0.264906 0.264906 0.260378 0.260378 0.260378 0.260378 0.260378 0.260378 0.260378 0.260378 0.260378 0.260378 0.264906 0.264906 0.264906 0.264906 0.264906 0.264906 0.264906 0.264906 0.264906 0.251976 0.251976 0.251976 0.251976 0.251976 0.251976 0.251976 0.251976 0.251976 0.251976 0.256074 0.256074 0.256074 0.256074 0.256074 0.256074 0.256074 0.256074 0.256074 0.269680 0.269680 0.269680 0.269680 0.269680 0.269680 0.269680 0.269680 0.269680 0.269680 0.269680 0.269680 0.269680 0.269680 0.269680 0.269680
