# Output from CTFFind version 4.1.9, run on 2019-11-03 20:04:54
# Input file: stack1_bm3d_averaged_1_10_0_750_half.mrc ; Number of micrographs: 1
# Pixel size: 3.000 Angstroms ; acceleration voltage: 300.0 keV ; spherical aberration: 0.00 mm ; amplitude contrast: 0.07
# Box size: 512 pixels ; min. res.: 30.0 Angstroms ; max. res.: 5.0 Angstroms ; min. def.: 5000.0 um; max. def. 50000.0 um; num. frames averaged: 1
# 6 lines per micrograph: #1 - spatial frequency (1/Angstroms); #2 - 1D rotational average of spectrum (assuming no astigmatism); #3 - 1D rotational average of spectrum; #4 - CTF fit; #5 - cross-correlation between spectrum and CTF fit; #6 - 2sigma of expected cross correlation of noise
0.000000 0.000651 0.001302 0.001953 0.002604 0.003255 0.003906 0.004557 0.005208 0.005859 0.006510 0.007161 0.007812 0.008464 0.009115 0.009766 0.010417 0.011068 0.011719 0.012370 0.013021 0.013672 0.014323 0.014974 0.015625 0.016276 0.016927 0.017578 0.018229 0.018880 0.019531 0.020182 0.020833 0.021484 0.022135 0.022786 0.023438 0.024089 0.024740 0.025391 0.026042 0.026693 0.027344 0.027995 0.028646 0.029297 0.029948 0.030599 0.031250 0.031901 0.032552 0.033203 0.033854 0.034505 0.035156 0.035807 0.036458 0.037109 0.037760 0.038411 0.039062 0.039714 0.040365 0.041016 0.041667 0.042318 0.042969 0.043620 0.044271 0.044922 0.045573 0.046224 0.046875 0.047526 0.048177 0.048828 0.049479 0.050130 0.050781 0.051432 0.052083 0.052734 0.053385 0.054036 0.054688 0.055339 0.055990 0.056641 0.057292 0.057943 0.058594 0.059245 0.059896 0.060547 0.061198 0.061849 0.062500 0.063151 0.063802 0.064453 0.065104 0.065755 0.066406 0.067057 0.067708 0.068359 0.069010 0.069661 0.070312 0.070964 0.071615 0.072266 0.072917 0.073568 0.074219 0.074870 0.075521 0.076172 0.076823 0.077474 0.078125 0.078776 0.079427 0.080078 0.080729 0.081380 0.082031 0.082682 0.083333 0.083984 0.084635 0.085286 0.085938 0.086589 0.087240 0.087891 0.088542 0.089193 0.089844 0.090495 0.091146 0.091797 0.092448 0.093099 0.093750 0.094401 0.095052 0.095703 0.096354 0.097005 0.097656 0.098307 0.098958 0.099609 0.100260 0.100911 0.101562 0.102214 0.102865 0.103516 0.104167 0.104818 0.105469 0.106120 0.106771 0.107422 0.108073 0.108724 0.109375 0.110026 0.110677 0.111328 0.111979 0.112630 0.113281 0.113932 0.114583 0.115234 0.115885 0.116536 0.117188 0.117839 0.118490 0.119141 0.119792 0.120443 0.121094 0.121745 0.122396 0.123047 0.123698 0.124349 0.125000 0.125651 0.126302 0.126953 0.127604 0.128255 0.128906 0.129557 0.130208 0.130859 0.131510 0.132161 0.132812 0.133464 0.134115 0.134766 0.135417 0.136068 0.136719 0.137370 0.138021 0.138672 0.139323 0.139974 0.140625 0.141276 0.141927 0.142578 0.143229 0.143880 0.144531 0.145182 0.145833 0.146484 0.147135 0.147786 0.148438 0.149089 0.149740 0.150391 0.151042 0.151693 0.152344 0.152995 0.153646 0.154297 0.154948 0.155599 0.156250 0.156901 0.157552 0.158203 0.158854 0.159505 0.160156 0.160807 0.161458 0.162109 0.162760 0.163411 0.164062 0.164714 0.165365 0.166016 0.166667 0.167318 0.167969 0.168620 0.169271 0.169922 0.170573 0.171224 0.171875 0.172526 0.173177 0.173828 0.174479 0.175130 0.175781 0.176432 0.177083 0.177734 0.178385 0.179036 0.179688 0.180339 0.180990 0.181641 0.182292 0.182943 0.183594 0.184245 0.184896 0.185547 0.186198 0.186849 0.187500 0.188151 0.188802 0.189453 0.190104 0.190755 0.191406 0.192057 0.192708 0.193359 0.194010 0.194661 0.195312 0.195964 0.196615 0.197266 0.197917 0.198568 0.199219 0.199870 0.200521 0.201172 0.201823 0.202474 0.203125 0.203776 0.204427 0.205078 0.205729 0.206380 0.207031 0.207682 0.208333 0.208984 0.209635 0.210286 0.210938 0.211589 0.212240 0.212891 0.213542 0.214193 0.214844 0.215495 0.216146 0.216797 0.217448 0.218099 0.218750 0.219401 0.220052 0.220703 0.221354 0.222005 0.222656 0.223307 0.223958 0.224609 0.225260 0.225911 0.226562 0.227214 0.227865 0.228516 0.229167 0.229818 0.230469 0.231120 0.231771 0.232422 0.233073 0.233724 0.234375 0.235026 0.235677
       0.35065        0.35065        0.35065        0.35065        0.35065        0.35065        0.35065        0.35065        0.35065        0.35065        0.35065        0.35065        0.35065        0.35065        0.35065        0.35065        0.35065        0.35065        0.35065        0.35065        0.35065        0.35065        0.35065        0.35065        0.35065        0.35065        0.35065        0.35065        0.35065        0.35065        0.35065        0.35065        0.35065        0.35065        0.35065        0.35065        0.35065        0.35065        0.35065        0.35065        0.35065        0.35065        0.35065        0.35065        0.35065        0.35065        0.35065        0.35065        0.35065        0.35065        0.35065        0.31584        0.41920        0.21681        0.06996        0.01566       -0.24206       -0.10663       -0.11709       -0.20250        0.01213       -0.12842       -0.00970       -0.04539       -0.02925       -0.09492       -0.15365       -0.20724       -0.23410       -0.33639       -0.26843       -0.18133       -0.17726       -0.27551       -0.19245       -0.22866       -0.19904       -0.22492       -0.08574       -0.10945       -0.14482        0.00194        0.07421        0.01292        0.06832        0.07599        0.28190        0.26566        0.34703        0.36760        0.36724        0.40151        0.47799        0.52020        0.51794        0.49185        0.50068        0.52131        0.49057        0.49526        0.41687        0.41898        0.41140        0.37347        0.31521        0.32604        0.32369        0.21356        0.21267        0.16094        0.18340        0.17414        0.16720        0.17421        0.27186        0.34617        0.33556        0.28407        0.41751        0.48571        0.40299        0.49682        0.57673        0.51129        0.50459        0.58495        0.59142        0.43407        0.48611        0.42540        0.35966        0.32904        0.28959        0.26823        0.20883        0.21240        0.19869        0.22727        0.25595        0.28351        0.34633        0.32778        0.40960        0.40865        0.45629        0.51202        0.46082        0.47693        0.42823        0.43746        0.41045        0.35305        0.31350        0.32275        0.32102        0.25807        0.25944        0.26329        0.27142        0.28581        0.32414        0.43057        0.48635        0.43079        0.46576        0.46508        0.42092        0.45928        0.44798        0.41621        0.36845        0.37741        0.35525        0.32817        0.31112        0.29910        0.28240        0.30265        0.32131        0.34244        0.40452        0.37941        0.38319        0.39433        0.37101        0.42689        0.40616        0.36312        0.33554        0.34402        0.32180        0.29437        0.32575        0.33780        0.34460        0.34622        0.32808        0.41156        0.40239        0.41015        0.42884        0.45526        0.40103        0.37453        0.35275        0.34861        0.29845        0.28680        0.33349        0.39788        0.40057        0.35693        0.36688        0.40704        0.39582        0.45836        0.37305        0.39466        0.34973        0.31656        0.30913        0.30943        0.34954        0.35613        0.37497        0.37882        0.33304        0.42483        0.34075        0.34863        0.35958        0.40131        0.37494        0.30305        0.32284        0.27967        0.34528        0.32954        0.34364        0.34886        0.32574        0.36243        0.32888        0.35864        0.35089        0.31915        0.29301        0.31619        0.36142        0.31066        0.30492        0.33342        0.32434        0.33614        0.33709        0.31276        0.30415        0.28465        0.32419        0.33523        0.34537        0.29182        0.31090        0.34600        0.32623        0.30691        0.38833        0.35110        0.30102        0.32674        0.33967        0.32962        0.34325        0.30617        0.33678        0.27692        0.32747        0.38892        0.36448        0.30225        0.33770        0.33184        0.32944        0.34427        0.33958        0.30594        0.28550        0.29610        0.29976        0.36248        0.37279        0.32350        0.36095        0.31723        0.29210        0.28147        0.33006        0.37055        0.30939        0.27560        0.31821        0.35615        0.28420        0.31201        0.31804        0.28843        0.31692        0.33148        0.30534        0.34029        0.31817        0.31801        0.33761        0.35373        0.26492        0.31014        0.37961        0.32245        0.24458        0.29997        0.29509        0.31748        0.27712        0.21746        0.24041        0.32809        0.39792        0.33401        0.27498        0.21307        0.29109        0.29609        0.27212        0.32914        0.31310        0.27573        0.27200        0.26741        0.25948        0.34824        0.23796        0.31495        0.28485        0.27132        0.27244        0.34414        0.22725        0.27766        0.18518        0.30971        0.22981        0.27403        0.22962        0.31272        0.24060        0.28405        0.33964        0.33011        0.21242       -0.13925       -0.21013       -0.58304       -0.63652
2.799320 2.771371 2.743569 2.715916 2.688410 2.661053 2.633843 2.606782 2.579868 2.553103 2.526485 2.500016 2.473694 2.447521 2.421495 2.395618 2.369888 2.344307 2.318874 2.293588 2.268451 2.243461 2.218620 2.193926 2.169381 2.144983 2.120734 2.096632 2.072679 2.048873 2.025216 2.001706 1.978345 1.955131 1.932066 1.909148 1.886379 1.863757 1.841284 1.818958 1.796781 1.774751 1.752870 1.731136 1.709550 1.688113 1.666823 1.645682 1.624688 1.603843 1.583145 1.409197 1.776217 1.381838 0.855065 0.676328 -0.275892 0.436733 0.027967 0.148303 0.535478 0.180557 0.361908 0.348768 0.306048 0.284109 -0.052163 -0.108623 -0.242370 -0.482663 -0.460516 -0.242816 0.037345 -0.520521 -0.242009 -0.389207 -0.122778 -0.485305 -0.053589 -0.190225 -0.205247 0.039354 0.365812 0.096644 0.189387 0.175975 0.855074 0.602868 0.853866 0.995748 0.764248 1.081027 0.984798 1.383969 1.229420 1.076740 1.213552 1.232554 1.176346 1.021584 1.032561 0.890091 0.832987 0.742536 0.783418 0.491838 0.633736 0.429660 0.231943 0.226817 0.122124 0.152053 0.157577 0.069057 0.264702 0.564495 0.466346 0.458960 0.599337 0.768209 0.749237 0.548582 1.126416 0.953473 0.878890 0.969195 1.076141 0.824277 0.570788 0.808573 0.350257 0.460677 0.196586 0.234152 0.053868 0.016618 -0.034134 0.012297 0.161179 0.032893 0.209209 0.420454 0.304413 0.484137 0.487448 0.627243 0.682166 0.586986 0.525049 0.407490 0.454150 0.354684 0.191933 0.180572 0.143959 0.106589 0.086459 -0.075851 -0.024781 0.095423 0.018446 0.304513 0.544605 0.530910 0.370780 0.562118 0.518479 0.433714 0.513332 0.477902 0.320028 0.288561 0.351646 0.102989 0.162797 0.035964 0.166697 0.021287 0.194284 0.104161 0.345934 0.177975 0.276206 0.329365 0.202507 0.465423 0.217237 0.266034 0.163001 0.144105 0.115021 0.067662 0.030763 0.100939 0.167862 0.091580 0.104054 0.155492 0.372033 0.224967 0.329548 0.483877 0.204376 0.350804 0.090718 0.153996 0.100321 -0.079311 0.016546 0.105250 0.328960 0.187134 0.106365 0.233189 0.197435 0.377272 0.307233 0.205174 0.259022 0.031307 0.010900 0.032112 0.072761 0.123747 0.208141 0.184322 0.119650 0.084039 0.291991 0.022699 0.153375 0.151554 0.257343 0.075912 0.044521 -0.023360 -0.030573 0.126931 0.057794 0.128184 0.044489 0.078995 0.095660 0.006105 0.120944 0.080993 -0.077618 -0.016646 -0.037278 0.163279 -0.092631 0.000441 0.040713 -0.035631 0.025581 0.036282 -0.060016 -0.062048 -0.115169 0.039326 0.026371 0.076144 -0.106927 -0.038359 0.035708 0.013183 -0.108576 0.137989 0.002059 -0.104289 -0.047506 0.080003 0.002735 -0.065275 -0.083944 0.069708 -0.241397 0.058584 0.152999 0.037378 -0.050462 0.040190 -0.043630 0.035561 0.055560 0.027079 -0.039502 -0.198967 -0.011408 -0.066959 0.113087 0.060535 -0.011964 0.134470 -0.057395 -0.084263 -0.096267 0.005684 0.079840 -0.042199 -0.130929 0.074112 0.125045 -0.000997 -0.022575 0.030213 -0.047118 0.009505 0.112743 0.043359 0.093425 0.141308 0.095481 0.197612 0.155242 -0.030935 0.102273 0.226759 0.078102 -0.142055 0.167258 -0.067222 0.178097 -0.089527 -0.163693 -0.140080 0.231768 0.291320 0.072964 -0.248154 -0.309839 -0.041012 -0.209448 -0.164243 0.111296 0.044929 -0.135651 -0.039988 -0.198566 -0.062022 0.219328 -0.210370 0.212275 0.117069 0.177715 0.102966 0.394294 0.128557 0.528020 0.229351 0.521509 0.497281 0.445464 0.456635 0.803233 0.554401 0.722084 0.928362 0.690835 1.013044 -0.858047 -0.515635 -1.607728
0.072396 0.072904 0.074427 0.076966 0.080518 0.085085 0.090664 0.097253 0.104851 0.113455 0.123060 0.133664 0.145259 0.157840 0.171399 0.185926 0.201411 0.217839 0.235195 0.253462 0.272618 0.292641 0.313504 0.335176 0.357623 0.380807 0.404685 0.429210 0.454331 0.479988 0.506120 0.532657 0.559525 0.586642 0.613921 0.641267 0.668580 0.695750 0.722664 0.749199 0.775227 0.800611 0.825209 0.848872 0.871446 0.892770 0.912677 0.930998 0.947558 0.962179 0.974682 0.984886 0.992611 0.997677 0.999906 0.999127 0.995172 0.987881 0.977106 0.962707 0.944559 0.922553 0.896596 0.866616 0.832564 0.794414 0.752167 0.705855 0.655540 0.601315 0.543311 0.481695 0.416672 0.348488 0.277427 0.203815 0.128022 0.050456 0.028435 0.108161 0.188196 0.267980 0.346920 0.424393 0.499756 0.572344 0.641478 0.706474 0.766647 0.821318 0.869828 0.911537 0.945842 0.972181 0.990045 0.998988 0.998635 0.988694 0.968963 0.939340 0.899832 0.850560 0.791766 0.723819 0.647219 0.562596 0.470709 0.372452 0.268837 0.160999 0.050182 0.062275 0.174948 0.286343 0.394920 0.499112 0.597342 0.688059 0.769755 0.840997 0.900451 0.946917 0.979351 0.996894 0.998899 0.984952 0.954895 0.908840 0.847185 0.770622 0.680138 0.577014 0.462812 0.339368 0.208759 0.073283 0.064582 0.202216 0.336909 0.465909 0.586484 0.695975 0.791868 0.871849 0.933870 0.976209 0.997522 0.996900 0.973903 0.928601 0.861589 0.774006 0.667523 0.544330 0.407109 0.258978 0.103438 0.055707 0.214435 0.368606 0.514070 0.646780 0.762912 0.858980 0.931952 0.979359 0.999387 0.990964 0.953819 0.888527 0.796526 0.680110 0.542390 0.387233 0.219165 0.043258 0.135021 0.309968 0.475825 0.626974 0.758131 0.864543 0.942173 0.987871 0.999521 0.976155 0.918033 0.826682 0.704884 0.556624 0.386980 0.201976 0.008375 0.186542 0.375259 0.550305 0.704559 0.831549 0.925744 0.982812 0.999847 0.975539 0.910289 0.806247 0.667289 0.498899 0.307984 0.102620 0.108277 0.315324 0.509089 0.680520 0.821386 0.924689 0.985042 0.998977 0.965177 0.884613 0.760570 0.598558 0.406106 0.192454 0.031879 0.255583 0.467122 0.655342 0.810059 0.922648 0.986541 0.997660 0.954709 0.859335 0.716128 0.532449 0.318102 0.084840 0.154241 0.385437 0.595204 0.770979 0.901945 0.979737 0.999021 0.957903 0.858151 0.705190 0.507866 0.277992 0.029676 0.221505 0.459486 0.668724 0.835250 0.947619 0.997759 0.981590 0.899421 0.756051 0.560555 0.325778 0.067542 0.196380 0.447477 0.667792 0.841229 0.954770 0.999502 0.971384 0.871671 0.706965 0.488851 0.233166 0.041115 0.313241 0.562249 0.768579 0.915661 0.991288 0.988700 0.907266 0.752684 0.536686 0.276225 0.007799 0.292152 0.553179 0.768753 0.920212 0.994020 0.983055 0.887392 0.714459 0.478569 0.199826 0.097527 0.387169 0.643038 0.841674 0.964438 0.999335 0.942274 0.797639 0.578068 0.303472 0.000710 0.305794 0.582542 0.803977 0.948057 0.999954 0.953678 0.812869 0.590654 0.308544 0.005567 0.320077 0.602854 0.824523 0.961568 0.998934 0.931778 0.766212 0.518890 0.215458 0.112015 0.428359 0.699089 0.894177 0.991467 0.979309 0.858071 0.640359 0.349846 0.018832 0.315287 0.614198 0.843087 0.974761 0.992985 0.894627 0.690295 0.403350 0.067384 0.277624 0.590031 0.831548 0.972024 0.993310 0.891757 0.678961 0.380616 0.033553 0.318705 0.631358 0.864049 0.986161 0.980963 0.848078 0.603847 0.279495 0.082704 0.434863 0.729773
1.000000 1.000000 1.000000 1.000000 1.000000 1.000000 1.000000 1.000000 1.000000 1.000000 1.000000 1.000000 1.000000 1.000000 1.000000 1.000000 1.000000 1.000000 1.000000 1.000000 1.000000 1.000000 1.000000 1.000000 1.000000 1.000000 1.000000 1.000000 1.000000 1.000000 1.000000 1.000000 1.000000 1.000000 1.000000 1.000000 1.000000 1.000000 1.000000 1.000000 1.000000 1.000000 1.000000 1.000000 1.000000 1.000000 1.000000 1.000000 1.000000 1.000000 1.000000 1.000000 0.792072 0.792072 0.792072 0.752277 0.752277 0.752277 0.752277 0.752277 0.752277 0.752277 0.752277 0.752277 0.752277 0.752277 0.752277 0.752277 0.752277 0.752277 0.752277 0.752277 0.752277 0.752277 0.752277 0.752277 0.752277 0.752277 0.752277 0.752277 0.752277 0.752277 0.752277 0.752277 0.752277 0.752277 0.752277 0.752277 0.752277 0.752277 0.752277 0.752277 0.752277 0.752277 0.752277 0.752277 0.802638 0.811614 0.816344 0.824723 0.826596 0.825012 0.822598 0.821434 0.821873 0.822579 0.829959 0.851556 0.862914 0.865653 0.877613 0.881455 0.884761 0.883713 0.906791 0.905699 0.954667 0.952889 0.952299 0.953203 0.960276 0.961254 0.960250 0.958610 0.963734 0.964514 0.962927 0.960413 0.959618 0.957447 0.956897 0.954088 0.954136 0.954972 0.953991 0.954535 0.954963 0.954619 0.952334 0.950087 0.947750 0.947029 0.950110 0.936808 0.933795 0.924282 0.920541 0.929500 0.924880 0.921772 0.920465 0.921946 0.911100 0.880064 0.880033 0.858916 0.850831 0.836526 0.829217 0.828837 0.833834 0.843160 0.847333 0.849612 0.842202 0.829944 0.813534 0.822802 0.806826 0.791930 0.796589 0.784581 0.781464 0.782596 0.769940 0.765288 0.753859 0.748652 0.746536 0.756430 0.760530 0.761602 0.753519 0.753006 0.739987 0.729892 0.708358 0.708383 0.716911 0.711623 0.713372 0.708894 0.710070 0.717234 0.714322 0.705892 0.692993 0.685057 0.670769 0.645040 0.656226 0.630713 0.626491 0.629373 0.602418 0.630627 0.629311 0.671890 0.685696 0.687682 0.683761 0.678324 0.659082 0.673169 0.671958 0.664900 0.666765 0.669174 0.666446 0.663674 0.655366 0.556499 0.549432 0.547893 0.549132 0.536683 0.552410 0.553775 0.541850 0.526975 0.508467 0.470286 0.410917 0.346879 0.352595 0.349291 0.329642 0.321756 0.306797 0.339694 0.344558 0.348072 0.304097 0.270653 0.265964 0.239095 0.228095 0.194004 0.207900 0.236738 0.231022 0.202199 0.168626 0.159910 0.135548 0.141713 0.141983 0.109884 0.139286 0.102545 0.090555 0.064182 0.082299 0.069897 0.021270 -0.075239 -0.037751 -0.040084 -0.003114 -0.007493 -0.024682 0.014746 -0.008379 -0.039823 -0.042003 -0.063608 -0.101417 -0.043587 -0.043450 -0.064804 -0.043641 -0.056759 -0.041606 -0.049825 -0.067357 -0.076966 -0.089861 -0.064486 -0.051014 0.009171 0.007955 0.006063 -0.037476 -0.034370 -0.029154 -0.067343 -0.041798 0.012698 0.028307 0.023099 0.017959 0.034094 0.056198 0.053105 0.067397 0.053036 0.051305 0.031205 0.052595 0.040058 0.017080 0.023269 0.039654 0.045028 0.066060 0.054353 0.059432 0.078208 0.049290 0.064468 0.072747 0.057407 0.069217 0.065466 0.113060 0.074197 0.047408 0.043768 0.047753 0.030969 0.061536 0.118779 0.139467 0.114012 0.110930 0.110930 0.110930 0.110930 0.114062 0.114062 0.114062 0.114062 0.114062 0.114062 0.114062 0.114062 0.114062 0.088137 0.088137 0.088137 0.088137 0.088137 0.088137 0.088137 0.088137 0.088137 0.088137 0.088137 0.088137 0.088137 0.088137 0.088137 0.088137
0.000000 0.000000 0.000000 0.000000 0.000000 0.000000 0.000000 0.000000 0.000000 0.000000 0.000000 0.000000 0.000000 0.000000 0.000000 0.000000 0.000000 0.000000 2.000000 0.000000 0.000000 0.000000 0.000000 0.000000 0.000000 0.000000 0.000000 0.000000 0.000000 0.000000 0.000000 0.000000 0.000000 0.000000 0.000000 0.000000 0.000000 0.000000 0.000000 0.000000 0.000000 0.000000 0.000000 0.000000 0.000000 0.000000 0.000000 0.000000 0.000000 0.000000 0.000000 0.000000 0.180334 0.180334 0.180334 0.199007 0.199007 0.199007 0.199007 0.199007 0.199007 0.199007 0.199007 0.199007 0.199007 0.199007 0.199007 0.199007 0.199007 0.199007 0.199007 0.199007 0.199007 0.199007 0.199007 0.199007 0.199007 0.199007 0.199007 0.199007 0.199007 0.199007 0.199007 0.199007 0.199007 0.199007 0.199007 0.199007 0.199007 0.199007 0.199007 0.199007 0.199007 0.199007 0.199007 0.199007 0.230940 0.230940 0.230940 0.230940 0.230940 0.230940 0.230940 0.230940 0.230940 0.230940 0.230940 0.230940 0.230940 0.230940 0.230940 0.230940 0.230940 0.230940 0.230940 0.230940 0.230940 0.230940 0.230940 0.230940 0.230940 0.230940 0.230940 0.230940 0.244339 0.244339 0.244339 0.244339 0.244339 0.244339 0.244339 0.244339 0.244339 0.244339 0.244339 0.244339 0.244339 0.244339 0.244339 0.244339 0.244339 0.244339 0.244339 0.244339 0.244339 0.244339 0.244339 0.251976 0.251976 0.251976 0.251976 0.251976 0.251976 0.251976 0.251976 0.251976 0.251976 0.251976 0.251976 0.251976 0.251976 0.251976 0.251976 0.251976 0.251976 0.251976 0.251976 0.264906 0.264906 0.264906 0.264906 0.264906 0.264906 0.264906 0.264906 0.264906 0.264906 0.264906 0.264906 0.264906 0.264906 0.264906 0.264906 0.264906 0.264906 0.264906 0.264906 0.264906 0.264906 0.264906 0.264906 0.264906 0.264906 0.264906 0.264906 0.264906 0.264906 0.264906 0.264906 0.264906 0.264906 0.264906 0.264906 0.264906 0.264906 0.264906 0.264906 0.264906 0.264906 0.264906 0.264906 0.264906 0.264906 0.264906 0.264906 0.264906 0.264906 0.264906 0.264906 0.264906 0.264906 0.264906 0.264906 0.264906 0.264906 0.264906 0.264906 0.264906 0.264906 0.264906 0.264906 0.264906 0.264906 0.264906 0.264906 0.264906 0.264906 0.264906 0.264906 0.264906 0.264906 0.264906 0.260378 0.260378 0.260378 0.260378 0.260378 0.260378 0.260378 0.260378 0.260378 0.260378 0.260378 0.260378 0.260378 0.264906 0.264906 0.264906 0.264906 0.264906 0.264906 0.264906 0.264906 0.264906 0.264906 0.264906 0.264906 0.269680 0.269680 0.269680 0.269680 0.269680 0.269680 0.269680 0.269680 0.269680 0.269680 0.269680 0.264906 0.264906 0.264906 0.264906 0.264906 0.264906 0.264906 0.264906 0.264906 0.264906 0.264906 0.269680 0.269680 0.269680 0.269680 0.269680 0.269680 0.269680 0.269680 0.269680 0.269680 0.251976 0.251976 0.251976 0.251976 0.251976 0.251976 0.251976 0.251976 0.251976 0.251976 0.251976 0.269680 0.269680 0.269680 0.269680 0.269680 0.269680 0.269680 0.269680 0.269680 0.256074 0.256074 0.256074 0.256074 0.256074 0.256074 0.256074 0.256074 0.256074 0.256074 0.260378 0.260378 0.260378 0.260378 0.260378 0.260378 0.260378 0.260378 0.260378 0.256074 0.256074 0.256074 0.256074 0.256074 0.256074 0.256074 0.256074 0.256074 0.251976 0.251976 0.251976 0.251976 0.251976 0.251976 0.251976 0.251976 0.251976 0.251976 0.251976 0.251976 0.251976 0.251976 0.251976 0.251976
