# Output from CTFFind version 4.1.9, run on 2019-11-02 17:49:54
# Input file: stack1_bm3d_averaged_1_1.0_0_3000_half.mrc ; Number of micrographs: 1
# Pixel size: 3.000 Angstroms ; acceleration voltage: 300.0 keV ; spherical aberration: 0.00 mm ; amplitude contrast: 0.07
# Box size: 512 pixels ; min. res.: 30.0 Angstroms ; max. res.: 5.0 Angstroms ; min. def.: 5000.0 um; max. def. 50000.0 um; num. frames averaged: 1
# 6 lines per micrograph: #1 - spatial frequency (1/Angstroms); #2 - 1D rotational average of spectrum (assuming no astigmatism); #3 - 1D rotational average of spectrum; #4 - CTF fit; #5 - cross-correlation between spectrum and CTF fit; #6 - 2sigma of expected cross correlation of noise
0.000000 0.000651 0.001302 0.001953 0.002604 0.003255 0.003906 0.004557 0.005208 0.005859 0.006510 0.007161 0.007812 0.008464 0.009115 0.009766 0.010417 0.011068 0.011719 0.012370 0.013021 0.013672 0.014323 0.014974 0.015625 0.016276 0.016927 0.017578 0.018229 0.018880 0.019531 0.020182 0.020833 0.021484 0.022135 0.022786 0.023438 0.024089 0.024740 0.025391 0.026042 0.026693 0.027344 0.027995 0.028646 0.029297 0.029948 0.030599 0.031250 0.031901 0.032552 0.033203 0.033854 0.034505 0.035156 0.035807 0.036458 0.037109 0.037760 0.038411 0.039062 0.039714 0.040365 0.041016 0.041667 0.042318 0.042969 0.043620 0.044271 0.044922 0.045573 0.046224 0.046875 0.047526 0.048177 0.048828 0.049479 0.050130 0.050781 0.051432 0.052083 0.052734 0.053385 0.054036 0.054688 0.055339 0.055990 0.056641 0.057292 0.057943 0.058594 0.059245 0.059896 0.060547 0.061198 0.061849 0.062500 0.063151 0.063802 0.064453 0.065104 0.065755 0.066406 0.067057 0.067708 0.068359 0.069010 0.069661 0.070312 0.070964 0.071615 0.072266 0.072917 0.073568 0.074219 0.074870 0.075521 0.076172 0.076823 0.077474 0.078125 0.078776 0.079427 0.080078 0.080729 0.081380 0.082031 0.082682 0.083333 0.083984 0.084635 0.085286 0.085938 0.086589 0.087240 0.087891 0.088542 0.089193 0.089844 0.090495 0.091146 0.091797 0.092448 0.093099 0.093750 0.094401 0.095052 0.095703 0.096354 0.097005 0.097656 0.098307 0.098958 0.099609 0.100260 0.100911 0.101562 0.102214 0.102865 0.103516 0.104167 0.104818 0.105469 0.106120 0.106771 0.107422 0.108073 0.108724 0.109375 0.110026 0.110677 0.111328 0.111979 0.112630 0.113281 0.113932 0.114583 0.115234 0.115885 0.116536 0.117188 0.117839 0.118490 0.119141 0.119792 0.120443 0.121094 0.121745 0.122396 0.123047 0.123698 0.124349 0.125000 0.125651 0.126302 0.126953 0.127604 0.128255 0.128906 0.129557 0.130208 0.130859 0.131510 0.132161 0.132812 0.133464 0.134115 0.134766 0.135417 0.136068 0.136719 0.137370 0.138021 0.138672 0.139323 0.139974 0.140625 0.141276 0.141927 0.142578 0.143229 0.143880 0.144531 0.145182 0.145833 0.146484 0.147135 0.147786 0.148438 0.149089 0.149740 0.150391 0.151042 0.151693 0.152344 0.152995 0.153646 0.154297 0.154948 0.155599 0.156250 0.156901 0.157552 0.158203 0.158854 0.159505 0.160156 0.160807 0.161458 0.162109 0.162760 0.163411 0.164062 0.164714 0.165365 0.166016 0.166667 0.167318 0.167969 0.168620 0.169271 0.169922 0.170573 0.171224 0.171875 0.172526 0.173177 0.173828 0.174479 0.175130 0.175781 0.176432 0.177083 0.177734 0.178385 0.179036 0.179688 0.180339 0.180990 0.181641 0.182292 0.182943 0.183594 0.184245 0.184896 0.185547 0.186198 0.186849 0.187500 0.188151 0.188802 0.189453 0.190104 0.190755 0.191406 0.192057 0.192708 0.193359 0.194010 0.194661 0.195312 0.195964 0.196615 0.197266 0.197917 0.198568 0.199219 0.199870 0.200521 0.201172 0.201823 0.202474 0.203125 0.203776 0.204427 0.205078 0.205729 0.206380 0.207031 0.207682 0.208333 0.208984 0.209635 0.210286 0.210938 0.211589 0.212240 0.212891 0.213542 0.214193 0.214844 0.215495 0.216146 0.216797 0.217448 0.218099 0.218750 0.219401 0.220052 0.220703 0.221354 0.222005 0.222656 0.223307 0.223958 0.224609 0.225260 0.225911 0.226562 0.227214 0.227865 0.228516 0.229167 0.229818 0.230469 0.231120 0.231771 0.232422 0.233073 0.233724 0.234375 0.235026 0.235677
       0.33505        0.33505        0.33505        0.33505        0.33505        0.33505        0.33505        0.33505        0.33505        0.33505        0.33505        0.33505        0.33505        0.33505        0.33505        0.33505        0.33505        0.33505        0.33505        0.33505        0.33505        0.33505        0.33505        0.33505        0.33505        0.33505        0.33505        0.33505        0.33505        0.33505        0.33505        0.33505        0.33505        0.33505        0.33505        0.33505        0.33505        0.33505        0.33505        0.33505        0.33505        0.33505        0.33505        0.33505        0.33505        0.33505        0.33505        0.33505        0.33505        0.33505        0.33505        0.50310        0.71846        0.42932        0.19157       -0.08026       -0.26341       -0.06905       -0.13095       -0.05377        0.00001       -0.14501       -0.09101       -0.04579        0.00220       -0.14920       -0.21741       -0.34349       -0.46193       -0.55946       -0.51826       -0.44864       -0.37154       -0.54667       -0.44605       -0.62011       -0.50052       -0.47334       -0.39025       -0.38052       -0.33891       -0.24692       -0.15930       -0.13548        0.03409       -0.01001        0.11991        0.17236        0.30589        0.40995        0.46558        0.49518        0.54112        0.55090        0.69676        0.64751        0.68017        0.59121        0.55724        0.65620        0.52853        0.43076        0.38745        0.32327        0.22921        0.26770        0.25412        0.10798        0.08826        0.00234       -0.00472        0.03533       -0.00181        0.07716        0.09552        0.23235        0.28230        0.30867        0.38480        0.56068        0.53968        0.58069        0.67204        0.69796        0.63184        0.63639        0.63443        0.55188        0.57698        0.39396        0.34807        0.26904        0.18892        0.07355        0.14726        0.12174        0.09254        0.10976        0.21198        0.21224        0.31751        0.35929        0.41508        0.49578        0.58532        0.54598        0.55827        0.61045        0.54608        0.46702        0.47945        0.32566        0.25425        0.25668        0.24491        0.14610        0.14794        0.15592        0.22497        0.25356        0.33002        0.36470        0.39270        0.46996        0.45028        0.47973        0.45431        0.47071        0.44533        0.40862        0.38157        0.35713        0.31275        0.28664        0.20519        0.20260        0.22598        0.27103        0.26813        0.35051        0.37770        0.35915        0.41350        0.46223        0.45270        0.42669        0.43770        0.36523        0.33940        0.28660        0.26659        0.28947        0.27110        0.29746        0.30294        0.35100        0.33976        0.40451        0.40591        0.42874        0.41271        0.43224        0.40696        0.36728        0.28517        0.29571        0.31051        0.28000        0.26110        0.33603        0.37443        0.34292        0.35648        0.36163        0.35493        0.40729        0.40154        0.35968        0.34319        0.31359        0.31313        0.31671        0.31407        0.30059        0.28910        0.33916        0.35861        0.37857        0.33552        0.32928        0.33692        0.34523        0.30780        0.28281        0.30827        0.31965        0.33581        0.32435        0.33656        0.35791        0.33452        0.31819        0.33291        0.30505        0.26572        0.25196        0.26601        0.30633        0.32561        0.35189        0.30244        0.31708        0.34015        0.29673        0.32140        0.29390        0.28518        0.29484        0.30274        0.31081        0.34567        0.32276        0.32744        0.33309        0.31765        0.33596        0.31987        0.32388        0.31310        0.28289        0.29787        0.31640        0.29415        0.33145        0.33905        0.33513        0.31586        0.34024        0.31937        0.27446        0.25403        0.27441        0.33249        0.36258        0.35185        0.31931        0.29708        0.29801        0.31710        0.24957        0.29625        0.30192        0.32516        0.29714        0.31971        0.28436        0.33618        0.34628        0.34607        0.33394        0.30109        0.31514        0.39495        0.32960        0.31722        0.31062        0.29774        0.28697        0.29794        0.27195        0.31162        0.23947        0.28209        0.29907        0.31622        0.29547        0.28357        0.30093        0.24285        0.23478        0.26540        0.31535        0.30843        0.29721        0.28675        0.33546        0.25609        0.21602        0.31615        0.27077        0.25993        0.27769        0.39214        0.29523        0.28686        0.25514        0.24957        0.25866        0.23064        0.23226        0.16196        0.24571        0.23427        0.25336        0.31964        0.28794        0.34446        0.28496        0.27469        0.25581        0.22908        0.23665        0.28393        0.22305        0.11969        0.14082        0.23901        0.23529        0.34267        0.31669        0.04414       -0.42685       -0.92342
2.706450 2.677903 2.649509 2.621268 2.593179 2.565244 2.537462 2.509833 2.482357 2.455034 2.427864 2.400847 2.373983 2.347271 2.320713 2.294308 2.268056 2.241957 2.216010 2.190217 2.164577 2.139090 2.113756 2.088574 2.063546 2.038671 2.013948 1.989379 1.964963 1.940699 1.916589 1.892632 1.868827 1.845176 1.821678 1.798332 1.775140 1.752100 1.729214 1.706480 1.683900 1.661473 1.639198 1.617077 1.595108 1.573292 1.551630 1.530120 1.508764 1.487560 1.466510 1.535902 1.835664 1.521451 1.201443 0.944679 0.543374 0.915270 0.638599 0.877111 0.932870 0.594984 0.713356 0.790231 0.829700 0.633667 0.544542 0.350328 0.104165 0.079281 0.042538 0.079666 0.301889 -0.033056 0.084424 -0.135423 -0.011135 -0.017828 0.080162 0.069053 0.100374 0.180094 0.285838 0.254176 0.485690 0.401246 0.550987 0.532381 0.774662 0.791871 0.884553 0.923135 0.943695 0.950513 1.121436 0.945307 1.149838 0.953351 0.854557 1.023480 0.851562 0.765876 0.623520 0.600359 0.457422 0.423359 0.515162 0.266585 0.205711 0.161940 0.012193 0.206714 -0.003471 0.124369 0.178591 0.257327 0.332281 0.354205 0.431908 0.540282 0.670177 0.542430 0.753662 0.850874 0.642561 0.702455 0.669265 0.592083 0.545698 0.459445 0.300818 0.218372 0.121933 -0.042693 -0.016121 0.058941 -0.096234 -0.057621 0.050405 0.054748 0.114551 0.217818 0.241670 0.311199 0.435146 0.450852 0.447033 0.480115 0.458229 0.339416 0.331889 0.241477 0.058016 0.061113 0.014341 -0.039758 -0.097537 -0.094757 -0.010197 -0.044393 0.075406 0.121517 0.118529 0.266317 0.232853 0.248705 0.287267 0.251254 0.238204 0.218414 0.165940 0.115279 0.105578 0.024414 0.005516 -0.116587 -0.048236 0.005004 -0.003164 0.025537 0.095740 0.083039 0.136725 0.193686 0.261884 0.183576 0.177968 0.103186 0.132411 0.030004 -0.035835 0.021508 -0.026235 0.009548 -0.009560 0.036231 0.081941 0.047857 0.163467 0.092004 0.170863 0.061791 0.146234 0.096223 -0.007071 -0.062606 -0.012003 -0.033733 -0.063161 -0.067674 0.063288 0.058021 -0.006366 0.048393 0.062884 0.069066 0.140615 0.063923 0.059358 0.055574 -0.023976 0.022626 -0.005468 0.008070 -0.002245 -0.004151 0.042394 0.056165 0.069037 0.026538 0.041102 0.021531 0.053745 -0.011410 -0.022145 0.020521 0.013726 0.053421 0.040628 0.046332 0.052181 0.050145 0.021019 0.035073 -0.001674 -0.049737 -0.036537 -0.026295 0.021677 0.038165 0.099273 -0.007312 0.058358 0.060229 -0.009734 0.067809 0.016492 0.008931 0.038118 0.055900 0.036749 0.092925 0.046286 0.067388 0.080117 0.069604 0.065711 0.070976 0.089219 0.035761 -0.009700 0.057297 0.044945 0.043908 0.078379 0.087047 0.012089 0.055908 0.080907 0.007324 0.000092 -0.061229 -0.018033 0.112080 0.085646 0.059082 0.044619 -0.021839 0.056832 0.027149 -0.066911 0.054642 0.027542 0.061987 0.037219 0.014198 0.001619 0.055646 0.046763 0.016225 0.052973 -0.038511 0.067380 0.111895 -0.001509 -0.001881 -0.007524 0.001814 -0.033796 -0.032833 -0.047788 -0.017792 -0.094751 -0.021121 -0.037265 0.021488 -0.032422 -0.060520 0.024199 -0.073499 -0.046741 -0.083427 0.058394 0.013929 0.016068 -0.012487 0.077762 -0.057953 -0.065354 0.047464 -0.018324 0.001514 -0.010275 0.190964 -0.036776 0.016925 0.003985 -0.036055 -0.020273 -0.059122 -0.025851 -0.191318 0.003893 -0.046614 -0.002848 0.009713 0.010667 0.114609 -0.014159 0.013270 -0.019505 -0.015161 -0.070644 0.017875 0.269561 0.149092 0.183544 0.250724 0.320637 0.369436 0.377228 0.054455 -1.087989
0.072396 0.072910 0.074452 0.077021 0.080617 0.085238 0.090884 0.097553 0.105242 0.113950 0.123671 0.134401 0.146135 0.158867 0.172587 0.187286 0.202953 0.219573 0.237131 0.255609 0.274984 0.295233 0.316329 0.338239 0.360928 0.384358 0.408483 0.433255 0.458621 0.484519 0.510886 0.537650 0.564734 0.592053 0.619518 0.647030 0.674486 0.701773 0.728774 0.755362 0.781405 0.806762 0.831288 0.854828 0.877224 0.898311 0.917918 0.935871 0.951991 0.966096 0.978005 0.987531 0.994492 0.998705 0.999991 0.998177 0.993094 0.984583 0.972496 0.956695 0.937059 0.913482 0.885877 0.854179 0.818347 0.778365 0.734246 0.686033 0.633803 0.577665 0.517769 0.454300 0.387484 0.317588 0.244920 0.169833 0.092719 0.014013 0.065808 0.146228 0.226697 0.306625 0.385396 0.462363 0.536860 0.608203 0.675695 0.738641 0.796344 0.848123 0.893315 0.931288 0.961451 0.983259 0.996228 0.999945 0.994073 0.978368 0.952681 0.916974 0.871320 0.815917 0.751089 0.677293 0.595119 0.505291 0.408668 0.306238 0.199113 0.088520 0.024209 0.137651 0.250307 0.360623 0.467010 0.567862 0.661589 0.746641 0.821530 0.884869 0.935391 0.971988 0.993731 0.999899 0.990008 0.963827 0.921400 0.863062 0.789445 0.701483 0.600414 0.487766 0.365350 0.235234 0.099712 0.038724 0.177431 0.313663 0.444621 0.567515 0.679623 0.778357 0.861324 0.926395 0.971768 0.996018 0.998160 0.977684 0.934599 0.869451 0.783339 0.677913 0.555354 0.418349 0.270040 0.113964 0.046026 0.205843 0.361280 0.508107 0.642197 0.759645 0.856889 0.930828 0.978933 0.999349 0.990974 0.953531 0.887608 0.794677 0.677085 0.538016 0.381428 0.211947 0.034757 0.144562 0.320196 0.486283 0.637120 0.767359 0.872209 0.947625 0.990489 0.998748 0.971538 0.909259 0.813607 0.687564 0.535329 0.362206 0.174445 0.020979 0.216604 0.404763 0.577885 0.728808 0.851089 0.939292 0.989259 0.998326 0.965492 0.891523 0.778981 0.632168 0.457007 0.260825 0.052071 0.160027 0.365864 0.555890 0.721064 0.853296 0.945861 0.993783 0.994124 0.946198 0.851683 0.714613 0.541249 0.339837 0.120243 0.106505 0.328749 0.534806 0.713592 0.855219 0.951589 0.996881 0.987942 0.924554 0.809528 0.648644 0.450411 0.225657 0.013019 0.251944 0.477131 0.675111 0.833756 0.943045 0.995742 0.987928 0.919329 0.793451 0.617464 0.401854 0.159848 0.093362 0.341548 0.568484 0.759007 0.900076 0.981689 0.997651 0.946107 0.829781 0.655921 0.435922 0.184628 0.080623 0.341153 0.578270 0.774611 0.915449 0.989847 0.991566 0.919660 0.778685 0.578501 0.333660 0.062402 0.214641 0.476021 0.701111 0.871776 0.973873 0.998497 0.942827 0.810516 0.611550 0.361592 0.080813 0.207681 0.479725 0.712114 0.884631 0.981840 0.994556 0.920796 0.766129 0.543372 0.271612 0.025341 0.321000 0.588543 0.803265 0.944901 0.999610 0.961427 0.833007 0.625572 0.358052 0.055433 0.253487 0.538842 0.772564 0.931206 0.998363 0.966473 0.837770 0.624291 0.346873 0.033207 0.284843 0.574444 0.805214 0.952451 0.999863 0.941492 0.782576 0.539234 0.236957 0.091967 0.411825 0.687356 0.887672 0.989781 0.981357 0.862347 0.645248 0.353934 0.021170 0.315005 0.615582 0.845137 0.976060 0.992009 0.890073 0.681412 0.390195 0.050941 0.295466 0.606685 0.844084 0.977624 0.989780 0.877991 0.655281 0.348932 0.002719 0.354989 0.662474 0.884939 0.992670 0.970585 0.820517 0.561290 0.226565 0.139426 0.487603 0.770628 0.949408 0.998590
1.000000 1.000000 1.000000 1.000000 1.000000 1.000000 1.000000 1.000000 1.000000 1.000000 1.000000 1.000000 1.000000 1.000000 1.000000 1.000000 1.000000 1.000000 1.000000 1.000000 1.000000 1.000000 1.000000 1.000000 1.000000 1.000000 1.000000 1.000000 1.000000 1.000000 1.000000 1.000000 1.000000 1.000000 1.000000 1.000000 1.000000 1.000000 1.000000 1.000000 1.000000 1.000000 1.000000 1.000000 1.000000 1.000000 1.000000 1.000000 1.000000 1.000000 1.000000 1.000000 0.919528 0.919528 0.905923 0.905923 0.905923 0.905923 0.905923 0.905923 0.905923 0.905923 0.905923 0.905923 0.905923 0.905923 0.905923 0.905923 0.905923 0.905923 0.905923 0.905923 0.905923 0.905923 0.905923 0.905923 0.905923 0.905923 0.905923 0.905923 0.905923 0.905923 0.905923 0.905923 0.905923 0.905923 0.905923 0.905923 0.905923 0.905923 0.905923 0.905923 0.905923 0.905923 0.905923 0.901912 0.906723 0.908597 0.907000 0.910563 0.910640 0.910002 0.910337 0.909986 0.910301 0.911682 0.922197 0.933234 0.944293 0.944827 0.949963 0.954332 0.957693 0.958672 0.960250 0.970176 0.967749 0.967330 0.968006 0.969453 0.971589 0.970266 0.969901 0.973108 0.973767 0.972124 0.969953 0.969362 0.968775 0.968880 0.968503 0.968392 0.968267 0.968768 0.968966 0.969130 0.969271 0.969318 0.970338 0.971489 0.973806 0.974750 0.974580 0.973496 0.968166 0.971996 0.972829 0.972433 0.972376 0.971917 0.972212 0.959617 0.955279 0.955209 0.952438 0.951085 0.947381 0.946186 0.945176 0.945375 0.943945 0.943996 0.941575 0.928000 0.914848 0.903984 0.923763 0.909159 0.897955 0.871900 0.872982 0.866188 0.866759 0.857451 0.852189 0.847636 0.844508 0.845819 0.843129 0.846746 0.844684 0.830061 0.833531 0.829418 0.799435 0.782471 0.767663 0.768319 0.765621 0.766769 0.766570 0.759937 0.768546 0.761125 0.759579 0.750567 0.729202 0.697626 0.685442 0.695790 0.705859 0.704413 0.700847 0.685564 0.656037 0.667683 0.696499 0.688773 0.690557 0.684486 0.679710 0.683415 0.683080 0.681151 0.674861 0.674215 0.673780 0.681317 0.687227 0.681312 0.673384 0.658913 0.646183 0.631926 0.646158 0.655037 0.623820 0.617672 0.611358 0.604974 0.592116 0.553973 0.553300 0.530031 0.517150 0.517734 0.518858 0.517347 0.527166 0.527981 0.507117 0.531367 0.536270 0.564672 0.532742 0.529449 0.530378 0.541078 0.523821 0.500090 0.489311 0.490499 0.504719 0.540622 0.581043 0.569967 0.559021 0.547901 0.565029 0.537291 0.547043 0.563085 0.540624 0.465804 0.426347 0.423061 0.385211 0.378740 0.374025 0.364031 0.366655 0.360230 0.349191 0.335927 0.322017 0.263764 0.228826 0.211635 0.186552 0.194508 0.209127 0.193674 0.187079 0.226471 0.272646 0.272206 0.263899 0.241218 0.239602 0.213232 0.228435 0.255333 0.212687 0.209392 0.204361 0.178306 0.168820 0.123067 0.158441 0.066335 0.055950 0.057827 0.076580 0.088798 0.092117 0.097345 0.070073 0.088900 0.081864 0.058324 0.045061 0.062146 0.054056 0.017849 0.024672 0.036735 0.021458 0.010087 0.033460 0.021490 0.027405 0.019884 0.021017 0.063025 0.093359 0.081319 0.081927 0.072583 0.070960 0.052066 0.040741 0.032087 0.027002 -0.020471 -0.049234 -0.049234 -0.047351 -0.047351 -0.047351 -0.047351 -0.047351 -0.047351 -0.047351 -0.047351 -0.047351 -0.050569 -0.050569 -0.050569 -0.050569 -0.050569 -0.050569 -0.050569 -0.050569 -0.050569 -0.023176 -0.023176 -0.023176 -0.023176 -0.023176 -0.023176 -0.023176 -0.023176 -0.023176
0.000000 0.000000 0.000000 0.000000 0.000000 0.000000 0.000000 0.000000 0.000000 0.000000 0.000000 0.000000 0.000000 0.000000 0.000000 0.000000 0.000000 0.000000 0.000000 0.000000 0.000000 0.000000 0.000000 0.000000 0.000000 0.000000 0.000000 0.000000 0.000000 0.000000 0.000000 0.000000 0.000000 0.000000 0.000000 0.000000 0.000000 0.000000 0.000000 0.000000 0.000000 0.000000 0.000000 0.000000 0.000000 0.000000 0.000000 0.000000 0.000000 0.000000 0.000000 0.000000 0.181818 0.181818 0.199007 0.199007 0.199007 0.199007 0.199007 0.199007 0.199007 0.199007 0.199007 0.199007 0.199007 0.199007 0.199007 0.199007 0.199007 0.199007 0.199007 0.199007 0.199007 0.199007 0.199007 0.199007 0.199007 0.199007 0.199007 0.199007 0.199007 0.199007 0.199007 0.199007 0.199007 0.199007 0.199007 0.199007 0.199007 0.199007 0.199007 0.199007 0.199007 0.199007 0.199007 0.230940 0.230940 0.230940 0.230940 0.230940 0.230940 0.230940 0.230940 0.230940 0.230940 0.230940 0.230940 0.230940 0.230940 0.230940 0.230940 0.230940 0.230940 0.230940 0.230940 0.230940 0.230940 0.230940 0.230940 0.230940 0.230940 0.230940 0.230940 0.244339 0.244339 0.244339 0.244339 0.244339 0.244339 0.244339 0.244339 0.244339 0.244339 0.244339 0.244339 0.244339 0.244339 0.244339 0.244339 0.244339 0.244339 0.244339 0.244339 0.244339 0.244339 0.244339 0.251976 0.251976 0.251976 0.251976 0.251976 0.251976 0.251976 0.251976 0.251976 0.251976 0.251976 0.251976 0.251976 0.251976 0.251976 0.251976 0.251976 0.251976 0.251976 0.251976 0.264906 0.264906 0.264906 0.264906 0.264906 0.264906 0.264906 0.264906 0.264906 0.264906 0.264906 0.264906 0.264906 0.264906 0.264906 0.264906 0.264906 0.264906 0.264906 0.264906 0.264906 0.264906 0.264906 0.264906 0.264906 0.264906 0.264906 0.264906 0.264906 0.264906 0.264906 0.264906 0.264906 0.264906 0.264906 0.264906 0.264906 0.264906 0.264906 0.264906 0.264906 0.264906 0.264906 0.264906 0.264906 0.264906 0.264906 0.264906 0.264906 0.264906 0.264906 0.264906 0.264906 0.264906 0.264906 0.264906 0.264906 0.264906 0.264906 0.264906 0.264906 0.264906 0.264906 0.264906 0.264906 0.264906 0.264906 0.264906 0.264906 0.264906 0.264906 0.264906 0.264906 0.264906 0.264906 0.269680 0.269680 0.269680 0.269680 0.269680 0.269680 0.269680 0.269680 0.269680 0.269680 0.269680 0.269680 0.264906 0.264906 0.264906 0.264906 0.264906 0.264906 0.264906 0.264906 0.264906 0.264906 0.264906 0.264906 0.269680 0.269680 0.269680 0.269680 0.269680 0.269680 0.269680 0.269680 0.269680 0.269680 0.269680 0.264906 0.264906 0.264906 0.264906 0.264906 0.264906 0.264906 0.264906 0.264906 0.264906 0.264906 0.256074 0.256074 0.256074 0.256074 0.256074 0.256074 0.256074 0.256074 0.256074 0.256074 0.256074 0.264906 0.264906 0.264906 0.264906 0.264906 0.264906 0.264906 0.264906 0.264906 0.264906 0.269680 0.269680 0.269680 0.269680 0.269680 0.269680 0.269680 0.269680 0.269680 0.256074 0.256074 0.256074 0.256074 0.256074 0.256074 0.256074 0.256074 0.256074 0.256074 0.260378 0.260378 0.260378 0.260378 0.260378 0.260378 0.260378 0.260378 0.260378 0.256074 0.256074 0.256074 0.256074 0.256074 0.256074 0.256074 0.256074 0.256074 0.251976 0.251976 0.251976 0.251976 0.251976 0.251976 0.251976 0.251976 0.251976 0.264906 0.264906 0.264906 0.264906 0.264906 0.264906 0.264906 0.264906 0.264906
