# Output from CTFFind version 4.1.9, run on 2019-11-03 19:36:33
# Input file: stack6_bm3d_averaged_1_4.25_0_2500_half.mrc ; Number of micrographs: 1
# Pixel size: 3.000 Angstroms ; acceleration voltage: 300.0 keV ; spherical aberration: 0.00 mm ; amplitude contrast: 0.07
# Box size: 512 pixels ; min. res.: 30.0 Angstroms ; max. res.: 5.0 Angstroms ; min. def.: 5000.0 um; max. def. 50000.0 um; num. frames averaged: 1
# 6 lines per micrograph: #1 - spatial frequency (1/Angstroms); #2 - 1D rotational average of spectrum (assuming no astigmatism); #3 - 1D rotational average of spectrum; #4 - CTF fit; #5 - cross-correlation between spectrum and CTF fit; #6 - 2sigma of expected cross correlation of noise
0.000000 0.000651 0.001302 0.001953 0.002604 0.003255 0.003906 0.004557 0.005208 0.005859 0.006510 0.007161 0.007812 0.008464 0.009115 0.009766 0.010417 0.011068 0.011719 0.012370 0.013021 0.013672 0.014323 0.014974 0.015625 0.016276 0.016927 0.017578 0.018229 0.018880 0.019531 0.020182 0.020833 0.021484 0.022135 0.022786 0.023438 0.024089 0.024740 0.025391 0.026042 0.026693 0.027344 0.027995 0.028646 0.029297 0.029948 0.030599 0.031250 0.031901 0.032552 0.033203 0.033854 0.034505 0.035156 0.035807 0.036458 0.037109 0.037760 0.038411 0.039062 0.039714 0.040365 0.041016 0.041667 0.042318 0.042969 0.043620 0.044271 0.044922 0.045573 0.046224 0.046875 0.047526 0.048177 0.048828 0.049479 0.050130 0.050781 0.051432 0.052083 0.052734 0.053385 0.054036 0.054688 0.055339 0.055990 0.056641 0.057292 0.057943 0.058594 0.059245 0.059896 0.060547 0.061198 0.061849 0.062500 0.063151 0.063802 0.064453 0.065104 0.065755 0.066406 0.067057 0.067708 0.068359 0.069010 0.069661 0.070312 0.070964 0.071615 0.072266 0.072917 0.073568 0.074219 0.074870 0.075521 0.076172 0.076823 0.077474 0.078125 0.078776 0.079427 0.080078 0.080729 0.081380 0.082031 0.082682 0.083333 0.083984 0.084635 0.085286 0.085938 0.086589 0.087240 0.087891 0.088542 0.089193 0.089844 0.090495 0.091146 0.091797 0.092448 0.093099 0.093750 0.094401 0.095052 0.095703 0.096354 0.097005 0.097656 0.098307 0.098958 0.099609 0.100260 0.100911 0.101562 0.102214 0.102865 0.103516 0.104167 0.104818 0.105469 0.106120 0.106771 0.107422 0.108073 0.108724 0.109375 0.110026 0.110677 0.111328 0.111979 0.112630 0.113281 0.113932 0.114583 0.115234 0.115885 0.116536 0.117188 0.117839 0.118490 0.119141 0.119792 0.120443 0.121094 0.121745 0.122396 0.123047 0.123698 0.124349 0.125000 0.125651 0.126302 0.126953 0.127604 0.128255 0.128906 0.129557 0.130208 0.130859 0.131510 0.132161 0.132812 0.133464 0.134115 0.134766 0.135417 0.136068 0.136719 0.137370 0.138021 0.138672 0.139323 0.139974 0.140625 0.141276 0.141927 0.142578 0.143229 0.143880 0.144531 0.145182 0.145833 0.146484 0.147135 0.147786 0.148438 0.149089 0.149740 0.150391 0.151042 0.151693 0.152344 0.152995 0.153646 0.154297 0.154948 0.155599 0.156250 0.156901 0.157552 0.158203 0.158854 0.159505 0.160156 0.160807 0.161458 0.162109 0.162760 0.163411 0.164062 0.164714 0.165365 0.166016 0.166667 0.167318 0.167969 0.168620 0.169271 0.169922 0.170573 0.171224 0.171875 0.172526 0.173177 0.173828 0.174479 0.175130 0.175781 0.176432 0.177083 0.177734 0.178385 0.179036 0.179688 0.180339 0.180990 0.181641 0.182292 0.182943 0.183594 0.184245 0.184896 0.185547 0.186198 0.186849 0.187500 0.188151 0.188802 0.189453 0.190104 0.190755 0.191406 0.192057 0.192708 0.193359 0.194010 0.194661 0.195312 0.195964 0.196615 0.197266 0.197917 0.198568 0.199219 0.199870 0.200521 0.201172 0.201823 0.202474 0.203125 0.203776 0.204427 0.205078 0.205729 0.206380 0.207031 0.207682 0.208333 0.208984 0.209635 0.210286 0.210938 0.211589 0.212240 0.212891 0.213542 0.214193 0.214844 0.215495 0.216146 0.216797 0.217448 0.218099 0.218750 0.219401 0.220052 0.220703 0.221354 0.222005 0.222656 0.223307 0.223958 0.224609 0.225260 0.225911 0.226562 0.227214 0.227865 0.228516 0.229167 0.229818 0.230469 0.231120 0.231771 0.232422 0.233073 0.233724 0.234375 0.235026 0.235677
       0.30225        0.30225        0.30225        0.30225        0.30225        0.30225        0.30225        0.30225        0.30225        0.30225        0.30225        0.30225        0.30225        0.30225        0.30225        0.30225        0.30225        0.30225        0.30225        0.30225        0.30225        0.30225        0.30225        0.30225        0.30225        0.30225        0.30225        0.30225        0.30225        0.30225        0.30225        0.30225        0.30225        0.30225        0.30225        0.30225        0.30225        0.30225        0.30225        0.30225        0.30225        0.30225        0.30225        0.30225        0.30225        0.30225        0.30225        0.30225        0.30225        0.30225        0.30225        0.60922        0.75086        0.36224        0.21352        0.13284       -0.14982        0.11462        0.02437        0.03436        0.09423        0.32163        0.36021        0.29354        0.17486       -0.03187        0.00215        0.04699       -0.15613       -0.16784       -0.09039       -0.11800       -0.26310       -0.16428       -0.29669       -0.29481       -0.30186       -0.37201       -0.44829       -0.41182       -0.32656       -0.29121       -0.38535       -0.29147       -0.35561       -0.29192       -0.22038       -0.16854       -0.13029       -0.04576       -0.02026        0.09594        0.13503        0.21640        0.32999        0.39331        0.36737        0.47040        0.56204        0.57528        0.65993        0.61934        0.66527        0.60507        0.63414        0.63413        0.56839        0.57468        0.57717        0.40010        0.33376        0.35711        0.34657        0.18413        0.12948        0.08917        0.06982        0.06992       -0.03018        0.03013       -0.00743       -0.05141        0.07596        0.16140        0.25985        0.34218        0.33167        0.37060        0.48768        0.51801        0.45299        0.65207        0.52615        0.49785        0.56069        0.51285        0.51451        0.46449        0.36930        0.32845        0.24615        0.20179        0.16921        0.16385        0.13595        0.08040        0.13142        0.15162        0.19396        0.17642        0.24638        0.27985        0.33084        0.45100        0.42476        0.42233        0.47530        0.51789        0.50428        0.47130        0.38058        0.40679        0.35450        0.28108        0.22658        0.23402        0.20252        0.17015        0.15315        0.18536        0.17305        0.22702        0.29040        0.33575        0.39167        0.39226        0.45366        0.47048        0.44990        0.43085        0.39855        0.40525        0.39205        0.34887        0.30316        0.28602        0.23661        0.25572        0.24999        0.20191        0.24481        0.24154        0.25302        0.31914        0.35655        0.38401        0.39029        0.40139        0.40428        0.40507        0.40034        0.29261        0.28961        0.25509        0.26849        0.22684        0.19247        0.25994        0.31098        0.29564        0.27422        0.32952        0.27477        0.35873        0.34561        0.35541        0.36496        0.37427        0.31199        0.30766        0.29191        0.27621        0.26334        0.25023        0.26130        0.29200        0.28688        0.30924        0.34825        0.36936        0.34101        0.33316        0.34539        0.31210        0.29464        0.29181        0.26822        0.27568        0.26408        0.29494        0.29601        0.28023        0.29671        0.30556        0.32006        0.32914        0.33050        0.27745        0.25924        0.28276        0.27501        0.26421        0.25817        0.22667        0.24475        0.25668        0.24828        0.26558        0.28297        0.32098        0.31640        0.30121        0.30378        0.23250        0.22249        0.27041        0.23905        0.20323        0.26319        0.31919        0.25599        0.29572        0.29778        0.29705        0.30657        0.28185        0.27374        0.28981        0.26686        0.28488        0.23889        0.26189        0.25010        0.29072        0.28950        0.31327        0.31292        0.31367        0.22164        0.28459        0.28184        0.22696        0.27536        0.26058        0.29287        0.28539        0.30550        0.29728        0.34875        0.29310        0.25659        0.24150        0.21746        0.24209        0.26353        0.29257        0.28794        0.28624        0.29065        0.27739        0.27062        0.26709        0.24046        0.28440        0.24382        0.23157        0.22291        0.30049        0.29897        0.28315        0.28496        0.22155        0.29013        0.24987        0.19904        0.22990        0.26675        0.27720        0.30773        0.21250        0.19478        0.25856        0.24444        0.26095        0.21194        0.21758        0.20786        0.23723        0.25330        0.20976        0.25860        0.23263        0.26625        0.19752        0.26335        0.29494        0.19954        0.15527        0.14778        0.13615        0.22477        0.15114        0.08905        0.31724        0.19061        0.08486        0.08353        0.11787        0.16587        0.21696       -0.05182       -0.74358       -1.05430
3.024191 2.994039 2.964041 2.934199 2.904512 2.874981 2.845604 2.816383 2.787316 2.758405 2.729650 2.701049 2.672604 2.644313 2.616178 2.588199 2.560374 2.532704 2.505190 2.477831 2.450627 2.423578 2.396685 2.369947 2.343364 2.316936 2.290663 2.264545 2.238583 2.212776 2.187124 2.161627 2.136286 2.111099 2.086068 2.061192 2.036471 2.011906 1.987495 1.963240 1.939140 1.915195 1.891406 1.867771 1.844292 1.820968 1.797799 1.774785 1.751927 1.729224 1.706676 2.051222 2.379255 1.738416 1.667720 1.368986 0.830580 1.229472 1.091973 1.121194 0.979606 1.587030 1.495922 1.495576 1.240773 0.910837 0.750791 0.993287 0.749044 0.423241 0.545737 0.658518 0.391571 0.442857 0.276681 0.210690 0.143822 0.143286 -0.118507 -0.048494 0.072487 0.041488 0.005117 0.097895 -0.052941 -0.017419 0.135213 0.209227 0.258750 0.330031 0.365352 0.630478 0.556863 0.664625 0.897173 0.971031 0.891583 1.175489 1.175475 1.251724 1.332365 1.203229 1.391433 1.203834 1.176578 1.341384 1.123954 1.072293 1.175593 0.930840 0.650150 0.686892 0.744299 0.448293 0.355591 0.262946 0.162843 0.153880 0.009074 0.117172 0.040750 -0.086934 0.065841 0.197723 0.308574 0.512144 0.516106 0.487521 0.686592 0.801686 0.556646 0.960893 0.872559 0.649271 0.775428 0.652633 0.725050 0.697851 0.425775 0.413522 0.250971 0.187149 0.127473 0.005205 0.051798 -0.101640 -0.022508 -0.030358 0.092803 -0.036262 0.198965 0.174534 0.174997 0.389869 0.472149 0.381741 0.352707 0.573482 0.570692 0.449074 0.352973 0.336927 0.301924 0.180469 0.050181 0.040264 0.004260 -0.010545 -0.118173 -0.058249 -0.117695 0.042858 0.015172 0.159110 0.225560 0.241377 0.346627 0.341334 0.395718 0.349387 0.409101 0.371966 0.258080 0.317694 0.152890 0.188243 0.062535 0.107720 0.044898 0.051629 -0.046350 0.076968 0.014161 0.116330 0.222556 0.220326 0.280691 0.279434 0.303201 0.288631 0.302299 0.189736 0.075472 0.110282 0.036624 0.027194 -0.053587 -0.047922 0.067663 0.133779 0.076198 0.083630 0.096139 0.139565 0.190263 0.183323 0.174459 0.232362 0.146826 0.095870 0.081755 0.062110 0.052786 -0.028813 0.020135 0.092574 0.005699 0.097689 0.104392 0.194215 0.207400 0.175155 0.152595 0.167703 0.092664 0.085859 0.101212 0.035275 0.019189 0.078175 0.074154 0.092108 0.057400 0.102423 0.097330 0.134855 0.156816 0.105216 0.041608 -0.004750 0.064175 0.011229 0.052729 -0.021176 -0.057475 0.009613 -0.015426 -0.014673 0.038243 0.035562 0.104598 0.116270 0.041943 0.065085 -0.073656 -0.015083 0.034959 -0.069222 -0.078736 0.053298 0.083939 -0.023617 0.052656 0.057271 0.070450 0.073887 -0.009089 0.014720 0.099545 -0.057794 0.049160 -0.037836 0.013898 -0.045794 0.078719 0.022790 0.080277 0.064524 0.070982 -0.092136 0.049035 -0.004370 -0.069458 0.015596 -0.008494 0.015583 0.034064 0.104041 0.049151 0.086684 0.052512 -0.083166 -0.024955 -0.103985 -0.023224 0.012435 0.024352 0.037250 0.008990 0.047227 0.006835 0.006435 0.018562 -0.049866 0.057851 -0.012988 -0.069294 -0.033499 0.070042 0.039659 0.054162 0.061168 -0.021684 0.079826 0.015482 -0.079902 0.005067 0.040378 0.104482 0.099856 -0.035357 -0.044269 0.084658 0.023076 0.001633 0.004308 -0.070551 0.038865 0.043551 0.063410 -0.010349 0.108194 0.016842 0.164797 -0.029910 0.157147 0.198261 0.002497 -0.061419 -0.046356 -0.156031 0.139180 -0.028015 -0.006525 0.521085 0.273368 0.127527 0.149908 0.274809 0.228327 0.330255 -0.071801 -1.720116
0.072396 0.072835 0.074150 0.076342 0.079411 0.083355 0.088173 0.093866 0.100430 0.107863 0.116165 0.125331 0.135357 0.146239 0.157973 0.170550 0.183964 0.198206 0.213266 0.229131 0.245788 0.263221 0.281412 0.300342 0.319987 0.340323 0.361321 0.382950 0.405174 0.427957 0.451256 0.475026 0.499216 0.523772 0.548635 0.573743 0.599028 0.624416 0.649829 0.675184 0.700394 0.725365 0.749997 0.774187 0.797827 0.820802 0.842994 0.864279 0.884530 0.903615 0.921398 0.937742 0.952505 0.965544 0.976714 0.985871 0.992869 0.997564 0.999815 0.999482 0.996431 0.990532 0.981663 0.969709 0.954566 0.936137 0.914343 0.889113 0.860396 0.828156 0.792377 0.753059 0.710230 0.663937 0.614253 0.561275 0.505131 0.445975 0.383989 0.319387 0.252413 0.183341 0.112478 0.040158 0.033252 0.107357 0.181734 0.255935 0.329486 0.401892 0.472641 0.541203 0.607039 0.669600 0.728336 0.782699 0.832148 0.876156 0.914215 0.945843 0.970592 0.988052 0.997857 0.999696 0.993318 0.978537 0.955239 0.923388 0.883032 0.834306 0.777438 0.712751 0.640665 0.561697 0.476463 0.385676 0.290141 0.190753 0.088488 0.015600 0.120392 0.224713 0.327343 0.427036 0.522528 0.612559 0.695887 0.771308 0.837675 0.893918 0.939061 0.972246 0.992747 0.999992 0.993578 0.973284 0.939090 0.891180 0.829955 0.756036 0.670265 0.573699 0.467610 0.353468 0.232928 0.107810 0.019927 0.148206 0.274876 0.397734 0.514574 0.623221 0.721577 0.807665 0.879668 0.935977 0.975231 0.996355 0.998591 0.981535 0.945155 0.889812 0.816265 0.725678 0.619608 0.499991 0.369112 0.229574 0.084246 0.063783 0.211273 0.354902 0.491333 0.617303 0.729697 0.825636 0.902550 0.958263 0.991056 0.999733 0.983670 0.942858 0.877920 0.790127 0.681386 0.554209 0.411674 0.257359 0.095264 0.070293 0.234778 0.393568 0.542077 0.675899 0.790938 0.883544 0.950640 0.989834 0.999521 0.978955 0.928311 0.848705 0.742196 0.611749 0.461176 0.295033 0.118503 0.062766 0.242824 0.415617 0.575200 0.715930 0.832686 0.921064 0.977560 0.999721 0.986274 0.937208 0.853818 0.738697 0.595683 0.429750 0.246857 0.053752 0.142274 0.333652 0.512825 0.672549 0.806202 0.908063 0.973588 0.999618 0.984566 0.928527 0.833324 0.702484 0.541141 0.355851 0.154356 0.054726 0.262257 0.458981 0.635930 0.784853 0.898607 0.971526 0.999728 0.981349 0.916690 0.808262 0.660732 0.480754 0.276695 0.058282 0.163862 0.378709 0.575389 0.743731 0.874823 0.961493 0.998739 0.984047 0.917594 0.802309 0.643790 0.450075 0.231265 0.000972 0.234011 0.454945 0.651302 0.811765 0.926843 0.989469 0.995467 0.943872 0.837066 0.680726 0.483572 0.256914 0.014046 0.230523 0.461916 0.665807 0.829311 0.941836 0.995800 0.987187 0.915893 0.785828 0.604753 0.383886 0.137234 0.119261 0.368728 0.594475 0.781123 0.915678 0.988471 0.993901 0.930922 0.803220 0.619065 0.390841 0.134255 0.132715 0.391030 0.621987 0.808549 0.936658 0.996333 0.982497 0.895477 0.741097 0.530357 0.278719 0.005025 0.269906 0.524811 0.739662 0.897260 0.984651 0.994251 0.924576 0.780488 0.572946 0.318232 0.036742 0.248605 0.514232 0.737837 0.900314 0.987418 0.991090 0.910271 0.751143 0.526745 0.255979 0.037918 0.329328 0.592480 0.803741 0.943771 0.999361 0.964750 0.842307 0.642482 0.382992 0.087342 0.217258 0.502375 0.741001 0.910153 0.993144 0.981301 0.874971 0.683657 0.425279 0.124572 0.189206 0.485107 0.733528 0.909211
1.000000 1.000000 1.000000 1.000000 1.000000 1.000000 1.000000 1.000000 1.000000 1.000000 1.000000 1.000000 1.000000 1.000000 1.000000 1.000000 1.000000 1.000000 1.000000 1.000000 1.000000 1.000000 1.000000 1.000000 1.000000 1.000000 1.000000 1.000000 1.000000 1.000000 1.000000 1.000000 1.000000 1.000000 1.000000 1.000000 1.000000 1.000000 1.000000 1.000000 1.000000 1.000000 1.000000 1.000000 1.000000 1.000000 1.000000 1.000000 1.000000 1.000000 1.000000 1.000000 0.821422 0.821422 0.821422 0.821422 0.821422 0.821422 0.821422 0.795545 0.795545 0.795545 0.795545 0.795545 0.795545 0.795545 0.795545 0.795545 0.795545 0.795545 0.795545 0.795545 0.795545 0.795545 0.795545 0.795545 0.795545 0.795545 0.795545 0.795545 0.795545 0.795545 0.795545 0.795545 0.795545 0.795545 0.795545 0.795545 0.795545 0.795545 0.795545 0.795545 0.795545 0.795545 0.795545 0.795545 0.795545 0.795545 0.795545 0.795545 0.795545 0.795545 0.795545 0.942783 0.943760 0.944226 0.944888 0.943319 0.943513 0.939421 0.938447 0.940878 0.940703 0.940916 0.941936 0.941528 0.942804 0.944338 0.947403 0.947873 0.956031 0.959751 0.959609 0.958732 0.957651 0.971408 0.971219 0.971047 0.971055 0.971176 0.969652 0.968211 0.968111 0.968731 0.970516 0.970980 0.969186 0.967353 0.966610 0.966016 0.965819 0.965202 0.965547 0.966359 0.966458 0.967034 0.969733 0.968881 0.969525 0.968193 0.967406 0.966365 0.965031 0.965792 0.965611 0.965122 0.963023 0.960947 0.961782 0.960685 0.961142 0.962873 0.963143 0.963416 0.963755 0.963820 0.963736 0.964557 0.961635 0.949645 0.947439 0.944870 0.945475 0.947264 0.949640 0.948886 0.947172 0.945239 0.940365 0.936480 0.924138 0.918212 0.914477 0.919439 0.917751 0.918381 0.917951 0.915088 0.913290 0.913572 0.912303 0.915270 0.915261 0.911363 0.902744 0.900844 0.896876 0.898666 0.901036 0.903068 0.903056 0.899099 0.888663 0.881764 0.884820 0.885205 0.891416 0.881023 0.879939 0.878942 0.870857 0.866985 0.858931 0.857756 0.858955 0.858393 0.861249 0.861046 0.854147 0.827577 0.822109 0.818512 0.814509 0.818437 0.827982 0.830009 0.825264 0.810015 0.800589 0.787288 0.788241 0.791313 0.789676 0.795632 0.776139 0.776102 0.753019 0.753161 0.748632 0.737485 0.734076 0.723026 0.727742 0.733886 0.740202 0.741488 0.725112 0.720157 0.681664 0.688985 0.646729 0.655308 0.653683 0.637315 0.622915 0.608665 0.619664 0.625391 0.630480 0.604768 0.594817 0.573625 0.562245 0.566666 0.549925 0.550681 0.551238 0.546597 0.536866 0.550084 0.561211 0.568833 0.550275 0.550155 0.553072 0.533839 0.515802 0.498304 0.491355 0.505930 0.525949 0.528389 0.530709 0.525849 0.490132 0.465475 0.492395 0.503759 0.517990 0.508478 0.497550 0.490242 0.501806 0.480848 0.505462 0.500862 0.502864 0.473446 0.425199 0.378855 0.324236 0.346249 0.349152 0.353249 0.347584 0.345699 0.325692 0.297183 0.297010 0.297206 0.319575 0.319322 0.283325 0.297189 0.293130 0.294511 0.296094 0.290440 0.300436 0.303828 0.332148 0.335902 0.272509 0.252485 0.206131 0.204890 0.214069 0.238078 0.257122 0.247168 0.220679 0.108337 0.131771 0.159660 0.159660 0.159660 0.159660 0.159660 0.159660 0.159660 0.159660 0.159660 0.159660 0.159660 0.095372 0.095372 0.095372 0.095372 0.095372 0.095372 0.095372 0.095372 0.095372 0.095372 0.095372 0.095372 0.095372 0.095372 0.095372 0.095372 0.095372 0.095372 0.095372
0.000000 0.000000 0.000000 0.000000 0.000000 0.000000 0.000000 0.000000 0.000000 0.000000 0.000000 0.000000 0.000000 0.000000 0.000000 0.000000 0.000000 0.000000 0.000000 0.000000 0.000000 0.000000 0.000000 0.000000 0.000000 0.000000 0.000000 0.000000 0.000000 0.000000 0.000000 0.000000 0.000000 0.000000 0.000000 0.000000 0.000000 0.000000 0.000000 0.000000 0.000000 0.000000 0.000000 0.000000 0.000000 0.000000 0.000000 0.000000 0.000000 0.000000 0.000000 0.000000 0.173422 0.173422 0.173422 0.173422 0.173422 0.173422 0.173422 0.191565 0.191565 0.191565 0.191565 0.191565 0.191565 0.191565 0.191565 0.191565 0.191565 0.191565 0.191565 0.191565 0.191565 0.191565 0.191565 0.191565 0.191565 0.191565 0.191565 0.191565 0.191565 0.191565 0.191565 0.191565 0.191565 0.191565 0.191565 0.191565 0.191565 0.191565 0.191565 0.191565 0.191565 0.191565 0.191565 0.191565 0.191565 0.191565 0.191565 0.191565 0.191565 0.191565 0.191565 0.219529 0.219529 0.219529 0.219529 0.219529 0.219529 0.219529 0.219529 0.219529 0.219529 0.219529 0.219529 0.219529 0.219529 0.219529 0.219529 0.219529 0.219529 0.219529 0.219529 0.219529 0.219529 0.219529 0.219529 0.219529 0.219529 0.219529 0.219529 0.219529 0.219529 0.219529 0.237356 0.237356 0.237356 0.237356 0.237356 0.237356 0.237356 0.237356 0.237356 0.237356 0.237356 0.237356 0.237356 0.237356 0.237356 0.237356 0.237356 0.237356 0.237356 0.237356 0.237356 0.237356 0.237356 0.237356 0.244339 0.244339 0.244339 0.244339 0.244339 0.244339 0.244339 0.244339 0.244339 0.244339 0.244339 0.244339 0.244339 0.244339 0.244339 0.244339 0.244339 0.244339 0.244339 0.244339 0.244339 0.248069 0.248069 0.248069 0.248069 0.248069 0.248069 0.248069 0.248069 0.248069 0.248069 0.248069 0.248069 0.248069 0.248069 0.248069 0.248069 0.248069 0.248069 0.248069 0.248069 0.248069 0.248069 0.248069 0.248069 0.248069 0.248069 0.248069 0.248069 0.248069 0.248069 0.248069 0.248069 0.248069 0.248069 0.248069 0.248069 0.248069 0.256074 0.256074 0.256074 0.256074 0.256074 0.256074 0.256074 0.256074 0.256074 0.256074 0.256074 0.256074 0.256074 0.256074 0.256074 0.256074 0.256074 0.256074 0.256074 0.256074 0.256074 0.256074 0.256074 0.256074 0.256074 0.256074 0.256074 0.256074 0.256074 0.256074 0.256074 0.256074 0.256074 0.256074 0.256074 0.256074 0.256074 0.256074 0.256074 0.256074 0.256074 0.256074 0.256074 0.256074 0.256074 0.260378 0.260378 0.260378 0.260378 0.260378 0.260378 0.260378 0.260378 0.260378 0.260378 0.260378 0.260378 0.260378 0.256074 0.256074 0.256074 0.256074 0.256074 0.256074 0.256074 0.256074 0.256074 0.256074 0.256074 0.256074 0.256074 0.260378 0.260378 0.260378 0.260378 0.260378 0.260378 0.260378 0.260378 0.260378 0.260378 0.260378 0.260378 0.251976 0.251976 0.251976 0.251976 0.251976 0.251976 0.251976 0.251976 0.251976 0.251976 0.251976 0.251976 0.256074 0.256074 0.256074 0.256074 0.256074 0.256074 0.256074 0.256074 0.256074 0.256074 0.256074 0.251976 0.251976 0.251976 0.251976 0.251976 0.251976 0.251976 0.251976 0.251976 0.251976 0.251976 0.248069 0.248069 0.248069 0.248069 0.248069 0.248069 0.248069 0.248069 0.248069 0.248069 0.248069 0.256074 0.256074 0.256074 0.256074 0.256074 0.256074 0.256074 0.256074 0.256074 0.256074 0.256074 0.256074 0.256074 0.256074 0.256074 0.256074 0.256074 0.256074 0.256074
