# Output from CTFFind version 4.1.9, run on 2019-11-03 20:09:08
# Input file: stack16_bm3d_averaged_1_7.5_0_2000_half.mrc ; Number of micrographs: 1
# Pixel size: 3.000 Angstroms ; acceleration voltage: 300.0 keV ; spherical aberration: 0.00 mm ; amplitude contrast: 0.07
# Box size: 512 pixels ; min. res.: 30.0 Angstroms ; max. res.: 5.0 Angstroms ; min. def.: 5000.0 um; max. def. 50000.0 um; num. frames averaged: 1
# 6 lines per micrograph: #1 - spatial frequency (1/Angstroms); #2 - 1D rotational average of spectrum (assuming no astigmatism); #3 - 1D rotational average of spectrum; #4 - CTF fit; #5 - cross-correlation between spectrum and CTF fit; #6 - 2sigma of expected cross correlation of noise
0.000000 0.000651 0.001302 0.001953 0.002604 0.003255 0.003906 0.004557 0.005208 0.005859 0.006510 0.007161 0.007812 0.008464 0.009115 0.009766 0.010417 0.011068 0.011719 0.012370 0.013021 0.013672 0.014323 0.014974 0.015625 0.016276 0.016927 0.017578 0.018229 0.018880 0.019531 0.020182 0.020833 0.021484 0.022135 0.022786 0.023438 0.024089 0.024740 0.025391 0.026042 0.026693 0.027344 0.027995 0.028646 0.029297 0.029948 0.030599 0.031250 0.031901 0.032552 0.033203 0.033854 0.034505 0.035156 0.035807 0.036458 0.037109 0.037760 0.038411 0.039062 0.039714 0.040365 0.041016 0.041667 0.042318 0.042969 0.043620 0.044271 0.044922 0.045573 0.046224 0.046875 0.047526 0.048177 0.048828 0.049479 0.050130 0.050781 0.051432 0.052083 0.052734 0.053385 0.054036 0.054688 0.055339 0.055990 0.056641 0.057292 0.057943 0.058594 0.059245 0.059896 0.060547 0.061198 0.061849 0.062500 0.063151 0.063802 0.064453 0.065104 0.065755 0.066406 0.067057 0.067708 0.068359 0.069010 0.069661 0.070312 0.070964 0.071615 0.072266 0.072917 0.073568 0.074219 0.074870 0.075521 0.076172 0.076823 0.077474 0.078125 0.078776 0.079427 0.080078 0.080729 0.081380 0.082031 0.082682 0.083333 0.083984 0.084635 0.085286 0.085938 0.086589 0.087240 0.087891 0.088542 0.089193 0.089844 0.090495 0.091146 0.091797 0.092448 0.093099 0.093750 0.094401 0.095052 0.095703 0.096354 0.097005 0.097656 0.098307 0.098958 0.099609 0.100260 0.100911 0.101562 0.102214 0.102865 0.103516 0.104167 0.104818 0.105469 0.106120 0.106771 0.107422 0.108073 0.108724 0.109375 0.110026 0.110677 0.111328 0.111979 0.112630 0.113281 0.113932 0.114583 0.115234 0.115885 0.116536 0.117188 0.117839 0.118490 0.119141 0.119792 0.120443 0.121094 0.121745 0.122396 0.123047 0.123698 0.124349 0.125000 0.125651 0.126302 0.126953 0.127604 0.128255 0.128906 0.129557 0.130208 0.130859 0.131510 0.132161 0.132812 0.133464 0.134115 0.134766 0.135417 0.136068 0.136719 0.137370 0.138021 0.138672 0.139323 0.139974 0.140625 0.141276 0.141927 0.142578 0.143229 0.143880 0.144531 0.145182 0.145833 0.146484 0.147135 0.147786 0.148438 0.149089 0.149740 0.150391 0.151042 0.151693 0.152344 0.152995 0.153646 0.154297 0.154948 0.155599 0.156250 0.156901 0.157552 0.158203 0.158854 0.159505 0.160156 0.160807 0.161458 0.162109 0.162760 0.163411 0.164062 0.164714 0.165365 0.166016 0.166667 0.167318 0.167969 0.168620 0.169271 0.169922 0.170573 0.171224 0.171875 0.172526 0.173177 0.173828 0.174479 0.175130 0.175781 0.176432 0.177083 0.177734 0.178385 0.179036 0.179688 0.180339 0.180990 0.181641 0.182292 0.182943 0.183594 0.184245 0.184896 0.185547 0.186198 0.186849 0.187500 0.188151 0.188802 0.189453 0.190104 0.190755 0.191406 0.192057 0.192708 0.193359 0.194010 0.194661 0.195312 0.195964 0.196615 0.197266 0.197917 0.198568 0.199219 0.199870 0.200521 0.201172 0.201823 0.202474 0.203125 0.203776 0.204427 0.205078 0.205729 0.206380 0.207031 0.207682 0.208333 0.208984 0.209635 0.210286 0.210938 0.211589 0.212240 0.212891 0.213542 0.214193 0.214844 0.215495 0.216146 0.216797 0.217448 0.218099 0.218750 0.219401 0.220052 0.220703 0.221354 0.222005 0.222656 0.223307 0.223958 0.224609 0.225260 0.225911 0.226562 0.227214 0.227865 0.228516 0.229167 0.229818 0.230469 0.231120 0.231771 0.232422 0.233073 0.233724 0.234375 0.235026 0.235677
       0.36251        0.36251        0.36251        0.36251        0.36251        0.36251        0.36251        0.36251        0.36251        0.36251        0.36251        0.36251        0.36251        0.36251        0.36251        0.36251        0.36251        0.36251        0.36251        0.36251        0.36251        0.36251        0.36251        0.36251        0.36251        0.36251        0.36251        0.36251        0.36251        0.36251        0.36251        0.36251        0.36251        0.36251        0.36251        0.36251        0.36251        0.36251        0.36251        0.36251        0.36251        0.36251        0.36251        0.36251        0.36251        0.36251        0.36251        0.36251        0.36251        0.36251        0.36251        0.43916        0.56117        0.34768       -0.21507       -0.44262       -0.53196       -0.63606       -0.70274       -0.70601       -0.79740       -0.87537       -0.66407       -0.81537       -0.80267       -0.94064       -0.98138       -0.86271       -0.82226       -0.78362       -0.69050       -0.62275       -0.53182       -0.43999       -0.37694       -0.14983       -0.04923        0.05848        0.27656        0.26903        0.32905        0.37848        0.41293        0.53901        0.54721        0.58222        0.53894        0.48300        0.51325        0.54344        0.46811        0.34340        0.23197        0.19665        0.12306        0.03393        0.01705        0.00709        0.07713        0.04375        0.09497        0.06744        0.18572        0.21079        0.41783        0.46875        0.55308        0.66118        0.68669        0.71542        0.64705        0.61707        0.55850        0.45270        0.39913        0.29626        0.23300        0.23162        0.11986        0.13467        0.14016        0.10558        0.11106        0.31420        0.43003        0.53708        0.53987        0.56971        0.60976        0.59182        0.57355        0.59139        0.57562        0.47907        0.32357        0.28070        0.27537        0.17634        0.10876        0.18856        0.23559        0.30305        0.36408        0.43885        0.48434        0.53973        0.60844        0.55434        0.50944        0.51955        0.36741        0.30130        0.27850        0.19300        0.22724        0.25994        0.29610        0.29817        0.34658        0.44297        0.47598        0.50515        0.46138        0.45013        0.49867        0.40920        0.33847        0.30025        0.27848        0.24911        0.23697        0.25076        0.35306        0.46280        0.44708        0.49376        0.55987        0.46483        0.42496        0.36747        0.33481        0.29164        0.29615        0.28280        0.30321        0.37638        0.38267        0.45471        0.47941        0.45309        0.47643        0.39342        0.38935        0.36179        0.28921        0.26972        0.26984        0.35522        0.39103        0.37321        0.39819        0.44070        0.45542        0.39722        0.34770        0.33600        0.36599        0.33139        0.29919        0.30567        0.37375        0.39008        0.40927        0.39794        0.40686        0.43336        0.41985        0.33914        0.30243        0.32242        0.35214        0.40178        0.37552        0.41298        0.35986        0.38063        0.40282        0.35503        0.36511        0.33397        0.31734        0.34949        0.36098        0.34424        0.37874        0.39282        0.34120        0.36129        0.33710        0.32896        0.31659        0.33495        0.34186        0.33837        0.37915        0.38940        0.37508        0.32032        0.31584        0.30013        0.34493        0.33028        0.32752        0.38308        0.36714        0.35192        0.32999        0.31856        0.31465        0.29068        0.33388        0.34848        0.36379        0.38321        0.36798        0.33576        0.35377        0.37488        0.35247        0.36486        0.35855        0.32950        0.34478        0.30416        0.32946        0.31539        0.32768        0.29637        0.33534        0.36120        0.33814        0.37017        0.32906        0.34997        0.36795        0.35198        0.33324        0.34756        0.38269        0.35864        0.37095        0.34526        0.32385        0.33840        0.32772        0.34158        0.34001        0.37951        0.33695        0.33831        0.31025        0.31086        0.28581        0.29256        0.37388        0.32424        0.33403        0.30279        0.27560        0.28415        0.37338        0.31608        0.29810        0.33996        0.32899        0.30080        0.26534        0.30632        0.28207        0.31870        0.32115        0.35834        0.34812        0.33497        0.32950        0.27831        0.29792        0.29952        0.30116        0.31618        0.36754        0.31302        0.22553        0.31581        0.31922        0.34975        0.28532        0.30410        0.28221        0.33128        0.28788        0.27468        0.28754        0.25510        0.31705        0.33386        0.32069        0.27201        0.33784        0.28629        0.24750        0.24022        0.33108        0.25734        0.15749        0.11356        0.19921        0.35769        0.28852        0.19972        0.16854       -0.35981       -0.53185
3.271357 3.229561 3.188036 3.146784 3.105805 3.065097 3.024662 2.984500 2.944609 2.904991 2.865646 2.826572 2.787771 2.749243 2.710986 2.673002 2.635290 2.597851 2.560684 2.523789 2.487167 2.450817 2.414739 2.378934 2.343401 2.308140 2.273152 2.238436 2.203992 2.169821 2.135921 2.102295 2.068940 2.035858 2.003049 1.970511 1.938246 1.906253 1.874533 1.843085 1.811909 1.781006 1.750375 1.720016 1.689929 1.660115 1.630574 1.601304 1.572307 1.543582 1.515130 1.551881 1.616129 1.556711 0.844039 0.604826 0.466177 0.395652 0.298086 0.227474 0.196857 -0.046646 0.216491 0.084013 -0.023800 -0.099380 -0.234367 -0.139290 -0.045920 -0.093759 -0.067368 0.041004 0.043369 0.236977 0.111373 0.361191 0.465668 0.503924 0.779018 0.682015 0.702032 0.821188 0.795338 0.849415 0.923480 0.851752 0.883338 0.725656 0.781732 0.844840 0.693439 0.604952 0.431778 0.429370 0.321360 0.194875 0.189015 0.111860 0.207633 0.118911 0.205422 0.103898 0.213266 0.225592 0.429482 0.394424 0.561066 0.599082 0.614219 0.709996 0.596744 0.562386 0.454492 0.406412 0.277568 0.256367 0.084910 0.143784 -0.035251 0.033288 -0.030615 -0.048835 -0.067201 0.015983 0.251350 0.284445 0.344910 0.281165 0.368077 0.374465 0.395752 0.377258 0.348113 0.314745 0.111666 0.063403 0.057744 -0.028690 -0.154384 -0.065926 -0.065822 0.029851 0.066431 0.138745 0.199627 0.214440 0.307018 0.394811 0.267412 0.356779 0.217709 0.143351 0.061523 0.029756 -0.000583 0.054221 0.067513 0.087917 0.117059 0.165150 0.234389 0.297661 0.259734 0.201680 0.247296 0.221529 0.106666 0.047692 0.056396 0.021288 0.003901 -0.034689 0.028282 0.164665 0.197433 0.182980 0.290416 0.184333 0.193097 0.070194 0.062268 0.019461 -0.006258 -0.008739 -0.012480 0.047241 0.081445 0.104009 0.157124 0.137856 0.223510 0.141104 0.076619 0.098078 0.037793 -0.045557 -0.015128 0.030823 0.072822 0.070131 0.062759 0.148819 0.107230 0.156020 0.037293 0.043163 0.046272 0.043856 0.027724 -0.018798 0.040255 0.054776 0.092816 0.098305 0.083663 0.113767 0.121415 0.079584 0.009616 -0.013496 0.016358 0.073066 0.079771 0.085734 0.081373 0.054018 0.098372 0.065806 0.041161 0.071224 -0.008788 0.009870 0.068134 0.040566 0.044344 0.079210 0.082362 0.046783 0.067372 0.020016 0.018183 0.014616 0.056872 0.020912 0.037107 0.076787 0.079894 0.046495 -0.004537 -0.000897 -0.019205 0.047745 0.002281 0.012008 0.073764 0.042213 0.006566 0.014365 -0.018368 0.002480 -0.036354 0.010883 0.024336 0.051120 0.044726 0.033193 0.004039 0.007867 0.048240 0.012149 0.033404 0.010251 -0.010094 0.013250 -0.042495 -0.032342 -0.051121 -0.011823 -0.070736 0.008603 0.008053 -0.005878 -0.014860 -0.001190 -0.003525 0.027984 0.006971 -0.011773 0.015192 0.026604 0.027648 0.035881 0.000625 0.007110 0.011555 -0.009502 0.016222 -0.005020 0.097713 0.026220 0.018494 0.005092 -0.006916 -0.025489 0.005962 0.074443 0.001563 0.043542 -0.026090 -0.025117 -0.022586 0.089105 0.002791 -0.025880 0.073350 0.051966 0.000998 -0.002281 0.008992 0.007700 0.047260 0.039943 0.103628 0.043450 0.056712 0.044849 -0.006934 0.025184 0.003884 0.001649 0.024900 0.081415 -0.003210 -0.074621 0.033689 0.013599 0.079659 -0.039798 -0.007360 -0.016886 0.012679 -0.008497 -0.035892 -0.004448 -0.067867 0.050456 0.033490 0.047034 -0.102946 0.050189 0.035794 -0.007644 -0.056079 0.103559 0.024912 -0.053665 -0.138188 0.169662 0.358843 0.243012 0.133120 0.168888 -0.513362
0.072396 0.073047 0.074998 0.078249 0.082799 0.088647 0.095791 0.104226 0.113951 0.124958 0.137242 0.150795 0.165606 0.181663 0.198949 0.217447 0.237135 0.257987 0.279971 0.303052 0.327190 0.352338 0.378441 0.405439 0.433264 0.461839 0.491080 0.520891 0.551168 0.581798 0.612655 0.643604 0.674498 0.705180 0.735478 0.765213 0.794192 0.822211 0.849057 0.874505 0.898323 0.920267 0.940090 0.957535 0.972344 0.984255 0.993006 0.998337 0.999991 0.997721 0.991288 0.980469 0.965056 0.944864 0.919731 0.889527 0.854152 0.813545 0.767686 0.716602 0.660368 0.599116 0.533031 0.462362 0.387420 0.308581 0.226289 0.141055 0.053458 0.035857 0.126179 0.216739 0.306709 0.395212 0.481327 0.564099 0.642549 0.715684 0.782512 0.842054 0.893364 0.935537 0.967735 0.989199 0.999271 0.997407 0.983203 0.956403 0.916921 0.864855 0.800495 0.724341 0.637100 0.539698 0.433274 0.319177 0.198960 0.074358 0.052722 0.180235 0.306018 0.427834 0.543403 0.650454 0.746763 0.830211 0.898831 0.950862 0.984801 0.999454 0.993981 0.967939 0.921318 0.854567 0.768615 0.664874 0.545238 0.412063 0.268135 0.116626 0.038968 0.194896 0.347243 0.492023 0.625287 0.743234 0.842327 0.919413 0.971833 0.997530 0.995141 0.964082 0.904601 0.817822 0.705753 0.571270 0.418064 0.250571 0.073855 0.106527 0.284694 0.454621 0.610358 0.746231 0.857070 0.938422 0.986748 0.999605 0.975789 0.915441 0.820110 0.692753 0.537686 0.360475 0.167763 0.032956 0.233608 0.425865 0.601480 0.752659 0.872421 0.954947 0.995893 0.992653 0.944557 0.852984 0.721390 0.555226 0.361760 0.149807 0.070654 0.288925 0.494101 0.675616 0.823812 0.930477 0.989336 0.996470 0.950620 0.853363 0.709136 0.525105 0.310862 0.077976 0.160594 0.391209 0.600320 0.775281 0.905148 0.981395 0.998544 0.954610 0.851355 0.694321 0.492608 0.258424 0.006391 0.247321 0.486014 0.693571 0.855571 0.960328 0.999804 0.970299 0.872857 0.713365 0.502290 0.254082 0.013754 0.281838 0.530315 0.740313 0.895434 0.983080 0.995561 0.930858 0.792969 0.591789 0.342504 0.064537 0.219911 0.487594 0.716133 0.885914 0.981850 0.994801 0.922556 0.770242 0.550096 0.280617 0.014910 0.310351 0.579013 0.796073 0.940922 0.999217 0.964410 0.838611 0.632630 0.365211 0.061427 0.249562 0.537295 0.772985 0.932452 0.998713 0.963911 0.830386 0.610723 0.326734 0.007411 0.313930 0.603091 0.828666 0.965504 0.997653 0.920361 0.740920 0.478171 0.160697 0.176157 0.494156 0.756504 0.932163 0.999642 0.949787 0.787199 0.530036 0.208198 0.140022 0.472397 0.747861 0.931663 0.999866 0.942641 0.765882 0.490849 0.151825 0.208013 0.541991 0.806003 0.964419 0.995043 0.892431 0.669045 0.353993 0.010558 0.374867 0.688377 0.906768 0.998340 0.948832 0.763878 0.468664 0.104761 0.275566 0.616754 0.868094 0.991379 0.966916 0.796931 0.505742 0.136553 0.254742 0.607930 0.867735 0.992604 0.961582 0.778091 0.469945 0.085430 0.314058 0.663710 0.905847 0.999594 0.928028 0.701543 0.356701 0.049369 0.448266 0.771735 0.963454 0.989045 0.842542 0.548047 0.156130 0.264608 0.639357 0.900466 0.999769 0.917795 0.667918 0.294576 0.134274 0.539361 0.844687 0.991921 0.951811 0.730375 0.368458 0.065429 0.487833 0.816337 0.985751 0.961324 0.746257 0.381823 0.060146 0.491180 0.823760 0.989227 0.952256 0.718790 0.335638 0.118528 0.549023 0.864871 0.998146 0.918944 0.642524 0.226885 0.239009 0.654003
1.000000 1.000000 1.000000 1.000000 1.000000 1.000000 1.000000 1.000000 1.000000 1.000000 1.000000 1.000000 1.000000 1.000000 1.000000 1.000000 1.000000 1.000000 1.000000 1.000000 1.000000 1.000000 1.000000 1.000000 1.000000 1.000000 1.000000 1.000000 1.000000 1.000000 1.000000 1.000000 1.000000 1.000000 1.000000 1.000000 1.000000 1.000000 1.000000 1.000000 1.000000 1.000000 1.000000 1.000000 1.000000 1.000000 1.000000 1.000000 1.000000 1.000000 1.000000 1.000000 0.926932 0.926932 0.926932 0.926932 0.926932 0.926932 0.926932 0.926932 0.926932 0.926932 0.926932 0.926932 0.926932 0.926932 0.926932 0.926932 0.926932 0.926932 0.926932 0.926932 0.926932 0.926932 0.926932 0.926932 0.926932 0.926932 0.926932 0.926932 0.926932 0.926932 0.926932 0.926932 0.926932 0.913213 0.911330 0.912480 0.911018 0.909585 0.908995 0.908600 0.909639 0.911238 0.913318 0.934967 0.938068 0.939313 0.940643 0.942021 0.944311 0.942142 0.949691 0.956190 0.955114 0.956245 0.956359 0.956863 0.956208 0.955462 0.958038 0.957210 0.955584 0.953679 0.952084 0.951562 0.951343 0.954925 0.955360 0.955514 0.956055 0.955976 0.956694 0.957280 0.955302 0.957437 0.949463 0.948311 0.953757 0.951894 0.953466 0.953424 0.954123 0.954880 0.955158 0.955383 0.952177 0.951702 0.950774 0.944795 0.937609 0.937928 0.939584 0.941654 0.938657 0.936677 0.938333 0.939881 0.938967 0.942179 0.933691 0.929703 0.902816 0.888661 0.880355 0.880268 0.884504 0.887067 0.884983 0.880034 0.872434 0.869176 0.867958 0.865014 0.856255 0.858915 0.858791 0.854068 0.857388 0.860567 0.865828 0.864315 0.860323 0.855449 0.850010 0.838262 0.839053 0.839944 0.844231 0.825748 0.813094 0.829303 0.822762 0.814927 0.822896 0.824873 0.822424 0.821017 0.821290 0.819114 0.812371 0.804053 0.807882 0.816965 0.819002 0.809842 0.807401 0.806932 0.806480 0.801381 0.806953 0.809471 0.805982 0.797911 0.815311 0.786759 0.805589 0.806989 0.787776 0.772422 0.761020 0.769012 0.777461 0.771085 0.767874 0.778572 0.778592 0.772206 0.752120 0.735320 0.743014 0.741287 0.732038 0.720581 0.727279 0.720963 0.718996 0.716918 0.720663 0.720803 0.699250 0.713002 0.718031 0.713233 0.725423 0.728357 0.719421 0.722705 0.727216 0.728694 0.728208 0.702927 0.706005 0.639875 0.630616 0.596670 0.593580 0.586973 0.532113 0.536711 0.521711 0.507749 0.508110 0.471000 0.519205 0.417236 0.408226 0.431359 0.360195 0.335718 0.354134 0.355691 0.368126 0.364807 0.363744 0.368592 0.349960 0.321589 0.292105 0.319404 0.333414 0.315241 0.316377 0.288706 0.279102 0.226134 0.241444 0.245709 0.276973 0.278976 0.264900 0.284077 0.326817 0.265110 0.250874 0.228880 0.255261 0.259209 0.250159 0.239450 0.261844 0.200035 0.210927 0.227105 0.228978 0.280448 0.306866 0.320934 0.318808 0.326720 0.355848 0.312191 0.320242 0.327091 0.318484 0.346978 0.350189 0.360651 0.357574 0.391489 0.398136 0.402754 0.409329 0.432322 0.457012 0.432528 0.415767 0.371447 0.387272 0.379747 0.394937 0.340666 0.318694 0.318140 0.288203 0.241198 0.242425 0.241355 0.196742 0.194272 0.178834 0.147706 0.146444 0.155366 0.178587 0.150309 0.163126 0.167272 0.167272 0.167272 0.167272 0.167272 0.167272 0.167272 0.167272 0.167272 0.167272 0.167272 0.167272 0.167272 0.167272 0.188352 0.188352 0.188352 0.188352 0.188352 0.188352 0.188352 0.188352 0.188352 0.188352 0.188352 0.188352
0.000000 0.000000 0.000000 0.000000 0.000000 0.000000 0.000000 0.000000 0.000000 0.000000 0.000000 0.000000 0.000000 0.000000 0.000000 0.000000 0.000000 0.000000 0.000000 0.000000 0.000000 0.000000 0.000000 0.000000 0.000000 0.000000 0.000000 0.000000 0.000000 0.000000 0.000000 0.000000 0.000000 0.000000 0.000000 0.000000 0.000000 0.000000 0.000000 0.000000 0.000000 0.000000 0.000000 0.000000 0.000000 0.000000 0.000000 0.000000 0.000000 0.000000 0.000000 0.000000 0.209657 0.209657 0.209657 0.209657 0.209657 0.209657 0.209657 0.209657 0.209657 0.209657 0.209657 0.209657 0.209657 0.209657 0.209657 0.209657 0.209657 0.209657 0.209657 0.209657 0.209657 0.209657 0.209657 0.209657 0.209657 0.209657 0.209657 0.209657 0.209657 0.209657 0.209657 0.209657 0.209657 0.244339 0.244339 0.244339 0.244339 0.244339 0.244339 0.244339 0.244339 0.244339 0.244339 0.244339 0.244339 0.244339 0.244339 0.244339 0.244339 0.244339 0.244339 0.244339 0.244339 0.244339 0.244339 0.244339 0.244339 0.244339 0.260378 0.260378 0.260378 0.260378 0.260378 0.260378 0.260378 0.260378 0.260378 0.260378 0.260378 0.260378 0.260378 0.260378 0.260378 0.260378 0.260378 0.260378 0.260378 0.260378 0.269680 0.269680 0.269680 0.269680 0.269680 0.269680 0.269680 0.269680 0.269680 0.269680 0.269680 0.269680 0.269680 0.269680 0.269680 0.269680 0.269680 0.269680 0.269680 0.269680 0.269680 0.269680 0.269680 0.269680 0.269680 0.269680 0.269680 0.269680 0.269680 0.269680 0.269680 0.269680 0.269680 0.280056 0.280056 0.280056 0.280056 0.280056 0.280056 0.280056 0.280056 0.280056 0.280056 0.280056 0.280056 0.280056 0.280056 0.280056 0.280056 0.280056 0.280056 0.280056 0.280056 0.280056 0.280056 0.280056 0.280056 0.280056 0.280056 0.280056 0.274721 0.274721 0.274721 0.274721 0.274721 0.274721 0.274721 0.274721 0.274721 0.274721 0.274721 0.274721 0.274721 0.285714 0.285714 0.285714 0.285714 0.285714 0.285714 0.285714 0.285714 0.285714 0.285714 0.285714 0.280056 0.280056 0.280056 0.280056 0.280056 0.280056 0.280056 0.280056 0.280056 0.280056 0.280056 0.274721 0.274721 0.274721 0.274721 0.274721 0.274721 0.274721 0.274721 0.274721 0.274721 0.274721 0.280056 0.280056 0.280056 0.280056 0.280056 0.280056 0.280056 0.280056 0.280056 0.280056 0.285714 0.285714 0.285714 0.285714 0.285714 0.285714 0.285714 0.285714 0.285714 0.269680 0.269680 0.269680 0.269680 0.269680 0.269680 0.269680 0.269680 0.269680 0.269680 0.274721 0.274721 0.274721 0.274721 0.274721 0.274721 0.274721 0.274721 0.274721 0.285714 0.285714 0.285714 0.285714 0.285714 0.285714 0.285714 0.285714 0.264906 0.264906 0.264906 0.264906 0.264906 0.264906 0.264906 0.264906 0.264906 0.274721 0.274721 0.274721 0.274721 0.274721 0.274721 0.274721 0.274721 0.269680 0.269680 0.269680 0.269680 0.269680 0.269680 0.269680 0.269680 0.269680 0.269680 0.269680 0.269680 0.269680 0.269680 0.269680 0.269680 0.280056 0.280056 0.280056 0.280056 0.280056 0.280056 0.280056 0.260378 0.260378 0.260378 0.260378 0.260378 0.260378 0.260378 0.260378 0.269680 0.269680 0.269680 0.269680 0.269680 0.269680 0.269680 0.264906 0.264906 0.264906 0.264906 0.264906 0.264906 0.264906 0.264906 0.264906 0.264906 0.264906 0.264906 0.264906 0.264906 0.260378 0.260378 0.260378 0.260378 0.260378 0.260378 0.260378 0.260378 0.260378 0.260378 0.260378 0.260378
