# Output from CTFFind version 4.1.9, run on 2019-11-02 17:43:14
# Input file: stack6_bm3d_averaged_1_1.25_0_50_half.mrc ; Number of micrographs: 1
# Pixel size: 3.000 Angstroms ; acceleration voltage: 300.0 keV ; spherical aberration: 0.00 mm ; amplitude contrast: 0.07
# Box size: 512 pixels ; min. res.: 30.0 Angstroms ; max. res.: 5.0 Angstroms ; min. def.: 5000.0 um; max. def. 50000.0 um; num. frames averaged: 1
# 6 lines per micrograph: #1 - spatial frequency (1/Angstroms); #2 - 1D rotational average of spectrum (assuming no astigmatism); #3 - 1D rotational average of spectrum; #4 - CTF fit; #5 - cross-correlation between spectrum and CTF fit; #6 - 2sigma of expected cross correlation of noise
0.000000 0.000651 0.001302 0.001953 0.002604 0.003255 0.003906 0.004557 0.005208 0.005859 0.006510 0.007161 0.007812 0.008464 0.009115 0.009766 0.010417 0.011068 0.011719 0.012370 0.013021 0.013672 0.014323 0.014974 0.015625 0.016276 0.016927 0.017578 0.018229 0.018880 0.019531 0.020182 0.020833 0.021484 0.022135 0.022786 0.023438 0.024089 0.024740 0.025391 0.026042 0.026693 0.027344 0.027995 0.028646 0.029297 0.029948 0.030599 0.031250 0.031901 0.032552 0.033203 0.033854 0.034505 0.035156 0.035807 0.036458 0.037109 0.037760 0.038411 0.039062 0.039714 0.040365 0.041016 0.041667 0.042318 0.042969 0.043620 0.044271 0.044922 0.045573 0.046224 0.046875 0.047526 0.048177 0.048828 0.049479 0.050130 0.050781 0.051432 0.052083 0.052734 0.053385 0.054036 0.054688 0.055339 0.055990 0.056641 0.057292 0.057943 0.058594 0.059245 0.059896 0.060547 0.061198 0.061849 0.062500 0.063151 0.063802 0.064453 0.065104 0.065755 0.066406 0.067057 0.067708 0.068359 0.069010 0.069661 0.070312 0.070964 0.071615 0.072266 0.072917 0.073568 0.074219 0.074870 0.075521 0.076172 0.076823 0.077474 0.078125 0.078776 0.079427 0.080078 0.080729 0.081380 0.082031 0.082682 0.083333 0.083984 0.084635 0.085286 0.085938 0.086589 0.087240 0.087891 0.088542 0.089193 0.089844 0.090495 0.091146 0.091797 0.092448 0.093099 0.093750 0.094401 0.095052 0.095703 0.096354 0.097005 0.097656 0.098307 0.098958 0.099609 0.100260 0.100911 0.101562 0.102214 0.102865 0.103516 0.104167 0.104818 0.105469 0.106120 0.106771 0.107422 0.108073 0.108724 0.109375 0.110026 0.110677 0.111328 0.111979 0.112630 0.113281 0.113932 0.114583 0.115234 0.115885 0.116536 0.117188 0.117839 0.118490 0.119141 0.119792 0.120443 0.121094 0.121745 0.122396 0.123047 0.123698 0.124349 0.125000 0.125651 0.126302 0.126953 0.127604 0.128255 0.128906 0.129557 0.130208 0.130859 0.131510 0.132161 0.132812 0.133464 0.134115 0.134766 0.135417 0.136068 0.136719 0.137370 0.138021 0.138672 0.139323 0.139974 0.140625 0.141276 0.141927 0.142578 0.143229 0.143880 0.144531 0.145182 0.145833 0.146484 0.147135 0.147786 0.148438 0.149089 0.149740 0.150391 0.151042 0.151693 0.152344 0.152995 0.153646 0.154297 0.154948 0.155599 0.156250 0.156901 0.157552 0.158203 0.158854 0.159505 0.160156 0.160807 0.161458 0.162109 0.162760 0.163411 0.164062 0.164714 0.165365 0.166016 0.166667 0.167318 0.167969 0.168620 0.169271 0.169922 0.170573 0.171224 0.171875 0.172526 0.173177 0.173828 0.174479 0.175130 0.175781 0.176432 0.177083 0.177734 0.178385 0.179036 0.179688 0.180339 0.180990 0.181641 0.182292 0.182943 0.183594 0.184245 0.184896 0.185547 0.186198 0.186849 0.187500 0.188151 0.188802 0.189453 0.190104 0.190755 0.191406 0.192057 0.192708 0.193359 0.194010 0.194661 0.195312 0.195964 0.196615 0.197266 0.197917 0.198568 0.199219 0.199870 0.200521 0.201172 0.201823 0.202474 0.203125 0.203776 0.204427 0.205078 0.205729 0.206380 0.207031 0.207682 0.208333 0.208984 0.209635 0.210286 0.210938 0.211589 0.212240 0.212891 0.213542 0.214193 0.214844 0.215495 0.216146 0.216797 0.217448 0.218099 0.218750 0.219401 0.220052 0.220703 0.221354 0.222005 0.222656 0.223307 0.223958 0.224609 0.225260 0.225911 0.226562 0.227214 0.227865 0.228516 0.229167 0.229818 0.230469 0.231120 0.231771 0.232422 0.233073 0.233724 0.234375 0.235026 0.235677
       0.31202        0.31202        0.31202        0.31203        0.31202        0.31202        0.31203        0.31202        0.31202        0.31202        0.31203        0.31202        0.31202        0.31202        0.31203        0.31202        0.31202        0.31202        0.31202        0.31203        0.31203        0.31202        0.31202        0.31203        0.31202        0.31203        0.31203        0.31203        0.31203        0.31203        0.31202        0.31202        0.31203        0.31203        0.31202        0.31202        0.31203        0.31202        0.31203        0.31202        0.31202        0.31202        0.31203        0.31202        0.31202        0.31203        0.31202        0.31202        0.31202        0.31202        0.31202        0.63171        0.81825        0.41799        0.31341        0.18396       -0.10418        0.10995       -0.00277        0.03230        0.12008        0.33822        0.42193        0.40815        0.23019       -0.01372        0.04811        0.06792       -0.17509       -0.18171       -0.08990       -0.10477       -0.29738       -0.19892       -0.29906       -0.24967       -0.28662       -0.40835       -0.47346       -0.48735       -0.43755       -0.34452       -0.44150       -0.36806       -0.41174       -0.35703       -0.28239       -0.20829       -0.19489       -0.14398       -0.09741        0.03829        0.07210        0.25340        0.27401        0.36040        0.40659        0.53188        0.60212        0.62020        0.74680        0.70538        0.74644        0.65961        0.66392        0.69086        0.63466        0.61679        0.60651        0.42858        0.40413        0.35125        0.30894        0.22606        0.12980        0.05996        0.05872        0.00180       -0.08106       -0.03002       -0.03199       -0.07190        0.06888        0.16490        0.25249        0.32100        0.33964        0.42823        0.54740        0.60200        0.55251        0.67101        0.57651        0.55197        0.60054        0.65440        0.53786        0.44859        0.40981        0.37694        0.24195        0.21322        0.12900        0.11658        0.05291        0.04482        0.10167        0.17058        0.14483        0.18035        0.22251        0.24539        0.32644        0.46246        0.49890        0.50171        0.50701        0.58051        0.57000        0.52697        0.43765        0.39213        0.36444        0.27192        0.24857        0.20310        0.20236        0.19296        0.17248        0.16526        0.13583        0.19647        0.24822        0.33143        0.38233        0.41299        0.46173        0.54439        0.48083        0.49900        0.42363        0.39472        0.38019        0.36328        0.29323        0.24564        0.19021        0.23973        0.21404        0.18518        0.22280        0.22749        0.22994        0.29917        0.39557        0.39796        0.38262        0.40052        0.46260        0.49112        0.42468        0.34978        0.32623        0.27439        0.27118        0.25667        0.21697        0.28303        0.29626        0.29937        0.31761        0.31327        0.34951        0.37413        0.37693        0.37718        0.34925        0.31351        0.32748        0.32546        0.29844        0.28297        0.27677        0.21992        0.27152        0.27773        0.29682        0.31485        0.34041        0.38107        0.34139        0.30854        0.36463        0.35536        0.25675        0.29157        0.30703        0.24360        0.20377        0.25351        0.27836        0.28125        0.29714        0.31303        0.34852        0.33560        0.36533        0.32454        0.32256        0.30851        0.30406        0.26810        0.25070        0.25996        0.25610        0.28287        0.30819        0.30995        0.29900        0.30568        0.32643        0.26703        0.29891        0.26667        0.25456        0.27623        0.26620        0.26367        0.26044        0.30620        0.29486        0.32537        0.28926        0.26513        0.31071        0.32282        0.33841        0.31855        0.28874        0.24974        0.25091        0.26214        0.26293        0.31504        0.30904        0.32841        0.31777        0.31575        0.23902        0.27394        0.20533        0.21641        0.25587        0.25832        0.26378        0.28292        0.30568        0.29667        0.36602        0.30735        0.25082        0.23872        0.23815        0.28631        0.31979        0.31247        0.27534        0.27529        0.26592        0.33076        0.28924        0.26039        0.26428        0.26591        0.27815        0.25096        0.26516        0.30932        0.29421        0.24266        0.24702        0.28321        0.31660        0.26443        0.26492        0.24905        0.27475        0.29161        0.36412        0.26944        0.27240        0.27024        0.23650        0.23193        0.18865        0.24076        0.22688        0.23154        0.17415        0.20272        0.22349        0.20036        0.23294        0.21629        0.24238        0.24177        0.22289        0.16757        0.17634        0.20554        0.26389        0.11542        0.06440        0.21124        0.13673        0.11912        0.25181        0.16992        0.23731        0.21463        0.02618       -0.51045       -1.02151
2.760039 2.733126 2.706350 2.679713 2.653213 2.626851 2.600626 2.574540 2.548591 2.522780 2.497107 2.471571 2.446173 2.420913 2.395791 2.370806 2.345960 2.321251 2.296680 2.272246 2.247951 2.223793 2.199773 2.175890 2.152146 2.128539 2.105070 2.081739 2.058545 2.035489 2.012571 1.989791 1.967149 1.944644 1.922277 1.900048 1.877957 1.856003 1.834187 1.812509 1.790969 1.769566 1.748302 1.727174 1.706185 1.685334 1.664620 1.644044 1.623606 1.603306 1.583143 1.866573 2.215398 1.655237 1.702573 1.346416 0.915284 1.167702 0.998916 1.048415 1.007318 1.460154 1.482545 1.499574 1.264542 0.920322 0.803279 0.989821 0.683967 0.483286 0.572912 0.666747 0.413433 0.468468 0.326372 0.380185 0.245535 0.146892 -0.025107 0.001646 0.005338 0.081821 0.038964 0.081954 -0.041868 0.033932 0.110232 0.214852 0.272623 0.207397 0.311657 0.551660 0.428476 0.719757 0.780368 0.844019 0.904210 1.105198 1.151379 1.166697 1.307849 1.226812 1.352351 1.194748 1.094344 1.283463 1.111525 1.036359 1.114969 0.861142 0.736077 0.668696 0.645811 0.460407 0.389514 0.267516 0.232984 0.103935 0.008035 0.095132 0.037934 -0.052243 0.124660 0.259172 0.322645 0.452175 0.493035 0.552871 0.711337 0.825703 0.671080 0.959574 0.778032 0.688223 0.766060 0.810849 0.725760 0.622931 0.434114 0.514602 0.288682 0.181875 0.153145 0.019345 -0.011075 -0.101755 -0.022351 0.060517 0.077397 -0.024669 0.252764 0.105928 0.232910 0.380250 0.436440 0.553481 0.416919 0.555470 0.639854 0.504575 0.411388 0.357172 0.330820 0.153777 0.153167 0.010510 0.100366 0.024138 0.002337 -0.020477 -0.090872 0.010333 0.039306 0.101803 0.281391 0.223920 0.359222 0.366590 0.474592 0.376109 0.404561 0.326960 0.225632 0.308013 0.182397 0.155032 -0.000362 0.047889 0.088330 -0.031883 0.008546 0.029947 0.063479 0.066217 0.220388 0.309725 0.243783 0.232356 0.377743 0.399323 0.348485 0.240067 0.177608 0.149338 0.095868 0.078859 0.043779 0.025497 0.136965 0.069945 0.183338 0.103239 0.146018 0.229093 0.212767 0.240765 0.201306 0.195909 0.101636 0.164020 0.141519 0.098188 0.109638 0.004423 0.045030 0.092236 0.053116 0.139182 0.116557 0.203874 0.211778 0.151272 0.120121 0.219320 0.093802 0.062702 0.079887 0.064203 -0.004028 -0.037040 0.045214 0.075844 0.044955 0.109816 0.115546 0.145029 0.132657 0.181336 0.100003 0.096208 0.103606 0.093600 0.018418 0.019290 0.052092 -0.003147 0.080763 0.119161 0.087858 0.071704 0.090356 0.115855 0.020914 0.106724 0.032131 0.012993 0.084975 0.018493 0.024563 0.045220 0.092763 0.048199 0.122292 0.064569 0.001928 0.118592 0.095037 0.099265 0.091154 0.013725 -0.013536 -0.022705 0.045264 -0.004128 0.085348 0.054065 0.108974 0.065078 0.122150 -0.047309 0.021520 -0.087358 0.000987 -0.038402 0.021268 0.011457 0.031050 0.086953 0.052298 0.131344 0.007150 -0.031779 -0.058665 -0.060240 0.053948 0.072144 0.047034 0.001797 -0.014747 -0.012208 0.068788 -0.014217 -0.059400 -0.024887 -0.049690 -0.003300 -0.050196 -0.029183 0.024574 -0.008556 -0.060082 -0.020474 0.024385 0.000335 -0.013976 -0.027443 -0.056890 0.051888 0.051176 0.129192 -0.010600 0.007835 0.031730 -0.002899 -0.040163 -0.050057 0.029842 0.003666 0.014173 -0.063304 -0.033099 0.053533 -0.068419 0.124244 0.005620 0.122936 0.032612 0.100531 -0.071418 0.031149 -0.011147 0.209250 -0.039391 0.014847 0.289333 0.162996 0.162512 0.458298 0.187615 0.309943 0.301005 0.039294 -1.390870
0.072396 0.072835 0.074150 0.076343 0.079412 0.083357 0.088176 0.093869 0.100435 0.107870 0.116173 0.125340 0.135368 0.146253 0.157988 0.170568 0.183985 0.198229 0.213291 0.229159 0.245819 0.263255 0.281450 0.300383 0.320031 0.340370 0.361372 0.383004 0.405232 0.428019 0.451321 0.475094 0.499287 0.523847 0.548713 0.573824 0.599112 0.624502 0.649918 0.675275 0.700486 0.725458 0.750091 0.774282 0.797921 0.820896 0.843086 0.864369 0.884617 0.903698 0.921477 0.937815 0.952571 0.965603 0.976765 0.985912 0.992899 0.997582 0.999820 0.999473 0.996406 0.990491 0.981604 0.969631 0.954467 0.936017 0.914200 0.888947 0.860206 0.827941 0.792135 0.752791 0.709935 0.663615 0.613903 0.560899 0.504728 0.445546 0.383535 0.318909 0.251912 0.182820 0.111938 0.039602 0.033822 0.107937 0.182322 0.256526 0.330077 0.402478 0.473218 0.541766 0.607583 0.670119 0.728825 0.783153 0.832561 0.876522 0.914529 0.946100 0.970787 0.988178 0.997911 0.999675 0.993217 0.978353 0.954970 0.923033 0.882589 0.833776 0.776823 0.712052 0.639886 0.560843 0.475540 0.384690 0.289101 0.189666 0.087367 0.016744 0.121547 0.225865 0.328479 0.428141 0.523587 0.613557 0.696808 0.772137 0.838397 0.894520 0.939529 0.972569 0.992915 0.999997 0.993412 0.972945 0.938576 0.890491 0.829096 0.755014 0.669089 0.572382 0.466169 0.351921 0.231298 0.106120 0.021649 0.149933 0.276577 0.399380 0.516132 0.624661 0.722869 0.808778 0.880578 0.936659 0.975664 0.996523 0.998482 0.981142 0.944478 0.888854 0.815038 0.724199 0.617900 0.498084 0.367041 0.227380 0.081974 0.066086 0.213556 0.357111 0.493414 0.619204 0.731368 0.827030 0.903626 0.958984 0.991394 0.999669 0.983196 0.941972 0.876635 0.788466 0.679380 0.551905 0.409125 0.254628 0.092420 0.073173 0.237613 0.396277 0.544578 0.678115 0.792796 0.884979 0.951599 0.990276 0.999418 0.978297 0.927105 0.846974 0.739982 0.609111 0.458190 0.291787 0.115097 0.066220 0.246214 0.418826 0.578111 0.718436 0.834691 0.922485 0.978332 0.999802 0.985644 0.935874 0.851812 0.736079 0.592536 0.426182 0.242996 0.049739 0.146287 0.337506 0.516364 0.675624 0.808679 0.909830 0.974555 0.999728 0.983795 0.926889 0.830869 0.699302 0.537351 0.351605 0.149831 0.059334 0.266745 0.463144 0.639575 0.787800 0.900707 0.972664 0.999830 0.980390 0.914693 0.805303 0.656933 0.476284 0.271761 0.053117 0.169002 0.383567 0.579711 0.747288 0.877416 0.962969 0.998999 0.983053 0.915375 0.798959 0.639470 0.445000 0.225698 0.006732 0.239650 0.460145 0.655760 0.815215 0.929071 0.990323 0.994872 0.941836 0.833682 0.676172 0.478097 0.250830 0.007711 0.236725 0.467608 0.670621 0.832936 0.944022 0.996383 0.986103 0.913182 0.781634 0.599328 0.377558 0.130407 0.126147 0.375211 0.600113 0.785524 0.918521 0.989532 0.993079 0.928242 0.798838 0.613260 0.384001 0.126849 0.140160 0.397984 0.627931 0.813035 0.939332 0.996967 0.981011 0.891948 0.735757 0.523585 0.271013 0.003047 0.277717 0.531749 0.745172 0.900884 0.986070 0.993319 0.921331 0.775159 0.565928 0.310076 0.028107 0.257016 0.521714 0.743749 0.904133 0.988787 0.989857 0.906502 0.745126 0.518966 0.247096 0.047141 0.338081 0.599980 0.809296 0.946854 0.999655 0.962189 0.837085 0.635038 0.373985 0.077590 0.226854 0.510909 0.747650 0.914255 0.994271 0.979302 0.869994 0.676146 0.415935 0.114290 0.199425 0.494240 0.740643 0.913568
1.000000 1.000000 1.000000 1.000000 1.000000 1.000000 1.000000 1.000000 1.000000 1.000000 1.000000 1.000000 1.000000 1.000000 1.000000 1.000000 1.000000 1.000000 1.000000 1.000000 1.000000 1.000000 1.000000 1.000000 1.000000 1.000000 1.000000 1.000000 1.000000 1.000000 1.000000 1.000000 1.000000 1.000000 1.000000 1.000000 1.000000 1.000000 1.000000 1.000000 1.000000 1.000000 1.000000 1.000000 1.000000 1.000000 1.000000 1.000000 1.000000 1.000000 1.000000 1.000000 0.833271 0.833271 0.833271 0.833271 0.833271 0.833271 0.833271 0.816419 0.816419 0.816419 0.816419 0.816419 0.816419 0.816419 0.816419 0.816419 0.816419 0.816419 0.816419 0.816419 0.816419 0.816419 0.816419 0.816419 0.816419 0.816419 0.816419 0.816419 0.816419 0.816419 0.816419 0.816419 0.816419 0.816419 0.816419 0.816419 0.816419 0.816419 0.816419 0.816419 0.816419 0.816419 0.816419 0.816419 0.816419 0.816419 0.816419 0.816419 0.816419 0.816419 0.816419 0.954318 0.955055 0.952376 0.951417 0.949889 0.946277 0.942247 0.941737 0.943024 0.943255 0.943706 0.945787 0.946349 0.947921 0.949082 0.949867 0.950638 0.958633 0.962259 0.961849 0.961206 0.952407 0.959183 0.958087 0.955595 0.956230 0.956442 0.957085 0.957001 0.956868 0.956495 0.954993 0.955612 0.955408 0.954681 0.953681 0.951603 0.951501 0.951104 0.951259 0.952211 0.952749 0.953521 0.954045 0.953319 0.953471 0.953475 0.953384 0.949066 0.949045 0.941602 0.941844 0.942702 0.942210 0.941214 0.939702 0.939782 0.939720 0.939723 0.939654 0.940045 0.925065 0.924737 0.924980 0.924511 0.917388 0.907528 0.900999 0.896457 0.897772 0.902088 0.906547 0.907150 0.904044 0.902901 0.887067 0.883787 0.869701 0.865660 0.854715 0.864635 0.865439 0.866237 0.855527 0.855245 0.853292 0.851596 0.843282 0.847997 0.848029 0.844881 0.840175 0.839039 0.835809 0.840354 0.848714 0.850389 0.847103 0.849090 0.836415 0.827940 0.826793 0.827328 0.834542 0.846326 0.845584 0.844053 0.838773 0.835192 0.830215 0.828528 0.826911 0.828207 0.827745 0.830507 0.825753 0.837244 0.827259 0.820006 0.825310 0.832727 0.833478 0.833201 0.835223 0.832821 0.835024 0.818236 0.814811 0.816774 0.770001 0.772395 0.764760 0.760645 0.730492 0.730526 0.723645 0.724651 0.717963 0.710805 0.722469 0.725258 0.685278 0.692690 0.686330 0.671403 0.646523 0.658508 0.672221 0.682542 0.680477 0.677479 0.664969 0.657490 0.667671 0.670216 0.674213 0.661569 0.656528 0.644172 0.649942 0.631912 0.636276 0.631915 0.631954 0.634054 0.631051 0.605310 0.614421 0.602228 0.586469 0.577538 0.559405 0.524584 0.511111 0.502752 0.475969 0.457919 0.474739 0.467575 0.448339 0.433996 0.419408 0.409633 0.416062 0.414471 0.420549 0.422808 0.416219 0.370012 0.382587 0.377456 0.374289 0.361330 0.381985 0.373522 0.327532 0.302221 0.275570 0.294133 0.304181 0.305095 0.287191 0.275835 0.287361 0.242124 0.243236 0.242390 0.263035 0.223082 0.165059 0.191578 0.190437 0.191314 0.186025 0.142844 0.166257 0.144240 0.156989 0.166019 0.108485 0.077847 0.066996 0.050562 0.060302 0.084903 0.092662 0.075537 0.061713 -0.042984 -0.005970 0.021195 0.021195 0.021195 0.021195 0.021195 0.021195 0.021195 0.021195 0.021195 0.021195 0.021195 -0.042433 -0.042433 -0.042433 -0.042433 -0.042433 -0.042433 -0.042433 -0.042433 -0.042433 -0.042433 -0.042433 -0.042433 -0.042433 -0.042433 -0.042433 -0.042433 -0.042433 -0.042433 -0.042433
0.000000 0.000000 0.000000 0.000000 0.000000 0.000000 0.000000 0.000000 0.000000 0.000000 0.000000 0.000000 0.000000 0.000000 0.000000 0.000000 0.000000 0.000000 0.000000 0.000000 0.000000 0.000000 0.000000 0.000000 0.000000 0.000000 0.000000 0.000000 0.000000 0.000000 0.000000 0.000000 0.000000 0.000000 0.000000 0.000000 0.000000 0.000000 0.000000 0.000000 0.000000 0.000000 0.000000 0.000000 0.000000 0.000000 0.000000 0.000000 0.000000 0.000000 0.000000 0.000000 0.173422 0.173422 0.173422 0.173422 0.173422 0.173422 0.173422 0.191565 0.191565 0.191565 0.191565 0.191565 0.191565 0.191565 0.191565 0.191565 0.191565 0.191565 0.191565 0.191565 0.191565 0.191565 0.191565 0.191565 0.191565 0.191565 0.191565 0.191565 0.191565 0.191565 0.191565 0.191565 0.191565 0.191565 0.191565 0.191565 0.191565 0.191565 0.191565 0.191565 0.191565 0.191565 0.191565 0.191565 0.191565 0.191565 0.191565 0.191565 0.191565 0.191565 0.191565 0.219529 0.219529 0.219529 0.219529 0.219529 0.219529 0.219529 0.219529 0.219529 0.219529 0.219529 0.219529 0.219529 0.219529 0.219529 0.219529 0.219529 0.219529 0.219529 0.219529 0.219529 0.219529 0.219529 0.219529 0.219529 0.219529 0.219529 0.219529 0.219529 0.219529 0.219529 0.237356 0.237356 0.237356 0.237356 0.237356 0.237356 0.237356 0.237356 0.237356 0.237356 0.237356 0.237356 0.237356 0.237356 0.237356 0.237356 0.237356 0.237356 0.237356 0.237356 0.237356 0.237356 0.237356 0.237356 0.244339 0.244339 0.244339 0.244339 0.244339 0.244339 0.244339 0.244339 0.244339 0.244339 0.244339 0.244339 0.244339 0.244339 0.244339 0.244339 0.244339 0.244339 0.244339 0.244339 0.244339 0.248069 0.248069 0.248069 0.248069 0.248069 0.248069 0.248069 0.248069 0.248069 0.248069 0.248069 0.248069 0.248069 0.248069 0.248069 0.248069 0.248069 0.248069 0.248069 0.248069 0.248069 0.248069 0.248069 0.248069 0.248069 0.248069 0.248069 0.248069 0.248069 0.248069 0.248069 0.248069 0.248069 0.248069 0.248069 0.248069 0.248069 0.256074 0.256074 0.256074 0.256074 0.256074 0.256074 0.256074 0.256074 0.256074 0.256074 0.256074 0.256074 0.256074 0.256074 0.256074 0.256074 0.256074 0.256074 0.256074 0.256074 0.256074 0.256074 0.256074 0.256074 0.256074 0.256074 0.256074 0.256074 0.256074 0.256074 0.256074 0.256074 0.256074 0.256074 0.256074 0.256074 0.256074 0.256074 0.256074 0.256074 0.256074 0.256074 0.256074 0.256074 0.256074 0.260378 0.260378 0.260378 0.260378 0.260378 0.260378 0.260378 0.260378 0.260378 0.260378 0.260378 0.260378 0.260378 0.256074 0.256074 0.256074 0.256074 0.256074 0.256074 0.256074 0.256074 0.256074 0.256074 0.256074 0.256074 0.256074 0.260378 0.260378 0.260378 0.260378 0.260378 0.260378 0.260378 0.260378 0.260378 0.260378 0.260378 0.260378 0.251976 0.251976 0.251976 0.251976 0.251976 0.251976 0.251976 0.251976 0.251976 0.251976 0.251976 0.251976 0.256074 0.256074 0.256074 0.256074 0.256074 0.256074 0.256074 0.256074 0.256074 0.256074 0.256074 0.251976 0.251976 0.251976 0.251976 0.251976 0.251976 0.251976 0.251976 0.251976 0.251976 0.251976 0.248069 0.248069 0.248069 0.248069 0.248069 0.248069 0.248069 0.248069 0.248069 0.248069 0.248069 0.256074 0.256074 0.256074 0.256074 0.256074 0.256074 0.256074 0.256074 0.256074 0.256074 0.256074 0.256074 0.256074 0.256074 0.256074 0.256074 0.256074 0.256074 0.256074
