# Output from CTFFind version 4.1.9, run on 2019-11-03 20:06:05
# Input file: stack6_bm3d_averaged_1_5.5_0_1000_half.mrc ; Number of micrographs: 1
# Pixel size: 3.000 Angstroms ; acceleration voltage: 300.0 keV ; spherical aberration: 0.00 mm ; amplitude contrast: 0.07
# Box size: 512 pixels ; min. res.: 30.0 Angstroms ; max. res.: 5.0 Angstroms ; min. def.: 5000.0 um; max. def. 50000.0 um; num. frames averaged: 1
# 6 lines per micrograph: #1 - spatial frequency (1/Angstroms); #2 - 1D rotational average of spectrum (assuming no astigmatism); #3 - 1D rotational average of spectrum; #4 - CTF fit; #5 - cross-correlation between spectrum and CTF fit; #6 - 2sigma of expected cross correlation of noise
0.000000 0.000651 0.001302 0.001953 0.002604 0.003255 0.003906 0.004557 0.005208 0.005859 0.006510 0.007161 0.007812 0.008464 0.009115 0.009766 0.010417 0.011068 0.011719 0.012370 0.013021 0.013672 0.014323 0.014974 0.015625 0.016276 0.016927 0.017578 0.018229 0.018880 0.019531 0.020182 0.020833 0.021484 0.022135 0.022786 0.023438 0.024089 0.024740 0.025391 0.026042 0.026693 0.027344 0.027995 0.028646 0.029297 0.029948 0.030599 0.031250 0.031901 0.032552 0.033203 0.033854 0.034505 0.035156 0.035807 0.036458 0.037109 0.037760 0.038411 0.039062 0.039714 0.040365 0.041016 0.041667 0.042318 0.042969 0.043620 0.044271 0.044922 0.045573 0.046224 0.046875 0.047526 0.048177 0.048828 0.049479 0.050130 0.050781 0.051432 0.052083 0.052734 0.053385 0.054036 0.054688 0.055339 0.055990 0.056641 0.057292 0.057943 0.058594 0.059245 0.059896 0.060547 0.061198 0.061849 0.062500 0.063151 0.063802 0.064453 0.065104 0.065755 0.066406 0.067057 0.067708 0.068359 0.069010 0.069661 0.070312 0.070964 0.071615 0.072266 0.072917 0.073568 0.074219 0.074870 0.075521 0.076172 0.076823 0.077474 0.078125 0.078776 0.079427 0.080078 0.080729 0.081380 0.082031 0.082682 0.083333 0.083984 0.084635 0.085286 0.085938 0.086589 0.087240 0.087891 0.088542 0.089193 0.089844 0.090495 0.091146 0.091797 0.092448 0.093099 0.093750 0.094401 0.095052 0.095703 0.096354 0.097005 0.097656 0.098307 0.098958 0.099609 0.100260 0.100911 0.101562 0.102214 0.102865 0.103516 0.104167 0.104818 0.105469 0.106120 0.106771 0.107422 0.108073 0.108724 0.109375 0.110026 0.110677 0.111328 0.111979 0.112630 0.113281 0.113932 0.114583 0.115234 0.115885 0.116536 0.117188 0.117839 0.118490 0.119141 0.119792 0.120443 0.121094 0.121745 0.122396 0.123047 0.123698 0.124349 0.125000 0.125651 0.126302 0.126953 0.127604 0.128255 0.128906 0.129557 0.130208 0.130859 0.131510 0.132161 0.132812 0.133464 0.134115 0.134766 0.135417 0.136068 0.136719 0.137370 0.138021 0.138672 0.139323 0.139974 0.140625 0.141276 0.141927 0.142578 0.143229 0.143880 0.144531 0.145182 0.145833 0.146484 0.147135 0.147786 0.148438 0.149089 0.149740 0.150391 0.151042 0.151693 0.152344 0.152995 0.153646 0.154297 0.154948 0.155599 0.156250 0.156901 0.157552 0.158203 0.158854 0.159505 0.160156 0.160807 0.161458 0.162109 0.162760 0.163411 0.164062 0.164714 0.165365 0.166016 0.166667 0.167318 0.167969 0.168620 0.169271 0.169922 0.170573 0.171224 0.171875 0.172526 0.173177 0.173828 0.174479 0.175130 0.175781 0.176432 0.177083 0.177734 0.178385 0.179036 0.179688 0.180339 0.180990 0.181641 0.182292 0.182943 0.183594 0.184245 0.184896 0.185547 0.186198 0.186849 0.187500 0.188151 0.188802 0.189453 0.190104 0.190755 0.191406 0.192057 0.192708 0.193359 0.194010 0.194661 0.195312 0.195964 0.196615 0.197266 0.197917 0.198568 0.199219 0.199870 0.200521 0.201172 0.201823 0.202474 0.203125 0.203776 0.204427 0.205078 0.205729 0.206380 0.207031 0.207682 0.208333 0.208984 0.209635 0.210286 0.210938 0.211589 0.212240 0.212891 0.213542 0.214193 0.214844 0.215495 0.216146 0.216797 0.217448 0.218099 0.218750 0.219401 0.220052 0.220703 0.221354 0.222005 0.222656 0.223307 0.223958 0.224609 0.225260 0.225911 0.226562 0.227214 0.227865 0.228516 0.229167 0.229818 0.230469 0.231120 0.231771 0.232422 0.233073 0.233724 0.234375 0.235026 0.235677
       0.30957        0.30957        0.30957        0.30957        0.30957        0.30957        0.30957        0.30957        0.30957        0.30957        0.30957        0.30957        0.30957        0.30957        0.30957        0.30957        0.30957        0.30957        0.30957        0.30957        0.30957        0.30957        0.30957        0.30957        0.30957        0.30957        0.30957        0.30957        0.30957        0.30957        0.30957        0.30957        0.30957        0.30957        0.30957        0.30957        0.30957        0.30957        0.30957        0.30957        0.30957        0.30957        0.30957        0.30957        0.30957        0.30957        0.30957        0.30957        0.30957        0.30957        0.30957        0.59712        0.72096        0.35436        0.18124        0.12540       -0.14982        0.10573        0.02642        0.03089        0.08747        0.30465        0.32369        0.24969        0.14564       -0.04163       -0.01461        0.03926       -0.13045       -0.13894       -0.08667       -0.10463       -0.22392       -0.14674       -0.26441       -0.27813       -0.27680       -0.34148       -0.41903       -0.35890       -0.26698       -0.23727       -0.33712       -0.25034       -0.30636       -0.24592       -0.17041       -0.11845       -0.08250       -0.01294        0.02157        0.12200        0.16522        0.21057        0.33348        0.39889        0.35246        0.46198        0.54693        0.55500        0.63655        0.57405        0.60754        0.59665        0.60939        0.61144        0.55243        0.57170        0.54810        0.38939        0.32801        0.36121        0.34128        0.19018        0.16050        0.13096        0.08186        0.08821        0.00131        0.05998        0.03890       -0.00518        0.09573        0.15967        0.25698        0.34961        0.33945        0.36846        0.45518        0.48956        0.41878        0.64634        0.53356        0.47852        0.56825        0.49768        0.53161        0.49296        0.36566        0.30366        0.27142        0.22312        0.20960        0.19065        0.16921        0.12435        0.20177        0.18732        0.22790        0.19909        0.26170        0.30719        0.32756        0.44130        0.42859        0.40928        0.42799        0.47086        0.44326        0.43290        0.38745        0.39849        0.33403        0.28228        0.23749        0.24604        0.23913        0.18767        0.15934        0.21533        0.22050        0.26462        0.33652        0.35370        0.40955        0.39080        0.43430        0.45734        0.45005        0.42204        0.38826        0.40841        0.36759        0.32635        0.32839        0.30766        0.25313        0.27112        0.26904        0.22761        0.29184        0.27062        0.28178        0.31520        0.36969        0.40584        0.39846        0.42007        0.37172        0.40715        0.38747        0.30132        0.28193        0.24024        0.25538        0.21890        0.19779        0.28353        0.33854        0.31046        0.28149        0.33844        0.26392        0.32488        0.37246        0.36656        0.35962        0.37951        0.32261        0.33730        0.31933        0.28156        0.27691        0.23993        0.28653        0.29908        0.31039        0.32901        0.37193        0.37218        0.36630        0.32841        0.34853        0.33324        0.31796        0.31514        0.28338        0.28274        0.25097        0.31235        0.32337        0.31438        0.28888        0.32405        0.32739        0.32839        0.33982        0.31184        0.27864        0.28570        0.28551        0.26406        0.24289        0.23204        0.24281        0.25832        0.24326        0.27958        0.27858        0.32009        0.31846        0.26744        0.30015        0.26417        0.20767        0.26211        0.24202        0.23048        0.27416        0.29969        0.29364        0.29486        0.29650        0.29362        0.30532        0.32097        0.27200        0.30676        0.30442        0.34972        0.27661        0.26390        0.25554        0.30627        0.31175        0.31935        0.33575        0.30879        0.22286        0.27957        0.25216        0.24179        0.24194        0.24567        0.28306        0.23446        0.29853        0.31063        0.34290        0.30815        0.28518        0.24630        0.26070        0.26507        0.23553        0.25920        0.27766        0.31138        0.33004        0.29551        0.28788        0.26471        0.30086        0.26641        0.23153        0.19437        0.27730        0.33434        0.31576        0.30455        0.28887        0.23589        0.21934        0.23733        0.23010        0.22928        0.26734        0.27480        0.25742        0.23411        0.21756        0.26800        0.24104        0.24619        0.26074        0.25756        0.17826        0.22480        0.24923        0.23547        0.28787        0.24405        0.23781        0.19565        0.24498        0.27627        0.19947        0.20829        0.12832        0.14622        0.31143        0.17550        0.18756        0.30916        0.18899        0.16753        0.11687        0.21974        0.12944        0.15600       -0.05633       -0.60538       -0.94783
2.522456 2.499332 2.476322 2.453424 2.430640 2.407969 2.385411 2.362966 2.340634 2.318415 2.296310 2.274318 2.252439 2.230673 2.209020 2.187480 2.166054 2.144740 2.123540 2.102453 2.081479 2.060618 2.039870 2.019236 1.998714 1.978306 1.958011 1.937829 1.917760 1.897805 1.877962 1.858233 1.838617 1.819114 1.799724 1.780447 1.761283 1.742233 1.723295 1.704471 1.685760 1.667162 1.648678 1.630306 1.612048 1.593902 1.575870 1.557951 1.540145 1.522453 1.504873 1.883181 2.228638 1.540904 1.399991 1.129241 0.551855 0.951978 0.839076 0.879607 0.733039 1.423156 1.261385 1.272118 1.016572 0.656757 0.503239 0.774031 0.575375 0.235803 0.302999 0.478899 0.212785 0.242803 0.089192 -0.015020 -0.045502 -0.042283 -0.340565 -0.216416 -0.047344 -0.083668 -0.142772 -0.051700 -0.182131 -0.157824 0.028148 0.126761 0.196371 0.243627 0.322167 0.581838 0.529243 0.606416 0.825622 1.007589 0.800076 1.206224 1.174384 1.240699 1.347724 1.249814 1.198942 1.357212 1.218149 1.357988 1.172651 1.112682 1.199019 0.950768 0.645277 0.710135 0.765929 0.453116 0.371097 0.315942 0.155995 0.151995 -0.005481 0.134683 0.100120 -0.042810 0.066041 0.191107 0.309188 0.583922 0.571586 0.538818 0.701538 0.872098 0.571166 1.026438 0.966580 0.766542 0.898311 0.743688 0.826455 0.852146 0.567122 0.380807 0.354101 0.292884 0.176586 0.131339 0.137742 -0.059761 0.137153 0.106348 0.192078 0.073962 0.243747 0.289999 0.251424 0.474165 0.576667 0.492633 0.381760 0.593695 0.577288 0.472127 0.483126 0.426818 0.296171 0.310365 0.095261 0.154808 0.025708 0.159031 -0.098720 0.017237 -0.003841 0.213169 0.079401 0.353972 0.310269 0.369429 0.413802 0.408461 0.618118 0.416196 0.413519 0.480625 0.270473 0.367192 0.203779 0.302178 0.121003 0.166673 0.129879 0.123144 0.068148 0.193837 0.093262 0.183041 0.282496 0.318801 0.371344 0.306089 0.391352 0.302158 0.330235 0.219016 0.127043 0.073363 0.017963 0.039556 -0.058478 -0.028315 0.127185 0.230916 0.096636 0.139645 0.127900 0.062030 0.228052 0.275668 0.238860 0.291245 0.183371 0.181016 0.157710 0.145297 0.096275 -0.022650 0.022601 0.187877 0.034014 0.179176 0.146036 0.278546 0.210793 0.257683 0.220516 0.242107 0.140828 0.172298 0.168418 0.095803 0.039108 0.075539 0.162467 0.181515 0.151412 0.097721 0.191186 0.161116 0.133512 0.161883 0.057568 0.012984 0.065656 0.022330 0.007984 -0.053368 -0.066474 0.003286 -0.024480 -0.053627 0.038379 0.050977 0.107112 0.076641 -0.024870 0.070143 -0.056321 -0.101891 0.027794 -0.074467 -0.088397 0.052826 0.058579 0.025909 0.085778 -0.070527 0.065828 0.137896 -0.017846 -0.000752 0.105563 0.041683 0.141398 -0.037614 -0.012802 -0.050717 0.133978 0.031583 0.083887 0.123093 0.028553 -0.102158 -0.005965 -0.038930 -0.061118 -0.063794 -0.051938 0.007122 -0.110490 0.089749 0.102808 0.166324 0.055089 -0.008026 -0.018116 -0.001216 0.028891 -0.059522 0.038512 0.025386 0.141821 0.120836 0.083643 0.074449 0.044344 0.154755 -0.013649 0.006769 -0.115886 0.123708 0.194996 0.076799 0.181915 0.019970 -0.020594 -0.052020 -0.034802 -0.019257 -0.021315 0.053557 0.093095 0.029278 -0.000125 -0.036873 0.103732 0.068077 0.065763 0.097858 0.051752 -0.020272 0.032657 0.124325 0.055146 0.223800 0.069197 0.091513 0.088383 0.148768 0.214211 0.108670 0.104668 -0.054275 -0.105875 0.509092 0.338081 0.400120 0.579151 0.288243 0.310764 0.139567 0.520268 0.247706 0.342550 -0.095568 -1.772649
0.072396 0.072837 0.074160 0.076365 0.079451 0.083417 0.088263 0.093987 0.100589 0.108065 0.116413 0.125630 0.135713 0.146657 0.158456 0.171104 0.184593 0.198914 0.214056 0.230008 0.246756 0.264283 0.282572 0.301602 0.321350 0.341791 0.362895 0.384631 0.406964 0.429855 0.453262 0.477137 0.501431 0.526087 0.551048 0.576247 0.601617 0.627083 0.652567 0.677983 0.703242 0.728249 0.752905 0.777103 0.800734 0.823682 0.845826 0.867042 0.887200 0.906168 0.923807 0.939979 0.954540 0.967346 0.978251 0.987109 0.993772 0.998097 0.999941 0.999164 0.995631 0.989213 0.979787 0.967240 0.951466 0.932374 0.909882 0.883924 0.854452 0.821431 0.784849 0.744714 0.701054 0.653923 0.603400 0.549590 0.492625 0.432668 0.369910 0.304573 0.236910 0.167204 0.095771 0.022956 0.050864 0.125284 0.199872 0.274168 0.347689 0.419933 0.490376 0.558483 0.623706 0.685491 0.743284 0.796532 0.844694 0.887243 0.923674 0.953508 0.976303 0.991658 0.999220 0.998692 0.989838 0.972491 0.946560 0.912032 0.868983 0.817577 0.758073 0.690826 0.616292 0.535023 0.447672 0.354988 0.257812 0.157076 0.053792 0.050957 0.156020 0.260196 0.362244 0.460900 0.554887 0.642940 0.723816 0.796321 0.859323 0.911775 0.952733 0.981380 0.997038 0.999192 0.987504 0.961825 0.922213 0.868937 0.802486 0.723574 0.633136 0.532326 0.422507 0.305238 0.182258 0.055465 0.073116 0.201354 0.327053 0.447985 0.561934 0.666734 0.760315 0.840748 0.906286 0.955410 0.986869 0.999716 0.993342 0.967505 0.922348 0.858417 0.776663 0.678444 0.565508 0.439976 0.304307 0.161258 0.013834 0.134769 0.281233 0.422192 0.554307 0.674348 0.779281 0.866346 0.933138 0.977683 0.998505 0.994683 0.965897 0.912461 0.835338 0.736142 0.617116 0.481099 0.331468 0.172066 0.007109 0.158917 0.321374 0.475604 0.617062 0.741460 0.844894 0.923985 0.976000 0.998954 0.991703 0.954011 0.886587 0.791097 0.670143 0.527214 0.366599 0.193276 0.012764 0.169041 0.346053 0.512205 0.661654 0.789000 0.889487 0.959197 0.995218 0.995784 0.960379 0.889795 0.786145 0.652830 0.494446 0.316650 0.125975 0.070400 0.264913 0.449898 0.617904 0.761991 0.876034 0.954997 0.995184 0.994423 0.952215 0.869799 0.750155 0.597928 0.419277 0.221641 0.013461 0.196176 0.397933 0.582622 0.741647 0.867414 0.953704 0.996020 0.991837 0.940786 0.844731 0.707743 0.535965 0.337367 0.121402 0.101424 0.320051 0.523413 0.701005 0.843435 0.942945 0.993866 0.992967 0.939700 0.836296 0.687722 0.501489 0.287300 0.056579 0.178117 0.403775 0.607643 0.777967 0.904686 0.980057 0.999162 0.960274 0.865039 0.718461 0.528694 0.306634 0.065312 0.180819 0.416763 0.627881 0.800818 0.924369 0.990241 0.993660 0.933754 0.813711 0.640672 0.425351 0.181435 0.075277 0.327846 0.559334 0.753932 0.898066 0.981389 0.997560 0.944789 0.826061 0.649048 0.425668 0.171329 0.096075 0.357426 0.593727 0.787499 0.924102 0.992893 0.988101 0.909378 0.761943 0.556318 0.307628 0.034563 0.242018 0.500645 0.720920 0.885142 0.979778 0.996641 0.933654 0.795163 0.591716 0.339339 0.058320 0.228356 0.496894 0.724651 0.892079 0.984449 0.993213 0.916873 0.761249 0.539142 0.269351 0.024867 0.317734 0.583228 0.797377 0.940487 0.999000 0.966860 0.846222 0.647417 0.388170 0.092083 0.213443 0.499740 0.739536 0.909613 0.993094 0.981214 0.874320 0.682024 0.422442 0.120571 0.194055 0.490215 0.738110 0.912386 0.994800
1.000000 1.000000 1.000000 1.000000 1.000000 1.000000 1.000000 1.000000 1.000000 1.000000 1.000000 1.000000 1.000000 1.000000 1.000000 1.000000 1.000000 1.000000 1.000000 1.000000 1.000000 1.000000 1.000000 1.000000 1.000000 1.000000 1.000000 1.000000 1.000000 1.000000 1.000000 1.000000 1.000000 1.000000 1.000000 1.000000 1.000000 1.000000 1.000000 1.000000 1.000000 1.000000 1.000000 1.000000 1.000000 1.000000 1.000000 1.000000 1.000000 1.000000 1.000000 1.000000 0.781969 0.781969 0.781969 0.781969 0.781969 0.781969 0.781969 0.767770 0.767770 0.767770 0.767770 0.767770 0.767770 0.767770 0.767770 0.767770 0.767770 0.767770 0.767770 0.767770 0.767770 0.767770 0.767770 0.767770 0.767770 0.767770 0.767770 0.767770 0.767770 0.767770 0.767770 0.767770 0.767770 0.767770 0.767770 0.767770 0.767770 0.767770 0.767770 0.767770 0.767770 0.767770 0.767770 0.767770 0.767770 0.767770 0.767770 0.767770 0.767770 0.767770 0.767770 0.917127 0.917381 0.919825 0.913878 0.915631 0.913299 0.907455 0.910401 0.909507 0.909392 0.910220 0.911332 0.913139 0.918317 0.924895 0.926740 0.934716 0.938334 0.939546 0.939385 0.936788 0.943415 0.941095 0.938940 0.928041 0.931145 0.930361 0.930926 0.929405 0.929861 0.931744 0.932094 0.929623 0.928139 0.925717 0.924124 0.924391 0.923916 0.923834 0.923982 0.923257 0.924010 0.924684 0.920285 0.921697 0.920014 0.917440 0.912944 0.912772 0.913644 0.906687 0.904416 0.894394 0.889498 0.889637 0.891649 0.888768 0.888049 0.889908 0.890649 0.891342 0.888574 0.888687 0.885873 0.886059 0.881873 0.877300 0.872798 0.872194 0.874858 0.881513 0.885165 0.884983 0.882151 0.876533 0.868034 0.866260 0.850667 0.824103 0.826207 0.829442 0.832060 0.832781 0.831854 0.830587 0.827158 0.821059 0.814741 0.820245 0.820679 0.811660 0.799542 0.799802 0.796308 0.803988 0.807639 0.799561 0.802769 0.801853 0.807238 0.807835 0.806303 0.805484 0.799795 0.801614 0.810111 0.810785 0.801707 0.794601 0.790261 0.773035 0.775774 0.779943 0.791101 0.794379 0.787769 0.772508 0.782443 0.778364 0.790330 0.803727 0.804941 0.803601 0.787688 0.747320 0.735508 0.730882 0.733610 0.735019 0.724640 0.722215 0.722023 0.724537 0.686158 0.677806 0.668384 0.664029 0.671097 0.673701 0.678296 0.628998 0.649158 0.646882 0.630450 0.625887 0.590556 0.572062 0.516890 0.522646 0.523897 0.502857 0.488662 0.474390 0.491973 0.503744 0.503148 0.496792 0.472950 0.457553 0.452991 0.455444 0.464653 0.465175 0.470739 0.428381 0.407293 0.402012 0.423521 0.427827 0.425863 0.440674 0.447882 0.450195 0.438643 0.418849 0.413570 0.428032 0.438213 0.445481 0.445848 0.430545 0.410453 0.389213 0.392909 0.436639 0.430562 0.422051 0.405445 0.411723 0.405648 0.381650 0.356151 0.335252 0.375553 0.382437 0.386482 0.348895 0.312864 0.326958 0.324268 0.319420 0.306857 0.347195 0.371494 0.367822 0.371431 0.361784 0.409273 0.488671 0.474523 0.469700 0.482364 0.472095 0.458383 0.437094 0.420007 0.417975 0.407064 0.397615 0.381323 0.372755 0.359605 0.358701 0.377165 0.380249 0.411668 0.392779 0.345816 0.198904 0.251169 0.251169 0.251169 0.251169 0.251169 0.251169 0.251169 0.251169 0.251169 0.251169 0.251169 0.195258 0.195258 0.195258 0.195258 0.195258 0.195258 0.195258 0.195258 0.195258 0.195258 0.195258 0.195258 0.195258 0.195258 0.195258 0.195258 0.195258 0.195258 0.195258 0.195258
0.000000 0.000000 0.000000 0.000000 0.000000 0.000000 0.000000 0.000000 0.000000 0.000000 0.000000 0.000000 0.000000 0.000000 0.000000 0.000000 0.000000 0.000000 0.000000 0.000000 0.000000 0.000000 0.000000 0.000000 0.000000 0.000000 0.000000 0.000000 0.000000 0.000000 0.000000 0.000000 0.000000 0.000000 0.000000 0.000000 0.000000 0.000000 0.000000 0.000000 0.000000 0.000000 0.000000 0.000000 0.000000 0.000000 0.000000 0.000000 0.000000 0.000000 0.000000 0.000000 0.173422 0.173422 0.173422 0.173422 0.173422 0.173422 0.173422 0.191565 0.191565 0.191565 0.191565 0.191565 0.191565 0.191565 0.191565 0.191565 0.191565 0.191565 0.191565 0.191565 0.191565 0.191565 0.191565 0.191565 0.191565 0.191565 0.191565 0.191565 0.191565 0.191565 0.191565 0.191565 0.191565 0.191565 0.191565 0.191565 0.191565 0.191565 0.191565 0.191565 0.191565 0.191565 0.191565 0.191565 0.191565 0.191565 0.191565 0.191565 0.191565 0.191565 0.191565 0.222222 0.222222 0.222222 0.222222 0.222222 0.222222 0.222222 0.222222 0.222222 0.222222 0.222222 0.222222 0.222222 0.222222 0.222222 0.222222 0.222222 0.222222 0.222222 0.222222 0.222222 0.222222 0.222222 0.222222 0.222222 0.222222 0.222222 0.222222 0.222222 0.222222 0.234082 0.234082 0.234082 0.234082 0.234082 0.234082 0.234082 0.234082 0.234082 0.234082 0.234082 0.234082 0.234082 0.234082 0.234082 0.234082 0.234082 0.234082 0.234082 0.234082 0.234082 0.234082 0.234082 0.234082 0.234082 0.244339 0.244339 0.244339 0.244339 0.244339 0.244339 0.244339 0.244339 0.244339 0.244339 0.244339 0.244339 0.244339 0.244339 0.244339 0.244339 0.244339 0.244339 0.244339 0.244339 0.244339 0.248069 0.248069 0.248069 0.248069 0.248069 0.248069 0.248069 0.248069 0.248069 0.248069 0.248069 0.248069 0.248069 0.248069 0.248069 0.248069 0.248069 0.248069 0.248069 0.256074 0.256074 0.256074 0.256074 0.256074 0.256074 0.256074 0.256074 0.256074 0.256074 0.256074 0.256074 0.256074 0.256074 0.256074 0.256074 0.256074 0.256074 0.256074 0.256074 0.256074 0.256074 0.256074 0.256074 0.256074 0.256074 0.256074 0.256074 0.256074 0.256074 0.256074 0.256074 0.256074 0.256074 0.256074 0.256074 0.256074 0.256074 0.256074 0.256074 0.256074 0.256074 0.256074 0.256074 0.256074 0.256074 0.256074 0.256074 0.256074 0.256074 0.256074 0.256074 0.256074 0.256074 0.256074 0.256074 0.256074 0.256074 0.256074 0.256074 0.256074 0.256074 0.260378 0.260378 0.260378 0.260378 0.260378 0.260378 0.260378 0.260378 0.260378 0.260378 0.260378 0.260378 0.260378 0.256074 0.256074 0.256074 0.256074 0.256074 0.256074 0.256074 0.256074 0.256074 0.256074 0.256074 0.256074 0.256074 0.260378 0.260378 0.260378 0.260378 0.260378 0.260378 0.260378 0.260378 0.260378 0.260378 0.260378 0.260378 0.251976 0.251976 0.251976 0.251976 0.251976 0.251976 0.251976 0.251976 0.251976 0.251976 0.251976 0.251976 0.256074 0.256074 0.256074 0.256074 0.256074 0.256074 0.256074 0.256074 0.256074 0.256074 0.256074 0.251976 0.251976 0.251976 0.251976 0.251976 0.251976 0.251976 0.251976 0.251976 0.251976 0.251976 0.248069 0.248069 0.248069 0.248069 0.248069 0.248069 0.248069 0.248069 0.248069 0.248069 0.248069 0.256074 0.256074 0.256074 0.256074 0.256074 0.256074 0.256074 0.256074 0.256074 0.256074 0.256074 0.256074 0.256074 0.256074 0.256074 0.256074 0.256074 0.256074 0.256074 0.256074
