# Output from CTFFind version 4.1.9, run on 2019-11-03 20:07:23
# Input file: stack16_bm3d_averaged_1_7.5_0_1250_half.mrc ; Number of micrographs: 1
# Pixel size: 3.000 Angstroms ; acceleration voltage: 300.0 keV ; spherical aberration: 0.00 mm ; amplitude contrast: 0.07
# Box size: 512 pixels ; min. res.: 30.0 Angstroms ; max. res.: 5.0 Angstroms ; min. def.: 5000.0 um; max. def. 50000.0 um; num. frames averaged: 1
# 6 lines per micrograph: #1 - spatial frequency (1/Angstroms); #2 - 1D rotational average of spectrum (assuming no astigmatism); #3 - 1D rotational average of spectrum; #4 - CTF fit; #5 - cross-correlation between spectrum and CTF fit; #6 - 2sigma of expected cross correlation of noise
0.000000 0.000651 0.001302 0.001953 0.002604 0.003255 0.003906 0.004557 0.005208 0.005859 0.006510 0.007161 0.007812 0.008464 0.009115 0.009766 0.010417 0.011068 0.011719 0.012370 0.013021 0.013672 0.014323 0.014974 0.015625 0.016276 0.016927 0.017578 0.018229 0.018880 0.019531 0.020182 0.020833 0.021484 0.022135 0.022786 0.023438 0.024089 0.024740 0.025391 0.026042 0.026693 0.027344 0.027995 0.028646 0.029297 0.029948 0.030599 0.031250 0.031901 0.032552 0.033203 0.033854 0.034505 0.035156 0.035807 0.036458 0.037109 0.037760 0.038411 0.039062 0.039714 0.040365 0.041016 0.041667 0.042318 0.042969 0.043620 0.044271 0.044922 0.045573 0.046224 0.046875 0.047526 0.048177 0.048828 0.049479 0.050130 0.050781 0.051432 0.052083 0.052734 0.053385 0.054036 0.054688 0.055339 0.055990 0.056641 0.057292 0.057943 0.058594 0.059245 0.059896 0.060547 0.061198 0.061849 0.062500 0.063151 0.063802 0.064453 0.065104 0.065755 0.066406 0.067057 0.067708 0.068359 0.069010 0.069661 0.070312 0.070964 0.071615 0.072266 0.072917 0.073568 0.074219 0.074870 0.075521 0.076172 0.076823 0.077474 0.078125 0.078776 0.079427 0.080078 0.080729 0.081380 0.082031 0.082682 0.083333 0.083984 0.084635 0.085286 0.085938 0.086589 0.087240 0.087891 0.088542 0.089193 0.089844 0.090495 0.091146 0.091797 0.092448 0.093099 0.093750 0.094401 0.095052 0.095703 0.096354 0.097005 0.097656 0.098307 0.098958 0.099609 0.100260 0.100911 0.101562 0.102214 0.102865 0.103516 0.104167 0.104818 0.105469 0.106120 0.106771 0.107422 0.108073 0.108724 0.109375 0.110026 0.110677 0.111328 0.111979 0.112630 0.113281 0.113932 0.114583 0.115234 0.115885 0.116536 0.117188 0.117839 0.118490 0.119141 0.119792 0.120443 0.121094 0.121745 0.122396 0.123047 0.123698 0.124349 0.125000 0.125651 0.126302 0.126953 0.127604 0.128255 0.128906 0.129557 0.130208 0.130859 0.131510 0.132161 0.132812 0.133464 0.134115 0.134766 0.135417 0.136068 0.136719 0.137370 0.138021 0.138672 0.139323 0.139974 0.140625 0.141276 0.141927 0.142578 0.143229 0.143880 0.144531 0.145182 0.145833 0.146484 0.147135 0.147786 0.148438 0.149089 0.149740 0.150391 0.151042 0.151693 0.152344 0.152995 0.153646 0.154297 0.154948 0.155599 0.156250 0.156901 0.157552 0.158203 0.158854 0.159505 0.160156 0.160807 0.161458 0.162109 0.162760 0.163411 0.164062 0.164714 0.165365 0.166016 0.166667 0.167318 0.167969 0.168620 0.169271 0.169922 0.170573 0.171224 0.171875 0.172526 0.173177 0.173828 0.174479 0.175130 0.175781 0.176432 0.177083 0.177734 0.178385 0.179036 0.179688 0.180339 0.180990 0.181641 0.182292 0.182943 0.183594 0.184245 0.184896 0.185547 0.186198 0.186849 0.187500 0.188151 0.188802 0.189453 0.190104 0.190755 0.191406 0.192057 0.192708 0.193359 0.194010 0.194661 0.195312 0.195964 0.196615 0.197266 0.197917 0.198568 0.199219 0.199870 0.200521 0.201172 0.201823 0.202474 0.203125 0.203776 0.204427 0.205078 0.205729 0.206380 0.207031 0.207682 0.208333 0.208984 0.209635 0.210286 0.210938 0.211589 0.212240 0.212891 0.213542 0.214193 0.214844 0.215495 0.216146 0.216797 0.217448 0.218099 0.218750 0.219401 0.220052 0.220703 0.221354 0.222005 0.222656 0.223307 0.223958 0.224609 0.225260 0.225911 0.226562 0.227214 0.227865 0.228516 0.229167 0.229818 0.230469 0.231120 0.231771 0.232422 0.233073 0.233724 0.234375 0.235026 0.235677
       0.36267        0.36267        0.36267        0.36267        0.36267        0.36267        0.36267        0.36267        0.36267        0.36267        0.36267        0.36267        0.36267        0.36267        0.36267        0.36267        0.36267        0.36267        0.36267        0.36268        0.36267        0.36267        0.36267        0.36267        0.36267        0.36267        0.36267        0.36268        0.36267        0.36268        0.36267        0.36267        0.36267        0.36267        0.36267        0.36267        0.36267        0.36267        0.36268        0.36267        0.36267        0.36267        0.36267        0.36267        0.36267        0.36267        0.36268        0.36267        0.36267        0.36268        0.36267        0.43931        0.56123        0.34772       -0.21502       -0.44248       -0.53181       -0.63594       -0.70257       -0.70581       -0.79719       -0.87520       -0.66387       -0.81513       -0.80246       -0.94036       -0.98111       -0.86249       -0.82204       -0.78342       -0.69025       -0.62251       -0.53157       -0.43977       -0.37676       -0.14961       -0.04904        0.05873        0.27676        0.26917        0.32921        0.37859        0.41308        0.53921        0.54735        0.58232        0.53899        0.48313        0.51339        0.54364        0.46832        0.34354        0.23217        0.19687        0.12322        0.03420        0.01729        0.00732        0.07736        0.04396        0.09515        0.06769        0.18596        0.21094        0.41791        0.46886        0.55311        0.66124        0.68673        0.71549        0.64719        0.61712        0.55870        0.45287        0.39923        0.29647        0.23320        0.23181        0.12005        0.13491        0.14046        0.10579        0.11121        0.31429        0.43019        0.53726        0.53995        0.56971        0.60982        0.59188        0.57362        0.59148        0.57576        0.47926        0.32371        0.28084        0.27557        0.17663        0.10892        0.18874        0.23586        0.30330        0.36419        0.43897        0.48445        0.53983        0.60854        0.55446        0.50945        0.51977        0.36758        0.30153        0.27870        0.19318        0.22755        0.26017        0.29631        0.29829        0.34684        0.44315        0.47613        0.50521        0.46145        0.45025        0.49882        0.40935        0.33856        0.30040        0.27865        0.24929        0.23710        0.25089        0.35322        0.46298        0.44725        0.49387        0.55998        0.46509        0.42512        0.36767        0.33508        0.29190        0.29634        0.28292        0.30333        0.37665        0.38293        0.45492        0.47951        0.45323        0.47661        0.39363        0.38946        0.36190        0.28937        0.26986        0.27003        0.35544        0.39117        0.37335        0.39827        0.44074        0.45553        0.39744        0.34784        0.33616        0.36615        0.33159        0.29937        0.30591        0.37392        0.39024        0.40950        0.39811        0.40701        0.43348        0.41998        0.33932        0.30256        0.32246        0.35227        0.40204        0.37572        0.41310        0.36002        0.38072        0.40295        0.35521        0.36519        0.33411        0.31757        0.34968        0.36119        0.34445        0.37901        0.39310        0.34138        0.36142        0.33731        0.32909        0.31682        0.33507        0.34207        0.33846        0.37928        0.38960        0.37531        0.32041        0.31602        0.30029        0.34509        0.33044        0.32765        0.38320        0.36726        0.35205        0.33014        0.31873        0.31471        0.29084        0.33410        0.34867        0.36405        0.38331        0.36812        0.33600        0.35400        0.37516        0.35264        0.36497        0.35868        0.32970        0.34486        0.30431        0.32960        0.31559        0.32782        0.29647        0.33555        0.36133        0.33830        0.37039        0.32923        0.35014        0.36801        0.35209        0.33333        0.34784        0.38291        0.35877        0.37132        0.34541        0.32404        0.33866        0.32788        0.34181        0.34018        0.37973        0.33694        0.33836        0.31047        0.31115        0.28600        0.29288        0.37406        0.32437        0.33388        0.30285        0.27576        0.28428        0.37350        0.31621        0.29827        0.34016        0.32914        0.30086        0.26533        0.30638        0.28233        0.31895        0.32141        0.35858        0.34835        0.33518        0.32966        0.27850        0.29814        0.29991        0.30148        0.31638        0.36758        0.31311        0.22573        0.31590        0.31955        0.34993        0.28569        0.30425        0.28205        0.33122        0.28781        0.27462        0.28777        0.25514        0.31712        0.33374        0.32055        0.27220        0.33822        0.28663        0.24770        0.24049        0.33124        0.25723        0.15730        0.11344        0.19918        0.35790        0.28901        0.20019        0.16951       -0.35890       -0.53226
3.272166 3.230356 3.188818 3.147553 3.106560 3.065839 3.025391 2.985216 2.945313 2.905682 2.866323 2.827237 2.788424 2.749883 2.711614 2.673618 2.635894 2.598443 2.561264 2.524358 2.487724 2.451362 2.415273 2.379456 2.343912 2.308640 2.273641 2.238914 2.204459 2.170277 2.136367 2.102730 2.069365 2.036273 2.003453 1.970905 1.938630 1.906627 1.874897 1.843439 1.812254 1.781341 1.750700 1.720332 1.690237 1.660413 1.630863 1.601584 1.572578 1.543845 1.515384 1.552160 1.616280 1.556798 0.844087 0.604926 0.466273 0.395725 0.298152 0.227602 0.196974 -0.046637 0.216582 0.084133 -0.023742 -0.099242 -0.234308 -0.139225 -0.045841 -0.093762 -0.067279 0.041054 0.043478 0.237056 0.111376 0.361251 0.465710 0.504039 0.779127 0.681966 0.702129 0.821159 0.795342 0.849529 0.923472 0.851731 0.883251 0.725693 0.781695 0.844850 0.693510 0.604962 0.431711 0.429446 0.321265 0.194935 0.189041 0.111817 0.207636 0.118891 0.205363 0.103892 0.213268 0.225530 0.429336 0.394322 0.560928 0.598928 0.613976 0.709919 0.596678 0.562177 0.454406 0.406410 0.277417 0.256304 0.084850 0.143678 -0.035338 0.033237 -0.030615 -0.048918 -0.067323 0.015853 0.251160 0.284395 0.344744 0.280928 0.367940 0.374254 0.395568 0.377013 0.348044 0.314643 0.111539 0.063206 0.057692 -0.028818 -0.154380 -0.066101 -0.065882 0.029824 0.066341 0.138576 0.199423 0.214309 0.306908 0.394720 0.267142 0.356739 0.217579 0.143369 0.061443 0.029652 -0.000555 0.054226 0.067483 0.087799 0.117009 0.165140 0.234340 0.297581 0.259551 0.201579 0.247248 0.221468 0.106590 0.047535 0.056428 0.021179 0.003922 -0.034847 0.028268 0.164614 0.197475 0.182893 0.290340 0.184376 0.193093 0.070211 0.062287 0.019593 -0.006173 -0.008817 -0.012541 0.047223 0.081618 0.104091 0.157165 0.137803 0.223532 0.141198 0.076643 0.098063 0.037749 -0.045539 -0.015073 0.030865 0.072890 0.070126 0.062749 0.148785 0.107123 0.156008 0.037393 0.043112 0.046310 0.043880 0.027728 -0.018705 0.040266 0.054846 0.092856 0.098352 0.083620 0.113761 0.121340 0.079601 0.009592 -0.013568 0.016221 0.073043 0.079905 0.085715 0.081332 0.054005 0.098232 0.065832 0.041122 0.071053 -0.008697 0.009880 0.068190 0.040553 0.044387 0.079319 0.082484 0.046736 0.067364 0.020088 0.018153 0.014664 0.056838 0.020998 0.036999 0.076814 0.079925 0.046532 -0.004558 -0.000857 -0.019179 0.047785 0.002282 0.011982 0.073785 0.042176 0.006666 0.014446 -0.018319 0.002418 -0.036230 0.011012 0.024518 0.051297 0.044614 0.033361 0.004278 0.007948 0.048522 0.012194 0.033427 0.010331 -0.009986 0.013196 -0.042374 -0.032314 -0.050983 -0.011824 -0.070717 0.008707 0.008033 -0.005759 -0.014836 -0.001162 -0.003582 0.027885 0.006900 -0.011826 0.015287 0.026657 0.027464 0.036072 0.000484 0.007059 0.011600 -0.009512 0.016205 -0.005055 0.097738 0.025991 0.018364 0.005054 -0.006851 -0.025476 0.006053 0.074378 0.001571 0.043189 -0.026188 -0.025174 -0.022614 0.088996 0.002803 -0.025941 0.073400 0.051944 0.000925 -0.002501 0.008911 0.007872 0.047300 0.040060 0.103861 0.043424 0.056854 0.044873 -0.006795 0.025240 0.004185 0.001911 0.025067 0.081342 -0.003105 -0.074503 0.033627 0.013912 0.079791 -0.039415 -0.007140 -0.016995 0.012624 -0.008500 -0.035895 -0.004123 -0.067804 0.050586 0.033465 0.046961 -0.102653 0.050632 0.036061 -0.007408 -0.055877 0.103826 0.024752 -0.053868 -0.138820 0.169766 0.359077 0.243931 0.133439 0.169823 -0.513810
0.072396 0.073047 0.074998 0.078249 0.082799 0.088647 0.095791 0.104227 0.113951 0.124958 0.137243 0.150795 0.165606 0.181663 0.198950 0.217448 0.237136 0.257987 0.279971 0.303053 0.327191 0.352339 0.378442 0.405440 0.433265 0.461841 0.491081 0.520892 0.551169 0.581799 0.612657 0.643606 0.674500 0.705181 0.735480 0.765215 0.794193 0.822213 0.849059 0.874507 0.898324 0.920269 0.940091 0.957536 0.972345 0.984256 0.993007 0.998337 0.999991 0.997720 0.991287 0.980468 0.965054 0.944862 0.919729 0.889524 0.854148 0.813541 0.767681 0.716597 0.660363 0.599109 0.533024 0.462355 0.387412 0.308573 0.226280 0.141046 0.053448 0.035867 0.126189 0.216749 0.306719 0.395222 0.481337 0.564109 0.642558 0.715692 0.782519 0.842061 0.893370 0.935542 0.967738 0.989201 0.999271 0.997406 0.983200 0.956398 0.916915 0.864846 0.800485 0.724329 0.637087 0.539683 0.433257 0.319160 0.198941 0.074339 0.052742 0.180255 0.306038 0.427853 0.543421 0.650470 0.746778 0.830223 0.898841 0.950869 0.984805 0.999455 0.993978 0.967932 0.921307 0.854554 0.768598 0.664854 0.545215 0.412038 0.268108 0.116596 0.038998 0.194926 0.347272 0.492050 0.625312 0.743255 0.842344 0.919426 0.971842 0.997533 0.995138 0.964072 0.904585 0.817801 0.705727 0.571238 0.418029 0.250533 0.073816 0.106567 0.284732 0.454659 0.610391 0.746259 0.857092 0.938437 0.986755 0.999604 0.975779 0.915423 0.820083 0.692718 0.537646 0.360430 0.167715 0.033005 0.233658 0.425911 0.601521 0.752693 0.872447 0.954963 0.995898 0.992646 0.944539 0.852955 0.721350 0.555177 0.361707 0.149749 0.070715 0.288984 0.494154 0.675661 0.823848 0.930500 0.989345 0.996465 0.950600 0.853328 0.709089 0.525046 0.310797 0.077907 0.160664 0.391274 0.600376 0.775327 0.905178 0.981409 0.998540 0.954587 0.851315 0.694266 0.492542 0.258348 0.006311 0.247399 0.486084 0.693632 0.855614 0.960351 0.999806 0.970278 0.872815 0.713305 0.502214 0.253996 0.013843 0.281926 0.530391 0.740375 0.895475 0.983097 0.995552 0.930823 0.792910 0.591709 0.342411 0.064436 0.220009 0.487682 0.716202 0.885962 0.981870 0.994791 0.922515 0.770174 0.550006 0.280514 0.015021 0.310456 0.579104 0.796143 0.940961 0.999221 0.964380 0.838546 0.632538 0.365101 0.061309 0.249680 0.537398 0.773063 0.932496 0.998719 0.963877 0.830316 0.610623 0.326612 0.007281 0.314053 0.603198 0.828741 0.965538 0.997643 0.920309 0.740828 0.478050 0.160558 0.176296 0.494279 0.756596 0.932214 0.999646 0.949742 0.787107 0.529910 0.208052 0.140173 0.472528 0.747962 0.931718 0.999868 0.942589 0.765782 0.490713 0.151667 0.208169 0.542126 0.806100 0.964462 0.995026 0.892355 0.668920 0.353832 0.010726 0.375023 0.688502 0.906842 0.998350 0.948776 0.763762 0.468505 0.104583 0.275739 0.616898 0.868185 0.991403 0.966869 0.796818 0.505580 0.136367 0.254927 0.608082 0.867829 0.992628 0.961528 0.777967 0.469770 0.085232 0.314250 0.663861 0.905935 0.999600 0.927951 0.701397 0.356509 0.049582 0.448457 0.771871 0.963511 0.989012 0.842427 0.547868 0.155911 0.264821 0.639533 0.900562 0.999774 0.917708 0.667748 0.294358 0.134501 0.539554 0.844814 0.991950 0.951738 0.730213 0.368238 0.065665 0.488046 0.816478 0.985792 0.961257 0.746094 0.381597 0.060397 0.491400 0.823903 0.989264 0.952176 0.718615 0.335394 0.118786 0.549246 0.865002 0.998162 0.918841 0.642320 0.226617 0.239268 0.654205
1.000000 1.000000 1.000000 1.000000 1.000000 1.000000 1.000000 1.000000 1.000000 1.000000 1.000000 1.000000 1.000000 1.000000 1.000000 1.000000 1.000000 1.000000 1.000000 1.000000 1.000000 1.000000 1.000000 1.000000 1.000000 1.000000 1.000000 1.000000 1.000000 1.000000 1.000000 1.000000 1.000000 1.000000 1.000000 1.000000 1.000000 1.000000 1.000000 1.000000 1.000000 1.000000 1.000000 1.000000 1.000000 1.000000 1.000000 1.000000 1.000000 1.000000 1.000000 1.000000 0.926938 0.926938 0.926938 0.926938 0.926938 0.926938 0.926938 0.926938 0.926938 0.926938 0.926938 0.926938 0.926938 0.926938 0.926938 0.926938 0.926938 0.926938 0.926938 0.926938 0.926938 0.926938 0.926938 0.926938 0.926938 0.926938 0.926938 0.926938 0.926938 0.926938 0.926938 0.926938 0.926938 0.913217 0.911334 0.912484 0.911023 0.909589 0.908999 0.908604 0.909643 0.911241 0.913322 0.934970 0.938071 0.939316 0.940646 0.942023 0.944313 0.942145 0.949695 0.956195 0.955120 0.956250 0.956365 0.956869 0.956215 0.955470 0.958043 0.957217 0.955591 0.953686 0.952093 0.951571 0.951351 0.954934 0.955368 0.955523 0.956064 0.955985 0.956703 0.957290 0.955312 0.957449 0.949477 0.948325 0.953771 0.951908 0.953480 0.953438 0.954138 0.954895 0.955173 0.955397 0.952187 0.951712 0.950784 0.944811 0.937623 0.937943 0.939597 0.941656 0.938653 0.936683 0.938341 0.939885 0.938965 0.942175 0.933712 0.929732 0.902869 0.888731 0.880457 0.880379 0.884616 0.887175 0.885091 0.880160 0.872576 0.869326 0.868097 0.865165 0.856397 0.859046 0.858923 0.854190 0.857505 0.860682 0.865940 0.864424 0.860439 0.855569 0.850127 0.838365 0.839150 0.840009 0.844291 0.825817 0.813134 0.829330 0.822796 0.815008 0.822967 0.824943 0.822495 0.821092 0.821365 0.819196 0.812436 0.804088 0.807915 0.817002 0.819065 0.809908 0.807444 0.807007 0.806562 0.801471 0.807037 0.809548 0.806062 0.797977 0.815362 0.786915 0.805699 0.807084 0.787825 0.772469 0.761100 0.769075 0.777509 0.771021 0.767911 0.778661 0.778674 0.772371 0.752320 0.735279 0.742973 0.741239 0.732017 0.720570 0.727270 0.720945 0.718970 0.716860 0.720614 0.720741 0.699207 0.712928 0.717971 0.713265 0.725446 0.728359 0.719430 0.722716 0.727232 0.728540 0.727998 0.702861 0.705945 0.639776 0.630684 0.596971 0.593921 0.587269 0.532408 0.536978 0.522072 0.508148 0.508495 0.471233 0.519407 0.417679 0.408792 0.431911 0.360699 0.336172 0.354603 0.356165 0.368668 0.365076 0.364010 0.368905 0.350160 0.321750 0.292308 0.319537 0.333538 0.315484 0.316621 0.288833 0.279341 0.226263 0.241577 0.245859 0.277098 0.279059 0.265023 0.284175 0.326881 0.265120 0.250924 0.228902 0.255305 0.259255 0.250147 0.239453 0.261754 0.200292 0.211114 0.227138 0.229016 0.280516 0.306726 0.320536 0.318457 0.326523 0.355662 0.312048 0.320119 0.327005 0.318398 0.346925 0.350138 0.360721 0.357693 0.391442 0.398238 0.402786 0.409419 0.432628 0.457346 0.432818 0.416302 0.371963 0.387969 0.380278 0.395377 0.341134 0.319412 0.318819 0.288775 0.241821 0.243033 0.241988 0.197358 0.195005 0.179616 0.148484 0.147237 0.156188 0.179332 0.151062 0.163754 0.167897 0.167897 0.167897 0.167897 0.167897 0.167897 0.167897 0.167897 0.167897 0.167897 0.167897 0.167897 0.167897 0.167897 0.188971 0.188971 0.188971 0.188971 0.188971 0.188971 0.188971 0.188971 0.188971 0.188971 0.188971 0.188971
0.000000 0.000000 0.000000 0.000000 0.000000 0.000000 0.000000 0.000000 0.000000 0.000000 0.000000 0.000000 0.000000 0.000000 0.000000 0.000000 0.000000 0.000000 0.000000 0.000000 0.000000 0.000000 0.000000 0.000000 0.000000 0.000000 0.000000 0.000000 0.000000 0.000000 0.000000 0.000000 0.000000 0.000000 0.000000 0.000000 0.000000 0.000000 0.000000 0.000000 0.000000 0.000000 0.000000 0.000000 0.000000 0.000000 0.000000 0.000000 0.000000 0.000000 0.000000 0.000000 0.209657 0.209657 0.209657 0.209657 0.209657 0.209657 0.209657 0.209657 0.209657 0.209657 0.209657 0.209657 0.209657 0.209657 0.209657 0.209657 0.209657 0.209657 0.209657 0.209657 0.209657 0.209657 0.209657 0.209657 0.209657 0.209657 0.209657 0.209657 0.209657 0.209657 0.209657 0.209657 0.209657 0.244339 0.244339 0.244339 0.244339 0.244339 0.244339 0.244339 0.244339 0.244339 0.244339 0.244339 0.244339 0.244339 0.244339 0.244339 0.244339 0.244339 0.244339 0.244339 0.244339 0.244339 0.244339 0.244339 0.244339 0.244339 0.260378 0.260378 0.260378 0.260378 0.260378 0.260378 0.260378 0.260378 0.260378 0.260378 0.260378 0.260378 0.260378 0.260378 0.260378 0.260378 0.260378 0.260378 0.260378 0.260378 0.269680 0.269680 0.269680 0.269680 0.269680 0.269680 0.269680 0.269680 0.269680 0.269680 0.269680 0.269680 0.269680 0.269680 0.269680 0.269680 0.269680 0.269680 0.269680 0.269680 0.269680 0.269680 0.269680 0.269680 0.269680 0.269680 0.269680 0.269680 0.269680 0.269680 0.269680 0.269680 0.269680 0.280056 0.280056 0.280056 0.280056 0.280056 0.280056 0.280056 0.280056 0.280056 0.280056 0.280056 0.280056 0.280056 0.280056 0.280056 0.280056 0.280056 0.280056 0.280056 0.280056 0.280056 0.280056 0.280056 0.280056 0.280056 0.280056 0.280056 0.274721 0.274721 0.274721 0.274721 0.274721 0.274721 0.274721 0.274721 0.274721 0.274721 0.274721 0.274721 0.274721 0.285714 0.285714 0.285714 0.285714 0.285714 0.285714 0.285714 0.285714 0.285714 0.285714 0.285714 0.280056 0.280056 0.280056 0.280056 0.280056 0.280056 0.280056 0.280056 0.280056 0.280056 0.280056 0.274721 0.274721 0.274721 0.274721 0.274721 0.274721 0.274721 0.274721 0.274721 0.274721 0.274721 0.280056 0.280056 0.280056 0.280056 0.280056 0.280056 0.280056 0.280056 0.280056 0.280056 0.285714 0.285714 0.285714 0.285714 0.285714 0.285714 0.285714 0.285714 0.285714 0.269680 0.269680 0.269680 0.269680 0.269680 0.269680 0.269680 0.269680 0.269680 0.269680 0.274721 0.274721 0.274721 0.274721 0.274721 0.274721 0.274721 0.274721 0.274721 0.285714 0.285714 0.285714 0.285714 0.285714 0.285714 0.285714 0.285714 0.264906 0.264906 0.264906 0.264906 0.264906 0.264906 0.264906 0.264906 0.264906 0.274721 0.274721 0.274721 0.274721 0.274721 0.274721 0.274721 0.274721 0.269680 0.269680 0.269680 0.269680 0.269680 0.269680 0.269680 0.269680 0.269680 0.269680 0.269680 0.269680 0.269680 0.269680 0.269680 0.269680 0.280056 0.280056 0.280056 0.280056 0.280056 0.280056 0.280056 0.260378 0.260378 0.260378 0.260378 0.260378 0.260378 0.260378 0.260378 0.269680 0.269680 0.269680 0.269680 0.269680 0.269680 0.269680 0.264906 0.264906 0.264906 0.264906 0.264906 0.264906 0.264906 0.264906 0.264906 0.264906 0.264906 0.264906 0.264906 0.264906 0.260378 0.260378 0.260378 0.260378 0.260378 0.260378 0.260378 0.260378 0.260378 0.260378 0.260378 0.260378
