# Output from CTFFind version 4.1.9, run on 2019-11-03 19:00:57
# Input file: stack6_bm3d_averaged_1_3.25_0_50_half.mrc ; Number of micrographs: 1
# Pixel size: 3.000 Angstroms ; acceleration voltage: 300.0 keV ; spherical aberration: 0.00 mm ; amplitude contrast: 0.07
# Box size: 512 pixels ; min. res.: 30.0 Angstroms ; max. res.: 5.0 Angstroms ; min. def.: 5000.0 um; max. def. 50000.0 um; num. frames averaged: 1
# 6 lines per micrograph: #1 - spatial frequency (1/Angstroms); #2 - 1D rotational average of spectrum (assuming no astigmatism); #3 - 1D rotational average of spectrum; #4 - CTF fit; #5 - cross-correlation between spectrum and CTF fit; #6 - 2sigma of expected cross correlation of noise
0.000000 0.000651 0.001302 0.001953 0.002604 0.003255 0.003906 0.004557 0.005208 0.005859 0.006510 0.007161 0.007812 0.008464 0.009115 0.009766 0.010417 0.011068 0.011719 0.012370 0.013021 0.013672 0.014323 0.014974 0.015625 0.016276 0.016927 0.017578 0.018229 0.018880 0.019531 0.020182 0.020833 0.021484 0.022135 0.022786 0.023438 0.024089 0.024740 0.025391 0.026042 0.026693 0.027344 0.027995 0.028646 0.029297 0.029948 0.030599 0.031250 0.031901 0.032552 0.033203 0.033854 0.034505 0.035156 0.035807 0.036458 0.037109 0.037760 0.038411 0.039062 0.039714 0.040365 0.041016 0.041667 0.042318 0.042969 0.043620 0.044271 0.044922 0.045573 0.046224 0.046875 0.047526 0.048177 0.048828 0.049479 0.050130 0.050781 0.051432 0.052083 0.052734 0.053385 0.054036 0.054688 0.055339 0.055990 0.056641 0.057292 0.057943 0.058594 0.059245 0.059896 0.060547 0.061198 0.061849 0.062500 0.063151 0.063802 0.064453 0.065104 0.065755 0.066406 0.067057 0.067708 0.068359 0.069010 0.069661 0.070312 0.070964 0.071615 0.072266 0.072917 0.073568 0.074219 0.074870 0.075521 0.076172 0.076823 0.077474 0.078125 0.078776 0.079427 0.080078 0.080729 0.081380 0.082031 0.082682 0.083333 0.083984 0.084635 0.085286 0.085938 0.086589 0.087240 0.087891 0.088542 0.089193 0.089844 0.090495 0.091146 0.091797 0.092448 0.093099 0.093750 0.094401 0.095052 0.095703 0.096354 0.097005 0.097656 0.098307 0.098958 0.099609 0.100260 0.100911 0.101562 0.102214 0.102865 0.103516 0.104167 0.104818 0.105469 0.106120 0.106771 0.107422 0.108073 0.108724 0.109375 0.110026 0.110677 0.111328 0.111979 0.112630 0.113281 0.113932 0.114583 0.115234 0.115885 0.116536 0.117188 0.117839 0.118490 0.119141 0.119792 0.120443 0.121094 0.121745 0.122396 0.123047 0.123698 0.124349 0.125000 0.125651 0.126302 0.126953 0.127604 0.128255 0.128906 0.129557 0.130208 0.130859 0.131510 0.132161 0.132812 0.133464 0.134115 0.134766 0.135417 0.136068 0.136719 0.137370 0.138021 0.138672 0.139323 0.139974 0.140625 0.141276 0.141927 0.142578 0.143229 0.143880 0.144531 0.145182 0.145833 0.146484 0.147135 0.147786 0.148438 0.149089 0.149740 0.150391 0.151042 0.151693 0.152344 0.152995 0.153646 0.154297 0.154948 0.155599 0.156250 0.156901 0.157552 0.158203 0.158854 0.159505 0.160156 0.160807 0.161458 0.162109 0.162760 0.163411 0.164062 0.164714 0.165365 0.166016 0.166667 0.167318 0.167969 0.168620 0.169271 0.169922 0.170573 0.171224 0.171875 0.172526 0.173177 0.173828 0.174479 0.175130 0.175781 0.176432 0.177083 0.177734 0.178385 0.179036 0.179688 0.180339 0.180990 0.181641 0.182292 0.182943 0.183594 0.184245 0.184896 0.185547 0.186198 0.186849 0.187500 0.188151 0.188802 0.189453 0.190104 0.190755 0.191406 0.192057 0.192708 0.193359 0.194010 0.194661 0.195312 0.195964 0.196615 0.197266 0.197917 0.198568 0.199219 0.199870 0.200521 0.201172 0.201823 0.202474 0.203125 0.203776 0.204427 0.205078 0.205729 0.206380 0.207031 0.207682 0.208333 0.208984 0.209635 0.210286 0.210938 0.211589 0.212240 0.212891 0.213542 0.214193 0.214844 0.215495 0.216146 0.216797 0.217448 0.218099 0.218750 0.219401 0.220052 0.220703 0.221354 0.222005 0.222656 0.223307 0.223958 0.224609 0.225260 0.225911 0.226562 0.227214 0.227865 0.228516 0.229167 0.229818 0.230469 0.231120 0.231771 0.232422 0.233073 0.233724 0.234375 0.235026 0.235677
       0.30189        0.30189        0.30189        0.30189        0.30189        0.30189        0.30189        0.30189        0.30189        0.30189        0.30189        0.30189        0.30189        0.30189        0.30189        0.30189        0.30189        0.30189        0.30189        0.30189        0.30189        0.30189        0.30189        0.30189        0.30189        0.30189        0.30189        0.30189        0.30189        0.30189        0.30189        0.30189        0.30189        0.30189        0.30189        0.30189        0.30189        0.30189        0.30189        0.30189        0.30189        0.30189        0.30189        0.30189        0.30189        0.30189        0.30189        0.30189        0.30189        0.30189        0.30189        0.61446        0.76872        0.37882        0.24086        0.14739       -0.13625        0.12173        0.02720        0.03742        0.10552        0.34016        0.38325        0.32989        0.19682       -0.02168        0.01817        0.05746       -0.16680       -0.17766       -0.08985       -0.12095       -0.27431       -0.16579       -0.29856       -0.28352       -0.30859       -0.38237       -0.45250       -0.44030       -0.36366       -0.31312       -0.40486       -0.30325       -0.37339       -0.31406       -0.25211       -0.19100       -0.15454       -0.07528       -0.04424        0.07075        0.10665        0.22317        0.31879        0.38239        0.37869        0.49171        0.56795        0.59280        0.67231        0.64757        0.70612        0.62209        0.64753        0.65117        0.59691        0.58546        0.59698        0.40536        0.35633        0.36012        0.33336        0.18149        0.12237        0.06664        0.07951        0.04660       -0.05345        0.01385       -0.03455       -0.06760        0.05964        0.15615        0.26151        0.33235        0.32896        0.39159        0.50314        0.53733        0.49591        0.65937        0.53865        0.51413        0.55952        0.55699        0.52307        0.46739        0.39314        0.34604        0.22554        0.19339        0.14003        0.14890        0.11470        0.05064        0.09072        0.15172        0.17063        0.16803        0.21835        0.25697        0.32941        0.45651        0.43282        0.44352        0.48619        0.54699        0.54541        0.49950        0.38712        0.40068        0.36529        0.28341        0.23080        0.21584        0.17998        0.18367        0.17974        0.17241        0.14956        0.20440        0.25467        0.34002        0.37619        0.40917        0.46004        0.48423        0.43643        0.44406        0.40496        0.40052        0.39101        0.34079        0.27619        0.26845        0.21121        0.23936        0.21999        0.19340        0.22509        0.23307        0.25652        0.32722        0.36503        0.37502        0.37978        0.40039        0.42872        0.42191        0.42129        0.31342        0.29084        0.26780        0.28989        0.25338        0.21156        0.25898        0.30057        0.29080        0.28084        0.32338        0.28907        0.37219        0.34077        0.34641        0.36058        0.35097        0.31884        0.30451        0.27908        0.29025        0.25959        0.24808        0.24890        0.27013        0.28856        0.30999        0.35117        0.35721        0.32881        0.31235        0.35074        0.32084        0.26763        0.28615        0.26897        0.25887        0.26012        0.29285        0.27747        0.26725        0.29913        0.30728        0.31558        0.32957        0.33166        0.27928        0.28094        0.29744        0.27978        0.26599        0.25120        0.23012        0.24574        0.25909        0.26458        0.27364        0.26495        0.31360        0.33947        0.30749        0.31312        0.24106        0.23994        0.26851        0.23727        0.21758        0.25014        0.30681        0.25502        0.30129        0.29266        0.29915        0.31696        0.25749        0.27654        0.29316        0.27603        0.25205        0.23449        0.23441        0.25229        0.29151        0.28660        0.31184        0.29063        0.32369        0.26651        0.30299        0.27787        0.21739        0.29532        0.26441        0.26990        0.27773        0.31841        0.31637        0.33973        0.28300        0.23611        0.24124        0.23289        0.25487        0.30527        0.29597        0.25347        0.28546        0.27305        0.28487        0.26803        0.28219        0.24711        0.25539        0.24676        0.23274        0.25108        0.31074        0.30138        0.26680        0.26516        0.22855        0.26677        0.21894        0.22059        0.23314        0.28494        0.27501        0.32291        0.23623        0.22520        0.24606        0.20931        0.23212        0.20941        0.22479        0.19956        0.24630        0.26147        0.20965        0.27421        0.24355        0.29696        0.23837        0.22331        0.24113        0.21200        0.12296        0.18481        0.11733        0.15530        0.18065        0.09052        0.29616        0.09601        0.08292        0.15199        0.13797        0.19792        0.18204       -0.03895       -0.70035       -1.02201
2.823499 2.796000 2.768640 2.741419 2.714338 2.687396 2.660593 2.633929 2.607405 2.581020 2.554775 2.528668 2.502701 2.476873 2.451185 2.425635 2.400225 2.374954 2.349823 2.324831 2.299978 2.275264 2.250690 2.226255 2.201959 2.177802 2.153785 2.129907 2.106169 2.082569 2.059109 2.035788 2.012607 1.989564 1.966661 1.943898 1.921273 1.898788 1.876442 1.854235 1.832168 1.810240 1.788451 1.766802 1.745292 1.723921 1.702689 1.681597 1.660643 1.639830 1.619155 1.945511 2.271466 1.676712 1.633543 1.324808 0.831126 1.183848 1.050672 1.080918 0.962532 1.536735 1.473170 1.470387 1.229919 0.900789 0.746946 0.985917 0.703414 0.413884 0.550573 0.633250 0.385182 0.450377 0.286201 0.257584 0.149310 0.145506 -0.086438 -0.043063 0.033725 0.041504 0.008820 0.120535 -0.054863 -0.007957 0.119527 0.189753 0.244057 0.301571 0.328414 0.607205 0.489259 0.667938 0.870568 0.918845 0.886140 1.158949 1.145782 1.227510 1.307274 1.190997 1.406712 1.179003 1.153953 1.317432 1.137774 1.057047 1.172667 0.902825 0.684648 0.689649 0.726182 0.424711 0.379570 0.237487 0.213112 0.152815 0.007780 0.135448 0.016328 -0.072185 0.087423 0.212410 0.328901 0.490989 0.515735 0.527866 0.708997 0.797671 0.611060 0.987807 0.839430 0.671630 0.768537 0.721488 0.736772 0.699172 0.448376 0.481018 0.251361 0.189256 0.125133 0.004968 0.063073 -0.095841 -0.055403 -0.011469 0.099632 -0.030515 0.208749 0.143373 0.193917 0.412614 0.467819 0.431940 0.391347 0.588711 0.621297 0.510746 0.363920 0.339417 0.326792 0.185844 0.087534 0.035046 0.028326 -0.017324 -0.024201 -0.031160 -0.113405 0.008421 0.002400 0.143081 0.240960 0.241566 0.376286 0.348899 0.391780 0.351482 0.433368 0.350830 0.253764 0.322002 0.126159 0.181388 0.032313 0.076791 0.032078 0.030363 -0.042636 0.052928 0.055677 0.125125 0.238830 0.254069 0.235720 0.266426 0.325535 0.299659 0.326731 0.212928 0.096226 0.111511 0.063395 0.069990 -0.009191 -0.016693 0.071161 0.092570 0.084354 0.081910 0.092560 0.164947 0.194530 0.177071 0.164878 0.207415 0.145382 0.111630 0.084442 0.066941 0.092815 -0.034006 0.047091 0.044504 0.022787 0.100846 0.119288 0.199496 0.183866 0.151412 0.110577 0.201778 0.081936 0.058098 0.085440 0.023346 0.029396 0.052004 0.088259 0.053041 0.036646 0.117812 0.106301 0.112163 0.160752 0.119413 0.098140 0.051222 0.093008 0.060223 0.054906 -0.008261 -0.021718 0.022068 0.017140 0.040494 0.070792 0.000808 0.113522 0.157602 0.054293 0.095255 -0.029212 -0.000029 0.017712 -0.040898 -0.059810 0.039094 0.064234 -0.023237 0.079846 0.041920 0.078641 0.038777 -0.024759 -0.011384 0.092748 -0.054619 -0.004694 -0.062253 -0.040357 -0.051120 0.049209 0.020191 0.056874 -0.016282 0.109909 -0.040743 0.043811 -0.046212 -0.092834 0.043031 -0.073104 0.013642 -0.050294 0.115471 0.044326 0.033760 -0.014008 -0.143776 -0.033396 -0.115478 -0.015306 0.031088 -0.005564 -0.057933 -0.027231 -0.028199 0.003940 -0.058329 -0.029552 -0.092511 -0.080394 -0.067749 -0.103538 -0.017808 0.022173 -0.009982 -0.028113 -0.008217 -0.041611 0.012802 -0.067671 -0.049467 -0.043738 0.061343 0.065413 0.126602 -0.026116 0.000872 0.032502 -0.038254 -0.030412 0.019161 -0.033650 -0.005190 0.066584 0.081853 0.009351 0.133926 0.075690 0.201949 0.062142 0.099182 0.098782 0.092955 -0.118305 0.074177 -0.138707 0.121733 0.037332 -0.033038 0.454320 0.068682 0.134861 0.255734 0.191400 0.290994 0.249895 -0.048709 -1.558443
0.072396 0.072835 0.074150 0.076342 0.079410 0.083354 0.088172 0.093863 0.100427 0.107860 0.116161 0.125325 0.135351 0.146232 0.157964 0.170541 0.183954 0.198194 0.213252 0.229116 0.245771 0.263203 0.281392 0.300321 0.319964 0.340298 0.361294 0.382921 0.405144 0.427925 0.451223 0.474990 0.499178 0.523733 0.548595 0.573701 0.598984 0.624371 0.649783 0.675137 0.700346 0.725316 0.749948 0.774138 0.797778 0.820754 0.842946 0.864232 0.884485 0.903571 0.921357 0.937704 0.952470 0.965513 0.976688 0.985849 0.992853 0.997555 0.999812 0.999487 0.996443 0.990553 0.981694 0.969750 0.954617 0.936200 0.914417 0.889200 0.860496 0.828269 0.792502 0.753199 0.710384 0.664105 0.614434 0.561471 0.505341 0.446198 0.384225 0.319636 0.252673 0.183613 0.112759 0.040448 0.032955 0.107054 0.181428 0.255627 0.329178 0.401587 0.472340 0.540910 0.606756 0.669330 0.728081 0.782462 0.831933 0.875965 0.914051 0.945709 0.970491 0.987985 0.997828 0.999707 0.993371 0.978633 0.955379 0.923573 0.883262 0.834581 0.777758 0.713115 0.641070 0.562142 0.476945 0.386190 0.290684 0.191318 0.089072 0.015004 0.119790 0.224112 0.326751 0.426460 0.521976 0.612039 0.695407 0.770875 0.837298 0.893603 0.938816 0.972076 0.992658 0.999989 0.993663 0.973460 0.939358 0.891539 0.830403 0.756569 0.670877 0.574384 0.468361 0.354273 0.233777 0.108690 0.019029 0.147306 0.273989 0.396876 0.513761 0.622469 0.720904 0.807083 0.879192 0.935620 0.975004 0.996266 0.998646 0.981738 0.945507 0.890309 0.816903 0.726447 0.620497 0.500983 0.370190 0.230717 0.085430 0.062582 0.210084 0.353751 0.490248 0.616311 0.728825 0.824908 0.901988 0.957885 0.990877 0.999763 0.983915 0.943317 0.878587 0.790991 0.682428 0.555408 0.413001 0.258783 0.096745 0.068793 0.233301 0.392156 0.540772 0.674743 0.789967 0.882794 0.950137 0.989601 0.999570 0.979294 0.928937 0.849604 0.743347 0.613121 0.462731 0.296724 0.120277 0.060965 0.241054 0.413944 0.573679 0.714619 0.831635 0.920318 0.977152 0.999673 0.986596 0.937898 0.854858 0.740057 0.597318 0.431606 0.248868 0.055843 0.140182 0.331643 0.510977 0.670942 0.804904 0.907136 0.973077 0.999553 0.984960 0.929373 0.834596 0.704139 0.543111 0.358060 0.156713 0.052324 0.259915 0.456805 0.634025 0.783309 0.897503 0.970924 0.999665 0.981840 0.917721 0.809797 0.662706 0.483079 0.279264 0.060972 0.161180 0.376173 0.573129 0.741869 0.873462 0.960713 0.998593 0.984554 0.918739 0.804044 0.646033 0.452713 0.234163 0.002030 0.231069 0.452229 0.648968 0.809954 0.925668 0.989009 0.995763 0.944919 0.838817 0.683090 0.486418 0.260083 0.017350 0.227285 0.458943 0.663288 0.827409 0.940681 0.995478 0.987735 0.917290 0.787998 0.607572 0.387177 0.140789 0.115673 0.365342 0.591523 0.778814 0.914180 0.987898 0.994310 0.932300 0.805486 0.622077 0.394399 0.138109 0.128831 0.387400 0.618872 0.806190 0.935243 0.995978 0.983248 0.897295 0.743859 0.533871 0.282732 0.009229 0.265830 0.521182 0.736772 0.895349 0.983884 0.994709 0.926241 0.783245 0.576586 0.322471 0.041240 0.244217 0.510317 0.734735 0.898296 0.986673 0.991701 0.912205 0.754254 0.530779 0.260596 0.033107 0.324753 0.588552 0.800817 0.942132 0.999172 0.966050 0.844999 0.646335 0.387670 0.092421 0.212247 0.497905 0.737507 0.907980 0.992517 0.982303 0.877528 0.687542 0.430130 0.129926 0.183877 0.480329 0.729786 0.906900
1.000000 1.000000 1.000000 1.000000 1.000000 1.000000 1.000000 1.000000 1.000000 1.000000 1.000000 1.000000 1.000000 1.000000 1.000000 1.000000 1.000000 1.000000 1.000000 1.000000 1.000000 1.000000 1.000000 1.000000 1.000000 1.000000 1.000000 1.000000 1.000000 1.000000 1.000000 1.000000 1.000000 1.000000 1.000000 1.000000 1.000000 1.000000 1.000000 1.000000 1.000000 1.000000 1.000000 1.000000 1.000000 1.000000 1.000000 1.000000 1.000000 1.000000 1.000000 1.000000 0.826895 0.826895 0.826895 0.826895 0.826895 0.826895 0.826895 0.801626 0.801626 0.801626 0.801626 0.801626 0.801626 0.801626 0.801626 0.801626 0.801626 0.801626 0.801626 0.801626 0.801626 0.801626 0.801626 0.801626 0.801626 0.801626 0.801626 0.801626 0.801626 0.801626 0.801626 0.801626 0.801626 0.801626 0.801626 0.801626 0.801626 0.801626 0.801626 0.801626 0.801626 0.801626 0.801626 0.801626 0.801626 0.801626 0.801626 0.801626 0.801626 0.801626 0.801626 0.948701 0.949507 0.949837 0.948849 0.947338 0.943820 0.939684 0.938869 0.941301 0.941104 0.941140 0.942157 0.941747 0.942991 0.944157 0.946108 0.946585 0.954604 0.958211 0.957850 0.957501 0.957122 0.967753 0.967487 0.967337 0.967764 0.967915 0.966352 0.964935 0.964822 0.965442 0.966977 0.967501 0.965650 0.963802 0.962981 0.962319 0.962597 0.961970 0.962005 0.962856 0.962957 0.963585 0.966344 0.965500 0.966159 0.964809 0.964029 0.953390 0.951217 0.951696 0.948156 0.949185 0.948872 0.948061 0.946728 0.946796 0.946721 0.946696 0.946566 0.946745 0.943201 0.943275 0.942752 0.943480 0.939774 0.924976 0.919917 0.916485 0.918004 0.921380 0.925016 0.926008 0.926195 0.922369 0.913635 0.907667 0.892990 0.887782 0.883154 0.890867 0.890926 0.891907 0.892964 0.893038 0.891842 0.891419 0.880560 0.884411 0.879088 0.877818 0.873438 0.872376 0.872050 0.873345 0.876237 0.873302 0.857652 0.854298 0.830846 0.811918 0.815457 0.815694 0.824829 0.828383 0.826597 0.825282 0.809835 0.804626 0.794307 0.783146 0.784909 0.785523 0.786370 0.791770 0.796247 0.784260 0.786817 0.781549 0.776428 0.787654 0.798770 0.801818 0.800642 0.793989 0.789962 0.752789 0.752271 0.755672 0.750854 0.757318 0.747926 0.748026 0.741844 0.739372 0.735220 0.730483 0.728026 0.713024 0.720657 0.725930 0.732697 0.731950 0.710140 0.700927 0.658003 0.663741 0.650006 0.660290 0.662726 0.666430 0.655453 0.661831 0.664757 0.649667 0.654690 0.644825 0.637641 0.622375 0.629291 0.637304 0.602841 0.615315 0.614026 0.598076 0.591598 0.596755 0.611955 0.613429 0.594032 0.590565 0.555408 0.487916 0.470493 0.453176 0.446077 0.445861 0.465177 0.463019 0.469877 0.463412 0.444640 0.424303 0.447841 0.449403 0.427091 0.432645 0.424442 0.403539 0.404544 0.375122 0.379144 0.353972 0.350554 0.338128 0.281024 0.259805 0.219409 0.225323 0.200731 0.191413 0.182387 0.184852 0.179204 0.146877 0.142336 0.144126 0.170564 0.146129 0.118275 0.135640 0.143982 0.143824 0.141964 0.129079 0.170832 0.146399 0.161109 0.163880 0.123960 0.103857 0.051285 0.064753 0.058774 0.085612 0.108993 0.094401 0.056090 -0.037819 -0.006727 0.041656 0.041656 0.041656 0.041656 0.041656 0.041656 0.041656 0.041656 0.041656 0.041656 0.041656 -0.052173 -0.052173 -0.052173 -0.052173 -0.052173 -0.052173 -0.052173 -0.052173 -0.052173 -0.052173 -0.052173 -0.052173 -0.052173 -0.052173 -0.052173 -0.052173 -0.052173 -0.052173 -0.052173
0.000000 0.000000 0.000000 0.000000 0.000000 0.000000 0.000000 0.000000 0.000000 0.000000 0.000000 0.000000 0.000000 0.000000 0.000000 0.000000 0.000000 0.000000 0.000000 0.000000 0.000000 0.000000 0.000000 0.000000 0.000000 0.000000 0.000000 0.000000 0.000000 0.000000 0.000000 0.000000 0.000000 0.000000 0.000000 0.000000 0.000000 0.000000 0.000000 0.000000 0.000000 0.000000 0.000000 0.000000 0.000000 0.000000 0.000000 0.000000 0.000000 0.000000 0.000000 0.000000 0.173422 0.173422 0.173422 0.173422 0.173422 0.173422 0.173422 0.191565 0.191565 0.191565 0.191565 0.191565 0.191565 0.191565 0.191565 0.191565 0.191565 0.191565 0.191565 0.191565 0.191565 0.191565 0.191565 0.191565 0.191565 0.191565 0.191565 0.191565 0.191565 0.191565 0.191565 0.191565 0.191565 0.191565 0.191565 0.191565 0.191565 0.191565 0.191565 0.191565 0.191565 0.191565 0.191565 0.191565 0.191565 0.191565 0.191565 0.191565 0.191565 0.191565 0.191565 0.219529 0.219529 0.219529 0.219529 0.219529 0.219529 0.219529 0.219529 0.219529 0.219529 0.219529 0.219529 0.219529 0.219529 0.219529 0.219529 0.219529 0.219529 0.219529 0.219529 0.219529 0.219529 0.219529 0.219529 0.219529 0.219529 0.219529 0.219529 0.219529 0.219529 0.219529 0.237356 0.237356 0.237356 0.237356 0.237356 0.237356 0.237356 0.237356 0.237356 0.237356 0.237356 0.237356 0.237356 0.237356 0.237356 0.237356 0.237356 0.237356 0.237356 0.237356 0.237356 0.237356 0.237356 0.237356 0.244339 0.244339 0.244339 0.244339 0.244339 0.244339 0.244339 0.244339 0.244339 0.244339 0.244339 0.244339 0.244339 0.244339 0.244339 0.244339 0.244339 0.244339 0.244339 0.244339 0.244339 0.248069 0.248069 0.248069 0.248069 0.248069 0.248069 0.248069 0.248069 0.248069 0.248069 0.248069 0.248069 0.248069 0.248069 0.248069 0.248069 0.248069 0.248069 0.248069 0.248069 0.248069 0.248069 0.248069 0.248069 0.248069 0.248069 0.248069 0.248069 0.248069 0.248069 0.248069 0.248069 0.248069 0.248069 0.248069 0.248069 0.248069 0.256074 0.256074 0.256074 0.256074 0.256074 0.256074 0.256074 0.256074 0.256074 0.256074 0.256074 0.256074 0.256074 0.256074 0.256074 0.256074 0.256074 0.256074 0.256074 0.256074 0.256074 0.256074 0.256074 0.256074 0.256074 0.256074 0.256074 0.256074 0.256074 0.256074 0.256074 0.256074 0.256074 0.256074 0.256074 0.256074 0.256074 0.256074 0.256074 0.256074 0.256074 0.256074 0.256074 0.256074 0.256074 0.260378 0.260378 0.260378 0.260378 0.260378 0.260378 0.260378 0.260378 0.260378 0.260378 0.260378 0.260378 0.260378 0.256074 0.256074 0.256074 0.256074 0.256074 0.256074 0.256074 0.256074 0.256074 0.256074 0.256074 0.256074 0.256074 0.260378 0.260378 0.260378 0.260378 0.260378 0.260378 0.260378 0.260378 0.260378 0.260378 0.260378 0.260378 0.251976 0.251976 0.251976 0.251976 0.251976 0.251976 0.251976 0.251976 0.251976 0.251976 0.251976 0.251976 0.256074 0.256074 0.256074 0.256074 0.256074 0.256074 0.256074 0.256074 0.256074 0.256074 0.256074 0.251976 0.251976 0.251976 0.251976 0.251976 0.251976 0.251976 0.251976 0.251976 0.251976 0.251976 0.248069 0.248069 0.248069 0.248069 0.248069 0.248069 0.248069 0.248069 0.248069 0.248069 0.248069 0.256074 0.256074 0.256074 0.256074 0.256074 0.256074 0.256074 0.256074 0.256074 0.256074 0.256074 0.256074 0.256074 0.256074 0.256074 0.256074 0.256074 0.256074 0.256074
