# Output from CTFFind version 4.1.9, run on 2019-11-03 20:04:20
# Input file: stack16_bm3d_averaged_1_6.0_0_250_half.mrc ; Number of micrographs: 1
# Pixel size: 3.000 Angstroms ; acceleration voltage: 300.0 keV ; spherical aberration: 0.00 mm ; amplitude contrast: 0.07
# Box size: 512 pixels ; min. res.: 30.0 Angstroms ; max. res.: 5.0 Angstroms ; min. def.: 5000.0 um; max. def. 50000.0 um; num. frames averaged: 1
# 6 lines per micrograph: #1 - spatial frequency (1/Angstroms); #2 - 1D rotational average of spectrum (assuming no astigmatism); #3 - 1D rotational average of spectrum; #4 - CTF fit; #5 - cross-correlation between spectrum and CTF fit; #6 - 2sigma of expected cross correlation of noise
0.000000 0.000651 0.001302 0.001953 0.002604 0.003255 0.003906 0.004557 0.005208 0.005859 0.006510 0.007161 0.007812 0.008464 0.009115 0.009766 0.010417 0.011068 0.011719 0.012370 0.013021 0.013672 0.014323 0.014974 0.015625 0.016276 0.016927 0.017578 0.018229 0.018880 0.019531 0.020182 0.020833 0.021484 0.022135 0.022786 0.023438 0.024089 0.024740 0.025391 0.026042 0.026693 0.027344 0.027995 0.028646 0.029297 0.029948 0.030599 0.031250 0.031901 0.032552 0.033203 0.033854 0.034505 0.035156 0.035807 0.036458 0.037109 0.037760 0.038411 0.039062 0.039714 0.040365 0.041016 0.041667 0.042318 0.042969 0.043620 0.044271 0.044922 0.045573 0.046224 0.046875 0.047526 0.048177 0.048828 0.049479 0.050130 0.050781 0.051432 0.052083 0.052734 0.053385 0.054036 0.054688 0.055339 0.055990 0.056641 0.057292 0.057943 0.058594 0.059245 0.059896 0.060547 0.061198 0.061849 0.062500 0.063151 0.063802 0.064453 0.065104 0.065755 0.066406 0.067057 0.067708 0.068359 0.069010 0.069661 0.070312 0.070964 0.071615 0.072266 0.072917 0.073568 0.074219 0.074870 0.075521 0.076172 0.076823 0.077474 0.078125 0.078776 0.079427 0.080078 0.080729 0.081380 0.082031 0.082682 0.083333 0.083984 0.084635 0.085286 0.085938 0.086589 0.087240 0.087891 0.088542 0.089193 0.089844 0.090495 0.091146 0.091797 0.092448 0.093099 0.093750 0.094401 0.095052 0.095703 0.096354 0.097005 0.097656 0.098307 0.098958 0.099609 0.100260 0.100911 0.101562 0.102214 0.102865 0.103516 0.104167 0.104818 0.105469 0.106120 0.106771 0.107422 0.108073 0.108724 0.109375 0.110026 0.110677 0.111328 0.111979 0.112630 0.113281 0.113932 0.114583 0.115234 0.115885 0.116536 0.117188 0.117839 0.118490 0.119141 0.119792 0.120443 0.121094 0.121745 0.122396 0.123047 0.123698 0.124349 0.125000 0.125651 0.126302 0.126953 0.127604 0.128255 0.128906 0.129557 0.130208 0.130859 0.131510 0.132161 0.132812 0.133464 0.134115 0.134766 0.135417 0.136068 0.136719 0.137370 0.138021 0.138672 0.139323 0.139974 0.140625 0.141276 0.141927 0.142578 0.143229 0.143880 0.144531 0.145182 0.145833 0.146484 0.147135 0.147786 0.148438 0.149089 0.149740 0.150391 0.151042 0.151693 0.152344 0.152995 0.153646 0.154297 0.154948 0.155599 0.156250 0.156901 0.157552 0.158203 0.158854 0.159505 0.160156 0.160807 0.161458 0.162109 0.162760 0.163411 0.164062 0.164714 0.165365 0.166016 0.166667 0.167318 0.167969 0.168620 0.169271 0.169922 0.170573 0.171224 0.171875 0.172526 0.173177 0.173828 0.174479 0.175130 0.175781 0.176432 0.177083 0.177734 0.178385 0.179036 0.179688 0.180339 0.180990 0.181641 0.182292 0.182943 0.183594 0.184245 0.184896 0.185547 0.186198 0.186849 0.187500 0.188151 0.188802 0.189453 0.190104 0.190755 0.191406 0.192057 0.192708 0.193359 0.194010 0.194661 0.195312 0.195964 0.196615 0.197266 0.197917 0.198568 0.199219 0.199870 0.200521 0.201172 0.201823 0.202474 0.203125 0.203776 0.204427 0.205078 0.205729 0.206380 0.207031 0.207682 0.208333 0.208984 0.209635 0.210286 0.210938 0.211589 0.212240 0.212891 0.213542 0.214193 0.214844 0.215495 0.216146 0.216797 0.217448 0.218099 0.218750 0.219401 0.220052 0.220703 0.221354 0.222005 0.222656 0.223307 0.223958 0.224609 0.225260 0.225911 0.226562 0.227214 0.227865 0.228516 0.229167 0.229818 0.230469 0.231120 0.231771 0.232422 0.233073 0.233724 0.234375 0.235026 0.235677
       0.34887        0.34887        0.34887        0.34887        0.34887        0.34887        0.34887        0.34887        0.34887        0.34887        0.34887        0.34887        0.34887        0.34887        0.34887        0.34887        0.34887        0.34887        0.34887        0.34887        0.34887        0.34887        0.34887        0.34887        0.34887        0.34887        0.34887        0.34887        0.34887        0.34887        0.34887        0.34887        0.34887        0.34887        0.34887        0.34887        0.34887        0.34887        0.34887        0.34887        0.34887        0.34887        0.34887        0.34887        0.34887        0.34887        0.34887        0.34887        0.34887        0.34887        0.34887        0.42842        0.55717        0.34312       -0.21443       -0.45211       -0.54504       -0.64623       -0.71550       -0.72263       -0.81707       -0.89065       -0.68273       -0.83777       -0.82056       -0.96364       -1.00208       -0.88370       -0.84271       -0.79936       -0.71266       -0.64350       -0.55434       -0.46079       -0.39580       -0.16713       -0.06494        0.03723        0.25889        0.25818        0.31562        0.37168        0.40272        0.52152        0.53865        0.57396        0.53332        0.47425        0.50657        0.52755        0.45048        0.33209        0.21534        0.18187        0.11210        0.01113       -0.00535       -0.01440        0.05776        0.02417        0.07605        0.04951        0.16545        0.19668        0.40854        0.46006        0.54929        0.65830        0.68737        0.71411        0.63772        0.61188        0.54158        0.44123        0.38874        0.27779        0.21910        0.21472        0.10298        0.11247        0.11063        0.08787        0.09717        0.30603        0.41666        0.52387        0.53366        0.57006        0.60793        0.58797        0.57370        0.58383        0.56757        0.46785        0.30682        0.26614        0.25625        0.15197        0.09238        0.16979        0.20900        0.28693        0.35402        0.42687        0.47349        0.53115        0.60198        0.54613        0.50635        0.50378        0.35696        0.27732        0.26100        0.17668        0.19895        0.23714        0.27687        0.28330        0.32822        0.42914        0.46314        0.49948        0.45301        0.44333        0.48724        0.39470        0.33028        0.28820        0.26101        0.23382        0.22956        0.23966        0.33828        0.44548        0.43244        0.48953        0.55443        0.44894        0.41293        0.35711        0.31662        0.27247        0.28267        0.27137        0.29028        0.35126        0.35929        0.43779        0.47296        0.43962        0.46172        0.37705        0.37934        0.35491        0.27204        0.25341        0.25082        0.33197        0.38006        0.36616        0.39027        0.43337        0.44215        0.37864        0.33951        0.32249        0.35273        0.31587        0.28336        0.28637        0.35640        0.37380        0.39108        0.38937        0.39100        0.41974        0.40585        0.32451        0.29023        0.31541        0.34349        0.37964        0.36155        0.40497        0.34490        0.37115        0.39344        0.33917        0.35547        0.32196        0.30236        0.33859        0.34445        0.33014        0.35722        0.37479        0.32877        0.34793        0.32159        0.31750        0.29748        0.32137        0.32032        0.32827        0.36706        0.37389        0.35661        0.30962        0.30110        0.28787        0.33133        0.31413        0.31599        0.37139        0.35871        0.34260        0.31606        0.30620        0.31032        0.27736        0.31701        0.33079        0.34057        0.37159        0.35211        0.31353        0.33758        0.34971        0.33228        0.35689        0.34765        0.31429        0.33413        0.29322        0.32253        0.29760        0.31499        0.28784        0.32183        0.35260        0.33096        0.35624        0.31387        0.33168        0.35353        0.34180        0.31795        0.32331        0.36240        0.34343        0.34126        0.32837        0.31274        0.31670        0.31620        0.32573        0.32379        0.35776        0.33816        0.33763        0.29457        0.28744        0.26889        0.27275        0.36385        0.31232        0.34310        0.29769        0.26369        0.27766        0.36464        0.30887        0.28443        0.31534        0.31822        0.29663        0.26437        0.30475        0.27029        0.29415        0.30744        0.33846        0.33530        0.32111        0.31056        0.26740        0.27668        0.27187        0.27737        0.29652        0.36171        0.29613        0.20081        0.30496        0.29173        0.32707        0.25636        0.29799        0.29690        0.33426        0.29001        0.27746        0.26854        0.24574        0.30477        0.34150        0.33802        0.25026        0.30226        0.24948        0.23593        0.21740        0.33174        0.25276        0.16913        0.11777        0.20605        0.33791        0.23872        0.19227        0.12332       -0.45960       -0.56756
3.191266 3.150798 3.110593 3.070651 3.030971 2.991553 2.952398 2.913506 2.874876 2.836508 2.798404 2.760561 2.722981 2.685664 2.648609 2.611817 2.575287 2.539019 2.503014 2.467272 2.431792 2.396575 2.361620 2.326928 2.292498 2.258331 2.224426 2.190784 2.157404 2.124287 2.091432 2.058840 2.026510 1.994443 1.962638 1.931096 1.899816 1.868799 1.838044 1.807552 1.777323 1.747355 1.717651 1.688209 1.659029 1.630112 1.601458 1.573066 1.544936 1.517069 1.489464 1.524951 1.601392 1.541622 0.843330 0.595718 0.456581 0.387789 0.291749 0.217718 0.184722 -0.050338 0.206099 0.071988 -0.030402 -0.109687 -0.238225 -0.144825 -0.055579 -0.093758 -0.074412 0.035847 0.034038 0.228110 0.107139 0.355946 0.462271 0.492374 0.768256 0.683798 0.694106 0.823891 0.795944 0.840274 0.922906 0.852436 0.887539 0.725563 0.788449 0.844201 0.686397 0.604440 0.434938 0.426392 0.334311 0.189907 0.185707 0.114592 0.208460 0.119818 0.208642 0.104955 0.216185 0.228514 0.440346 0.402429 0.572748 0.611737 0.637811 0.720161 0.606084 0.579200 0.458964 0.410799 0.289036 0.261944 0.093645 0.153454 -0.028243 0.036861 -0.032064 -0.042876 -0.055447 0.026829 0.266606 0.292215 0.359649 0.300439 0.384288 0.393737 0.418039 0.398149 0.356564 0.329652 0.122494 0.075226 0.063250 -0.019955 -0.153352 -0.051356 -0.066042 0.037211 0.077745 0.150910 0.216054 0.225971 0.317209 0.405497 0.287029 0.362204 0.233345 0.140900 0.065600 0.035792 0.001096 0.049761 0.070043 0.095939 0.117365 0.172752 0.238945 0.306070 0.270274 0.212280 0.253366 0.226035 0.109932 0.061944 0.052169 0.026196 0.006582 -0.019436 0.030760 0.168364 0.190451 0.190106 0.299322 0.187248 0.195465 0.074035 0.066934 0.008985 -0.007042 -0.001683 -0.009517 0.043818 0.067030 0.097296 0.156684 0.140371 0.221845 0.134301 0.077655 0.098989 0.044034 -0.052681 -0.021817 0.025024 0.064202 0.073789 0.067869 0.151673 0.118363 0.152239 0.036785 0.050276 0.045658 0.047863 0.026937 -0.020714 0.039992 0.047956 0.090433 0.100891 0.089337 0.111088 0.124818 0.079753 0.013217 -0.007828 0.025542 0.076784 0.070303 0.091487 0.087094 0.053022 0.105955 0.066180 0.041902 0.079160 -0.015024 0.015120 0.064238 0.038880 0.043211 0.065381 0.076627 0.048891 0.064111 0.014856 0.019870 0.004661 0.053215 0.009083 0.041537 0.068186 0.078050 0.042643 -0.006791 -0.003630 -0.019117 0.040816 0.000849 0.012643 0.071831 0.050042 0.000417 0.010010 -0.015212 0.007663 -0.041346 0.005044 0.011730 0.039370 0.047531 0.025622 -0.008404 0.005478 0.027306 0.005452 0.039454 0.012145 -0.016909 0.020296 -0.044108 -0.025653 -0.055003 -0.012406 -0.061306 0.009025 0.022949 -0.008517 -0.006839 -0.004786 0.000672 0.027234 0.017770 -0.012125 0.006725 0.026408 0.037540 0.022591 0.008234 0.019026 0.002246 -0.002856 0.018065 -0.005370 0.089447 0.044171 0.030845 0.002487 -0.010119 -0.032795 0.001716 0.083644 -0.006671 0.063288 -0.022487 -0.024545 -0.021621 0.095428 0.001165 -0.022689 0.053129 0.050856 0.009209 0.004705 0.021721 0.003320 0.035276 0.037397 0.082877 0.058839 0.049753 0.041555 -0.006246 0.012453 -0.005945 -0.006830 0.011661 0.099251 -0.016775 -0.092263 0.048105 0.001841 0.057406 -0.054316 -0.002515 0.005835 0.023707 0.001302 -0.020670 -0.020485 -0.069368 0.040808 0.048155 0.056958 -0.123135 0.016786 -0.001085 -0.007741 -0.102390 0.103667 0.019402 -0.043017 -0.105448 0.186952 0.287667 0.174891 0.139200 0.125435 -0.541781
0.072396 0.073047 0.074998 0.078249 0.082800 0.088648 0.095792 0.104228 0.113953 0.124961 0.137246 0.150800 0.165611 0.181669 0.198956 0.217456 0.237144 0.257997 0.279982 0.303065 0.327204 0.352353 0.378458 0.405457 0.433283 0.461860 0.491101 0.520913 0.551192 0.581823 0.612681 0.643631 0.674526 0.705208 0.735507 0.765242 0.794221 0.822240 0.849085 0.874533 0.898349 0.920291 0.940112 0.957555 0.972361 0.984269 0.993015 0.998341 0.999991 0.997715 0.991276 0.980450 0.965030 0.944830 0.919689 0.889476 0.854092 0.813475 0.767606 0.716512 0.660269 0.599006 0.532911 0.462232 0.387281 0.308433 0.226132 0.140891 0.053288 0.036032 0.126358 0.216920 0.306891 0.395393 0.481504 0.564270 0.642712 0.715836 0.782651 0.842178 0.893470 0.935622 0.967797 0.989236 0.999281 0.997388 0.983153 0.956321 0.916807 0.864708 0.800317 0.724131 0.636860 0.539430 0.432980 0.318862 0.198627 0.074012 0.053076 0.180590 0.306369 0.428174 0.543725 0.650750 0.747028 0.830437 0.899012 0.950992 0.984876 0.999468 0.993932 0.967825 0.921138 0.854323 0.768309 0.664510 0.544823 0.411603 0.267641 0.116107 0.039499 0.195426 0.347757 0.492509 0.625729 0.743618 0.842642 0.919647 0.971976 0.997573 0.995080 0.963914 0.904327 0.817447 0.705284 0.570718 0.417445 0.249900 0.073154 0.107236 0.285386 0.455274 0.610946 0.746732 0.857463 0.938689 0.986875 0.999582 0.975612 0.915112 0.819635 0.692147 0.536969 0.359671 0.166902 0.033840 0.234480 0.426686 0.602214 0.753272 0.872882 0.955231 0.995980 0.992534 0.944231 0.852460 0.720687 0.554370 0.360791 0.148766 0.071718 0.289957 0.495049 0.676429 0.824444 0.930889 0.989502 0.996373 0.950257 0.852747 0.708293 0.524077 0.309701 0.076745 0.161825 0.392369 0.601339 0.776095 0.905701 0.981646 0.998471 0.954208 0.850642 0.693332 0.491401 0.257069 0.004974 0.248705 0.487276 0.694623 0.856333 0.960741 0.999833 0.969930 0.872108 0.712279 0.500939 0.252555 0.015348 0.283382 0.531691 0.741415 0.896170 0.983385 0.995401 0.930234 0.791920 0.590389 0.340857 0.062772 0.221650 0.489165 0.717399 0.886763 0.982200 0.994609 0.921829 0.769029 0.548495 0.278760 0.016859 0.312221 0.580630 0.797284 0.941604 0.999295 0.963865 0.837481 0.631012 0.363250 0.059310 0.251634 0.539115 0.774363 0.933242 0.998823 0.963315 0.829132 0.608927 0.324574 0.005106 0.316131 0.604958 0.829983 0.966120 0.997486 0.919414 0.739284 0.476015 0.158257 0.178608 0.496337 0.758156 0.933083 0.999707 0.948975 0.785587 0.527806 0.205608 0.142666 0.474762 0.749653 0.932650 0.999907 0.941714 0.764089 0.488401 0.149027 0.210799 0.544400 0.807709 0.965184 0.994747 0.891095 0.666830 0.351190 0.013571 0.377677 0.690593 0.908062 0.998514 0.947842 0.761845 0.465868 0.101593 0.278649 0.619294 0.869705 0.991802 0.966071 0.794924 0.502859 0.133223 0.258013 0.610632 0.869432 0.993018 0.960623 0.775889 0.466837 0.081902 0.317443 0.666391 0.907372 0.999691 0.926660 0.698918 0.353242 0.053095 0.451618 0.774131 0.964463 0.988473 0.840465 0.544807 0.152278 0.268380 0.642385 0.902184 0.999847 0.916195 0.664909 0.290695 0.138325 0.542819 0.846893 0.992440 0.950520 0.727492 0.364518 0.069676 0.491571 0.818819 0.986470 0.960115 0.743330 0.377744 0.064577 0.495063 0.826295 0.989878 0.950860 0.715611 0.331308 0.123110 0.552900 0.867206 0.998421 0.917071 0.638875 0.222231 0.243666 0.657649
1.000000 1.000000 1.000000 1.000000 1.000000 1.000000 1.000000 1.000000 1.000000 1.000000 1.000000 1.000000 1.000000 1.000000 1.000000 1.000000 1.000000 1.000000 1.000000 1.000000 1.000000 1.000000 1.000000 1.000000 1.000000 1.000000 1.000000 1.000000 1.000000 1.000000 1.000000 1.000000 1.000000 1.000000 1.000000 1.000000 1.000000 1.000000 1.000000 1.000000 1.000000 1.000000 1.000000 1.000000 1.000000 1.000000 1.000000 1.000000 1.000000 1.000000 1.000000 1.000000 0.923136 0.923136 0.923136 0.923136 0.923136 0.923136 0.923136 0.923136 0.923136 0.923136 0.923136 0.923136 0.923136 0.923136 0.923136 0.923136 0.923136 0.923136 0.923136 0.923136 0.923136 0.923136 0.923136 0.923136 0.923136 0.923136 0.923136 0.923136 0.923136 0.923136 0.923136 0.923136 0.923136 0.913237 0.911342 0.912499 0.911047 0.909598 0.909009 0.908616 0.909656 0.911258 0.913336 0.934974 0.938078 0.939323 0.940649 0.942022 0.944306 0.942143 0.949712 0.956216 0.955152 0.956290 0.950119 0.951533 0.950874 0.950134 0.951480 0.951616 0.949916 0.947891 0.946311 0.945757 0.945444 0.949097 0.949588 0.949742 0.950337 0.950282 0.950999 0.951601 0.949745 0.952008 0.944117 0.942780 0.948048 0.945959 0.947328 0.947290 0.947978 0.948782 0.949101 0.949373 0.946389 0.945911 0.944994 0.937538 0.930618 0.930569 0.932908 0.935932 0.933338 0.930255 0.931506 0.933610 0.932830 0.936334 0.927096 0.922775 0.897017 0.883901 0.873845 0.874070 0.877856 0.880461 0.878158 0.871477 0.862416 0.858700 0.858354 0.854538 0.846556 0.862200 0.856443 0.853734 0.857454 0.860648 0.866025 0.863808 0.859503 0.854728 0.850017 0.840838 0.842296 0.845919 0.850101 0.833101 0.823045 0.839933 0.830848 0.821538 0.829262 0.831198 0.828176 0.826941 0.827308 0.825452 0.819086 0.812093 0.815806 0.824733 0.825091 0.814805 0.812139 0.809497 0.809067 0.803045 0.807829 0.809033 0.805436 0.798311 0.815646 0.782075 0.803839 0.804499 0.788337 0.772428 0.760411 0.769580 0.779805 0.780107 0.774463 0.777055 0.776668 0.768632 0.741950 0.737590 0.744407 0.742700 0.730711 0.715447 0.722454 0.723793 0.720311 0.716694 0.719726 0.720287 0.696183 0.709611 0.713910 0.703308 0.717489 0.720058 0.710922 0.713821 0.717181 0.720358 0.717609 0.684426 0.687999 0.658275 0.650185 0.603135 0.600944 0.598382 0.539430 0.543796 0.518911 0.503727 0.503908 0.480589 0.533206 0.451620 0.438158 0.467663 0.393598 0.338118 0.355267 0.355820 0.369219 0.375437 0.363679 0.364990 0.350645 0.329749 0.321165 0.345391 0.361988 0.329951 0.334140 0.318690 0.297240 0.257287 0.272972 0.276870 0.305590 0.308034 0.288234 0.313830 0.354226 0.293665 0.273994 0.252485 0.278147 0.290113 0.289784 0.278391 0.279719 0.240398 0.233031 0.254892 0.256885 0.284539 0.306684 0.334059 0.329295 0.332804 0.362265 0.314412 0.327089 0.329893 0.319729 0.338890 0.342340 0.345675 0.338977 0.372081 0.356383 0.367572 0.358278 0.351563 0.396638 0.375818 0.349464 0.330226 0.337600 0.336802 0.327309 0.272809 0.255805 0.253712 0.206229 0.172704 0.174634 0.174844 0.130873 0.114752 0.098087 0.060191 0.059200 0.065566 0.100073 0.070029 0.088966 0.092136 0.092136 0.092136 0.092136 0.092136 0.092136 0.092136 0.092136 0.092136 0.092136 0.092136 0.092136 0.092136 0.092136 0.115117 0.115117 0.115117 0.115117 0.115117 0.115117 0.115117 0.115117 0.115117 0.115117 0.115117 0.115117
0.000000 0.000000 0.000000 0.000000 0.000000 0.000000 0.000000 0.000000 0.000000 0.000000 0.000000 0.000000 0.000000 0.000000 0.000000 0.000000 0.000000 0.000000 0.000000 0.000000 0.000000 0.000000 0.000000 0.000000 0.000000 0.000000 0.000000 0.000000 0.000000 0.000000 0.000000 0.000000 0.000000 0.000000 0.000000 0.000000 0.000000 0.000000 0.000000 0.000000 0.000000 0.000000 0.000000 0.000000 0.000000 0.000000 0.000000 0.000000 0.000000 0.000000 0.000000 0.000000 0.209657 0.209657 0.209657 0.209657 0.209657 0.209657 0.209657 0.209657 0.209657 0.209657 0.209657 0.209657 0.209657 0.209657 0.209657 0.209657 0.209657 0.209657 0.209657 0.209657 0.209657 0.209657 0.209657 0.209657 0.209657 0.209657 0.209657 0.209657 0.209657 0.209657 0.209657 0.209657 0.209657 0.244339 0.244339 0.244339 0.244339 0.244339 0.244339 0.244339 0.244339 0.244339 0.244339 0.244339 0.244339 0.244339 0.244339 0.244339 0.244339 0.244339 0.244339 0.244339 0.244339 0.244339 0.244339 0.244339 0.244339 0.244339 0.260378 0.260378 0.260378 0.260378 0.260378 0.260378 0.260378 0.260378 0.260378 0.260378 0.260378 0.260378 0.260378 0.260378 0.260378 0.260378 0.260378 0.260378 0.260378 0.260378 0.269680 0.269680 0.269680 0.269680 0.269680 0.269680 0.269680 0.269680 0.269680 0.269680 0.269680 0.269680 0.269680 0.269680 0.269680 0.269680 0.269680 0.269680 0.269680 0.269680 0.269680 0.269680 0.269680 0.269680 0.269680 0.269680 0.269680 0.269680 0.269680 0.269680 0.269680 0.269680 0.269680 0.280056 0.280056 0.280056 0.280056 0.280056 0.280056 0.280056 0.280056 0.280056 0.280056 0.280056 0.280056 0.280056 0.280056 0.280056 0.280056 0.280056 0.280056 0.280056 0.280056 0.280056 0.280056 0.280056 0.280056 0.280056 0.280056 0.280056 0.274721 0.274721 0.274721 0.274721 0.274721 0.274721 0.274721 0.274721 0.274721 0.274721 0.274721 0.274721 0.274721 0.285714 0.285714 0.285714 0.285714 0.285714 0.285714 0.285714 0.285714 0.285714 0.285714 0.285714 0.280056 0.280056 0.280056 0.280056 0.280056 0.280056 0.280056 0.280056 0.280056 0.280056 0.280056 0.274721 0.274721 0.274721 0.274721 0.274721 0.274721 0.274721 0.274721 0.274721 0.274721 0.274721 0.280056 0.280056 0.280056 0.280056 0.280056 0.280056 0.280056 0.280056 0.280056 0.280056 0.285714 0.285714 0.285714 0.285714 0.285714 0.285714 0.285714 0.285714 0.285714 0.269680 0.269680 0.269680 0.269680 0.269680 0.269680 0.269680 0.269680 0.269680 0.269680 0.274721 0.274721 0.274721 0.274721 0.274721 0.274721 0.274721 0.274721 0.274721 0.285714 0.285714 0.285714 0.285714 0.285714 0.285714 0.285714 0.285714 0.264906 0.264906 0.264906 0.264906 0.264906 0.264906 0.264906 0.264906 0.264906 0.274721 0.274721 0.274721 0.274721 0.274721 0.274721 0.274721 0.274721 0.269680 0.269680 0.269680 0.269680 0.269680 0.269680 0.269680 0.269680 0.269680 0.269680 0.269680 0.269680 0.269680 0.269680 0.269680 0.269680 0.280056 0.280056 0.280056 0.280056 0.280056 0.280056 0.280056 0.260378 0.260378 0.260378 0.260378 0.260378 0.260378 0.260378 0.260378 0.269680 0.269680 0.269680 0.269680 0.269680 0.269680 0.269680 0.264906 0.264906 0.264906 0.264906 0.264906 0.264906 0.264906 0.264906 0.264906 0.264906 0.264906 0.264906 0.264906 0.264906 0.260378 0.260378 0.260378 0.260378 0.260378 0.260378 0.260378 0.260378 0.260378 0.260378 0.260378 0.260378
