# Output from CTFFind version 4.1.9, run on 2019-11-02 17:50:06
# Input file: stack6_bm3d_averaged_1_1.5_0_3000_half.mrc ; Number of micrographs: 1
# Pixel size: 3.000 Angstroms ; acceleration voltage: 300.0 keV ; spherical aberration: 0.00 mm ; amplitude contrast: 0.07
# Box size: 512 pixels ; min. res.: 30.0 Angstroms ; max. res.: 5.0 Angstroms ; min. def.: 5000.0 um; max. def. 50000.0 um; num. frames averaged: 1
# 6 lines per micrograph: #1 - spatial frequency (1/Angstroms); #2 - 1D rotational average of spectrum (assuming no astigmatism); #3 - 1D rotational average of spectrum; #4 - CTF fit; #5 - cross-correlation between spectrum and CTF fit; #6 - 2sigma of expected cross correlation of noise
0.000000 0.000651 0.001302 0.001953 0.002604 0.003255 0.003906 0.004557 0.005208 0.005859 0.006510 0.007161 0.007812 0.008464 0.009115 0.009766 0.010417 0.011068 0.011719 0.012370 0.013021 0.013672 0.014323 0.014974 0.015625 0.016276 0.016927 0.017578 0.018229 0.018880 0.019531 0.020182 0.020833 0.021484 0.022135 0.022786 0.023438 0.024089 0.024740 0.025391 0.026042 0.026693 0.027344 0.027995 0.028646 0.029297 0.029948 0.030599 0.031250 0.031901 0.032552 0.033203 0.033854 0.034505 0.035156 0.035807 0.036458 0.037109 0.037760 0.038411 0.039062 0.039714 0.040365 0.041016 0.041667 0.042318 0.042969 0.043620 0.044271 0.044922 0.045573 0.046224 0.046875 0.047526 0.048177 0.048828 0.049479 0.050130 0.050781 0.051432 0.052083 0.052734 0.053385 0.054036 0.054688 0.055339 0.055990 0.056641 0.057292 0.057943 0.058594 0.059245 0.059896 0.060547 0.061198 0.061849 0.062500 0.063151 0.063802 0.064453 0.065104 0.065755 0.066406 0.067057 0.067708 0.068359 0.069010 0.069661 0.070312 0.070964 0.071615 0.072266 0.072917 0.073568 0.074219 0.074870 0.075521 0.076172 0.076823 0.077474 0.078125 0.078776 0.079427 0.080078 0.080729 0.081380 0.082031 0.082682 0.083333 0.083984 0.084635 0.085286 0.085938 0.086589 0.087240 0.087891 0.088542 0.089193 0.089844 0.090495 0.091146 0.091797 0.092448 0.093099 0.093750 0.094401 0.095052 0.095703 0.096354 0.097005 0.097656 0.098307 0.098958 0.099609 0.100260 0.100911 0.101562 0.102214 0.102865 0.103516 0.104167 0.104818 0.105469 0.106120 0.106771 0.107422 0.108073 0.108724 0.109375 0.110026 0.110677 0.111328 0.111979 0.112630 0.113281 0.113932 0.114583 0.115234 0.115885 0.116536 0.117188 0.117839 0.118490 0.119141 0.119792 0.120443 0.121094 0.121745 0.122396 0.123047 0.123698 0.124349 0.125000 0.125651 0.126302 0.126953 0.127604 0.128255 0.128906 0.129557 0.130208 0.130859 0.131510 0.132161 0.132812 0.133464 0.134115 0.134766 0.135417 0.136068 0.136719 0.137370 0.138021 0.138672 0.139323 0.139974 0.140625 0.141276 0.141927 0.142578 0.143229 0.143880 0.144531 0.145182 0.145833 0.146484 0.147135 0.147786 0.148438 0.149089 0.149740 0.150391 0.151042 0.151693 0.152344 0.152995 0.153646 0.154297 0.154948 0.155599 0.156250 0.156901 0.157552 0.158203 0.158854 0.159505 0.160156 0.160807 0.161458 0.162109 0.162760 0.163411 0.164062 0.164714 0.165365 0.166016 0.166667 0.167318 0.167969 0.168620 0.169271 0.169922 0.170573 0.171224 0.171875 0.172526 0.173177 0.173828 0.174479 0.175130 0.175781 0.176432 0.177083 0.177734 0.178385 0.179036 0.179688 0.180339 0.180990 0.181641 0.182292 0.182943 0.183594 0.184245 0.184896 0.185547 0.186198 0.186849 0.187500 0.188151 0.188802 0.189453 0.190104 0.190755 0.191406 0.192057 0.192708 0.193359 0.194010 0.194661 0.195312 0.195964 0.196615 0.197266 0.197917 0.198568 0.199219 0.199870 0.200521 0.201172 0.201823 0.202474 0.203125 0.203776 0.204427 0.205078 0.205729 0.206380 0.207031 0.207682 0.208333 0.208984 0.209635 0.210286 0.210938 0.211589 0.212240 0.212891 0.213542 0.214193 0.214844 0.215495 0.216146 0.216797 0.217448 0.218099 0.218750 0.219401 0.220052 0.220703 0.221354 0.222005 0.222656 0.223307 0.223958 0.224609 0.225260 0.225911 0.226562 0.227214 0.227865 0.228516 0.229167 0.229818 0.230469 0.231120 0.231771 0.232422 0.233073 0.233724 0.234375 0.235026 0.235677
       0.30961        0.30961        0.30961        0.30961        0.30961        0.30961        0.30961        0.30961        0.30961        0.30961        0.30961        0.30961        0.30961        0.30961        0.30961        0.30961        0.30961        0.30961        0.30961        0.30961        0.30961        0.30961        0.30961        0.30961        0.30961        0.30961        0.30961        0.30961        0.30961        0.30961        0.30961        0.30961        0.30961        0.30961        0.30961        0.30961        0.30961        0.30961        0.30961        0.30961        0.30961        0.30961        0.30961        0.30961        0.30961        0.30961        0.30961        0.30961        0.30961        0.30961        0.30961        0.63428        0.81186        0.41047        0.30752        0.18659       -0.10641        0.11292        0.00020        0.03258        0.11500        0.33823        0.42500        0.40357        0.22364       -0.01213        0.04540        0.07297       -0.16958       -0.17776       -0.09008       -0.10978       -0.29808       -0.18942       -0.30624       -0.25876       -0.28227       -0.40679       -0.47529       -0.47462       -0.42143       -0.34496       -0.43580       -0.36561       -0.41306       -0.35347       -0.27540       -0.20101       -0.19668       -0.13280       -0.08871        0.03865        0.08085        0.25041        0.28635        0.37474        0.40147        0.51182        0.58719        0.60753        0.73872        0.69547        0.73766        0.64878        0.66208        0.69505        0.63301        0.61591        0.60685        0.43269        0.39292        0.35391        0.32765        0.22625        0.13468        0.06071        0.05229       -0.00215       -0.08075       -0.03163       -0.03227       -0.07147        0.06729        0.16547        0.25546        0.31401        0.33616        0.42582        0.53772        0.58325        0.53611        0.66744        0.56001        0.53325        0.60036        0.63202        0.52805        0.46098        0.40224        0.37927        0.24995        0.20774        0.13071        0.11400        0.05574        0.06048        0.10276        0.15602        0.15140        0.17846        0.22092        0.23826        0.32976        0.44757        0.49100        0.49379        0.52092        0.57728        0.57412        0.52579        0.41826        0.38472        0.36288        0.26525        0.24391        0.21706        0.20478        0.20016        0.17817        0.15785        0.12296        0.18498        0.24078        0.34236        0.37817        0.40537        0.45912        0.53365        0.47269        0.48538        0.42684        0.40445        0.38232        0.36464        0.28760        0.25558        0.20385        0.23760        0.21875        0.19545        0.21368        0.21968        0.24294        0.30516        0.39881        0.39224        0.37465        0.38971        0.45173        0.47681        0.43357        0.35685        0.32225        0.28282        0.26479        0.24626        0.21322        0.28157        0.29582        0.29295        0.31093        0.30121        0.33638        0.37509        0.36888        0.36949        0.34932        0.31621        0.33290        0.32199        0.29838        0.28856        0.26967        0.21446        0.26796        0.27314        0.30006        0.31599        0.33646        0.36790        0.32996        0.30959        0.35487        0.36500        0.26264        0.29386        0.30588        0.24042        0.21119        0.26299        0.27026        0.27707        0.29848        0.30295        0.33138        0.33280        0.35520        0.32629        0.32501        0.30830        0.29119        0.26355        0.23800        0.25228        0.25947        0.27587        0.30027        0.29063        0.28866        0.31663        0.33576        0.26823        0.30634        0.26632        0.25863        0.26533        0.25513        0.25329        0.26363        0.31233        0.28179        0.31638        0.29163        0.27539        0.31000        0.30213        0.32968        0.31299        0.30037        0.25120        0.25342        0.26796        0.26237        0.30955        0.31406        0.33293        0.32399        0.30907        0.26319        0.29258        0.21973        0.18940        0.25672        0.27424        0.25607        0.28301        0.31045        0.29091        0.35506        0.30079        0.25285        0.21695        0.23752        0.28991        0.29906        0.30167        0.26927        0.27553        0.25155        0.31070        0.27390        0.24957        0.27265        0.24962        0.28965        0.25136        0.28231        0.32427        0.28594        0.20515        0.22993        0.27680        0.31752        0.25631        0.26501        0.24467        0.28944        0.28726        0.37909        0.29597        0.27642        0.27352        0.25167        0.21913        0.18897        0.24758        0.21383        0.19972        0.17934        0.19737        0.24015        0.21569        0.24553        0.20128        0.23835        0.22018        0.20721        0.18764        0.16617        0.19559        0.23438        0.15696        0.08156        0.20478        0.17699        0.12551        0.23996        0.15103        0.24401        0.18417       -0.12413       -0.54008       -0.91658
2.866042 2.837787 2.809676 2.781712 2.753893 2.726219 2.698691 2.671309 2.644071 2.616980 2.590034 2.563234 2.536579 2.510069 2.483705 2.457487 2.431414 2.405487 2.379705 2.354069 2.328578 2.303233 2.278033 2.252979 2.228070 2.203307 2.178689 2.154217 2.129890 2.105709 2.081674 2.057784 2.034039 2.010440 1.986986 1.963678 1.940516 1.917499 1.894627 1.871902 1.849321 1.826886 1.804597 1.782453 1.760455 1.738602 1.716895 1.695333 1.673917 1.652646 1.631521 1.931129 2.276860 1.697152 1.743820 1.387569 0.946767 1.208936 1.034775 1.082939 1.033459 1.503928 1.524431 1.552860 1.281910 0.952705 0.827182 1.020221 0.723031 0.497877 0.591420 0.683529 0.420153 0.493389 0.328660 0.367551 0.259635 0.164325 -0.035369 0.009431 0.035937 0.075458 0.046925 0.087378 -0.041721 0.029175 0.110469 0.230569 0.284639 0.216643 0.333408 0.560148 0.446200 0.731954 0.806653 0.890051 0.910276 1.116378 1.140081 1.179055 1.332884 1.229974 1.375790 1.192286 1.111676 1.317082 1.130222 1.058997 1.128725 0.888953 0.735656 0.675583 0.671244 0.475421 0.398075 0.271232 0.218723 0.093921 -0.011927 0.091765 0.024470 -0.065429 0.117889 0.262130 0.310214 0.462228 0.481843 0.555959 0.711652 0.808892 0.654811 0.950847 0.801748 0.652064 0.765840 0.788890 0.706977 0.640290 0.444946 0.501923 0.290031 0.184862 0.137599 0.003115 -0.019818 -0.100306 -0.015454 0.003192 0.095702 -0.049314 0.250980 0.102377 0.203728 0.370417 0.427559 0.529356 0.426537 0.562188 0.669250 0.508295 0.387962 0.331091 0.321211 0.140505 0.127126 0.022886 0.092690 0.022600 0.001125 -0.032801 -0.119464 -0.020535 0.013618 0.099106 0.287491 0.206138 0.345904 0.370304 0.434309 0.402512 0.406158 0.338463 0.225303 0.311331 0.166930 0.160920 0.008916 0.059079 0.071738 -0.019132 -0.000222 0.008142 0.062131 0.078733 0.226226 0.298991 0.238895 0.206515 0.379097 0.389016 0.358204 0.251687 0.172141 0.151171 0.089035 0.076946 0.023476 0.020624 0.136110 0.053046 0.186635 0.080943 0.130109 0.220521 0.215804 0.211794 0.204289 0.188345 0.117251 0.170088 0.122925 0.102600 0.118873 -0.007208 0.023582 0.083573 0.049693 0.150662 0.105361 0.208536 0.187607 0.123800 0.129992 0.212858 0.124491 0.068771 0.092994 0.059959 -0.001146 -0.016516 0.055291 0.071476 0.039175 0.114175 0.110135 0.121722 0.147312 0.168662 0.136289 0.092584 0.105955 0.087846 0.009335 0.008476 0.039329 0.010108 0.072398 0.113181 0.067722 0.050386 0.128331 0.118894 0.018107 0.118763 0.017765 0.022768 0.036651 0.011217 0.000816 0.070694 0.083585 0.022881 0.105250 0.074957 0.014350 0.120567 0.069642 0.084210 0.096095 0.034719 -0.009598 -0.011925 0.040698 0.009009 0.064359 0.095567 0.099261 0.063716 0.131277 -0.005130 0.065320 -0.095759 -0.040178 -0.010358 0.026297 0.014021 0.025519 0.087212 0.049759 0.122221 -0.019516 -0.030715 -0.096739 -0.080792 0.073488 0.014541 0.045416 -0.022890 -0.019551 -0.041734 0.064355 -0.013045 -0.063534 -0.009764 -0.083424 0.027636 -0.041385 0.013797 0.057849 -0.013983 -0.104475 -0.032651 0.028389 0.031473 -0.035314 -0.005100 -0.061926 0.094586 0.058042 0.169269 0.040304 0.011789 0.047115 0.038990 -0.055079 -0.025321 0.054241 -0.001946 -0.042514 -0.039473 -0.025710 0.100113 -0.048911 0.122843 0.010385 0.112826 0.000819 0.089844 -0.028486 0.005622 -0.013785 0.135163 0.026109 0.047813 0.287986 0.243044 0.178117 0.408367 0.207579 0.309658 0.270542 -0.170514 -1.281999
0.072396 0.072834 0.074149 0.076340 0.079407 0.083349 0.088165 0.093853 0.100414 0.107843 0.116140 0.125301 0.135321 0.146198 0.157924 0.170495 0.183902 0.198136 0.213187 0.229043 0.245691 0.263115 0.281297 0.300216 0.319852 0.340177 0.361164 0.382782 0.404997 0.427769 0.451057 0.474816 0.498995 0.523541 0.548395 0.573494 0.598770 0.624150 0.649556 0.674906 0.700111 0.725077 0.749707 0.773897 0.797537 0.820515 0.842711 0.864003 0.884263 0.903359 0.921157 0.937517 0.952300 0.965362 0.976559 0.985745 0.992776 0.997508 0.999798 0.999509 0.996506 0.990658 0.981845 0.969950 0.954868 0.936506 0.914780 0.889623 0.860981 0.828818 0.793118 0.753882 0.711136 0.664926 0.615325 0.562431 0.506368 0.447292 0.385383 0.320855 0.253950 0.184942 0.114136 0.041867 0.031501 0.105573 0.179928 0.254118 0.327670 0.400091 0.470868 0.539473 0.605368 0.668004 0.726831 0.781302 0.830877 0.875027 0.913246 0.945051 0.969992 0.987658 0.997684 0.999758 0.993625 0.979098 0.956061 0.924475 0.884387 0.835928 0.779324 0.714893 0.643053 0.564317 0.479298 0.388704 0.293337 0.194087 0.091930 0.012085 0.116842 0.221169 0.323850 0.423637 0.519270 0.609488 0.693051 0.768753 0.835446 0.892058 0.937610 0.971240 0.992217 0.999965 0.994072 0.974313 0.940658 0.893284 0.832584 0.759167 0.673868 0.577735 0.472029 0.358212 0.237931 0.112997 0.014636 0.142899 0.269643 0.392671 0.509776 0.618784 0.717595 0.804224 0.876852 0.933861 0.973877 0.995814 0.998901 0.982716 0.947212 0.892730 0.820011 0.730200 0.624835 0.505832 0.375462 0.236307 0.091226 0.056705 0.204256 0.348106 0.484923 0.611441 0.724538 0.821323 0.899212 0.956011 0.989976 0.999885 0.985086 0.945536 0.881828 0.795196 0.687513 0.561261 0.419486 0.265738 0.103994 0.061444 0.226057 0.385226 0.534364 0.669056 0.785186 0.879084 0.947637 0.988418 0.999775 0.980914 0.931958 0.853968 0.748947 0.619810 0.470318 0.304985 0.128956 0.052146 0.232389 0.405731 0.566210 0.708169 0.826455 0.916619 0.975101 0.999384 0.988120 0.941221 0.859901 0.746669 0.605290 0.440667 0.258696 0.066076 0.129933 0.321779 0.501899 0.663027 0.798498 0.902534 0.970505 0.999164 0.986817 0.933446 0.840761 0.712175 0.552716 0.368847 0.168234 0.040561 0.248432 0.446122 0.624643 0.775685 0.892024 0.967887 0.999265 0.984148 0.922684 0.817229 0.672299 0.494409 0.291811 0.074137 0.148040 0.363719 0.562005 0.732670 0.866699 0.956783 0.997756 0.986915 0.924235 0.812440 0.656932 0.465573 0.248319 0.016725 0.216639 0.438876 0.637463 0.800982 0.919791 0.986621 0.997067 0.949907 0.847261 0.694557 0.500278 0.275542 0.033503 0.211404 0.444319 0.650842 0.817957 0.934868 0.993735 0.990243 0.923964 0.798480 0.621248 0.403212 0.158169 0.098074 0.348699 0.576963 0.767358 0.906659 0.984894 0.996104 0.938849 0.816413 0.636688 0.411718 0.156951 0.109792 0.369534 0.603496 0.794468 0.928094 0.994008 0.986687 0.905971 0.757206 0.550946 0.302292 0.029809 0.245802 0.503278 0.722428 0.885748 0.979864 0.996678 0.934133 0.796515 0.594238 0.343129 0.063255 0.222651 0.491003 0.719322 0.888145 0.982722 0.994381 0.921387 0.769239 0.550358 0.283129 0.009565 0.302259 0.569120 0.786232 0.933775 0.997891 0.972063 0.857864 0.664969 0.410430 0.117246 0.187646 0.475849 0.720118 0.896982 0.989053 0.986813 0.889688 0.706277 0.453697 0.156075 0.157699 0.456726 0.711156 0.895188
1.000000 1.000000 1.000000 1.000000 1.000000 1.000000 1.000000 1.000000 1.000000 1.000000 1.000000 1.000000 1.000000 1.000000 1.000000 1.000000 1.000000 1.000000 1.000000 1.000000 1.000000 1.000000 1.000000 1.000000 1.000000 1.000000 1.000000 1.000000 1.000000 1.000000 1.000000 1.000000 1.000000 1.000000 1.000000 1.000000 1.000000 1.000000 1.000000 1.000000 1.000000 1.000000 1.000000 1.000000 1.000000 1.000000 1.000000 1.000000 1.000000 1.000000 1.000000 1.000000 0.834676 0.834676 0.834676 0.834676 0.834676 0.834676 0.834676 0.812113 0.812113 0.812113 0.812113 0.812113 0.812113 0.812113 0.812113 0.812113 0.812113 0.812113 0.812113 0.812113 0.812113 0.812113 0.812113 0.812113 0.812113 0.812113 0.812113 0.812113 0.812113 0.812113 0.812113 0.812113 0.812113 0.812113 0.812113 0.812113 0.812113 0.812113 0.812113 0.812113 0.812113 0.812113 0.812113 0.812113 0.812113 0.812113 0.812113 0.812113 0.812113 0.812113 0.812113 0.953627 0.954323 0.946870 0.945825 0.944156 0.940790 0.936489 0.935997 0.937322 0.937546 0.938203 0.940363 0.941410 0.943097 0.944338 0.945201 0.946026 0.954044 0.957646 0.957275 0.956902 0.952642 0.959355 0.957310 0.957150 0.957853 0.958113 0.958800 0.958705 0.958557 0.958082 0.956848 0.957514 0.957352 0.956648 0.955656 0.953598 0.953568 0.953150 0.953288 0.954235 0.954938 0.955695 0.956196 0.956178 0.956335 0.956329 0.956243 0.951493 0.951506 0.944650 0.945150 0.946232 0.945895 0.944928 0.943520 0.943585 0.943483 0.943431 0.943276 0.943479 0.925264 0.925270 0.925292 0.926100 0.920879 0.910821 0.904745 0.899584 0.900683 0.904580 0.909043 0.909132 0.905543 0.904690 0.886668 0.890328 0.875429 0.871605 0.862070 0.871717 0.873671 0.874805 0.869863 0.868762 0.867337 0.864424 0.851457 0.855801 0.856772 0.853038 0.849724 0.847527 0.844319 0.846129 0.850716 0.845821 0.842856 0.839886 0.829457 0.819244 0.817801 0.820211 0.828831 0.840741 0.840159 0.839266 0.831824 0.827871 0.821151 0.815161 0.815833 0.817874 0.815011 0.818817 0.819614 0.828641 0.818444 0.812755 0.817427 0.828985 0.833338 0.835068 0.836333 0.833472 0.833730 0.807175 0.807924 0.809741 0.772172 0.772093 0.762177 0.762064 0.758287 0.755789 0.752700 0.746735 0.740766 0.726563 0.740351 0.746989 0.713180 0.720588 0.714109 0.705631 0.683680 0.684993 0.698651 0.708355 0.710138 0.716991 0.706268 0.705332 0.715659 0.716137 0.722388 0.718767 0.712288 0.708180 0.711244 0.706214 0.693759 0.687261 0.687087 0.686914 0.682520 0.662854 0.671414 0.657582 0.650279 0.638780 0.601727 0.585218 0.572110 0.561545 0.542049 0.515215 0.530359 0.533324 0.524897 0.514097 0.492275 0.448403 0.427813 0.425930 0.407156 0.405041 0.386556 0.335649 0.339276 0.324929 0.327038 0.306740 0.297833 0.283758 0.223369 0.227111 0.185120 0.212368 0.226637 0.218622 0.200775 0.190752 0.217993 0.224051 0.234765 0.233086 0.250969 0.208693 0.146471 0.170587 0.161525 0.169619 0.153558 0.122418 0.149910 0.147632 0.158182 0.163184 0.117658 0.087007 0.060390 0.053099 0.064768 0.088011 0.100325 0.089498 0.073889 -0.017587 0.015777 0.039903 0.039903 0.039903 0.039903 0.039903 0.039903 0.039903 0.039903 0.039903 0.039903 0.039903 -0.015794 -0.015794 -0.015794 -0.015794 -0.015794 -0.015794 -0.015794 -0.015794 -0.015794 -0.015794 -0.015794 -0.015794 -0.015794 -0.015794 -0.015794 -0.015794 -0.015794 -0.015794 -0.015794
0.000000 0.000000 0.000000 0.000000 0.000000 0.000000 0.000000 0.000000 0.000000 0.000000 0.000000 0.000000 0.000000 0.000000 0.000000 0.000000 0.000000 0.000000 0.000000 0.000000 0.000000 0.000000 0.000000 0.000000 0.000000 0.000000 0.000000 0.000000 0.000000 0.000000 0.000000 0.000000 0.000000 0.000000 0.000000 0.000000 0.000000 0.000000 0.000000 0.000000 0.000000 0.000000 0.000000 0.000000 0.000000 0.000000 0.000000 0.000000 0.000000 0.000000 0.000000 0.000000 0.173422 0.173422 0.173422 0.173422 0.173422 0.173422 0.173422 0.191565 0.191565 0.191565 0.191565 0.191565 0.191565 0.191565 0.191565 0.191565 0.191565 0.191565 0.191565 0.191565 0.191565 0.191565 0.191565 0.191565 0.191565 0.191565 0.191565 0.191565 0.191565 0.191565 0.191565 0.191565 0.191565 0.191565 0.191565 0.191565 0.191565 0.191565 0.191565 0.191565 0.191565 0.191565 0.191565 0.191565 0.191565 0.191565 0.191565 0.191565 0.191565 0.191565 0.191565 0.219529 0.219529 0.219529 0.219529 0.219529 0.219529 0.219529 0.219529 0.219529 0.219529 0.219529 0.219529 0.219529 0.219529 0.219529 0.219529 0.219529 0.219529 0.219529 0.219529 0.219529 0.219529 0.219529 0.219529 0.219529 0.219529 0.219529 0.219529 0.219529 0.219529 0.219529 0.237356 0.237356 0.237356 0.237356 0.237356 0.237356 0.237356 0.237356 0.237356 0.237356 0.237356 0.237356 0.237356 0.237356 0.237356 0.237356 0.237356 0.237356 0.237356 0.237356 0.237356 0.237356 0.237356 0.237356 0.244339 0.244339 0.244339 0.244339 0.244339 0.244339 0.244339 0.244339 0.244339 0.244339 0.244339 0.244339 0.244339 0.244339 0.244339 0.244339 0.244339 0.244339 0.244339 0.244339 0.244339 0.248069 0.248069 0.248069 0.248069 0.248069 0.248069 0.248069 0.248069 0.248069 0.248069 0.248069 0.248069 0.248069 0.248069 0.248069 0.248069 0.248069 0.248069 0.248069 0.248069 0.248069 0.248069 0.248069 0.248069 0.248069 0.248069 0.248069 0.248069 0.248069 0.248069 0.248069 0.248069 0.248069 0.248069 0.248069 0.248069 0.248069 0.256074 0.256074 0.256074 0.256074 0.256074 0.256074 0.256074 0.256074 0.256074 0.256074 0.256074 0.256074 0.256074 0.256074 0.256074 0.256074 0.256074 0.256074 0.256074 0.256074 0.256074 0.256074 0.256074 0.256074 0.256074 0.256074 0.256074 0.256074 0.256074 0.256074 0.256074 0.256074 0.256074 0.256074 0.256074 0.256074 0.256074 0.256074 0.256074 0.256074 0.256074 0.256074 0.256074 0.256074 0.256074 0.260378 0.260378 0.260378 0.260378 0.260378 0.260378 0.260378 0.260378 0.260378 0.260378 0.260378 0.260378 0.260378 0.256074 0.256074 0.256074 0.256074 0.256074 0.256074 0.256074 0.256074 0.256074 0.256074 0.256074 0.256074 0.256074 0.260378 0.260378 0.260378 0.260378 0.260378 0.260378 0.260378 0.260378 0.260378 0.260378 0.260378 0.260378 0.251976 0.251976 0.251976 0.251976 0.251976 0.251976 0.251976 0.251976 0.251976 0.251976 0.251976 0.251976 0.256074 0.256074 0.256074 0.256074 0.256074 0.256074 0.256074 0.256074 0.256074 0.256074 0.256074 0.251976 0.251976 0.251976 0.251976 0.251976 0.251976 0.251976 0.251976 0.251976 0.251976 0.251976 0.248069 0.248069 0.248069 0.248069 0.248069 0.248069 0.248069 0.248069 0.248069 0.248069 0.248069 0.256074 0.256074 0.256074 0.256074 0.256074 0.256074 0.256074 0.256074 0.256074 0.256074 0.256074 0.256074 0.256074 0.256074 0.256074 0.256074 0.256074 0.256074 0.256074
