# Output from CTFFind version 4.1.9, run on 2019-11-03 20:09:53
# Input file: stack11_bm3d_averaged_1_6.5_0_2500_half.mrc ; Number of micrographs: 1
# Pixel size: 3.000 Angstroms ; acceleration voltage: 300.0 keV ; spherical aberration: 0.00 mm ; amplitude contrast: 0.07
# Box size: 512 pixels ; min. res.: 30.0 Angstroms ; max. res.: 5.0 Angstroms ; min. def.: 5000.0 um; max. def. 50000.0 um; num. frames averaged: 1
# 6 lines per micrograph: #1 - spatial frequency (1/Angstroms); #2 - 1D rotational average of spectrum (assuming no astigmatism); #3 - 1D rotational average of spectrum; #4 - CTF fit; #5 - cross-correlation between spectrum and CTF fit; #6 - 2sigma of expected cross correlation of noise
0.000000 0.000651 0.001302 0.001953 0.002604 0.003255 0.003906 0.004557 0.005208 0.005859 0.006510 0.007161 0.007812 0.008464 0.009115 0.009766 0.010417 0.011068 0.011719 0.012370 0.013021 0.013672 0.014323 0.014974 0.015625 0.016276 0.016927 0.017578 0.018229 0.018880 0.019531 0.020182 0.020833 0.021484 0.022135 0.022786 0.023438 0.024089 0.024740 0.025391 0.026042 0.026693 0.027344 0.027995 0.028646 0.029297 0.029948 0.030599 0.031250 0.031901 0.032552 0.033203 0.033854 0.034505 0.035156 0.035807 0.036458 0.037109 0.037760 0.038411 0.039062 0.039714 0.040365 0.041016 0.041667 0.042318 0.042969 0.043620 0.044271 0.044922 0.045573 0.046224 0.046875 0.047526 0.048177 0.048828 0.049479 0.050130 0.050781 0.051432 0.052083 0.052734 0.053385 0.054036 0.054688 0.055339 0.055990 0.056641 0.057292 0.057943 0.058594 0.059245 0.059896 0.060547 0.061198 0.061849 0.062500 0.063151 0.063802 0.064453 0.065104 0.065755 0.066406 0.067057 0.067708 0.068359 0.069010 0.069661 0.070312 0.070964 0.071615 0.072266 0.072917 0.073568 0.074219 0.074870 0.075521 0.076172 0.076823 0.077474 0.078125 0.078776 0.079427 0.080078 0.080729 0.081380 0.082031 0.082682 0.083333 0.083984 0.084635 0.085286 0.085938 0.086589 0.087240 0.087891 0.088542 0.089193 0.089844 0.090495 0.091146 0.091797 0.092448 0.093099 0.093750 0.094401 0.095052 0.095703 0.096354 0.097005 0.097656 0.098307 0.098958 0.099609 0.100260 0.100911 0.101562 0.102214 0.102865 0.103516 0.104167 0.104818 0.105469 0.106120 0.106771 0.107422 0.108073 0.108724 0.109375 0.110026 0.110677 0.111328 0.111979 0.112630 0.113281 0.113932 0.114583 0.115234 0.115885 0.116536 0.117188 0.117839 0.118490 0.119141 0.119792 0.120443 0.121094 0.121745 0.122396 0.123047 0.123698 0.124349 0.125000 0.125651 0.126302 0.126953 0.127604 0.128255 0.128906 0.129557 0.130208 0.130859 0.131510 0.132161 0.132812 0.133464 0.134115 0.134766 0.135417 0.136068 0.136719 0.137370 0.138021 0.138672 0.139323 0.139974 0.140625 0.141276 0.141927 0.142578 0.143229 0.143880 0.144531 0.145182 0.145833 0.146484 0.147135 0.147786 0.148438 0.149089 0.149740 0.150391 0.151042 0.151693 0.152344 0.152995 0.153646 0.154297 0.154948 0.155599 0.156250 0.156901 0.157552 0.158203 0.158854 0.159505 0.160156 0.160807 0.161458 0.162109 0.162760 0.163411 0.164062 0.164714 0.165365 0.166016 0.166667 0.167318 0.167969 0.168620 0.169271 0.169922 0.170573 0.171224 0.171875 0.172526 0.173177 0.173828 0.174479 0.175130 0.175781 0.176432 0.177083 0.177734 0.178385 0.179036 0.179688 0.180339 0.180990 0.181641 0.182292 0.182943 0.183594 0.184245 0.184896 0.185547 0.186198 0.186849 0.187500 0.188151 0.188802 0.189453 0.190104 0.190755 0.191406 0.192057 0.192708 0.193359 0.194010 0.194661 0.195312 0.195964 0.196615 0.197266 0.197917 0.198568 0.199219 0.199870 0.200521 0.201172 0.201823 0.202474 0.203125 0.203776 0.204427 0.205078 0.205729 0.206380 0.207031 0.207682 0.208333 0.208984 0.209635 0.210286 0.210938 0.211589 0.212240 0.212891 0.213542 0.214193 0.214844 0.215495 0.216146 0.216797 0.217448 0.218099 0.218750 0.219401 0.220052 0.220703 0.221354 0.222005 0.222656 0.223307 0.223958 0.224609 0.225260 0.225911 0.226562 0.227214 0.227865 0.228516 0.229167 0.229818 0.230469 0.231120 0.231771 0.232422 0.233073 0.233724 0.234375 0.235026 0.235677
       0.34465        0.34465        0.34465        0.34465        0.34465        0.34465        0.34465        0.34465        0.34465        0.34465        0.34465        0.34465        0.34465        0.34465        0.34465        0.34465        0.34465        0.34465        0.34465        0.34465        0.34465        0.34465        0.34465        0.34465        0.34465        0.34465        0.34465        0.34465        0.34465        0.34465        0.34465        0.34465        0.34465        0.34465        0.34465        0.34465        0.34465        0.34465        0.34465        0.34465        0.34465        0.34465        0.34465        0.34465        0.34465        0.34465        0.34465        0.34465        0.34465        0.34465        0.34465        0.69883        0.85770        0.53801        0.10541       -0.02911       -0.38653       -0.18021       -0.28833       -0.11574       -0.05515       -0.11242       -0.05317       -0.16706       -0.20578       -0.21400       -0.30711       -0.31852       -0.44421       -0.36203       -0.42617       -0.42113       -0.39398       -0.40768       -0.44754       -0.50807       -0.55871       -0.55031       -0.52461       -0.35677       -0.32650       -0.29162       -0.27158       -0.18569       -0.17006        0.06119        0.14174        0.17472        0.26593        0.38170        0.45788        0.52325        0.60047        0.59781        0.58424        0.70012        0.80345        0.70338        0.74421        0.61996        0.56876        0.48365        0.43252        0.51226        0.39761        0.27103        0.11651        0.11281        0.09319       -0.01389        0.04420        0.05222        0.01115        0.02803        0.03041        0.23725        0.27164        0.29671        0.43520        0.45366        0.41462        0.59971        0.61929        0.63606        0.72471        0.67646        0.64719        0.65667        0.56030        0.46100        0.41907        0.30378        0.26957        0.18446        0.13658        0.05257        0.06537        0.07515        0.09981        0.15952        0.24538        0.29765        0.42167        0.46544        0.48143        0.56513        0.60280        0.63684        0.61555        0.55857        0.46203        0.47381        0.37896        0.27731        0.21219        0.15670        0.17274        0.15357        0.16042        0.18956        0.32290        0.33734        0.40676        0.44611        0.42642        0.48113        0.56352        0.55515        0.50293        0.45774        0.41373        0.37260        0.34195        0.30935        0.26463        0.24735        0.25419        0.25641        0.22615        0.31003        0.36468        0.38492        0.43961        0.45645        0.46812        0.42735        0.41195        0.40231        0.36330        0.33669        0.27490        0.28077        0.26896        0.24607        0.29562        0.29289        0.35226        0.38300        0.43440        0.47681        0.40738        0.42299        0.43285        0.41183        0.35026        0.32861        0.29329        0.32648        0.27582        0.32317        0.31551        0.33326        0.34159        0.36481        0.31467        0.38900        0.41256        0.38106        0.35203        0.37005        0.31904        0.29550        0.30794        0.32062        0.30830        0.32058        0.34475        0.35698        0.34127        0.36477        0.36365        0.42264        0.39038        0.33977        0.34867        0.30003        0.29420        0.32671        0.32043        0.33106        0.34326        0.34247        0.38761        0.33145        0.33049        0.33903        0.34868        0.30522        0.31308        0.28208        0.30352        0.33118        0.30519        0.33196        0.35843        0.36968        0.29887        0.34219        0.29971        0.29438        0.27973        0.24728        0.30729        0.30729        0.34296        0.33981        0.34444        0.32775        0.34998        0.31519        0.34656        0.30748        0.32522        0.29149        0.33693        0.33021        0.37190        0.33043        0.33655        0.33833        0.29386        0.27596        0.31265        0.25038        0.22931        0.34142        0.32333        0.36734        0.34768        0.36341        0.33540        0.33487        0.35093        0.26623        0.26799        0.31913        0.30190        0.31166        0.31596        0.33980        0.32948        0.28977        0.29082        0.34588        0.32251        0.32132        0.29810        0.32257        0.33874        0.39412        0.36213        0.31955        0.28314        0.30415        0.29017        0.30636        0.27811        0.27028        0.31284        0.33068        0.34607        0.35615        0.33174        0.29541        0.30165        0.27089        0.27841        0.25663        0.30762        0.26271        0.24756        0.29211        0.28712        0.26316        0.29493        0.21907        0.21559        0.24018        0.19267        0.27206        0.34844        0.25287        0.24142        0.31850        0.30364        0.31087        0.31461        0.27234        0.25159        0.19286        0.21084        0.20668        0.27769        0.23698        0.28439        0.36417        0.36660        0.25365        0.17382        0.11840       -0.01404       -0.12322       -0.62228
2.800880 2.771162 2.741605 2.712211 2.682978 2.653907 2.624998 2.596251 2.567666 2.539243 2.510981 2.482881 2.454944 2.427167 2.399553 2.372101 2.344810 2.317682 2.290715 2.263910 2.237267 2.210785 2.184466 2.158308 2.132312 2.106478 2.080806 2.055296 2.029947 2.004760 1.979736 1.954873 1.930171 1.905632 1.881255 1.857039 1.832985 1.809093 1.785363 1.761795 1.738388 1.715144 1.692061 1.669140 1.646381 1.623784 1.601348 1.579075 1.556963 1.535013 1.513225 1.731247 2.157005 1.712694 1.192305 1.055739 0.454460 0.851872 0.562826 0.847874 0.816933 0.820802 0.759988 0.756715 0.598382 0.562329 0.502852 0.428966 0.249764 0.366032 0.200037 0.331021 0.219956 0.210490 0.185361 0.041473 0.003083 0.019185 -0.069892 0.133685 0.233538 0.189269 0.179305 0.325889 0.184888 0.522910 0.627035 0.635389 0.652582 0.880132 0.838619 0.947083 0.942203 1.039222 1.008402 1.091841 1.174871 1.048193 1.170126 0.913340 0.933202 0.799100 0.656165 0.811166 0.697844 0.497807 0.334132 0.252513 0.270127 0.149651 0.137165 0.166310 0.109200 0.121026 0.082430 0.249944 0.352534 0.343160 0.478248 0.546684 0.418257 0.595929 0.733974 0.649616 0.722560 0.712822 0.720928 0.648209 0.597763 0.492979 0.369264 0.277234 0.220779 0.091334 0.116855 -0.115022 -0.049344 -0.063352 -0.083673 -0.018814 0.129505 0.070721 0.242308 0.308056 0.336977 0.375245 0.497972 0.466749 0.480934 0.491833 0.305728 0.294803 0.287492 0.086705 0.046063 -0.081159 -0.015092 -0.062606 -0.096596 -0.072588 0.039931 0.094689 0.125991 0.224168 0.224419 0.221933 0.316852 0.358461 0.434906 0.257213 0.232970 0.226444 0.143758 0.145362 0.119548 -0.004303 0.015520 0.075588 -0.010204 0.045568 0.133887 0.135587 0.214618 0.234186 0.259522 0.162519 0.211154 0.128162 0.129089 0.113285 0.027781 -0.026451 -0.000805 -0.020588 -0.052893 0.054873 0.004917 0.106574 0.138763 0.192595 0.169656 0.111631 0.140816 0.160539 0.110541 0.036304 -0.025400 0.030082 0.027680 -0.042818 0.036360 0.021348 0.048009 0.039589 0.050840 0.030853 0.134049 0.120591 0.046693 0.038792 0.043133 0.006001 -0.030874 0.009588 0.005823 -0.003656 0.004288 0.055746 0.053731 0.039235 0.076730 0.060910 0.162605 0.063932 0.040366 0.042987 -0.034416 0.011803 0.046960 0.007916 0.033605 0.055328 0.080212 0.049781 0.042222 0.008632 0.079532 0.025596 0.021484 0.023728 -0.006797 0.033168 0.026195 0.021152 0.069238 0.074491 0.076652 0.041124 0.051526 0.024602 0.016212 -0.023120 -0.024483 0.036620 0.052670 0.081060 0.081694 0.065879 0.069487 0.102000 0.043329 0.091996 0.059349 0.043666 0.018552 0.104115 0.062566 0.123613 0.070230 0.062253 0.101256 0.033585 0.003448 0.086605 -0.039090 -0.027001 0.096199 0.044364 0.160256 0.093518 0.090093 0.066784 0.036404 0.091754 -0.024977 -0.024672 0.050527 0.036885 0.035399 0.022453 0.105357 0.032843 -0.010896 0.051273 0.043802 0.052133 0.060722 -0.008708 0.060326 0.053197 0.119770 0.055316 0.028102 -0.027767 -0.023466 -0.004279 0.006740 -0.055099 -0.022660 0.001933 0.017281 0.035462 0.056557 0.005402 -0.033038 -0.030242 -0.019402 -0.067097 -0.047626 -0.028522 -0.139511 -0.096184 -0.054771 -0.090590 -0.104702 -0.024543 -0.152902 -0.105766 -0.112272 -0.186869 -0.070105 0.061054 -0.071667 -0.139682 0.051486 0.035088 -0.024786 0.075407 -0.023647 -0.001834 -0.088027 -0.035955 0.045909 0.123370 0.055606 0.139644 0.172813 0.430012 0.236245 0.315704 0.150034 -0.019686 -0.694306
0.072396 0.072899 0.074408 0.076923 0.080442 0.084965 0.090492 0.097019 0.104546 0.113069 0.122584 0.133088 0.144576 0.157040 0.170473 0.184866 0.200208 0.216485 0.233684 0.251786 0.270772 0.290618 0.311298 0.332784 0.355041 0.378033 0.401718 0.426050 0.450978 0.476446 0.502392 0.528751 0.555448 0.582404 0.609535 0.636748 0.663944 0.691019 0.717860 0.744347 0.770356 0.795754 0.820401 0.844151 0.866854 0.888352 0.908482 0.927078 0.943968 0.958978 0.971931 0.982649 0.990954 0.996668 0.999617 0.999628 0.996535 0.990180 0.980412 0.967090 0.950088 0.929292 0.904608 0.875957 0.843285 0.806558 0.765770 0.720942 0.672125 0.619402 0.562890 0.502741 0.439145 0.372329 0.302562 0.230152 0.155446 0.078833 0.000743 0.078358 0.157964 0.237534 0.316496 0.394248 0.470161 0.543589 0.613866 0.680320 0.742274 0.799057 0.850009 0.894489 0.931887 0.961630 0.983193 0.996106 0.999968 0.994452 0.979319 0.954420 0.919713 0.875262 0.821249 0.757978 0.685878 0.605507 0.517552 0.422828 0.322274 0.216950 0.108028 0.003219 0.115429 0.227162 0.336923 0.443178 0.544374 0.638966 0.725439 0.802337 0.868286 0.922026 0.962436 0.988561 0.999640 0.995128 0.974717 0.938360 0.886280 0.818982 0.737264 0.642211 0.535195 0.417860 0.292108 0.160072 0.024086 0.113352 0.249621 0.382029 0.507862 0.624444 0.729197 0.819698 0.893746 0.949419 0.985133 0.999690 0.992334 0.962781 0.911251 0.838491 0.745772 0.634893 0.508152 0.368317 0.218570 0.062450 0.096227 0.253455 0.405142 0.547209 0.675710 0.786942 0.877563 0.944702 0.986058 1.000000 0.985632 0.942861 0.872426 0.775915 0.655751 0.515148 0.358047 0.189017 0.013139 0.164146 0.337191 0.500330 0.648063 0.775246 0.877286 0.950320 0.991374 0.998507 0.970916 0.909014 0.814452 0.690117 0.540057 0.369391 0.184133 0.008980 0.202742 0.389736 0.562612 0.714386 0.838737 0.930282 0.984834 0.999612 0.973414 0.906718 0.801722 0.662309 0.493939 0.303462 0.098861 0.111056 0.317038 0.509781 0.680369 0.820684 0.923827 0.984469 0.999164 0.966576 0.887613 0.765451 0.605454 0.414983 0.203079 0.019927 0.242913 0.454503 0.643660 0.800265 0.915685 0.983283 0.998830 0.960810 0.870591 0.732430 0.553332 0.342733 0.112046 0.125935 0.357726 0.569913 0.749944 0.886888 0.972132 0.999968 0.968021 0.877486 0.733166 0.543271 0.319006 0.073957 0.176708 0.417155 0.631895 0.806781 0.929989 0.992844 0.990491 0.922326 0.792150 0.608033 0.381882 0.128713 0.134293 0.388934 0.617266 0.802847 0.931988 0.994790 0.985972 0.905379 0.758124 0.554353 0.308611 0.038858 0.234795 0.491565 0.711604 0.877524 0.975851 0.998158 0.941875 0.810634 0.614137 0.367520 0.090261 0.195320 0.465822 0.698679 0.874082 0.976708 0.997131 0.932768 0.788267 0.575283 0.311626 0.019848 0.274641 0.545754 0.769059 0.924018 0.995931 0.977429 0.869315 0.680681 0.428253 0.135001 0.171880 0.463460 0.711802 0.892671 0.987954 0.987572 0.890650 0.705806 0.450514 0.149551 0.167332 0.468305 0.722646 0.903936 0.992852 0.979337 0.863850 0.657555 0.381353 0.063903 0.261311 0.559441 0.798050 0.950674 0.999856 0.939258 0.774604 0.523288 0.212673 0.122782 0.445294 0.717999 0.909196 0.996129 0.967806 0.826525 0.587886 0.279211 0.063462 0.399520 0.688553 0.895253 0.993814 0.971281 0.829395 0.584677 0.266667 0.085519 0.427921 0.717193 0.916143 0.998603 0.953019 0.784221 0.513125 0.174295 0.188311
1.000000 1.000000 1.000000 1.000000 1.000000 1.000000 1.000000 1.000000 1.000000 1.000000 1.000000 1.000000 1.000000 1.000000 1.000000 1.000000 1.000000 1.000000 1.000000 1.000000 1.000000 1.000000 1.000000 1.000000 1.000000 1.000000 1.000000 1.000000 1.000000 1.000000 1.000000 1.000000 1.000000 1.000000 1.000000 1.000000 1.000000 1.000000 1.000000 1.000000 1.000000 1.000000 1.000000 1.000000 1.000000 1.000000 1.000000 1.000000 1.000000 1.000000 1.000000 1.000000 0.916477 0.916477 0.916477 0.912385 0.912385 0.912385 0.912385 0.912385 0.912385 0.912385 0.912385 0.912385 0.912385 0.912385 0.912385 0.912385 0.912385 0.912385 0.912385 0.912385 0.912385 0.912385 0.912385 0.912385 0.912385 0.912385 0.912385 0.912385 0.912385 0.912385 0.912385 0.912385 0.912385 0.912385 0.912385 0.912385 0.912385 0.912385 0.912385 0.912385 0.912385 0.912385 0.912385 0.912385 0.941216 0.942614 0.950920 0.950457 0.949874 0.947894 0.946661 0.946325 0.946238 0.946581 0.947298 0.948269 0.954478 0.955391 0.959795 0.962497 0.962465 0.964199 0.966165 0.965830 0.957482 0.957263 0.955861 0.955133 0.957247 0.955892 0.954663 0.955135 0.954746 0.957309 0.956851 0.955640 0.954005 0.952418 0.951130 0.950581 0.950349 0.951144 0.951213 0.952770 0.955786 0.955935 0.955661 0.952877 0.952508 0.953709 0.953070 0.952837 0.941102 0.940480 0.939033 0.939027 0.941587 0.941511 0.941405 0.942296 0.941992 0.941912 0.942058 0.935462 0.935141 0.927415 0.923962 0.922382 0.917021 0.912993 0.915620 0.918210 0.919483 0.919948 0.910946 0.907969 0.908908 0.907740 0.909210 0.906922 0.907713 0.908437 0.908263 0.902664 0.892614 0.891083 0.884188 0.886970 0.884155 0.881412 0.878112 0.868698 0.858111 0.872245 0.857030 0.824193 0.827963 0.832951 0.826120 0.823322 0.824505 0.826118 0.830963 0.823901 0.822217 0.816687 0.804312 0.799957 0.793486 0.779726 0.778646 0.769684 0.759239 0.753505 0.777642 0.771369 0.782750 0.787223 0.786999 0.783835 0.775501 0.765230 0.764882 0.760808 0.757388 0.734600 0.725882 0.726115 0.723187 0.711293 0.714501 0.702482 0.702480 0.690350 0.695108 0.700370 0.703369 0.699805 0.695152 0.686988 0.682519 0.694925 0.709001 0.701843 0.697114 0.700147 0.690286 0.683065 0.674883 0.679344 0.672485 0.662272 0.668227 0.695807 0.667753 0.657176 0.664058 0.666058 0.660153 0.661143 0.640839 0.635312 0.613677 0.630891 0.635695 0.651701 0.652692 0.654173 0.665350 0.670929 0.681676 0.686136 0.685124 0.645879 0.649437 0.668984 0.676552 0.664924 0.654685 0.654739 0.649100 0.684965 0.668448 0.625782 0.622110 0.620949 0.581610 0.559596 0.558209 0.560396 0.586726 0.581497 0.562678 0.536288 0.538148 0.540362 0.540359 0.539288 0.523584 0.531941 0.517414 0.493837 0.505645 0.513426 0.511827 0.496238 0.489636 0.504494 0.475692 0.511021 0.480634 0.461297 0.478732 0.476752 0.464987 0.392223 0.402926 0.391291 0.378013 0.333854 0.343577 0.353256 0.336678 0.262149 0.255388 0.256133 0.252971 0.234955 0.214823 0.201206 0.190425 0.168436 0.105357 0.057639 0.057907 0.061675 0.089269 0.049352 0.101925 0.168457 0.167342 0.167342 0.167342 0.167342 0.167342 0.167342 0.167342 0.167342 0.142925 0.142925 0.142925 0.142925 0.142925 0.142925 0.142925 0.142925 0.142925 0.167342 0.167342 0.167342 0.167342 0.167342 0.167342 0.167342 0.167342 0.167342 0.167342 0.167342 0.167342 0.167342 0.167342
0.000000 0.000000 0.000000 0.000000 0.000000 0.000000 0.000000 0.000000 0.000000 0.000000 0.000000 0.000000 0.000000 0.000000 0.000000 0.000000 0.000000 0.000000 0.000000 0.000000 0.000000 0.000000 0.000000 0.000000 0.000000 0.000000 0.000000 0.000000 0.000000 0.000000 0.000000 0.000000 0.000000 0.000000 0.000000 0.000000 0.000000 0.000000 0.000000 0.000000 0.000000 0.000000 0.000000 0.000000 0.000000 0.000000 0.000000 0.000000 0.000000 0.000000 0.000000 0.000000 0.180334 0.180334 0.180334 0.199007 0.199007 0.199007 0.199007 0.199007 0.199007 0.199007 0.199007 0.199007 0.199007 0.199007 0.199007 0.199007 0.199007 0.199007 0.199007 0.199007 0.199007 0.199007 0.199007 0.199007 0.199007 0.199007 0.199007 0.199007 0.199007 0.199007 0.199007 0.199007 0.199007 0.199007 0.199007 0.199007 0.199007 0.199007 0.199007 0.199007 0.199007 0.199007 0.199007 0.199007 0.225018 0.225018 0.225018 0.225018 0.225018 0.225018 0.225018 0.225018 0.225018 0.225018 0.225018 0.225018 0.225018 0.225018 0.225018 0.225018 0.225018 0.225018 0.225018 0.225018 0.225018 0.225018 0.225018 0.225018 0.225018 0.225018 0.225018 0.225018 0.225018 0.244339 0.244339 0.244339 0.244339 0.244339 0.244339 0.244339 0.244339 0.244339 0.244339 0.244339 0.244339 0.244339 0.244339 0.244339 0.244339 0.244339 0.244339 0.244339 0.244339 0.244339 0.244339 0.244339 0.256074 0.256074 0.256074 0.256074 0.256074 0.256074 0.256074 0.256074 0.256074 0.256074 0.256074 0.256074 0.256074 0.256074 0.256074 0.256074 0.256074 0.256074 0.256074 0.256074 0.256074 0.256074 0.256074 0.256074 0.256074 0.256074 0.256074 0.256074 0.256074 0.256074 0.256074 0.256074 0.256074 0.256074 0.256074 0.256074 0.256074 0.264906 0.264906 0.264906 0.264906 0.264906 0.264906 0.264906 0.264906 0.264906 0.264906 0.264906 0.264906 0.264906 0.264906 0.264906 0.264906 0.264906 0.264906 0.264906 0.264906 0.264906 0.264906 0.264906 0.264906 0.264906 0.264906 0.264906 0.264906 0.264906 0.264906 0.264906 0.264906 0.264906 0.264906 0.264906 0.264906 0.264906 0.264906 0.264906 0.264906 0.264906 0.264906 0.264906 0.264906 0.264906 0.264906 0.264906 0.264906 0.264906 0.264906 0.264906 0.264906 0.264906 0.264906 0.264906 0.264906 0.264906 0.264906 0.260378 0.260378 0.260378 0.260378 0.260378 0.260378 0.260378 0.260378 0.260378 0.260378 0.260378 0.260378 0.260378 0.264906 0.264906 0.264906 0.264906 0.264906 0.264906 0.264906 0.264906 0.264906 0.264906 0.264906 0.264906 0.269680 0.269680 0.269680 0.269680 0.269680 0.269680 0.269680 0.269680 0.269680 0.269680 0.269680 0.264906 0.264906 0.264906 0.264906 0.264906 0.264906 0.264906 0.264906 0.264906 0.264906 0.264906 0.256074 0.256074 0.256074 0.256074 0.256074 0.256074 0.256074 0.256074 0.256074 0.256074 0.256074 0.264906 0.264906 0.264906 0.264906 0.264906 0.264906 0.264906 0.264906 0.264906 0.264906 0.260378 0.260378 0.260378 0.260378 0.260378 0.260378 0.260378 0.260378 0.260378 0.260378 0.264906 0.264906 0.264906 0.264906 0.264906 0.264906 0.264906 0.264906 0.264906 0.251976 0.251976 0.251976 0.251976 0.251976 0.251976 0.251976 0.251976 0.251976 0.251976 0.256074 0.256074 0.256074 0.256074 0.256074 0.256074 0.256074 0.256074 0.256074 0.251976 0.251976 0.251976 0.251976 0.251976 0.251976 0.251976 0.251976 0.251976 0.251976 0.251976 0.251976 0.251976 0.251976
