# Output from CTFFind version 4.1.9, run on 2019-11-02 17:43:14
# Input file: stack6_bm3d_averaged_1_0.75_0_50_half.mrc ; Number of micrographs: 1
# Pixel size: 3.000 Angstroms ; acceleration voltage: 300.0 keV ; spherical aberration: 0.00 mm ; amplitude contrast: 0.07
# Box size: 512 pixels ; min. res.: 30.0 Angstroms ; max. res.: 5.0 Angstroms ; min. def.: 5000.0 um; max. def. 50000.0 um; num. frames averaged: 1
# 6 lines per micrograph: #1 - spatial frequency (1/Angstroms); #2 - 1D rotational average of spectrum (assuming no astigmatism); #3 - 1D rotational average of spectrum; #4 - CTF fit; #5 - cross-correlation between spectrum and CTF fit; #6 - 2sigma of expected cross correlation of noise
0.000000 0.000651 0.001302 0.001953 0.002604 0.003255 0.003906 0.004557 0.005208 0.005859 0.006510 0.007161 0.007812 0.008464 0.009115 0.009766 0.010417 0.011068 0.011719 0.012370 0.013021 0.013672 0.014323 0.014974 0.015625 0.016276 0.016927 0.017578 0.018229 0.018880 0.019531 0.020182 0.020833 0.021484 0.022135 0.022786 0.023438 0.024089 0.024740 0.025391 0.026042 0.026693 0.027344 0.027995 0.028646 0.029297 0.029948 0.030599 0.031250 0.031901 0.032552 0.033203 0.033854 0.034505 0.035156 0.035807 0.036458 0.037109 0.037760 0.038411 0.039062 0.039714 0.040365 0.041016 0.041667 0.042318 0.042969 0.043620 0.044271 0.044922 0.045573 0.046224 0.046875 0.047526 0.048177 0.048828 0.049479 0.050130 0.050781 0.051432 0.052083 0.052734 0.053385 0.054036 0.054688 0.055339 0.055990 0.056641 0.057292 0.057943 0.058594 0.059245 0.059896 0.060547 0.061198 0.061849 0.062500 0.063151 0.063802 0.064453 0.065104 0.065755 0.066406 0.067057 0.067708 0.068359 0.069010 0.069661 0.070312 0.070964 0.071615 0.072266 0.072917 0.073568 0.074219 0.074870 0.075521 0.076172 0.076823 0.077474 0.078125 0.078776 0.079427 0.080078 0.080729 0.081380 0.082031 0.082682 0.083333 0.083984 0.084635 0.085286 0.085938 0.086589 0.087240 0.087891 0.088542 0.089193 0.089844 0.090495 0.091146 0.091797 0.092448 0.093099 0.093750 0.094401 0.095052 0.095703 0.096354 0.097005 0.097656 0.098307 0.098958 0.099609 0.100260 0.100911 0.101562 0.102214 0.102865 0.103516 0.104167 0.104818 0.105469 0.106120 0.106771 0.107422 0.108073 0.108724 0.109375 0.110026 0.110677 0.111328 0.111979 0.112630 0.113281 0.113932 0.114583 0.115234 0.115885 0.116536 0.117188 0.117839 0.118490 0.119141 0.119792 0.120443 0.121094 0.121745 0.122396 0.123047 0.123698 0.124349 0.125000 0.125651 0.126302 0.126953 0.127604 0.128255 0.128906 0.129557 0.130208 0.130859 0.131510 0.132161 0.132812 0.133464 0.134115 0.134766 0.135417 0.136068 0.136719 0.137370 0.138021 0.138672 0.139323 0.139974 0.140625 0.141276 0.141927 0.142578 0.143229 0.143880 0.144531 0.145182 0.145833 0.146484 0.147135 0.147786 0.148438 0.149089 0.149740 0.150391 0.151042 0.151693 0.152344 0.152995 0.153646 0.154297 0.154948 0.155599 0.156250 0.156901 0.157552 0.158203 0.158854 0.159505 0.160156 0.160807 0.161458 0.162109 0.162760 0.163411 0.164062 0.164714 0.165365 0.166016 0.166667 0.167318 0.167969 0.168620 0.169271 0.169922 0.170573 0.171224 0.171875 0.172526 0.173177 0.173828 0.174479 0.175130 0.175781 0.176432 0.177083 0.177734 0.178385 0.179036 0.179688 0.180339 0.180990 0.181641 0.182292 0.182943 0.183594 0.184245 0.184896 0.185547 0.186198 0.186849 0.187500 0.188151 0.188802 0.189453 0.190104 0.190755 0.191406 0.192057 0.192708 0.193359 0.194010 0.194661 0.195312 0.195964 0.196615 0.197266 0.197917 0.198568 0.199219 0.199870 0.200521 0.201172 0.201823 0.202474 0.203125 0.203776 0.204427 0.205078 0.205729 0.206380 0.207031 0.207682 0.208333 0.208984 0.209635 0.210286 0.210938 0.211589 0.212240 0.212891 0.213542 0.214193 0.214844 0.215495 0.216146 0.216797 0.217448 0.218099 0.218750 0.219401 0.220052 0.220703 0.221354 0.222005 0.222656 0.223307 0.223958 0.224609 0.225260 0.225911 0.226562 0.227214 0.227865 0.228516 0.229167 0.229818 0.230469 0.231120 0.231771 0.232422 0.233073 0.233724 0.234375 0.235026 0.235677
       0.31306        0.31306        0.31306        0.31306        0.31306        0.31306        0.31306        0.31306        0.31306        0.31306        0.31306        0.31306        0.31306        0.31306        0.31306        0.31306        0.31306        0.31306        0.31306        0.31306        0.31306        0.31306        0.31306        0.31306        0.31306        0.31306        0.31306        0.31306        0.31306        0.31306        0.31306        0.31306        0.31306        0.31306        0.31306        0.31306        0.31306        0.31306        0.31306        0.31306        0.31306        0.31306        0.31306        0.31306        0.31306        0.31306        0.31306        0.31306        0.31306        0.31306        0.31306        0.63174        0.82245        0.41956        0.31539        0.18468       -0.10238        0.10982       -0.00410        0.03252        0.12142        0.33766        0.42244        0.41017        0.22906       -0.01381        0.04948        0.06828       -0.17149       -0.18159       -0.08979       -0.10218       -0.29591       -0.19827       -0.29775       -0.24899       -0.28653       -0.40703       -0.47337       -0.48737       -0.43677       -0.34149       -0.44196       -0.36830       -0.40927       -0.35568       -0.28172       -0.20870       -0.19302       -0.14278       -0.09741        0.03886        0.07428        0.25197        0.27230        0.35835        0.40595        0.53449        0.60305        0.61784        0.74834        0.70663        0.74698        0.65930        0.66490        0.69231        0.63507        0.61599        0.60644        0.42810        0.40811        0.35532        0.30818        0.22510        0.13010        0.06053        0.06044        0.00074       -0.08023       -0.03023       -0.03037       -0.07202        0.06940        0.16403        0.25147        0.32353        0.33898        0.42988        0.54972        0.60571        0.55465        0.67071        0.57876        0.55523        0.59881        0.65940        0.53963        0.44879        0.41484        0.37664        0.24474        0.21786        0.12897        0.11706        0.05425        0.04615        0.10559        0.17515        0.14214        0.18086        0.22126        0.24538        0.32927        0.46787        0.50116        0.50388        0.50605        0.58077        0.56924        0.52478        0.43949        0.39450        0.36607        0.27595        0.25135        0.20309        0.20144        0.19428        0.17077        0.16686        0.13821        0.19896        0.25156        0.33503        0.38772        0.41338        0.45895        0.54405        0.48418        0.50092        0.42249        0.39409        0.38419        0.36452        0.29560        0.24722        0.18784        0.23498        0.21351        0.18469        0.22673        0.22826        0.23093        0.29910        0.39791        0.39954        0.38028        0.39941        0.46361        0.49493        0.42373        0.34937        0.32936        0.27600        0.27116        0.25522        0.21531        0.28406        0.29728        0.29938        0.31901        0.31628        0.35383        0.37197        0.37701        0.37914        0.35023        0.31512        0.33036        0.32395        0.30112        0.27835        0.27576        0.22101        0.27548        0.28010        0.29592        0.31504        0.34429        0.38255        0.34473        0.31090        0.36693        0.35577        0.25983        0.29287        0.30508        0.24531        0.20486        0.25106        0.27573        0.28048        0.29764        0.31726        0.35172        0.33743        0.36916        0.32540        0.32256        0.31132        0.30551        0.27357        0.25450        0.25891        0.25979        0.28251        0.30944        0.31218        0.30230        0.30082        0.32319        0.26512        0.29593        0.26821        0.25800        0.28003        0.26627        0.26461        0.26259        0.30390        0.29714        0.32800        0.28716        0.26519        0.30847        0.32269        0.33884        0.31939        0.28856        0.25019        0.25802        0.26403        0.26323        0.31988        0.31134        0.33568        0.31699        0.31702        0.23836        0.27378        0.20595        0.22227        0.25295        0.25448        0.26662        0.28414        0.30511        0.30378        0.36018        0.31027        0.25840        0.24953        0.23357        0.28097        0.32188        0.31306        0.27022        0.27062        0.26834        0.33436        0.29099        0.26334        0.26458        0.26966        0.27608        0.24875        0.26560        0.30942        0.29703        0.25006        0.25280        0.28649        0.31439        0.27102        0.26691        0.25151        0.26517        0.29430        0.36074        0.27270        0.28018        0.27140        0.24042        0.23162        0.17723        0.23768        0.23761        0.23879        0.18099        0.20729        0.22867        0.20545        0.23199        0.21205        0.23606        0.24610        0.21887        0.15411        0.18389        0.21068        0.25407        0.10892        0.06161        0.20145        0.14206        0.12263        0.25518        0.17346        0.23564        0.23807        0.03833       -0.47647       -0.99577
2.750477 2.723698 2.697055 2.670550 2.644182 2.617950 2.591856 2.565898 2.540077 2.514393 2.488847 2.463437 2.438164 2.413028 2.388029 2.363167 2.338442 2.313854 2.289403 2.265089 2.240912 2.216872 2.192969 2.169202 2.145573 2.122081 2.098725 2.075507 2.052426 2.029481 2.006673 1.984003 1.961469 1.939073 1.916813 1.894690 1.872704 1.850856 1.829144 1.807569 1.786131 1.764830 1.743666 1.722639 1.701749 1.680995 1.660379 1.639900 1.619558 1.599353 1.579284 1.860209 2.216534 1.651645 1.701763 1.342498 0.913239 1.165237 0.991573 1.044136 1.005237 1.453986 1.480154 1.496598 1.260919 0.914517 0.801789 0.985931 0.684146 0.482672 0.568256 0.666974 0.411938 0.465949 0.324460 0.379869 0.241605 0.144271 -0.025227 -0.001073 0.001690 0.084666 0.037306 0.076035 -0.040594 0.033622 0.110808 0.211087 0.272652 0.206723 0.310081 0.548474 0.432317 0.716742 0.773190 0.841216 0.902819 1.103157 1.154364 1.160860 1.306305 1.229122 1.351705 1.191336 1.094755 1.283437 1.113075 1.031909 1.112807 0.859400 0.739111 0.674203 0.647799 0.456404 0.386740 0.266730 0.236583 0.100571 0.010235 0.091599 0.042012 -0.053466 0.127385 0.254313 0.322367 0.454123 0.491777 0.553799 0.713592 0.830675 0.673571 0.962233 0.774519 0.696244 0.764229 0.818384 0.728839 0.621909 0.441760 0.515075 0.290879 0.187405 0.156484 0.020021 -0.011845 -0.097920 -0.020204 0.069745 0.075440 -0.024016 0.250470 0.102754 0.237527 0.385612 0.444649 0.554302 0.418923 0.556150 0.635857 0.503788 0.411880 0.360887 0.334050 0.157018 0.161793 0.009719 0.098917 0.029061 -0.002307 -0.018836 -0.086690 0.012151 0.046672 0.105805 0.287190 0.229279 0.357911 0.364168 0.476718 0.379909 0.397859 0.325376 0.229034 0.310656 0.184646 0.152691 0.003640 0.038524 0.083592 -0.032882 0.008371 0.032594 0.064221 0.065428 0.219084 0.315034 0.240270 0.228399 0.380223 0.404194 0.349867 0.239355 0.177934 0.155671 0.094773 0.079393 0.040830 0.023222 0.139887 0.072780 0.181253 0.105636 0.152679 0.231581 0.211034 0.237437 0.204684 0.193864 0.105147 0.163745 0.141377 0.097588 0.101468 0.007705 0.045080 0.099186 0.054314 0.131778 0.123404 0.205177 0.214773 0.153367 0.121401 0.224696 0.089844 0.070453 0.076588 0.061964 -0.000474 -0.039250 0.040015 0.070333 0.042752 0.114127 0.119387 0.146847 0.133212 0.185832 0.093973 0.095418 0.105072 0.094390 0.024629 0.020602 0.050491 -0.001520 0.081133 0.117657 0.087897 0.076432 0.081137 0.110603 0.018726 0.101024 0.036352 0.019908 0.090889 0.017260 0.027883 0.044356 0.089438 0.056842 0.124557 0.061703 0.002551 0.116343 0.097336 0.101009 0.094223 0.014570 -0.010506 -0.009508 0.047642 -0.000642 0.093188 0.058393 0.125485 0.066195 0.121628 -0.041523 0.020663 -0.079256 0.010259 -0.041999 0.024331 0.017661 0.041271 0.085639 0.068747 0.126844 0.026658 -0.013899 -0.033999 -0.060152 0.056717 0.082838 0.057936 -0.000342 -0.010561 0.001827 0.078317 -0.009343 -0.047296 -0.021721 -0.036194 -0.002311 -0.050969 -0.022168 0.031886 0.004075 -0.044136 -0.005147 0.039820 0.003221 0.008103 -0.017072 -0.041319 0.044172 0.062098 0.136750 0.008019 0.023798 0.044261 0.012719 -0.035736 -0.064231 0.037729 0.030123 0.033645 -0.049940 -0.016412 0.071840 -0.047992 0.120589 0.012758 0.124984 0.052137 0.103499 -0.097092 0.054055 0.009020 0.195607 -0.033253 0.016091 0.276041 0.176702 0.167001 0.468419 0.186044 0.309209 0.359319 0.055252 -1.355615
0.072396 0.072835 0.074151 0.076343 0.079412 0.083357 0.088177 0.093870 0.100435 0.107871 0.116174 0.125342 0.135370 0.146255 0.157990 0.170570 0.183987 0.198232 0.213295 0.229163 0.245823 0.263260 0.281455 0.300388 0.320037 0.340377 0.361379 0.383012 0.405241 0.428027 0.451330 0.475104 0.499297 0.523857 0.548724 0.573836 0.599123 0.624514 0.649930 0.675288 0.700499 0.725471 0.750104 0.774295 0.797935 0.820909 0.843099 0.864381 0.884629 0.903709 0.921488 0.937825 0.952581 0.965611 0.976772 0.985917 0.992903 0.997585 0.999821 0.999471 0.996403 0.990485 0.981596 0.969620 0.954453 0.936000 0.914180 0.888924 0.860179 0.827911 0.792101 0.752754 0.709894 0.663570 0.613854 0.560846 0.504672 0.445486 0.383471 0.318842 0.251842 0.182747 0.111862 0.039524 0.033902 0.108019 0.182404 0.256609 0.330159 0.402560 0.473299 0.541845 0.607659 0.670192 0.728894 0.783216 0.832618 0.876573 0.914573 0.946136 0.970814 0.988196 0.997919 0.999672 0.993203 0.978328 0.954932 0.922983 0.882527 0.833702 0.776736 0.711955 0.639777 0.560723 0.475410 0.384552 0.288954 0.189514 0.087210 0.016905 0.121709 0.226027 0.328639 0.428296 0.523736 0.613696 0.696937 0.772253 0.838498 0.894604 0.939595 0.972614 0.992939 0.999997 0.993389 0.972898 0.938503 0.890395 0.828976 0.754870 0.668923 0.572198 0.465967 0.351705 0.231070 0.105883 0.021890 0.150175 0.276815 0.399610 0.516350 0.624862 0.723049 0.808934 0.880705 0.936754 0.975725 0.996546 0.998466 0.981087 0.944382 0.888719 0.814866 0.723991 0.617661 0.497817 0.366751 0.227072 0.081655 0.066408 0.213875 0.357420 0.493705 0.619470 0.731602 0.827225 0.903775 0.959084 0.991441 0.999660 0.983129 0.941848 0.876455 0.788233 0.679099 0.551581 0.408767 0.254245 0.092022 0.073576 0.238011 0.396655 0.544929 0.678424 0.793055 0.885180 0.951732 0.990336 0.999402 0.978204 0.926935 0.846731 0.739672 0.608742 0.457771 0.291331 0.114619 0.066706 0.246687 0.419274 0.578518 0.718787 0.834970 0.922684 0.978440 0.999812 0.985555 0.935686 0.851530 0.735711 0.592095 0.425682 0.242456 0.049177 0.146849 0.338046 0.516859 0.676054 0.809026 0.910076 0.974689 0.999742 0.983686 0.926658 0.830524 0.698855 0.536818 0.351010 0.149198 0.059979 0.267374 0.463727 0.640085 0.788212 0.901000 0.972821 0.999842 0.980253 0.914411 0.804885 0.656399 0.475655 0.271069 0.052394 0.169722 0.384247 0.580315 0.747786 0.877778 0.963174 0.999033 0.982912 0.915062 0.798489 0.638862 0.444288 0.224918 0.007539 0.240439 0.460871 0.656384 0.815696 0.929381 0.990439 0.994785 0.941547 0.833206 0.675531 0.477326 0.249977 0.006822 0.237596 0.468403 0.671294 0.833440 0.944325 0.996462 0.985947 0.912799 0.781044 0.598565 0.376671 0.129446 0.127112 0.376116 0.600903 0.786137 0.918915 0.989677 0.992959 0.927862 0.798220 0.612446 0.383043 0.125809 0.141202 0.398957 0.628762 0.813661 0.939703 0.997051 0.980798 0.891449 0.735007 0.522636 0.269930 0.004176 0.278809 0.532717 0.745940 0.901387 0.986264 0.993183 0.920872 0.774406 0.564943 0.308934 0.026894 0.258196 0.522758 0.744572 0.904662 0.988973 0.989678 0.905967 0.744276 0.517874 0.245850 0.048433 0.339305 0.601026 0.810068 0.947279 0.999690 0.961823 0.836348 0.633989 0.372721 0.076221 0.228199 0.512099 0.748573 0.914823 0.994420 0.979013 0.869290 0.675089 0.414619 0.112846 0.200853 0.495513 0.741634 0.914171
1.000000 1.000000 1.000000 1.000000 1.000000 1.000000 1.000000 1.000000 1.000000 1.000000 1.000000 1.000000 1.000000 1.000000 1.000000 1.000000 1.000000 1.000000 1.000000 1.000000 1.000000 1.000000 1.000000 1.000000 1.000000 1.000000 1.000000 1.000000 1.000000 1.000000 1.000000 1.000000 1.000000 1.000000 1.000000 1.000000 1.000000 1.000000 1.000000 1.000000 1.000000 1.000000 1.000000 1.000000 1.000000 1.000000 1.000000 1.000000 1.000000 1.000000 1.000000 1.000000 0.832571 0.832571 0.832571 0.832571 0.832571 0.832571 0.832571 0.815580 0.815580 0.815580 0.815580 0.815580 0.815580 0.815580 0.815580 0.815580 0.815580 0.815580 0.815580 0.815580 0.815580 0.815580 0.815580 0.815580 0.815580 0.815580 0.815580 0.815580 0.815580 0.815580 0.815580 0.815580 0.815580 0.815580 0.815580 0.815580 0.815580 0.815580 0.815580 0.815580 0.815580 0.815580 0.815580 0.815580 0.815580 0.815580 0.815580 0.815580 0.815580 0.815580 0.815580 0.952360 0.953152 0.950509 0.949560 0.948027 0.944415 0.940368 0.939842 0.941122 0.941359 0.941830 0.943942 0.944530 0.946137 0.947331 0.948141 0.949619 0.957674 0.961333 0.960921 0.961233 0.952450 0.959227 0.958125 0.955627 0.956258 0.956467 0.957108 0.957025 0.956892 0.956523 0.955020 0.955635 0.955430 0.954703 0.953704 0.951632 0.951529 0.951133 0.951288 0.952240 0.952779 0.953549 0.954073 0.953350 0.953499 0.953503 0.953412 0.949108 0.949085 0.941623 0.941856 0.942708 0.942212 0.941221 0.939708 0.939788 0.939727 0.939732 0.939665 0.940055 0.924241 0.923846 0.924088 0.923529 0.916120 0.906241 0.900363 0.895822 0.897206 0.901567 0.906047 0.906516 0.903708 0.902452 0.887037 0.883692 0.870595 0.866581 0.855126 0.865041 0.866335 0.867127 0.857069 0.856796 0.854850 0.853262 0.846859 0.851498 0.851771 0.847929 0.843129 0.841967 0.839747 0.844134 0.852443 0.853830 0.850263 0.852267 0.838869 0.831283 0.830250 0.831101 0.837661 0.849279 0.849182 0.848108 0.842607 0.839228 0.834475 0.832675 0.830540 0.831763 0.831487 0.834163 0.827163 0.838276 0.828477 0.821696 0.826782 0.834249 0.836118 0.835838 0.838048 0.836010 0.838044 0.822024 0.813816 0.815492 0.763737 0.766941 0.759996 0.757288 0.722833 0.724713 0.717629 0.719439 0.713974 0.709469 0.720280 0.718484 0.670879 0.678501 0.671462 0.654684 0.627389 0.640322 0.657492 0.668242 0.666621 0.659880 0.647048 0.639804 0.652282 0.653196 0.658076 0.644700 0.639911 0.626411 0.632150 0.613684 0.621697 0.617906 0.617993 0.620259 0.618155 0.600790 0.609825 0.604971 0.595624 0.591243 0.568232 0.523713 0.506071 0.498005 0.472634 0.462585 0.479855 0.469663 0.449705 0.434657 0.420154 0.414070 0.428867 0.427299 0.435575 0.437936 0.436168 0.392565 0.410114 0.407299 0.400661 0.390373 0.414601 0.404316 0.371057 0.342811 0.318363 0.335177 0.345011 0.341323 0.319682 0.311936 0.321887 0.273079 0.274595 0.274470 0.296865 0.251445 0.195552 0.222690 0.228313 0.229151 0.223151 0.176498 0.202052 0.172446 0.183843 0.191689 0.139413 0.107595 0.095173 0.072550 0.079466 0.104088 0.113105 0.100057 0.080157 -0.023682 0.011294 0.039128 0.039128 0.039128 0.039128 0.039128 0.039128 0.039128 0.039128 0.039128 0.039128 0.039128 -0.027647 -0.027647 -0.027647 -0.027647 -0.027647 -0.027647 -0.027647 -0.027647 -0.027647 -0.027647 -0.027647 -0.027647 -0.027647 -0.027647 -0.027647 -0.027647 -0.027647 -0.027647 -0.027647
0.000000 0.000000 0.000000 0.000000 0.000000 0.000000 0.000000 0.000000 0.000000 0.000000 0.000000 0.000000 0.000000 0.000000 0.000000 0.000000 0.000000 0.000000 0.000000 0.000000 0.000000 0.000000 0.000000 0.000000 0.000000 0.000000 0.000000 0.000000 0.000000 0.000000 0.000000 0.000000 0.000000 0.000000 0.000000 0.000000 0.000000 0.000000 0.000000 0.000000 0.000000 0.000000 0.000000 0.000000 0.000000 0.000000 0.000000 0.000000 0.000000 0.000000 0.000000 0.000000 0.173422 0.173422 0.173422 0.173422 0.173422 0.173422 0.173422 0.191565 0.191565 0.191565 0.191565 0.191565 0.191565 0.191565 0.191565 0.191565 0.191565 0.191565 0.191565 0.191565 0.191565 0.191565 0.191565 0.191565 0.191565 0.191565 0.191565 0.191565 0.191565 0.191565 0.191565 0.191565 0.191565 0.191565 0.191565 0.191565 0.191565 0.191565 0.191565 0.191565 0.191565 0.191565 0.191565 0.191565 0.191565 0.191565 0.191565 0.191565 0.191565 0.191565 0.191565 0.219529 0.219529 0.219529 0.219529 0.219529 0.219529 0.219529 0.219529 0.219529 0.219529 0.219529 0.219529 0.219529 0.219529 0.219529 0.219529 0.219529 0.219529 0.219529 0.219529 0.219529 0.219529 0.219529 0.219529 0.219529 0.219529 0.219529 0.219529 0.219529 0.219529 0.219529 0.237356 0.237356 0.237356 0.237356 0.237356 0.237356 0.237356 0.237356 0.237356 0.237356 0.237356 0.237356 0.237356 0.237356 0.237356 0.237356 0.237356 0.237356 0.237356 0.237356 0.237356 0.237356 0.237356 0.237356 0.244339 0.244339 0.244339 0.244339 0.244339 0.244339 0.244339 0.244339 0.244339 0.244339 0.244339 0.244339 0.244339 0.244339 0.244339 0.244339 0.244339 0.244339 0.244339 0.244339 0.244339 0.248069 0.248069 0.248069 0.248069 0.248069 0.248069 0.248069 0.248069 0.248069 0.248069 0.248069 0.248069 0.248069 0.248069 0.248069 0.248069 0.248069 0.248069 0.248069 0.248069 0.248069 0.248069 0.248069 0.248069 0.248069 0.248069 0.248069 0.248069 0.248069 0.248069 0.248069 0.248069 0.248069 0.248069 0.248069 0.248069 0.248069 0.256074 0.256074 0.256074 0.256074 0.256074 0.256074 0.256074 0.256074 0.256074 0.256074 0.256074 0.256074 0.256074 0.256074 0.256074 0.256074 0.256074 0.256074 0.256074 0.256074 0.256074 0.256074 0.256074 0.256074 0.256074 0.256074 0.256074 0.256074 0.256074 0.256074 0.256074 0.256074 0.256074 0.256074 0.256074 0.256074 0.256074 0.256074 0.256074 0.256074 0.256074 0.256074 0.256074 0.256074 0.256074 0.260378 0.260378 0.260378 0.260378 0.260378 0.260378 0.260378 0.260378 0.260378 0.260378 0.260378 0.260378 0.260378 0.256074 0.256074 0.256074 0.256074 0.256074 0.256074 0.256074 0.256074 0.256074 0.256074 0.256074 0.256074 0.256074 0.260378 0.260378 0.260378 0.260378 0.260378 0.260378 0.260378 0.260378 0.260378 0.260378 0.260378 0.260378 0.251976 0.251976 0.251976 0.251976 0.251976 0.251976 0.251976 0.251976 0.251976 0.251976 0.251976 0.251976 0.256074 0.256074 0.256074 0.256074 0.256074 0.256074 0.256074 0.256074 0.256074 0.256074 0.256074 0.251976 0.251976 0.251976 0.251976 0.251976 0.251976 0.251976 0.251976 0.251976 0.251976 0.251976 0.248069 0.248069 0.248069 0.248069 0.248069 0.248069 0.248069 0.248069 0.248069 0.248069 0.248069 0.256074 0.256074 0.256074 0.256074 0.256074 0.256074 0.256074 0.256074 0.256074 0.256074 0.256074 0.256074 0.256074 0.256074 0.256074 0.256074 0.256074 0.256074 0.256074
