# Output from CTFFind version 4.1.9, run on 2019-11-03 20:07:27
# Input file: stack16_bm3d_averaged_1_6.5_0_1250_half.mrc ; Number of micrographs: 1
# Pixel size: 3.000 Angstroms ; acceleration voltage: 300.0 keV ; spherical aberration: 0.00 mm ; amplitude contrast: 0.07
# Box size: 512 pixels ; min. res.: 30.0 Angstroms ; max. res.: 5.0 Angstroms ; min. def.: 5000.0 um; max. def. 50000.0 um; num. frames averaged: 1
# 6 lines per micrograph: #1 - spatial frequency (1/Angstroms); #2 - 1D rotational average of spectrum (assuming no astigmatism); #3 - 1D rotational average of spectrum; #4 - CTF fit; #5 - cross-correlation between spectrum and CTF fit; #6 - 2sigma of expected cross correlation of noise
0.000000 0.000651 0.001302 0.001953 0.002604 0.003255 0.003906 0.004557 0.005208 0.005859 0.006510 0.007161 0.007812 0.008464 0.009115 0.009766 0.010417 0.011068 0.011719 0.012370 0.013021 0.013672 0.014323 0.014974 0.015625 0.016276 0.016927 0.017578 0.018229 0.018880 0.019531 0.020182 0.020833 0.021484 0.022135 0.022786 0.023438 0.024089 0.024740 0.025391 0.026042 0.026693 0.027344 0.027995 0.028646 0.029297 0.029948 0.030599 0.031250 0.031901 0.032552 0.033203 0.033854 0.034505 0.035156 0.035807 0.036458 0.037109 0.037760 0.038411 0.039062 0.039714 0.040365 0.041016 0.041667 0.042318 0.042969 0.043620 0.044271 0.044922 0.045573 0.046224 0.046875 0.047526 0.048177 0.048828 0.049479 0.050130 0.050781 0.051432 0.052083 0.052734 0.053385 0.054036 0.054688 0.055339 0.055990 0.056641 0.057292 0.057943 0.058594 0.059245 0.059896 0.060547 0.061198 0.061849 0.062500 0.063151 0.063802 0.064453 0.065104 0.065755 0.066406 0.067057 0.067708 0.068359 0.069010 0.069661 0.070312 0.070964 0.071615 0.072266 0.072917 0.073568 0.074219 0.074870 0.075521 0.076172 0.076823 0.077474 0.078125 0.078776 0.079427 0.080078 0.080729 0.081380 0.082031 0.082682 0.083333 0.083984 0.084635 0.085286 0.085938 0.086589 0.087240 0.087891 0.088542 0.089193 0.089844 0.090495 0.091146 0.091797 0.092448 0.093099 0.093750 0.094401 0.095052 0.095703 0.096354 0.097005 0.097656 0.098307 0.098958 0.099609 0.100260 0.100911 0.101562 0.102214 0.102865 0.103516 0.104167 0.104818 0.105469 0.106120 0.106771 0.107422 0.108073 0.108724 0.109375 0.110026 0.110677 0.111328 0.111979 0.112630 0.113281 0.113932 0.114583 0.115234 0.115885 0.116536 0.117188 0.117839 0.118490 0.119141 0.119792 0.120443 0.121094 0.121745 0.122396 0.123047 0.123698 0.124349 0.125000 0.125651 0.126302 0.126953 0.127604 0.128255 0.128906 0.129557 0.130208 0.130859 0.131510 0.132161 0.132812 0.133464 0.134115 0.134766 0.135417 0.136068 0.136719 0.137370 0.138021 0.138672 0.139323 0.139974 0.140625 0.141276 0.141927 0.142578 0.143229 0.143880 0.144531 0.145182 0.145833 0.146484 0.147135 0.147786 0.148438 0.149089 0.149740 0.150391 0.151042 0.151693 0.152344 0.152995 0.153646 0.154297 0.154948 0.155599 0.156250 0.156901 0.157552 0.158203 0.158854 0.159505 0.160156 0.160807 0.161458 0.162109 0.162760 0.163411 0.164062 0.164714 0.165365 0.166016 0.166667 0.167318 0.167969 0.168620 0.169271 0.169922 0.170573 0.171224 0.171875 0.172526 0.173177 0.173828 0.174479 0.175130 0.175781 0.176432 0.177083 0.177734 0.178385 0.179036 0.179688 0.180339 0.180990 0.181641 0.182292 0.182943 0.183594 0.184245 0.184896 0.185547 0.186198 0.186849 0.187500 0.188151 0.188802 0.189453 0.190104 0.190755 0.191406 0.192057 0.192708 0.193359 0.194010 0.194661 0.195312 0.195964 0.196615 0.197266 0.197917 0.198568 0.199219 0.199870 0.200521 0.201172 0.201823 0.202474 0.203125 0.203776 0.204427 0.205078 0.205729 0.206380 0.207031 0.207682 0.208333 0.208984 0.209635 0.210286 0.210938 0.211589 0.212240 0.212891 0.213542 0.214193 0.214844 0.215495 0.216146 0.216797 0.217448 0.218099 0.218750 0.219401 0.220052 0.220703 0.221354 0.222005 0.222656 0.223307 0.223958 0.224609 0.225260 0.225911 0.226562 0.227214 0.227865 0.228516 0.229167 0.229818 0.230469 0.231120 0.231771 0.232422 0.233073 0.233724 0.234375 0.235026 0.235677
       0.35124        0.35124        0.35124        0.35124        0.35124        0.35124        0.35124        0.35124        0.35124        0.35124        0.35124        0.35124        0.35124        0.35124        0.35125        0.35124        0.35124        0.35124        0.35124        0.35124        0.35124        0.35124        0.35124        0.35124        0.35124        0.35124        0.35124        0.35124        0.35124        0.35125        0.35124        0.35124        0.35124        0.35124        0.35124        0.35124        0.35124        0.35124        0.35124        0.35124        0.35125        0.35124        0.35124        0.35124        0.35124        0.35125        0.35125        0.35124        0.35124        0.35124        0.35124        0.42988        0.55684        0.34308       -0.21566       -0.45080       -0.54258       -0.64448       -0.71320       -0.71942       -0.81279       -0.88738       -0.67848       -0.83307       -0.81706       -0.95883       -0.99790       -0.87925       -0.83813       -0.79626       -0.70798       -0.63893       -0.54961       -0.45629       -0.39202       -0.16386       -0.06169        0.04130        0.26253        0.26008        0.31781        0.37263        0.40437        0.52448        0.53944        0.57481        0.53373        0.47475        0.50678        0.53039        0.45386        0.33375        0.21837        0.18476        0.11416        0.01528       -0.00068       -0.01000        0.06142        0.02803        0.07959        0.05248        0.16913        0.19916        0.41022        0.46085        0.54942        0.65799        0.68624        0.71346        0.63917        0.61210        0.54450        0.44283        0.39057        0.28143        0.22196        0.21809        0.10619        0.11700        0.11752        0.09119        0.09992        0.30761        0.41892        0.52624        0.53447        0.56944        0.60752        0.58771        0.57256        0.58449        0.56852        0.46925        0.30998        0.26896        0.25966        0.15644        0.09619        0.17399        0.21425        0.28975        0.35573        0.42856        0.47479        0.53220        0.60283        0.54732        0.50649        0.50564        0.35748        0.28191        0.26461        0.17998        0.20511        0.24193        0.28020        0.28635        0.33152        0.43161        0.46558        0.49984        0.45378        0.44340        0.48903        0.39755        0.33136        0.29038        0.26430        0.23728        0.23068        0.24168        0.34077        0.44885        0.43556        0.48964        0.55478        0.45171        0.41483        0.35811        0.31954        0.27589        0.28542        0.27347        0.29220        0.35613        0.36348        0.44070        0.47390        0.44220        0.46440        0.38025        0.38094        0.35572        0.27546        0.25678        0.25451        0.33699        0.38207        0.36661        0.39165        0.43449        0.44447        0.38237        0.34065        0.32465        0.35515        0.31870        0.28639        0.29033        0.35981        0.37682        0.39497        0.39015        0.39392        0.42252        0.40877        0.32723        0.29238        0.31681        0.34426        0.38393        0.36337        0.40547        0.34696        0.37252        0.39476        0.34213        0.35702        0.32388        0.30426        0.34004        0.34740        0.33235        0.36092        0.37769        0.33136        0.35071        0.32442        0.31968        0.30109        0.32376        0.32409        0.32983        0.36891        0.37638        0.35968        0.31210        0.30409        0.28959        0.33366        0.31676        0.31802        0.37379        0.35992        0.34370        0.31902        0.30849        0.31039        0.28010        0.32100        0.33506        0.34590        0.37371        0.35517        0.31769        0.33992        0.35519        0.33704        0.35806        0.34949        0.31692        0.33580        0.29475        0.32311        0.30096        0.31748        0.28873        0.32292        0.35231        0.33072        0.35761        0.31657        0.33524        0.35644        0.34418        0.32094        0.32778        0.36745        0.34754        0.34660        0.33190        0.31425        0.32100        0.31837        0.32815        0.32558        0.36187        0.33623        0.33718        0.29660        0.29183        0.27141        0.27616        0.36535        0.31477        0.34062        0.29872        0.26555        0.27777        0.36607        0.31126        0.28652        0.32046        0.31953        0.29714        0.26320        0.30509        0.27200        0.29935        0.30950        0.34227        0.33731        0.32287        0.31573        0.26871        0.28177        0.27747        0.28074        0.29917        0.36284        0.30024        0.20507        0.30622        0.29593        0.33203        0.26122        0.29772        0.29291        0.33430        0.28965        0.27667        0.27015        0.24882        0.30973        0.34085        0.33380        0.25401        0.30871        0.25974        0.23954        0.22042        0.33019        0.25602        0.16531        0.11605        0.20422        0.34253        0.24735        0.19093        0.12921       -0.43732       -0.54128
3.218443 3.177550 3.136923 3.096561 3.056465 3.016634 2.977069 2.937770 2.898736 2.859967 2.821464 2.783227 2.745255 2.707549 2.670109 2.632934 2.596024 2.559380 2.523002 2.486889 2.451042 2.415460 2.380144 2.345094 2.310309 2.275790 2.241536 2.207548 2.173825 2.140368 2.107176 2.074250 2.041590 2.009195 1.977066 1.945202 1.913604 1.882271 1.851204 1.820403 1.789867 1.759597 1.729592 1.699853 1.670379 1.641171 1.612229 1.583552 1.555141 1.526995 1.499115 1.534650 1.608420 1.548812 0.845152 0.598963 0.460186 0.390498 0.294094 0.220473 0.188110 -0.049105 0.209538 0.075047 -0.029147 -0.107485 -0.237997 -0.143771 -0.053152 -0.093875 -0.072973 0.037342 0.036332 0.230814 0.108578 0.357758 0.464265 0.496118 0.772519 0.685180 0.697252 0.825215 0.797376 0.843869 0.919476 0.858635 0.888645 0.726248 0.787745 0.846226 0.689582 0.605614 0.434915 0.427803 0.332370 0.190835 0.186693 0.114056 0.208386 0.119578 0.207857 0.104449 0.215349 0.227954 0.438597 0.401242 0.571197 0.609442 0.633632 0.718895 0.605054 0.576123 0.458678 0.409988 0.286982 0.260969 0.091560 0.151379 -0.030046 0.035643 -0.031431 -0.044449 -0.059045 0.024956 0.262988 0.290860 0.356830 0.296780 0.380632 0.390102 0.412971 0.394079 0.354939 0.326249 0.119971 0.072469 0.061495 -0.022609 -0.153886 -0.054515 -0.066429 0.034810 0.075055 0.148030 0.212298 0.222126 0.314833 0.403441 0.283182 0.360676 0.228787 0.140839 0.064507 0.034450 0.000420 0.050616 0.069214 0.093938 0.117253 0.170959 0.237997 0.304855 0.267801 0.209318 0.252040 0.225762 0.109018 0.058503 0.053191 0.025495 0.005856 -0.022655 0.029495 0.167626 0.192567 0.189672 0.297155 0.186893 0.194985 0.072355 0.065219 0.011057 -0.007343 -0.002859 -0.010744 0.044200 0.070059 0.098293 0.156804 0.140188 0.222123 0.135942 0.077186 0.098662 0.042237 -0.051057 -0.020709 0.026281 0.066178 0.072907 0.066066 0.151283 0.116778 0.152697 0.036677 0.048337 0.045294 0.046847 0.027261 -0.020792 0.040430 0.048925 0.091171 0.101992 0.085585 0.112314 0.124560 0.080062 0.012285 -0.008833 0.023466 0.075683 0.072272 0.089794 0.088395 0.049565 0.104342 0.066214 0.041727 0.077756 -0.013977 0.012628 0.065386 0.039387 0.042798 0.067884 0.078299 0.049190 0.065934 0.015970 0.019650 0.007067 0.054462 0.011235 0.041110 0.069006 0.078967 0.043465 -0.005358 -0.003047 -0.019305 0.042361 0.000661 0.012608 0.071609 0.050015 0.001643 0.011064 -0.016517 0.006438 -0.040305 0.007223 0.014762 0.042798 0.045430 0.027755 -0.006542 0.004798 0.032407 0.007297 0.037209 0.011914 -0.016529 0.026552 -0.049256 -0.028303 -0.055277 -0.012490 -0.064729 0.006568 0.019659 -0.011144 -0.010217 -0.005400 -0.001352 0.027479 0.015258 -0.012872 0.007740 0.026781 0.035987 0.025201 0.007323 0.014912 0.004849 -0.004951 0.016888 -0.006762 0.088159 0.042509 0.028787 0.001972 -0.009283 -0.031789 0.002352 0.074939 0.002108 0.056988 -0.019187 -0.024893 -0.023187 0.094500 0.003310 -0.024776 0.056664 0.051184 0.006915 0.002595 0.019439 0.003330 0.038178 0.028986 0.096328 0.054586 0.049731 0.043512 -0.008223 0.016471 -0.004841 -0.006922 0.013063 0.094598 -0.013527 -0.089791 0.043299 0.003732 0.059141 -0.053543 -0.006405 -0.000718 0.021505 -0.001055 -0.024794 -0.020669 -0.069206 0.045017 0.045829 0.054417 -0.121696 0.021263 0.010088 -0.005892 -0.097172 0.102424 0.023165 -0.048069 -0.112078 0.186581 0.296619 0.185347 0.135170 0.131498 -0.519346
0.072396 0.073047 0.074998 0.078250 0.082801 0.088649 0.095793 0.104230 0.113955 0.124964 0.137249 0.150803 0.165616 0.181674 0.198962 0.217463 0.237153 0.258006 0.279992 0.303076 0.327217 0.352367 0.378472 0.405473 0.433300 0.461878 0.491121 0.520934 0.551213 0.581845 0.612704 0.643655 0.674551 0.705233 0.735532 0.765268 0.794246 0.822265 0.849110 0.874557 0.898372 0.920313 0.940131 0.957572 0.972376 0.984280 0.993024 0.998345 0.999990 0.997709 0.991265 0.980433 0.965007 0.944800 0.919652 0.889431 0.854039 0.813413 0.767536 0.716433 0.660181 0.598909 0.532805 0.462118 0.387158 0.308302 0.225994 0.140747 0.053137 0.036187 0.126516 0.217080 0.307052 0.395552 0.481660 0.564422 0.642856 0.715971 0.782775 0.842288 0.893563 0.935698 0.967852 0.989269 0.999289 0.997371 0.983109 0.956249 0.916706 0.864578 0.800158 0.723945 0.636647 0.539193 0.432721 0.318584 0.198332 0.073707 0.053388 0.180904 0.306679 0.428473 0.544009 0.651013 0.747262 0.830637 0.899172 0.951107 0.984941 0.999481 0.993888 0.967724 0.920979 0.854106 0.768038 0.664189 0.544456 0.411197 0.267204 0.115649 0.039966 0.195892 0.348211 0.492937 0.626119 0.743959 0.842920 0.919853 0.972101 0.997611 0.995025 0.963765 0.904085 0.817115 0.704870 0.570230 0.416897 0.249309 0.072536 0.107861 0.285997 0.455850 0.611466 0.747175 0.857811 0.938925 0.986987 0.999562 0.975455 0.914820 0.819215 0.691611 0.536334 0.358959 0.166140 0.034622 0.235250 0.427412 0.602862 0.753813 0.873288 0.955480 0.996056 0.992428 0.943942 0.851996 0.720064 0.553615 0.359933 0.147848 0.072656 0.290868 0.495885 0.677146 0.825002 0.931253 0.989647 0.996285 0.949935 0.852201 0.707548 0.523168 0.308675 0.075659 0.162913 0.393393 0.602237 0.776813 0.906188 0.981868 0.998406 0.953852 0.850010 0.692459 0.490334 0.255873 0.003724 0.249930 0.488389 0.695550 0.857005 0.961106 0.999856 0.969603 0.871445 0.711318 0.499741 0.251203 0.016755 0.284747 0.532906 0.742387 0.896818 0.983652 0.995257 0.929681 0.790992 0.589151 0.339402 0.061213 0.223186 0.490551 0.718514 0.887510 0.982505 0.994437 0.921183 0.767955 0.547082 0.277122 0.018583 0.313870 0.582057 0.798349 0.942202 0.999361 0.963381 0.836481 0.629582 0.361515 0.057437 0.253464 0.540720 0.775578 0.933937 0.998915 0.962784 0.828019 0.607337 0.322665 0.003073 0.318078 0.606603 0.831143 0.966660 0.997333 0.918574 0.737833 0.474108 0.156098 0.180774 0.498259 0.759611 0.933890 0.999760 0.948251 0.784159 0.525834 0.203319 0.144995 0.476849 0.751234 0.933516 0.999937 0.940889 0.762497 0.486236 0.146560 0.213256 0.546523 0.809211 0.965853 0.994478 0.889909 0.664872 0.348714 0.016234 0.380159 0.692544 0.909197 0.998659 0.946960 0.760044 0.463392 0.098792 0.281366 0.621529 0.871117 0.992168 0.965315 0.793143 0.500308 0.130281 0.260901 0.613012 0.870925 0.993372 0.959765 0.773939 0.464086 0.078781 0.320425 0.668751 0.908708 0.999765 0.925442 0.696590 0.350178 0.056378 0.454570 0.776238 0.965344 0.987956 0.838620 0.541938 0.148884 0.271715 0.645048 0.903689 0.999902 0.914767 0.662238 0.287263 0.141898 0.545866 0.848831 0.992884 0.949364 0.724937 0.361034 0.073436 0.494863 0.820999 0.987091 0.959031 0.740731 0.374131 0.068490 0.498487 0.828523 0.990436 0.949610 0.712786 0.327476 0.127160 0.556316 0.869254 0.998645 0.915399 0.635647 0.218115 0.247777 0.660856
1.000000 1.000000 1.000000 1.000000 1.000000 1.000000 1.000000 1.000000 1.000000 1.000000 1.000000 1.000000 1.000000 1.000000 1.000000 1.000000 1.000000 1.000000 1.000000 1.000000 1.000000 1.000000 1.000000 1.000000 1.000000 1.000000 1.000000 1.000000 1.000000 1.000000 1.000000 1.000000 1.000000 1.000000 1.000000 1.000000 1.000000 1.000000 1.000000 1.000000 1.000000 1.000000 1.000000 1.000000 1.000000 1.000000 1.000000 1.000000 1.000000 1.000000 1.000000 1.000000 0.923236 0.923236 0.923236 0.923236 0.923236 0.923236 0.923236 0.923236 0.923236 0.923236 0.923236 0.923236 0.923236 0.923236 0.923236 0.923236 0.923236 0.923236 0.923236 0.923236 0.923236 0.923236 0.923236 0.923236 0.923236 0.923236 0.923236 0.923236 0.923236 0.923236 0.923236 0.923236 0.923236 0.913300 0.911396 0.912557 0.911113 0.909651 0.909063 0.908671 0.909712 0.911317 0.913391 0.935020 0.938127 0.939370 0.940692 0.942062 0.944342 0.942185 0.949774 0.956283 0.955229 0.956374 0.950231 0.951630 0.950982 0.950249 0.951590 0.951713 0.950024 0.948011 0.946440 0.945892 0.945582 0.949232 0.949721 0.949882 0.950475 0.950423 0.951140 0.951750 0.949915 0.952186 0.944333 0.942992 0.948256 0.946180 0.947558 0.947522 0.948210 0.949017 0.949336 0.949606 0.946509 0.946015 0.945050 0.937929 0.930938 0.931063 0.933279 0.936178 0.933470 0.930514 0.931778 0.933789 0.933000 0.936421 0.927421 0.923207 0.896996 0.883577 0.873951 0.874172 0.878077 0.880691 0.878388 0.872040 0.863187 0.859581 0.859098 0.855382 0.847222 0.862653 0.856929 0.853784 0.857399 0.860608 0.865975 0.863884 0.859667 0.854879 0.850014 0.840134 0.841479 0.844807 0.849016 0.831880 0.821385 0.838095 0.829383 0.820123 0.827800 0.829679 0.826681 0.825410 0.825816 0.823228 0.816793 0.809470 0.813364 0.822322 0.823220 0.813552 0.811212 0.808989 0.808735 0.801059 0.806020 0.807485 0.803839 0.796304 0.813708 0.780588 0.801637 0.802548 0.785668 0.769873 0.757633 0.766521 0.776444 0.775830 0.770189 0.774872 0.774486 0.766754 0.740510 0.734168 0.741057 0.739174 0.727537 0.713946 0.721030 0.721224 0.717857 0.714726 0.717912 0.718866 0.695548 0.709043 0.713515 0.703887 0.717706 0.720322 0.711275 0.714555 0.718445 0.721368 0.722071 0.691353 0.694974 0.651803 0.640772 0.594471 0.590983 0.588577 0.530551 0.534834 0.508595 0.492217 0.492993 0.471528 0.522910 0.435464 0.422267 0.450709 0.376928 0.328828 0.346189 0.346933 0.360646 0.366470 0.358007 0.360000 0.345633 0.323210 0.307344 0.331724 0.348281 0.318356 0.322670 0.306484 0.284911 0.243618 0.259350 0.263563 0.292615 0.294790 0.274720 0.298305 0.348346 0.287771 0.268308 0.246137 0.272042 0.282097 0.279229 0.269135 0.277127 0.228812 0.224858 0.245463 0.247801 0.277856 0.304782 0.330319 0.326711 0.332301 0.361798 0.313844 0.329688 0.334188 0.323157 0.341087 0.344471 0.346305 0.340509 0.378303 0.367388 0.378013 0.372523 0.370551 0.411701 0.389711 0.363938 0.337400 0.345649 0.344780 0.342704 0.285618 0.265424 0.263548 0.221449 0.184290 0.186082 0.186239 0.141900 0.126495 0.110092 0.073505 0.072756 0.080922 0.108661 0.079675 0.096879 0.103588 0.103588 0.103588 0.103588 0.103588 0.103588 0.103588 0.103588 0.103588 0.103588 0.103588 0.103588 0.103588 0.103588 0.126083 0.126083 0.126083 0.126083 0.126083 0.126083 0.126083 0.126083 0.126083 0.126083 0.126083 0.126083
0.000000 0.000000 0.000000 0.000000 0.000000 0.000000 0.000000 0.000000 0.000000 0.000000 0.000000 0.000000 0.000000 0.000000 0.000000 0.000000 0.000000 0.000000 0.000000 0.000000 0.000000 0.000000 0.000000 0.000000 0.000000 0.000000 0.000000 0.000000 0.000000 0.000000 0.000000 0.000000 0.000000 0.000000 0.000000 0.000000 0.000000 0.000000 0.000000 0.000000 0.000000 0.000000 0.000000 0.000000 0.000000 0.000000 0.000000 0.000000 0.000000 0.000000 0.000000 0.000000 0.209657 0.209657 0.209657 0.209657 0.209657 0.209657 0.209657 0.209657 0.209657 0.209657 0.209657 0.209657 0.209657 0.209657 0.209657 0.209657 0.209657 0.209657 0.209657 0.209657 0.209657 0.209657 0.209657 0.209657 0.209657 0.209657 0.209657 0.209657 0.209657 0.209657 0.209657 0.209657 0.209657 0.244339 0.244339 0.244339 0.244339 0.244339 0.244339 0.244339 0.244339 0.244339 0.244339 0.244339 0.244339 0.244339 0.244339 0.244339 0.244339 0.244339 0.244339 0.244339 0.244339 0.244339 0.244339 0.244339 0.244339 0.244339 0.260378 0.260378 0.260378 0.260378 0.260378 0.260378 0.260378 0.260378 0.260378 0.260378 0.260378 0.260378 0.260378 0.260378 0.260378 0.260378 0.260378 0.260378 0.260378 0.260378 0.269680 0.269680 0.269680 0.269680 0.269680 0.269680 0.269680 0.269680 0.269680 0.269680 0.269680 0.269680 0.269680 0.269680 0.269680 0.269680 0.269680 0.269680 0.269680 0.269680 0.269680 0.269680 0.269680 0.269680 0.269680 0.269680 0.269680 0.269680 0.269680 0.269680 0.269680 0.269680 0.269680 0.280056 0.280056 0.280056 0.280056 0.280056 0.280056 0.280056 0.280056 0.280056 0.280056 0.280056 0.280056 0.280056 0.280056 0.280056 0.280056 0.280056 0.280056 0.280056 0.280056 0.280056 0.280056 0.280056 0.280056 0.280056 0.280056 0.280056 0.274721 0.274721 0.274721 0.274721 0.274721 0.274721 0.274721 0.274721 0.274721 0.274721 0.274721 0.274721 0.274721 0.285714 0.285714 0.285714 0.285714 0.285714 0.285714 0.285714 0.285714 0.285714 0.285714 0.285714 0.280056 0.280056 0.280056 0.280056 0.280056 0.280056 0.280056 0.280056 0.280056 0.280056 0.280056 0.274721 0.274721 0.274721 0.274721 0.274721 0.274721 0.274721 0.274721 0.274721 0.274721 0.274721 0.280056 0.280056 0.280056 0.280056 0.280056 0.280056 0.280056 0.280056 0.280056 0.280056 0.285714 0.285714 0.285714 0.285714 0.285714 0.285714 0.285714 0.285714 0.285714 0.269680 0.269680 0.269680 0.269680 0.269680 0.269680 0.269680 0.269680 0.269680 0.269680 0.274721 0.274721 0.274721 0.274721 0.274721 0.274721 0.274721 0.274721 0.274721 0.285714 0.285714 0.285714 0.285714 0.285714 0.285714 0.285714 0.285714 0.264906 0.264906 0.264906 0.264906 0.264906 0.264906 0.264906 0.264906 0.264906 0.274721 0.274721 0.274721 0.274721 0.274721 0.274721 0.274721 0.274721 0.269680 0.269680 0.269680 0.269680 0.269680 0.269680 0.269680 0.269680 0.269680 0.269680 0.269680 0.269680 0.269680 0.269680 0.269680 0.269680 0.280056 0.280056 0.280056 0.280056 0.280056 0.280056 0.280056 0.260378 0.260378 0.260378 0.260378 0.260378 0.260378 0.260378 0.260378 0.269680 0.269680 0.269680 0.269680 0.269680 0.269680 0.269680 0.264906 0.264906 0.264906 0.264906 0.264906 0.264906 0.264906 0.264906 0.264906 0.264906 0.264906 0.264906 0.264906 0.264906 0.260378 0.260378 0.260378 0.260378 0.260378 0.260378 0.260378 0.260378 0.260378 0.260378 0.260378 0.260378
