# Output from CTFFind version 4.1.9, run on 2019-11-03 19:46:48
# Input file: stack16_bm3d_averaged_1_5.25_0_1000_half.mrc ; Number of micrographs: 1
# Pixel size: 3.000 Angstroms ; acceleration voltage: 300.0 keV ; spherical aberration: 0.00 mm ; amplitude contrast: 0.07
# Box size: 512 pixels ; min. res.: 30.0 Angstroms ; max. res.: 5.0 Angstroms ; min. def.: 5000.0 um; max. def. 50000.0 um; num. frames averaged: 1
# 6 lines per micrograph: #1 - spatial frequency (1/Angstroms); #2 - 1D rotational average of spectrum (assuming no astigmatism); #3 - 1D rotational average of spectrum; #4 - CTF fit; #5 - cross-correlation between spectrum and CTF fit; #6 - 2sigma of expected cross correlation of noise
0.000000 0.000651 0.001302 0.001953 0.002604 0.003255 0.003906 0.004557 0.005208 0.005859 0.006510 0.007161 0.007812 0.008464 0.009115 0.009766 0.010417 0.011068 0.011719 0.012370 0.013021 0.013672 0.014323 0.014974 0.015625 0.016276 0.016927 0.017578 0.018229 0.018880 0.019531 0.020182 0.020833 0.021484 0.022135 0.022786 0.023438 0.024089 0.024740 0.025391 0.026042 0.026693 0.027344 0.027995 0.028646 0.029297 0.029948 0.030599 0.031250 0.031901 0.032552 0.033203 0.033854 0.034505 0.035156 0.035807 0.036458 0.037109 0.037760 0.038411 0.039062 0.039714 0.040365 0.041016 0.041667 0.042318 0.042969 0.043620 0.044271 0.044922 0.045573 0.046224 0.046875 0.047526 0.048177 0.048828 0.049479 0.050130 0.050781 0.051432 0.052083 0.052734 0.053385 0.054036 0.054688 0.055339 0.055990 0.056641 0.057292 0.057943 0.058594 0.059245 0.059896 0.060547 0.061198 0.061849 0.062500 0.063151 0.063802 0.064453 0.065104 0.065755 0.066406 0.067057 0.067708 0.068359 0.069010 0.069661 0.070312 0.070964 0.071615 0.072266 0.072917 0.073568 0.074219 0.074870 0.075521 0.076172 0.076823 0.077474 0.078125 0.078776 0.079427 0.080078 0.080729 0.081380 0.082031 0.082682 0.083333 0.083984 0.084635 0.085286 0.085938 0.086589 0.087240 0.087891 0.088542 0.089193 0.089844 0.090495 0.091146 0.091797 0.092448 0.093099 0.093750 0.094401 0.095052 0.095703 0.096354 0.097005 0.097656 0.098307 0.098958 0.099609 0.100260 0.100911 0.101562 0.102214 0.102865 0.103516 0.104167 0.104818 0.105469 0.106120 0.106771 0.107422 0.108073 0.108724 0.109375 0.110026 0.110677 0.111328 0.111979 0.112630 0.113281 0.113932 0.114583 0.115234 0.115885 0.116536 0.117188 0.117839 0.118490 0.119141 0.119792 0.120443 0.121094 0.121745 0.122396 0.123047 0.123698 0.124349 0.125000 0.125651 0.126302 0.126953 0.127604 0.128255 0.128906 0.129557 0.130208 0.130859 0.131510 0.132161 0.132812 0.133464 0.134115 0.134766 0.135417 0.136068 0.136719 0.137370 0.138021 0.138672 0.139323 0.139974 0.140625 0.141276 0.141927 0.142578 0.143229 0.143880 0.144531 0.145182 0.145833 0.146484 0.147135 0.147786 0.148438 0.149089 0.149740 0.150391 0.151042 0.151693 0.152344 0.152995 0.153646 0.154297 0.154948 0.155599 0.156250 0.156901 0.157552 0.158203 0.158854 0.159505 0.160156 0.160807 0.161458 0.162109 0.162760 0.163411 0.164062 0.164714 0.165365 0.166016 0.166667 0.167318 0.167969 0.168620 0.169271 0.169922 0.170573 0.171224 0.171875 0.172526 0.173177 0.173828 0.174479 0.175130 0.175781 0.176432 0.177083 0.177734 0.178385 0.179036 0.179688 0.180339 0.180990 0.181641 0.182292 0.182943 0.183594 0.184245 0.184896 0.185547 0.186198 0.186849 0.187500 0.188151 0.188802 0.189453 0.190104 0.190755 0.191406 0.192057 0.192708 0.193359 0.194010 0.194661 0.195312 0.195964 0.196615 0.197266 0.197917 0.198568 0.199219 0.199870 0.200521 0.201172 0.201823 0.202474 0.203125 0.203776 0.204427 0.205078 0.205729 0.206380 0.207031 0.207682 0.208333 0.208984 0.209635 0.210286 0.210938 0.211589 0.212240 0.212891 0.213542 0.214193 0.214844 0.215495 0.216146 0.216797 0.217448 0.218099 0.218750 0.219401 0.220052 0.220703 0.221354 0.222005 0.222656 0.223307 0.223958 0.224609 0.225260 0.225911 0.226562 0.227214 0.227865 0.228516 0.229167 0.229818 0.230469 0.231120 0.231771 0.232422 0.233073 0.233724 0.234375 0.235026 0.235677
       0.33822        0.33822        0.33822        0.33822        0.33822        0.33822        0.33822        0.33822        0.33822        0.33822        0.33822        0.33822        0.33822        0.33822        0.33822        0.33822        0.33822        0.33822        0.33822        0.33822        0.33822        0.33822        0.33822        0.33822        0.33822        0.33822        0.33822        0.33822        0.33822        0.33822        0.33822        0.33822        0.33822        0.33822        0.33822        0.33822        0.33822        0.33822        0.33822        0.33822        0.33822        0.33822        0.33822        0.33822        0.33822        0.33822        0.33822        0.33822        0.33822        0.33822        0.33822        0.42080        0.55671        0.34292       -0.20896       -0.45742       -0.55407       -0.65248       -0.72363       -0.73608       -0.83509       -0.90254       -0.69752       -0.85549       -0.83422       -0.98201       -1.01823       -0.90023       -0.85915       -0.81067       -0.73089       -0.66031       -0.57243       -0.47752       -0.41019       -0.18181       -0.07814        0.01893        0.24437        0.24809        0.30501        0.36730        0.39470        0.50644        0.53390        0.56999        0.52997        0.46960        0.50540        0.51335        0.43491        0.32394        0.20199        0.17131        0.10349       -0.00853       -0.02409       -0.03230        0.04209        0.00595        0.06151        0.03633        0.15133        0.18805        0.40088        0.45517        0.54796        0.65509        0.68821        0.71244        0.63293        0.61034        0.53077        0.43402        0.38098        0.26479        0.20781        0.19999        0.08914        0.09337        0.08269        0.07294        0.08723        0.29916        0.40789        0.51250        0.53174        0.57144        0.60780        0.58610        0.57524        0.58092        0.56178        0.46156        0.29447        0.25451        0.23821        0.13366        0.07954        0.15138        0.18397        0.27298        0.34706        0.41663        0.46772        0.52695        0.59821        0.54421        0.50532        0.49157        0.35062        0.25640        0.24515        0.16633        0.17207        0.21503        0.25960        0.27182        0.31246        0.41778        0.44895        0.49726        0.45032        0.44172        0.47658        0.38175        0.32235        0.27787        0.24661        0.22099        0.22200        0.23186        0.32853        0.43288        0.42256        0.48648        0.54944        0.43938        0.40740        0.35162        0.30149        0.25532        0.26866        0.26439        0.28151        0.32967        0.34128        0.42317        0.46746        0.43224        0.45011        0.36222        0.37185        0.35071        0.25733        0.23779        0.23607        0.31134        0.36893        0.36311        0.38552        0.42946        0.43229        0.36521        0.33368        0.31340        0.34246        0.30120        0.27014        0.27253        0.34142        0.36191        0.37653        0.38655        0.37876        0.40762        0.39065        0.30676        0.28012        0.30984        0.33818        0.36231        0.35475        0.40058        0.33566        0.36707        0.38682        0.32707        0.34755        0.30948        0.29145        0.33300        0.33113        0.31935        0.33924        0.36024        0.31969        0.33904        0.30878        0.30749        0.28271        0.30951        0.30327        0.32366        0.36099        0.36034        0.34226        0.29871        0.28626        0.27956        0.32132        0.29901        0.30748        0.36047        0.35588        0.33438        0.30510        0.29942        0.30638        0.26802        0.29772        0.30999        0.32247        0.36025        0.33631        0.29291        0.32592        0.32421        0.31426        0.35157        0.33808        0.30423        0.32822        0.28672        0.31772        0.28522        0.30396        0.28677        0.31478        0.35681        0.32800        0.34775        0.30104        0.31450        0.33631        0.32827        0.30182        0.30088        0.33688        0.32416        0.31952        0.31225        0.30917        0.29904        0.30396        0.31612        0.31770        0.33832        0.33551        0.33220        0.28527        0.27387        0.26346        0.26350        0.35599        0.30580        0.35118        0.29140        0.25744        0.27857        0.35554        0.30074        0.27796        0.28739        0.30939        0.28815        0.26705        0.30650        0.26774        0.27085        0.29773        0.31597        0.32951        0.31953        0.29542        0.26412        0.25989        0.25397        0.26225        0.28674        0.35161        0.28155        0.19672        0.29588        0.27121        0.30989        0.23451        0.30087        0.30508        0.32488        0.28332        0.26893        0.26641        0.23304        0.28825        0.33958        0.35149        0.23755        0.27429        0.21528        0.21740        0.20400        0.33389        0.24442        0.20483        0.13388        0.22648        0.29257        0.20804        0.17479        0.06868       -0.55868       -0.71839
3.128918 3.089506 3.050349 3.011446 2.972798 2.934406 2.896268 2.858385 2.820756 2.783383 2.746264 2.709401 2.672792 2.636438 2.600339 2.564495 2.528905 2.493571 2.458491 2.423666 2.389096 2.354781 2.320721 2.286916 2.253365 2.220069 2.187029 2.154243 2.121712 2.089435 2.057414 2.025647 1.994136 1.962879 1.931877 1.901130 1.870638 1.840400 1.810418 1.780690 1.751217 1.721999 1.693036 1.664328 1.635875 1.607676 1.579732 1.552044 1.524610 1.497431 1.470506 1.505281 1.594083 1.533707 0.847904 0.589672 0.449409 0.381538 0.287433 0.208519 0.170950 -0.055186 0.196476 0.061118 -0.037373 -0.119696 -0.242893 -0.151244 -0.065241 -0.094542 -0.082035 0.030326 0.025815 0.220064 0.103526 0.351027 0.459338 0.482058 0.760326 0.685685 0.687964 0.829451 0.798422 0.834065 0.920059 0.862343 0.893473 0.728954 0.800743 0.845623 0.680034 0.605657 0.439876 0.425120 0.346949 0.185324 0.182615 0.116485 0.211050 0.118612 0.212179 0.106852 0.222735 0.234138 0.451704 0.410689 0.585870 0.624416 0.660604 0.728601 0.619673 0.598010 0.467902 0.417561 0.301258 0.270129 0.102534 0.162608 -0.022314 0.038749 -0.033951 -0.039362 -0.042555 0.035934 0.282816 0.300343 0.376165 0.320267 0.401098 0.412494 0.439502 0.420551 0.366202 0.347221 0.135512 0.086776 0.066868 -0.008899 -0.151104 -0.039748 -0.067670 0.043103 0.089584 0.164455 0.232755 0.240204 0.328544 0.424823 0.306979 0.371150 0.251904 0.141773 0.068037 0.048360 0.004771 0.044640 0.073271 0.105680 0.118432 0.184860 0.243636 0.309437 0.290125 0.228084 0.261578 0.231720 0.113195 0.078126 0.048036 0.034768 0.007936 -0.004327 0.039131 0.174023 0.191559 0.197498 0.310352 0.194007 0.204904 0.084777 0.075414 -0.001522 -0.005298 0.004688 -0.000881 0.042885 0.056700 0.095543 0.158999 0.145409 0.224150 0.129937 0.078765 0.103668 0.048909 -0.060748 -0.025638 0.018003 0.057755 0.074917 0.078148 0.156398 0.128159 0.151549 0.038226 0.056415 0.047973 0.050067 0.024072 -0.021648 0.038495 0.045046 0.086994 0.109290 0.093434 0.108072 0.127243 0.074354 0.011463 -0.001697 0.033049 0.081697 0.063858 0.101386 0.095847 0.052727 0.112381 0.068870 0.042032 0.081713 -0.020344 0.022140 0.061020 0.037026 0.043744 0.052573 0.070950 0.051646 0.059667 0.011444 0.019749 -0.004054 0.044526 0.002025 0.047648 0.068594 0.071065 0.038323 -0.012275 -0.009373 -0.016712 0.033075 -0.001993 0.013793 0.068780 0.057500 -0.009062 0.009318 -0.011664 0.010396 -0.044403 -0.007513 -0.001156 0.029975 0.047564 0.017510 -0.018954 0.007009 0.005083 0.001960 0.044115 0.012445 -0.013730 0.042749 -0.041764 -0.016514 -0.048627 -0.013616 -0.039955 0.015622 0.043625 0.001909 0.003426 -0.004884 0.006372 0.022368 0.025084 -0.011663 -0.001376 0.022016 0.043078 0.012383 0.011070 0.040403 -0.008292 0.001110 0.023889 0.003153 0.075980 0.056310 0.029574 0.001127 -0.008403 -0.033845 0.001238 0.078217 -0.002678 0.075854 -0.018618 -0.024188 -0.018689 0.094256 -0.005626 -0.012158 0.020650 0.042724 0.008747 0.006941 0.029684 0.004082 0.011895 0.026976 0.065733 0.078376 0.052156 0.033138 0.003962 -0.004563 -0.004189 -0.016477 0.005031 0.108839 -0.025507 -0.093549 0.057866 -0.013807 0.047414 -0.057551 0.014865 0.017519 0.020511 -0.001706 -0.020133 -0.013405 -0.073988 0.023057 0.051341 0.068986 -0.124146 0.001860 -0.040460 -0.016802 -0.116469 0.113451 0.015804 0.013210 -0.072452 0.181097 0.257005 0.147024 0.132995 0.073068 -0.681611
0.072396 0.073047 0.074998 0.078250 0.082801 0.088650 0.095794 0.104231 0.113957 0.124966 0.137252 0.150807 0.165620 0.181679 0.198968 0.217469 0.237160 0.258014 0.280002 0.303087 0.327228 0.352379 0.378485 0.405487 0.433316 0.461894 0.491138 0.520952 0.551233 0.581866 0.612726 0.643677 0.674573 0.705256 0.735556 0.765291 0.794270 0.822288 0.849133 0.874579 0.898393 0.920333 0.940149 0.957588 0.972389 0.984291 0.993031 0.998349 0.999990 0.997705 0.991255 0.980418 0.964985 0.944772 0.919618 0.889390 0.853990 0.813357 0.767472 0.716361 0.660100 0.598820 0.532708 0.462013 0.387045 0.308182 0.225868 0.140614 0.053000 0.036329 0.126662 0.217228 0.307199 0.395698 0.481804 0.564560 0.642988 0.716095 0.782888 0.842388 0.893649 0.935767 0.967903 0.989299 0.999297 0.997356 0.983069 0.956183 0.916614 0.864460 0.800013 0.723774 0.636452 0.538975 0.432483 0.318328 0.198063 0.073427 0.053675 0.181192 0.306963 0.428749 0.544270 0.651253 0.747477 0.830820 0.899319 0.951213 0.985001 0.999492 0.993848 0.967631 0.920833 0.853908 0.767789 0.663893 0.544119 0.410825 0.266804 0.115230 0.040396 0.196322 0.348629 0.493330 0.626478 0.744270 0.843175 0.920042 0.972216 0.997645 0.994975 0.963628 0.903862 0.816811 0.704490 0.569784 0.416395 0.248766 0.071969 0.108435 0.286558 0.456379 0.611943 0.747581 0.858129 0.939141 0.987089 0.999542 0.975311 0.914552 0.818830 0.691118 0.535751 0.358307 0.165442 0.035338 0.235957 0.428077 0.603457 0.754308 0.873661 0.955708 0.996125 0.992330 0.943677 0.851571 0.719493 0.552920 0.359147 0.147003 0.073515 0.291703 0.496652 0.677804 0.825512 0.931587 0.989779 0.996204 0.949639 0.851700 0.706865 0.522334 0.307735 0.074661 0.163910 0.394333 0.603062 0.777469 0.906633 0.982069 0.998344 0.953524 0.849430 0.691655 0.489355 0.254775 0.002576 0.251051 0.489411 0.696399 0.857620 0.961438 0.999876 0.969301 0.870834 0.710436 0.498644 0.249966 0.018048 0.285997 0.534021 0.743277 0.897411 0.983895 0.995123 0.929171 0.790139 0.588014 0.338067 0.059783 0.224595 0.491822 0.719538 0.888193 0.982783 0.994277 0.920588 0.766969 0.545781 0.275615 0.020162 0.315383 0.583363 0.799324 0.942749 0.999419 0.962934 0.835560 0.628265 0.359924 0.055719 0.255143 0.542189 0.776690 0.934571 0.998997 0.962294 0.826997 0.605879 0.320909 0.001204 0.319860 0.608109 0.832204 0.967152 0.997190 0.917798 0.736500 0.472358 0.154120 0.182758 0.500024 0.760942 0.934627 0.999803 0.947584 0.782846 0.524022 0.201219 0.147135 0.478763 0.752680 0.934306 0.999960 0.940127 0.761034 0.484248 0.144291 0.215510 0.548467 0.810585 0.966461 0.994227 0.888816 0.663072 0.346439 0.018675 0.382433 0.694328 0.910233 0.998786 0.946144 0.758388 0.461119 0.096221 0.283862 0.623577 0.872408 0.992496 0.964614 0.791503 0.497965 0.127580 0.263548 0.615189 0.872288 0.993690 0.958971 0.772141 0.461560 0.075921 0.323159 0.670909 0.909925 0.999825 0.924314 0.694447 0.347368 0.059394 0.457273 0.778158 0.966144 0.987472 0.836917 0.539300 0.145760 0.274768 0.647487 0.905060 0.999942 0.913449 0.659782 0.284104 0.145175 0.548656 0.850601 0.993280 0.948294 0.722584 0.357831 0.076874 0.497877 0.822989 0.987648 0.958022 0.738343 0.370817 0.072075 0.501618 0.830555 0.990934 0.948451 0.710185 0.323956 0.130867 0.559437 0.871118 0.998836 0.913854 0.632668 0.214331 0.251545 0.663788
1.000000 1.000000 1.000000 1.000000 1.000000 1.000000 1.000000 1.000000 1.000000 1.000000 1.000000 1.000000 1.000000 1.000000 1.000000 1.000000 1.000000 1.000000 1.000000 1.000000 1.000000 1.000000 1.000000 1.000000 1.000000 1.000000 1.000000 1.000000 1.000000 1.000000 1.000000 1.000000 1.000000 1.000000 1.000000 1.000000 1.000000 1.000000 1.000000 1.000000 1.000000 1.000000 1.000000 1.000000 1.000000 1.000000 1.000000 1.000000 1.000000 1.000000 1.000000 1.000000 0.926300 0.926300 0.926300 0.926300 0.926300 0.926300 0.926300 0.926300 0.926300 0.926300 0.926300 0.926300 0.926300 0.926300 0.926300 0.926300 0.926300 0.926300 0.926300 0.926300 0.926300 0.926300 0.926300 0.926300 0.926300 0.926300 0.926300 0.926300 0.926300 0.926300 0.926300 0.926300 0.926300 0.913358 0.911444 0.912609 0.913794 0.913700 0.913146 0.912781 0.913816 0.915368 0.917382 0.938994 0.942026 0.943191 0.944482 0.945905 0.948337 0.946322 0.954054 0.960682 0.959707 0.960720 0.954554 0.955854 0.955230 0.954506 0.956077 0.956140 0.954527 0.952626 0.951148 0.950647 0.950356 0.953878 0.954421 0.954595 0.955144 0.955077 0.955796 0.956407 0.954514 0.956703 0.948852 0.947648 0.953044 0.951167 0.952714 0.952679 0.953375 0.954153 0.954439 0.954682 0.951561 0.951236 0.950507 0.940567 0.933824 0.932382 0.934878 0.938259 0.935755 0.932024 0.933338 0.935830 0.935033 0.934395 0.924909 0.921214 0.898624 0.887219 0.875377 0.875860 0.878884 0.881132 0.878732 0.870624 0.860872 0.856963 0.857256 0.853109 0.846057 0.862481 0.856884 0.855779 0.859827 0.862799 0.868303 0.864769 0.860387 0.855799 0.851405 0.845219 0.847268 0.852106 0.856101 0.840582 0.832112 0.849405 0.838855 0.830160 0.837605 0.839639 0.836592 0.835442 0.836242 0.834652 0.827888 0.822798 0.825775 0.834869 0.833902 0.822367 0.818730 0.813889 0.813695 0.807351 0.810476 0.810382 0.806691 0.799871 0.815218 0.782003 0.806040 0.804618 0.790697 0.774634 0.763122 0.771617 0.783092 0.786076 0.779296 0.773774 0.772951 0.767428 0.741042 0.744425 0.751813 0.750211 0.738135 0.716481 0.723766 0.730081 0.724554 0.719633 0.722416 0.723583 0.694666 0.707757 0.711405 0.696367 0.711354 0.713455 0.704222 0.704563 0.706888 0.709100 0.701098 0.661197 0.663773 0.662414 0.655021 0.605456 0.605431 0.604294 0.556252 0.560265 0.524230 0.506862 0.506473 0.502748 0.550294 0.516925 0.503776 0.534554 0.466798 0.378151 0.392787 0.390093 0.401958 0.411919 0.387816 0.387050 0.375544 0.350834 0.359707 0.378009 0.392533 0.364966 0.365903 0.359941 0.330883 0.303482 0.316038 0.319839 0.342195 0.344505 0.321500 0.352151 0.388014 0.331776 0.307088 0.291501 0.288061 0.302116 0.307693 0.296027 0.266792 0.261712 0.230419 0.255597 0.246056 0.244647 0.257444 0.289387 0.283473 0.293464 0.311164 0.262747 0.278883 0.281163 0.270646 0.274398 0.282776 0.281164 0.269201 0.285067 0.254364 0.265325 0.244722 0.230947 0.297281 0.278136 0.248571 0.246588 0.253084 0.263869 0.234497 0.187756 0.165571 0.172759 0.108428 0.085772 0.085922 0.081266 0.036794 0.009982 -0.006504 -0.044700 -0.044386 -0.042365 -0.006436 -0.038420 -0.011318 -0.000830 -0.000830 -0.000830 -0.000830 -0.000830 -0.000830 -0.000830 -0.000830 -0.000830 -0.000830 -0.000830 -0.000830 -0.000830 -0.000830 0.021978 0.021978 0.021978 0.021978 0.021978 0.021978 0.021978 0.021978 0.021978 0.021978 0.021978 0.021978
0.000000 0.000000 0.000000 0.000000 0.000000 0.000000 0.000000 0.000000 0.000000 0.000000 0.000000 0.000000 0.000000 0.000000 0.000000 0.000000 0.000000 0.000000 0.000000 0.000000 0.000000 0.000000 0.000000 0.000000 0.000000 7.000000 4.000000 0.000000 0.000000 0.000000 0.000000 0.000000 0.000000 0.000000 0.000000 0.000000 0.000000 0.000000 0.000000 0.000000 0.000000 0.000000 0.000000 0.000000 0.000000 0.000000 0.000000 0.000000 0.000000 0.000000 0.000000 0.000000 0.209657 0.209657 0.209657 0.209657 0.209657 0.209657 0.209657 0.209657 0.209657 0.209657 0.209657 0.209657 0.209657 0.209657 0.209657 0.209657 0.209657 0.209657 0.209657 0.209657 0.209657 0.209657 0.209657 0.209657 0.209657 0.209657 0.209657 0.209657 0.209657 0.209657 0.209657 0.209657 0.209657 0.244339 0.244339 0.244339 0.244339 0.244339 0.244339 0.244339 0.244339 0.244339 0.244339 0.244339 0.244339 0.244339 0.244339 0.244339 0.244339 0.244339 0.244339 0.244339 0.244339 0.244339 0.244339 0.244339 0.244339 0.244339 0.260378 0.260378 0.260378 0.260378 0.260378 0.260378 0.260378 0.260378 0.260378 0.260378 0.260378 0.260378 0.260378 0.260378 0.260378 0.260378 0.260378 0.260378 0.260378 0.260378 0.269680 0.269680 0.269680 0.269680 0.269680 0.269680 0.269680 0.269680 0.269680 0.269680 0.269680 0.269680 0.269680 0.269680 0.269680 0.269680 0.269680 0.269680 0.269680 0.269680 0.269680 0.269680 0.269680 0.269680 0.269680 0.269680 0.269680 0.269680 0.269680 0.269680 0.269680 0.269680 0.269680 0.280056 0.280056 0.280056 0.280056 0.280056 0.280056 0.280056 0.280056 0.280056 0.280056 0.280056 0.280056 0.280056 0.280056 0.280056 0.280056 0.280056 0.280056 0.280056 0.280056 0.280056 0.280056 0.280056 0.280056 0.280056 0.280056 0.280056 0.274721 0.274721 0.274721 0.274721 0.274721 0.274721 0.274721 0.274721 0.274721 0.274721 0.274721 0.274721 0.274721 0.285714 0.285714 0.285714 0.285714 0.285714 0.285714 0.285714 0.285714 0.285714 0.285714 0.285714 0.280056 0.280056 0.280056 0.280056 0.280056 0.280056 0.280056 0.280056 0.280056 0.280056 0.280056 0.274721 0.274721 0.274721 0.274721 0.274721 0.274721 0.274721 0.274721 0.274721 0.274721 0.274721 0.280056 0.280056 0.280056 0.280056 0.280056 0.280056 0.280056 0.280056 0.280056 0.280056 0.285714 0.285714 0.285714 0.285714 0.285714 0.285714 0.285714 0.285714 0.285714 0.269680 0.269680 0.269680 0.269680 0.269680 0.269680 0.269680 0.269680 0.269680 0.269680 0.274721 0.274721 0.274721 0.274721 0.274721 0.274721 0.274721 0.274721 0.274721 0.285714 0.285714 0.285714 0.285714 0.285714 0.285714 0.285714 0.285714 0.264906 0.264906 0.264906 0.264906 0.264906 0.264906 0.264906 0.264906 0.264906 0.274721 0.274721 0.274721 0.274721 0.274721 0.274721 0.274721 0.274721 0.269680 0.269680 0.269680 0.269680 0.269680 0.269680 0.269680 0.269680 0.269680 0.269680 0.269680 0.269680 0.269680 0.269680 0.269680 0.269680 0.280056 0.280056 0.280056 0.280056 0.280056 0.280056 0.280056 0.260378 0.260378 0.260378 0.260378 0.260378 0.260378 0.260378 0.260378 0.269680 0.269680 0.269680 0.269680 0.269680 0.269680 0.269680 0.264906 0.264906 0.264906 0.264906 0.264906 0.264906 0.264906 0.264906 0.264906 0.264906 0.264906 0.264906 0.264906 0.264906 0.260378 0.260378 0.260378 0.260378 0.260378 0.260378 0.260378 0.260378 0.260378 0.260378 0.260378 0.260378
