# Output from CTFFind version 4.1.9, run on 2019-11-03 19:02:26
# Input file: stack16_bm3d_averaged_1_2.75_0_250_half.mrc ; Number of micrographs: 1
# Pixel size: 3.000 Angstroms ; acceleration voltage: 300.0 keV ; spherical aberration: 0.00 mm ; amplitude contrast: 0.07
# Box size: 512 pixels ; min. res.: 30.0 Angstroms ; max. res.: 5.0 Angstroms ; min. def.: 5000.0 um; max. def. 50000.0 um; num. frames averaged: 1
# 6 lines per micrograph: #1 - spatial frequency (1/Angstroms); #2 - 1D rotational average of spectrum (assuming no astigmatism); #3 - 1D rotational average of spectrum; #4 - CTF fit; #5 - cross-correlation between spectrum and CTF fit; #6 - 2sigma of expected cross correlation of noise
0.000000 0.000651 0.001302 0.001953 0.002604 0.003255 0.003906 0.004557 0.005208 0.005859 0.006510 0.007161 0.007812 0.008464 0.009115 0.009766 0.010417 0.011068 0.011719 0.012370 0.013021 0.013672 0.014323 0.014974 0.015625 0.016276 0.016927 0.017578 0.018229 0.018880 0.019531 0.020182 0.020833 0.021484 0.022135 0.022786 0.023438 0.024089 0.024740 0.025391 0.026042 0.026693 0.027344 0.027995 0.028646 0.029297 0.029948 0.030599 0.031250 0.031901 0.032552 0.033203 0.033854 0.034505 0.035156 0.035807 0.036458 0.037109 0.037760 0.038411 0.039062 0.039714 0.040365 0.041016 0.041667 0.042318 0.042969 0.043620 0.044271 0.044922 0.045573 0.046224 0.046875 0.047526 0.048177 0.048828 0.049479 0.050130 0.050781 0.051432 0.052083 0.052734 0.053385 0.054036 0.054688 0.055339 0.055990 0.056641 0.057292 0.057943 0.058594 0.059245 0.059896 0.060547 0.061198 0.061849 0.062500 0.063151 0.063802 0.064453 0.065104 0.065755 0.066406 0.067057 0.067708 0.068359 0.069010 0.069661 0.070312 0.070964 0.071615 0.072266 0.072917 0.073568 0.074219 0.074870 0.075521 0.076172 0.076823 0.077474 0.078125 0.078776 0.079427 0.080078 0.080729 0.081380 0.082031 0.082682 0.083333 0.083984 0.084635 0.085286 0.085938 0.086589 0.087240 0.087891 0.088542 0.089193 0.089844 0.090495 0.091146 0.091797 0.092448 0.093099 0.093750 0.094401 0.095052 0.095703 0.096354 0.097005 0.097656 0.098307 0.098958 0.099609 0.100260 0.100911 0.101562 0.102214 0.102865 0.103516 0.104167 0.104818 0.105469 0.106120 0.106771 0.107422 0.108073 0.108724 0.109375 0.110026 0.110677 0.111328 0.111979 0.112630 0.113281 0.113932 0.114583 0.115234 0.115885 0.116536 0.117188 0.117839 0.118490 0.119141 0.119792 0.120443 0.121094 0.121745 0.122396 0.123047 0.123698 0.124349 0.125000 0.125651 0.126302 0.126953 0.127604 0.128255 0.128906 0.129557 0.130208 0.130859 0.131510 0.132161 0.132812 0.133464 0.134115 0.134766 0.135417 0.136068 0.136719 0.137370 0.138021 0.138672 0.139323 0.139974 0.140625 0.141276 0.141927 0.142578 0.143229 0.143880 0.144531 0.145182 0.145833 0.146484 0.147135 0.147786 0.148438 0.149089 0.149740 0.150391 0.151042 0.151693 0.152344 0.152995 0.153646 0.154297 0.154948 0.155599 0.156250 0.156901 0.157552 0.158203 0.158854 0.159505 0.160156 0.160807 0.161458 0.162109 0.162760 0.163411 0.164062 0.164714 0.165365 0.166016 0.166667 0.167318 0.167969 0.168620 0.169271 0.169922 0.170573 0.171224 0.171875 0.172526 0.173177 0.173828 0.174479 0.175130 0.175781 0.176432 0.177083 0.177734 0.178385 0.179036 0.179688 0.180339 0.180990 0.181641 0.182292 0.182943 0.183594 0.184245 0.184896 0.185547 0.186198 0.186849 0.187500 0.188151 0.188802 0.189453 0.190104 0.190755 0.191406 0.192057 0.192708 0.193359 0.194010 0.194661 0.195312 0.195964 0.196615 0.197266 0.197917 0.198568 0.199219 0.199870 0.200521 0.201172 0.201823 0.202474 0.203125 0.203776 0.204427 0.205078 0.205729 0.206380 0.207031 0.207682 0.208333 0.208984 0.209635 0.210286 0.210938 0.211589 0.212240 0.212891 0.213542 0.214193 0.214844 0.215495 0.216146 0.216797 0.217448 0.218099 0.218750 0.219401 0.220052 0.220703 0.221354 0.222005 0.222656 0.223307 0.223958 0.224609 0.225260 0.225911 0.226562 0.227214 0.227865 0.228516 0.229167 0.229818 0.230469 0.231120 0.231771 0.232422 0.233073 0.233724 0.234375 0.235026 0.235677
       0.33362        0.33362        0.33362        0.33362        0.33362        0.33362        0.33362        0.33362        0.33362        0.33362        0.33362        0.33362        0.33362        0.33362        0.33362        0.33362        0.33362        0.33362        0.33362        0.33362        0.33362        0.33362        0.33362        0.33362        0.33362        0.33362        0.33362        0.33362        0.33362        0.33362        0.33362        0.33362        0.33362        0.33362        0.33362        0.33362        0.33362        0.33362        0.33362        0.33362        0.33362        0.33362        0.33362        0.33362        0.33362        0.33362        0.33362        0.33362        0.33362        0.33362        0.33362        0.45204        0.62817        0.41686       -0.14672       -0.43388       -0.57748       -0.66919       -0.73782       -0.75863       -0.88886       -0.93044       -0.74709       -0.92897       -0.87969       -1.02399       -1.08938       -0.97234       -0.93605       -0.85909       -0.79960       -0.71293       -0.61945       -0.50247       -0.43111       -0.23300       -0.10611       -0.02042        0.18575        0.21575        0.29425        0.36335        0.39780        0.48265        0.55696        0.58342        0.55811        0.48948        0.53833        0.48913        0.41249        0.32596        0.18457        0.17100        0.09596       -0.04282       -0.09659       -0.06896        0.02993       -0.01277        0.02704        0.02154        0.16700        0.19740        0.38600        0.45511        0.56064        0.68537        0.75940        0.72429        0.66543        0.62620        0.55714        0.47142        0.36498        0.27624        0.18767        0.18438        0.08763        0.02862        0.00612        0.02884        0.07727        0.27228        0.38096        0.49008        0.54510        0.58947        0.67155        0.63366        0.63562        0.62450        0.57767        0.47987        0.28414        0.25475        0.21009        0.11360        0.05426        0.10746        0.13297        0.26028        0.33009        0.41081        0.47343        0.54736        0.63792        0.58004        0.51195        0.49575        0.37764        0.21894        0.23368        0.16685        0.13980        0.16188        0.23659        0.24989        0.33693        0.42650        0.43144        0.50890        0.48591        0.45428        0.45318        0.35843        0.31072        0.25652        0.22001        0.20939        0.20020        0.21729        0.30588        0.40826        0.43316        0.47527        0.54453        0.46384        0.42738        0.37362        0.31506        0.22836        0.23868        0.24417        0.26411        0.29759        0.32029        0.41751        0.49768        0.47020        0.44849        0.36264        0.36665        0.35670        0.21673        0.23161        0.25080        0.28074        0.34256        0.35566        0.40033        0.43778        0.42961        0.37968        0.34856        0.31094        0.32350        0.27585        0.24798        0.25974        0.31679        0.39204        0.40001        0.39523        0.38446        0.40193        0.35607        0.28172        0.27346        0.28948        0.32206        0.37000        0.35991        0.40415        0.34122        0.37345        0.37414        0.33844        0.31553        0.26936        0.27841        0.32761        0.31870        0.32787        0.33527        0.36187        0.31931        0.34255        0.28547        0.30473        0.25941        0.28175        0.29634        0.33157        0.38197        0.36087        0.34155        0.29837        0.26658        0.26105        0.29904        0.28475        0.31962        0.35233        0.37150        0.33220        0.30652        0.29810        0.29184        0.29136        0.29060        0.29908        0.33008        0.33887        0.31906        0.27811        0.32848        0.31406        0.28506        0.31727        0.32504        0.32516        0.34276        0.29983        0.31211        0.27464        0.28413        0.29262        0.31435        0.39088        0.31991        0.36580        0.29967        0.30076        0.30559        0.30748        0.30321        0.28894        0.29678        0.32541        0.32711        0.29469        0.29806        0.28414        0.28338        0.29593        0.32111        0.32172        0.34722        0.35305        0.30050        0.29310        0.28545        0.23711        0.31873        0.33439        0.29818        0.28193        0.26502        0.29485        0.32014        0.32594        0.28780        0.29190        0.31881        0.30604        0.22904        0.29101        0.28860        0.27621        0.32476        0.28199        0.35263        0.37995        0.27534        0.26698        0.24877        0.26189        0.28056        0.27065        0.28006        0.24502        0.23831        0.30488        0.29798        0.27243        0.25413        0.35080        0.29888        0.26362        0.23170        0.21035        0.27647        0.22944        0.22070        0.29878        0.35893        0.25265        0.24494        0.24676        0.22401        0.21957        0.29780        0.27325        0.23468        0.16718        0.26495        0.32096        0.22220        0.01399        0.13646       -0.39855       -0.65527
2.989104 2.951774 2.914685 2.877836 2.841229 2.804862 2.768736 2.732851 2.697207 2.661803 2.626640 2.591718 2.557037 2.522597 2.488397 2.454439 2.420721 2.387244 2.354007 2.321012 2.288257 2.255743 2.223470 2.191438 2.159646 2.128096 2.096786 2.065717 2.034889 2.004301 1.973954 1.943849 1.913983 1.884359 1.854976 1.825833 1.796931 1.768270 1.739850 1.711671 1.683732 1.656034 1.628577 1.601361 1.574385 1.547651 1.521157 1.494904 1.468892 1.443120 1.417590 1.471586 1.596074 1.552064 0.902266 0.625448 0.439519 0.379911 0.300904 0.225962 0.157358 -0.035882 0.182178 0.043412 -0.055904 -0.090962 -0.238387 -0.171154 -0.093817 -0.096994 -0.085708 0.011463 0.028867 0.204850 0.122407 0.328362 0.432387 0.461774 0.674993 0.668519 0.668937 0.808204 0.778468 0.790228 0.910098 0.860245 0.898579 0.724100 0.818968 0.823386 0.639913 0.585586 0.443761 0.415509 0.354845 0.198738 0.134006 0.098560 0.221447 0.131538 0.204987 0.093424 0.269005 0.259984 0.435106 0.402403 0.592583 0.618649 0.737618 0.746418 0.620081 0.605402 0.484931 0.459369 0.298915 0.293600 0.117253 0.167682 0.019860 -0.010220 -0.046351 -0.070234 -0.027682 0.041800 0.253388 0.303988 0.377405 0.332897 0.455716 0.480648 0.466953 0.463607 0.367507 0.384972 0.143085 0.100841 0.075131 -0.013615 -0.131106 -0.031466 -0.088994 0.025926 0.114052 0.161146 0.255172 0.241690 0.363828 0.458495 0.346331 0.372716 0.299855 0.143748 0.071719 0.073383 0.035184 0.029851 0.065632 0.116381 0.120143 0.250942 0.248829 0.283311 0.345453 0.245558 0.255066 0.217148 0.112847 0.075199 0.037929 0.033194 0.009793 0.002882 0.036737 0.162418 0.185887 0.199210 0.307282 0.213901 0.225887 0.121643 0.114461 0.004345 -0.015707 0.003114 0.003036 0.043404 0.028867 0.093291 0.189219 0.196757 0.206525 0.123068 0.094219 0.099577 0.041519 -0.073354 -0.006916 0.015675 0.037563 0.052452 0.096863 0.157431 0.133877 0.161512 0.068533 0.067633 0.045043 0.056186 0.001678 -0.010476 0.006460 0.072848 0.117437 0.133511 0.092300 0.135009 0.116355 0.038319 0.007161 0.009417 0.023380 0.076465 0.089174 0.103561 0.104748 0.072842 0.106910 0.080014 0.059066 0.040256 -0.026532 0.031568 0.069692 0.037116 0.062492 0.026629 0.076064 0.074131 0.032644 0.019867 0.024453 -0.034072 0.015627 0.019737 0.050389 0.106926 0.073204 0.041993 0.001840 -0.028648 -0.015339 0.018592 0.008395 0.035346 0.064601 0.070523 0.002056 0.030283 -0.021266 0.010477 -0.009539 -0.018891 0.014302 0.038963 0.012407 0.009398 -0.014244 0.025757 -0.004654 -0.006922 0.020772 0.026912 0.034965 -0.003760 0.015513 -0.007646 -0.048463 -0.004521 -0.005566 0.025756 0.093709 0.007505 0.049674 -0.006428 0.021622 -0.015179 0.023742 0.010309 -0.000731 -0.012417 0.036075 0.020218 0.012004 0.016222 -0.030764 -0.005984 -0.006992 0.020092 0.031078 0.055695 0.036052 0.016444 0.011941 -0.022781 -0.034857 0.007883 0.059059 -0.010569 0.007936 -0.032008 -0.001662 0.022530 0.033676 0.002853 0.016961 0.020219 0.010582 -0.060911 0.002355 0.018463 -0.013490 0.039790 0.025553 0.093548 0.096415 0.024569 0.019912 -0.022348 -0.006315 0.080501 -0.025180 0.036336 -0.021883 -0.037082 0.070513 0.034581 -0.031583 -0.036069 0.056124 -0.006715 -0.055898 -0.070441 -0.072030 0.010175 -0.061293 -0.071544 0.040390 0.082504 -0.051408 0.020760 0.039577 0.022903 -0.027339 0.111323 0.119430 0.150584 0.065000 0.237755 0.284170 0.169620 -0.108339 0.126355 -0.581365
0.072396 0.073047 0.075000 0.078254 0.082809 0.088662 0.095812 0.104255 0.113988 0.125006 0.137301 0.150866 0.165690 0.181761 0.199063 0.217578 0.237283 0.258153 0.280156 0.303257 0.327415 0.352583 0.378707 0.405727 0.433573 0.462169 0.491430 0.521261 0.551557 0.582204 0.613078 0.644041 0.674948 0.705639 0.735944 0.765682 0.794660 0.822674 0.849510 0.874944 0.898740 0.920658 0.940447 0.957852 0.972613 0.984468 0.993154 0.998411 0.999984 0.997623 0.991091 0.980163 0.964633 0.944315 0.919049 0.888704 0.853181 0.812420 0.766402 0.715156 0.658759 0.597342 0.531096 0.460268 0.385173 0.306190 0.223765 0.138412 0.050712 0.038686 0.129069 0.219664 0.309642 0.398121 0.484179 0.566858 0.645177 0.718142 0.784759 0.844050 0.895067 0.936908 0.968735 0.989791 0.999422 0.997089 0.982391 0.955079 0.915074 0.862480 0.797599 0.720937 0.633213 0.535361 0.428532 0.314087 0.193586 0.068777 0.058425 0.185964 0.311674 0.433308 0.548586 0.655232 0.751025 0.833847 0.901739 0.952947 0.985982 0.999662 0.993167 0.966072 0.918392 0.850599 0.763649 0.658980 0.538514 0.404633 0.260149 0.108258 0.047523 0.203428 0.355530 0.499836 0.632396 0.749417 0.847377 0.923143 0.974083 0.998176 0.994102 0.961321 0.900136 0.811724 0.698149 0.562341 0.408048 0.239751 0.062557 0.117945 0.295847 0.465120 0.619812 0.754270 0.863357 0.942668 0.988725 0.999161 0.972857 0.910049 0.812381 0.682911 0.526052 0.347457 0.153845 0.047230 0.247654 0.439081 0.613272 0.762471 0.879760 0.959408 0.997185 0.990618 0.939185 0.844423 0.709946 0.541357 0.346064 0.132995 0.087785 0.305527 0.509317 0.688630 0.833884 0.936994 0.991851 0.994734 0.944605 0.843276 0.695421 0.508426 0.292082 0.058110 0.180431 0.409856 0.616644 0.788247 0.913881 0.985251 0.997156 0.947924 0.839652 0.678212 0.473011 0.236516 0.016453 0.269614 0.506254 0.710342 0.867641 0.966749 0.999990 0.964080 0.860516 0.695631 0.480312 0.229358 0.039470 0.306662 0.552361 0.757849 0.907010 0.987663 0.992629 0.920464 0.775763 0.568988 0.315819 0.036053 0.247891 0.512742 0.736276 0.899241 0.987071 0.991285 0.910413 0.750340 0.524024 0.250557 0.046350 0.340353 0.604807 0.815193 0.951447 0.999977 0.955126 0.819952 0.606189 0.333386 0.027214 0.282852 0.566334 0.794779 0.944655 0.999887 0.953709 0.809630 0.581362 0.291675 0.029752 0.349268 0.632776 0.849366 0.974780 0.994260 0.904426 0.713978 0.443042 0.121208 0.215575 0.528958 0.782561 0.946261 0.999892 0.935897 0.760562 0.493626 0.166247 0.182485 0.510146 0.776129 0.946741 0.999610 0.926804 0.736204 0.450895 0.106584 0.252728 0.580293 0.832712 0.975765 0.989229 0.869940 0.632642 0.308423 0.059161 0.419805 0.723303 0.926582 0.999971 0.931735 0.730190 0.422978 0.053529 0.324918 0.656910 0.892925 0.996913 0.951995 0.763478 0.458553 0.082653 0.307131 0.650624 0.893887 0.997822 0.944694 0.741437 0.419100 0.028386 0.368113 0.705871 0.928974 0.999546 0.904448 0.658022 0.300275 0.109305 0.501508 0.809004 0.978049 0.978069 0.807525 0.494799 0.093820 0.324981 0.686928 0.926428 0.999080 0.890177 0.618051 0.231360 0.199278 0.593995 0.878501 0.998196 0.928947 0.682325 0.304119 0.133814 0.546979 0.854501 0.995098 0.939581 0.697314 0.315122 0.131403 0.552581 0.862625 0.997258 0.927356 0.665664 0.264982 0.192122 0.610062 0.900213 0.999889 0.886249 0.581971 0.151231 0.313462 0.710904
1.000000 1.000000 1.000000 1.000000 1.000000 1.000000 1.000000 1.000000 1.000000 1.000000 1.000000 1.000000 1.000000 1.000000 1.000000 1.000000 1.000000 1.000000 1.000000 1.000000 1.000000 1.000000 1.000000 1.000000 1.000000 1.000000 1.000000 1.000000 1.000000 1.000000 1.000000 1.000000 1.000000 1.000000 1.000000 1.000000 1.000000 1.000000 1.000000 1.000000 1.000000 1.000000 1.000000 1.000000 1.000000 1.000000 1.000000 1.000000 1.000000 1.000000 1.000000 1.000000 0.938680 0.938680 0.938680 0.938680 0.938680 0.938680 0.938680 0.938680 0.938680 0.938680 0.938680 0.938680 0.938680 0.938680 0.938680 0.938680 0.938680 0.938680 0.938680 0.938680 0.938680 0.938680 0.938680 0.938680 0.938680 0.938680 0.938680 0.938680 0.938680 0.938680 0.938680 0.938680 0.938680 0.925614 0.927046 0.929692 0.930612 0.930544 0.930133 0.929892 0.930173 0.931521 0.933260 0.949537 0.951773 0.952342 0.953476 0.952252 0.954681 0.952959 0.957495 0.968156 0.967428 0.968308 0.962496 0.963435 0.962998 0.962386 0.962771 0.962578 0.961210 0.959592 0.958244 0.957879 0.957522 0.959116 0.959490 0.959404 0.959818 0.959778 0.959662 0.957146 0.955036 0.956283 0.957646 0.956569 0.962071 0.962025 0.969118 0.969107 0.969812 0.970554 0.970741 0.970896 0.964922 0.962377 0.958920 0.944871 0.935408 0.932258 0.935851 0.940271 0.937279 0.931558 0.930390 0.927114 0.919546 0.919111 0.914766 0.914558 0.904934 0.902054 0.894706 0.895247 0.896542 0.897556 0.895503 0.884357 0.876091 0.876874 0.880253 0.874102 0.871433 0.887678 0.884105 0.887273 0.890852 0.893150 0.899741 0.887544 0.882404 0.879094 0.874654 0.873482 0.875084 0.878662 0.880557 0.881649 0.880257 0.875409 0.866031 0.871074 0.876164 0.872385 0.871825 0.872366 0.871942 0.869370 0.865310 0.868690 0.867039 0.862857 0.862152 0.861045 0.861030 0.859892 0.859859 0.861275 0.863686 0.861462 0.856472 0.839989 0.846672 0.839886 0.841737 0.840511 0.847650 0.835169 0.831005 0.820235 0.816590 0.820345 0.827537 0.793949 0.791647 0.791582 0.789635 0.793104 0.798935 0.793689 0.789104 0.782544 0.788170 0.797713 0.795147 0.790633 0.790450 0.792889 0.761081 0.769161 0.767631 0.760516 0.769300 0.752970 0.753159 0.750362 0.752970 0.734482 0.724713 0.687412 0.673290 0.682861 0.685535 0.660968 0.652140 0.652892 0.644341 0.604594 0.589161 0.571951 0.573424 0.579992 0.594599 0.596116 0.561845 0.579390 0.561176 0.561070 0.569143 0.538071 0.523928 0.509664 0.489286 0.500944 0.509455 0.524344 0.533322 0.533697 0.532204 0.528971 0.521527 0.536088 0.521356 0.499613 0.509929 0.484136 0.462531 0.479434 0.461797 0.461460 0.469266 0.446934 0.428149 0.454384 0.471504 0.477197 0.473416 0.475746 0.434611 0.467218 0.431909 0.438574 0.447933 0.440761 0.408992 0.419398 0.392299 0.399219 0.385441 0.383414 0.409666 0.388677 0.380998 0.390085 0.406726 0.342832 0.388080 0.413288 0.388007 0.410656 0.366400 0.364546 0.322324 0.342866 0.322456 0.321229 0.330604 0.256078 0.247435 0.240112 0.210958 0.206389 0.212467 0.201466 0.173001 0.129845 0.097927 0.084209 0.103407 0.112012 0.092936 0.090615 0.090615 0.090615 0.090615 0.088985 0.088985 0.088985 0.088985 0.088985 0.088985 0.088985 0.088985 0.088985 0.088985 0.088985 0.088985 0.088985 0.088985 0.046952 0.046952 0.046952 0.046952 0.046952 0.046952 0.046952 0.046952 0.046952 0.046952 0.046952 0.046952
0.000000 0.000000 0.000000 0.000000 0.000000 0.000000 0.000000 0.000000 0.000000 0.000000 0.000000 0.000000 0.000000 0.000000 0.000000 0.000000 0.000000 0.000000 0.000000 0.000000 0.000000 0.000000 0.000000 0.000000 0.000000 0.000000 0.000000 0.000000 0.000000 0.000000 0.000000 0.000000 0.000000 0.000000 0.000000 0.000000 0.000000 0.000000 0.000000 0.000000 0.000000 0.000000 0.000000 0.000000 0.000000 0.000000 0.000000 0.000000 0.000000 0.000000 0.000000 0.000000 0.209657 0.209657 0.209657 0.209657 0.209657 0.209657 0.209657 0.209657 0.209657 0.209657 0.209657 0.209657 0.209657 0.209657 0.209657 0.209657 0.209657 0.209657 0.209657 0.209657 0.209657 0.209657 0.209657 0.209657 0.209657 0.209657 0.209657 0.209657 0.209657 0.209657 0.209657 0.209657 0.209657 0.244339 0.244339 0.244339 0.244339 0.244339 0.244339 0.244339 0.244339 0.244339 0.244339 0.244339 0.244339 0.244339 0.244339 0.244339 0.244339 0.244339 0.244339 0.244339 0.244339 0.244339 0.244339 0.244339 0.244339 0.244339 0.260378 0.260378 0.260378 0.260378 0.260378 0.260378 0.260378 0.260378 0.260378 0.260378 0.260378 0.260378 0.260378 0.260378 0.260378 0.260378 0.260378 0.260378 0.260378 0.260378 0.269680 0.269680 0.269680 0.269680 0.269680 0.269680 0.269680 0.269680 0.269680 0.269680 0.269680 0.269680 0.269680 0.269680 0.269680 0.269680 0.269680 0.269680 0.269680 0.269680 0.269680 0.269680 0.269680 0.269680 0.269680 0.269680 0.269680 0.269680 0.269680 0.269680 0.269680 0.269680 0.269680 0.280056 0.280056 0.280056 0.280056 0.280056 0.280056 0.280056 0.280056 0.280056 0.280056 0.280056 0.280056 0.280056 0.280056 0.280056 0.280056 0.280056 0.280056 0.280056 0.280056 0.280056 0.280056 0.280056 0.280056 0.280056 0.280056 0.280056 0.285714 0.285714 0.285714 0.285714 0.285714 0.285714 0.285714 0.285714 0.285714 0.285714 0.285714 0.285714 0.274721 0.274721 0.274721 0.274721 0.274721 0.274721 0.274721 0.274721 0.274721 0.274721 0.274721 0.274721 0.280056 0.280056 0.280056 0.280056 0.280056 0.280056 0.280056 0.280056 0.280056 0.280056 0.280056 0.274721 0.274721 0.274721 0.274721 0.274721 0.274721 0.274721 0.274721 0.274721 0.274721 0.274721 0.280056 0.280056 0.280056 0.280056 0.280056 0.280056 0.280056 0.280056 0.280056 0.280056 0.285714 0.285714 0.285714 0.285714 0.285714 0.285714 0.285714 0.285714 0.285714 0.280056 0.280056 0.280056 0.280056 0.280056 0.280056 0.280056 0.280056 0.280056 0.274721 0.274721 0.274721 0.274721 0.274721 0.274721 0.274721 0.274721 0.274721 0.269680 0.269680 0.269680 0.269680 0.269680 0.269680 0.269680 0.269680 0.269680 0.264906 0.264906 0.264906 0.264906 0.264906 0.264906 0.264906 0.264906 0.264906 0.274721 0.274721 0.274721 0.274721 0.274721 0.274721 0.274721 0.274721 0.269680 0.269680 0.269680 0.269680 0.269680 0.269680 0.269680 0.269680 0.285714 0.285714 0.285714 0.285714 0.285714 0.285714 0.285714 0.264906 0.264906 0.264906 0.264906 0.264906 0.264906 0.264906 0.264906 0.274721 0.274721 0.274721 0.274721 0.274721 0.274721 0.274721 0.256074 0.256074 0.256074 0.256074 0.256074 0.256074 0.256074 0.256074 0.264906 0.264906 0.264906 0.264906 0.264906 0.264906 0.264906 0.264906 0.264906 0.264906 0.264906 0.264906 0.264906 0.264906 0.280056 0.280056 0.280056 0.280056 0.280056 0.280056 0.280056 0.280056 0.280056 0.280056 0.280056 0.280056
