# Output from CTFFind version 4.1.9, run on 2019-11-03 19:48:55
# Input file: stack16_bm3d_averaged_1_5.25_0_2000_half.mrc ; Number of micrographs: 1
# Pixel size: 3.000 Angstroms ; acceleration voltage: 300.0 keV ; spherical aberration: 0.00 mm ; amplitude contrast: 0.07
# Box size: 512 pixels ; min. res.: 30.0 Angstroms ; max. res.: 5.0 Angstroms ; min. def.: 5000.0 um; max. def. 50000.0 um; num. frames averaged: 1
# 6 lines per micrograph: #1 - spatial frequency (1/Angstroms); #2 - 1D rotational average of spectrum (assuming no astigmatism); #3 - 1D rotational average of spectrum; #4 - CTF fit; #5 - cross-correlation between spectrum and CTF fit; #6 - 2sigma of expected cross correlation of noise
0.000000 0.000651 0.001302 0.001953 0.002604 0.003255 0.003906 0.004557 0.005208 0.005859 0.006510 0.007161 0.007812 0.008464 0.009115 0.009766 0.010417 0.011068 0.011719 0.012370 0.013021 0.013672 0.014323 0.014974 0.015625 0.016276 0.016927 0.017578 0.018229 0.018880 0.019531 0.020182 0.020833 0.021484 0.022135 0.022786 0.023438 0.024089 0.024740 0.025391 0.026042 0.026693 0.027344 0.027995 0.028646 0.029297 0.029948 0.030599 0.031250 0.031901 0.032552 0.033203 0.033854 0.034505 0.035156 0.035807 0.036458 0.037109 0.037760 0.038411 0.039062 0.039714 0.040365 0.041016 0.041667 0.042318 0.042969 0.043620 0.044271 0.044922 0.045573 0.046224 0.046875 0.047526 0.048177 0.048828 0.049479 0.050130 0.050781 0.051432 0.052083 0.052734 0.053385 0.054036 0.054688 0.055339 0.055990 0.056641 0.057292 0.057943 0.058594 0.059245 0.059896 0.060547 0.061198 0.061849 0.062500 0.063151 0.063802 0.064453 0.065104 0.065755 0.066406 0.067057 0.067708 0.068359 0.069010 0.069661 0.070312 0.070964 0.071615 0.072266 0.072917 0.073568 0.074219 0.074870 0.075521 0.076172 0.076823 0.077474 0.078125 0.078776 0.079427 0.080078 0.080729 0.081380 0.082031 0.082682 0.083333 0.083984 0.084635 0.085286 0.085938 0.086589 0.087240 0.087891 0.088542 0.089193 0.089844 0.090495 0.091146 0.091797 0.092448 0.093099 0.093750 0.094401 0.095052 0.095703 0.096354 0.097005 0.097656 0.098307 0.098958 0.099609 0.100260 0.100911 0.101562 0.102214 0.102865 0.103516 0.104167 0.104818 0.105469 0.106120 0.106771 0.107422 0.108073 0.108724 0.109375 0.110026 0.110677 0.111328 0.111979 0.112630 0.113281 0.113932 0.114583 0.115234 0.115885 0.116536 0.117188 0.117839 0.118490 0.119141 0.119792 0.120443 0.121094 0.121745 0.122396 0.123047 0.123698 0.124349 0.125000 0.125651 0.126302 0.126953 0.127604 0.128255 0.128906 0.129557 0.130208 0.130859 0.131510 0.132161 0.132812 0.133464 0.134115 0.134766 0.135417 0.136068 0.136719 0.137370 0.138021 0.138672 0.139323 0.139974 0.140625 0.141276 0.141927 0.142578 0.143229 0.143880 0.144531 0.145182 0.145833 0.146484 0.147135 0.147786 0.148438 0.149089 0.149740 0.150391 0.151042 0.151693 0.152344 0.152995 0.153646 0.154297 0.154948 0.155599 0.156250 0.156901 0.157552 0.158203 0.158854 0.159505 0.160156 0.160807 0.161458 0.162109 0.162760 0.163411 0.164062 0.164714 0.165365 0.166016 0.166667 0.167318 0.167969 0.168620 0.169271 0.169922 0.170573 0.171224 0.171875 0.172526 0.173177 0.173828 0.174479 0.175130 0.175781 0.176432 0.177083 0.177734 0.178385 0.179036 0.179688 0.180339 0.180990 0.181641 0.182292 0.182943 0.183594 0.184245 0.184896 0.185547 0.186198 0.186849 0.187500 0.188151 0.188802 0.189453 0.190104 0.190755 0.191406 0.192057 0.192708 0.193359 0.194010 0.194661 0.195312 0.195964 0.196615 0.197266 0.197917 0.198568 0.199219 0.199870 0.200521 0.201172 0.201823 0.202474 0.203125 0.203776 0.204427 0.205078 0.205729 0.206380 0.207031 0.207682 0.208333 0.208984 0.209635 0.210286 0.210938 0.211589 0.212240 0.212891 0.213542 0.214193 0.214844 0.215495 0.216146 0.216797 0.217448 0.218099 0.218750 0.219401 0.220052 0.220703 0.221354 0.222005 0.222656 0.223307 0.223958 0.224609 0.225260 0.225911 0.226562 0.227214 0.227865 0.228516 0.229167 0.229818 0.230469 0.231120 0.231771 0.232422 0.233073 0.233724 0.234375 0.235026 0.235677
       0.33570        0.33570        0.33570        0.33570        0.33570        0.33570        0.33570        0.33570        0.33570        0.33570        0.33570        0.33570        0.33570        0.33570        0.33570        0.33570        0.33570        0.33570        0.33570        0.33570        0.33570        0.33570        0.33570        0.33570        0.33570        0.33570        0.33570        0.33570        0.33570        0.33570        0.33570        0.33570        0.33570        0.33570        0.33570        0.33570        0.33570        0.33570        0.33570        0.33570        0.33570        0.33570        0.33570        0.33570        0.33570        0.33570        0.33570        0.33570        0.33570        0.33570        0.33570        0.41882        0.55640        0.34257       -0.20779       -0.45874       -0.55624       -0.65372       -0.72561       -0.73897       -0.83894       -0.90490       -0.70078       -0.85947       -0.83703       -0.98608       -1.02180       -0.90375       -0.86267       -0.81305       -0.73491       -0.66383       -0.57637       -0.48104       -0.41321       -0.18539       -0.08124        0.01460        0.24069        0.24572        0.30269        0.36607        0.39253        0.50299        0.53264        0.56889        0.52942        0.46826        0.50493        0.50983        0.43092        0.32189        0.19880        0.16891        0.10188       -0.01340       -0.02870       -0.03645        0.03850        0.00198        0.05781        0.03339        0.14807        0.18596        0.39913        0.45399        0.54719        0.65415        0.68863        0.71171        0.63178        0.60993        0.52822        0.43239        0.37916        0.26172        0.20532        0.19658        0.08639        0.08887        0.07607        0.06961        0.08488        0.29721        0.40578        0.50946        0.53134        0.57163        0.60791        0.58572        0.57559        0.57992        0.55992        0.45969        0.29156        0.25170        0.23385        0.12970        0.07654        0.14701        0.17766        0.26953        0.34571        0.41424        0.46635        0.52602        0.59760        0.54374        0.50538        0.48862        0.34917        0.25158        0.24169        0.16396        0.16566        0.20930        0.25568        0.26963        0.30919        0.41502        0.44553        0.49765        0.45032        0.44133        0.47386        0.37829        0.32016        0.27542        0.24297        0.21767        0.22064        0.23025        0.32613        0.42967        0.42038        0.48502        0.54731        0.43751        0.40745        0.35054        0.29772        0.25130        0.26464        0.26278        0.27957        0.32402        0.33648        0.41959        0.46596        0.43112        0.44721        0.35844        0.36978        0.34988        0.25326        0.23451        0.23332        0.30622        0.36622        0.36238        0.38480        0.42839        0.43035        0.36227        0.33258        0.31118        0.33964        0.29746        0.26708        0.26971        0.33794        0.35943        0.37312        0.38552        0.37603        0.40464        0.38647        0.30213        0.27836        0.30848        0.33631        0.35857        0.35257        0.39926        0.33381        0.36612        0.38501        0.32418        0.34481        0.30600        0.28861        0.33175        0.32834        0.31732        0.33532        0.35672        0.31774        0.33731        0.30576        0.30498        0.27961        0.30631        0.29954        0.32336        0.35973        0.35696        0.33869        0.29619        0.28238        0.27741        0.31846        0.29502        0.30519        0.35813        0.35573        0.33194        0.30333        0.29837        0.30483        0.26619        0.29278        0.30474        0.31910        0.35745        0.33238        0.28788        0.32299        0.31812        0.31059        0.34971        0.33624        0.30204        0.32696        0.28496        0.31669        0.28201        0.30134        0.28686        0.31266        0.35808        0.32624        0.34579        0.29801        0.30992        0.33118        0.32481        0.29875        0.29559        0.33058        0.31925        0.31510        0.30813        0.30785        0.29519        0.30058        0.31396        0.31656        0.33371        0.33445        0.33065        0.28548        0.27162        0.26311        0.26148        0.35291        0.30442        0.35062        0.28932        0.25651        0.27982        0.35232        0.29837        0.27681        0.28067        0.30664        0.28514        0.26740        0.30723        0.26774        0.26667        0.29673        0.31155        0.32846        0.31943        0.29260        0.26331        0.25594        0.25257        0.26004        0.28335        0.34655        0.27804        0.19832        0.29303        0.26721        0.30390        0.22991        0.30113        0.30458        0.31978        0.28088        0.26485        0.26582        0.23029        0.28583        0.33795        0.35457        0.23517        0.26813        0.21188        0.21505        0.20022        0.33151        0.24191        0.21381        0.13568        0.23156        0.28074        0.21011        0.16975        0.05448       -0.58341       -0.76412
3.113866 3.074707 3.035801 2.997148 2.958748 2.920602 2.882708 2.845067 2.807680 2.770545 2.733664 2.697035 2.660660 2.624537 2.588668 2.553051 2.517688 2.482577 2.447720 2.413116 2.378765 2.344667 2.310821 2.277229 2.243890 2.210804 2.177971 2.145391 2.113064 2.080990 2.049169 2.017601 1.986286 1.955225 1.924416 1.893860 1.863557 1.833508 1.803711 1.774167 1.744877 1.715839 1.687055 1.658523 1.630245 1.602219 1.574447 1.546928 1.519661 1.492648 1.465888 1.500272 1.592053 1.531521 0.848555 0.588029 0.447470 0.380121 0.286100 0.206411 0.167794 -0.056052 0.194227 0.058490 -0.038745 -0.122105 -0.243949 -0.152494 -0.067380 -0.094736 -0.083538 0.029195 0.024107 0.218267 0.103119 0.349620 0.458638 0.479546 0.758135 0.686070 0.686766 0.830519 0.798436 0.832685 0.920646 0.863293 0.895329 0.729372 0.803411 0.845949 0.678287 0.605638 0.441077 0.424778 0.350324 0.184310 0.181349 0.117028 0.211690 0.118810 0.212580 0.107492 0.224691 0.235202 0.454417 0.412692 0.588660 0.627102 0.666475 0.730432 0.622284 0.602233 0.470443 0.418997 0.304289 0.272298 0.104673 0.164753 -0.020360 0.039389 -0.034438 -0.038239 -0.039449 0.038019 0.286203 0.302269 0.380077 0.324905 0.405220 0.417084 0.444726 0.425509 0.367835 0.351191 0.138167 0.089724 0.067583 -0.005942 -0.150298 -0.036933 -0.068414 0.043947 0.092760 0.168010 0.236477 0.244010 0.335895 0.422452 0.312270 0.373395 0.256656 0.142067 0.069184 0.051583 0.006135 0.043147 0.074288 0.108165 0.119443 0.188212 0.244923 0.310628 0.295723 0.231912 0.263798 0.232491 0.114178 0.081495 0.047263 0.036425 0.008468 -0.000503 0.041332 0.175146 0.191852 0.199340 0.311887 0.195959 0.208201 0.088380 0.077301 -0.003658 -0.004983 0.005657 0.001951 0.042658 0.053635 0.094855 0.159498 0.146915 0.225208 0.128222 0.078856 0.104808 0.049421 -0.062866 -0.025647 0.016160 0.055773 0.074993 0.081247 0.157079 0.129276 0.151822 0.038720 0.057731 0.047640 0.050451 0.022493 -0.021498 0.037714 0.044712 0.086046 0.110404 0.094267 0.107171 0.127450 0.071787 0.010783 0.000238 0.033965 0.081937 0.062450 0.102493 0.097004 0.053376 0.112868 0.069734 0.041625 0.080692 -0.021398 0.022851 0.060894 0.038506 0.042087 0.049683 0.069372 0.052841 0.057958 0.011041 0.019281 -0.005789 0.041258 0.001383 0.049542 0.069146 0.069270 0.037473 -0.013730 -0.011086 -0.015713 0.030625 -0.003164 0.014486 0.068525 0.058758 -0.010878 0.010149 -0.011154 0.010442 -0.044780 -0.010929 -0.004021 0.028746 0.045093 0.016606 -0.021751 0.007067 0.000137 0.001527 0.043775 0.013116 -0.013492 0.044929 -0.040037 -0.014468 -0.048107 -0.013650 -0.034854 0.016222 0.048755 0.002691 0.006843 -0.005932 0.006785 0.019200 0.026219 -0.011022 -0.003834 0.019826 0.042985 0.010144 0.011057 0.044394 -0.010598 0.000319 0.025507 0.004834 0.072935 0.056612 0.029415 0.002944 -0.007757 -0.033546 -0.000142 0.076608 -0.003008 0.074406 -0.019309 -0.023729 -0.017757 0.091715 -0.007617 -0.009756 0.010681 0.040005 0.006548 0.006014 0.030638 0.004599 0.006570 0.020632 0.065524 0.082611 0.052468 0.031171 0.005830 -0.009790 -0.000149 -0.020075 0.002623 0.107079 -0.026561 -0.091864 0.057710 -0.016727 0.044026 -0.060089 0.018127 0.016567 0.017367 -0.003834 -0.022321 -0.011006 -0.074819 0.020880 0.051485 0.072095 -0.122530 0.000592 -0.045603 -0.016949 -0.116239 0.114811 0.016495 0.029977 -0.064673 0.181897 0.251044 0.156547 0.126122 0.059474 -0.724035
0.072396 0.073047 0.074998 0.078250 0.082801 0.088650 0.095795 0.104232 0.113958 0.124968 0.137255 0.150810 0.165624 0.181683 0.198973 0.217475 0.237166 0.258021 0.280009 0.303095 0.327237 0.352389 0.378496 0.405499 0.433328 0.461908 0.491153 0.520968 0.551249 0.581882 0.612743 0.643695 0.674592 0.705275 0.735575 0.765310 0.794289 0.822308 0.849151 0.874597 0.898410 0.920349 0.940164 0.957601 0.972400 0.984300 0.993037 0.998352 0.999990 0.997701 0.991247 0.980405 0.964968 0.944750 0.919590 0.889356 0.853950 0.813311 0.767419 0.716301 0.660034 0.598747 0.532628 0.461926 0.386952 0.308083 0.225764 0.140505 0.052887 0.036445 0.126781 0.217348 0.307320 0.395818 0.481921 0.564674 0.643097 0.716196 0.782980 0.842471 0.893719 0.935824 0.967944 0.989324 0.999304 0.997343 0.983035 0.956129 0.916538 0.864362 0.799894 0.723634 0.636293 0.538797 0.432288 0.318118 0.197842 0.073197 0.053910 0.181428 0.307196 0.428974 0.544484 0.651450 0.747652 0.830970 0.899439 0.951299 0.985051 0.999501 0.993816 0.967555 0.920713 0.853745 0.767585 0.663651 0.543842 0.410519 0.266474 0.114885 0.040749 0.196673 0.348970 0.493653 0.626771 0.744525 0.843384 0.920196 0.972309 0.997673 0.994933 0.963516 0.903680 0.816561 0.704177 0.569417 0.415983 0.248321 0.071503 0.108905 0.287018 0.456811 0.612333 0.747913 0.858389 0.939318 0.987173 0.999526 0.975192 0.914332 0.818514 0.690715 0.535273 0.357771 0.164869 0.035926 0.236536 0.428622 0.603945 0.754715 0.873965 0.955895 0.996182 0.992250 0.943459 0.851221 0.719024 0.552351 0.358502 0.146312 0.074223 0.292389 0.497281 0.678343 0.825931 0.931859 0.989887 0.996137 0.949396 0.851289 0.706303 0.521649 0.306962 0.073843 0.164729 0.395104 0.603738 0.778008 0.906998 0.982234 0.998293 0.953255 0.848953 0.690996 0.488550 0.253875 0.001636 0.251972 0.490247 0.697094 0.858123 0.961710 0.999891 0.969052 0.870333 0.709711 0.497743 0.248949 0.019107 0.287022 0.534933 0.744006 0.897896 0.984093 0.995011 0.928752 0.789437 0.587080 0.336972 0.058612 0.225751 0.492862 0.720377 0.888753 0.983009 0.994144 0.920099 0.766158 0.544713 0.274383 0.021455 0.316621 0.584431 0.800123 0.943196 0.999464 0.962565 0.834802 0.627184 0.358618 0.054310 0.256515 0.543394 0.777599 0.935088 0.999062 0.961890 0.826156 0.604679 0.319471 0.000326 0.321324 0.609344 0.833073 0.967552 0.997069 0.917160 0.735405 0.470918 0.152499 0.184385 0.501467 0.762033 0.935228 0.999836 0.947033 0.781767 0.522534 0.199496 0.148885 0.480329 0.753864 0.934950 0.999974 0.939498 0.759832 0.482615 0.142430 0.217357 0.550061 0.811709 0.966956 0.994016 0.887914 0.661592 0.344570 0.020677 0.384297 0.695787 0.911078 0.998885 0.945471 0.757023 0.459253 0.094114 0.285902 0.625254 0.873462 0.992759 0.964035 0.790153 0.496038 0.125362 0.265715 0.616971 0.873399 0.993945 0.958314 0.770662 0.459481 0.073573 0.325400 0.672675 0.910918 0.999867 0.923385 0.692682 0.345056 0.061869 0.459490 0.779732 0.966791 0.987069 0.835515 0.537133 0.143200 0.277269 0.649479 0.906176 0.999967 0.912363 0.657762 0.281513 0.147862 0.550938 0.852042 0.993596 0.947407 0.720646 0.355200 0.079696 0.500343 0.824610 0.988095 0.957189 0.736370 0.368088 0.075019 0.504183 0.832213 0.991333 0.947489 0.708044 0.321067 0.133915 0.561996 0.872639 0.998982 0.912573 0.630219 0.211230 0.254638 0.666187
1.000000 1.000000 1.000000 1.000000 1.000000 1.000000 1.000000 1.000000 1.000000 1.000000 1.000000 1.000000 1.000000 1.000000 1.000000 1.000000 1.000000 1.000000 1.000000 1.000000 1.000000 1.000000 1.000000 1.000000 1.000000 1.000000 1.000000 1.000000 1.000000 1.000000 1.000000 1.000000 1.000000 1.000000 1.000000 1.000000 1.000000 1.000000 1.000000 1.000000 1.000000 1.000000 1.000000 1.000000 1.000000 1.000000 1.000000 1.000000 1.000000 1.000000 1.000000 1.000000 0.928583 0.928583 0.928583 0.928583 0.928583 0.928583 0.928583 0.928583 0.928583 0.928583 0.928583 0.928583 0.928583 0.928583 0.928583 0.928583 0.928583 0.928583 0.928583 0.928583 0.928583 0.928583 0.928583 0.928583 0.928583 0.928583 0.928583 0.928583 0.928583 0.928583 0.928583 0.928583 0.928583 0.916508 0.914556 0.915655 0.916799 0.916713 0.916183 0.915839 0.916869 0.918381 0.920350 0.941949 0.944926 0.946033 0.947302 0.948763 0.951308 0.949399 0.957238 0.963954 0.963039 0.963954 0.957774 0.958999 0.958393 0.957676 0.959418 0.959436 0.957881 0.956062 0.954654 0.954188 0.953912 0.955614 0.956043 0.956298 0.956781 0.956711 0.956546 0.956484 0.956770 0.958963 0.958047 0.957136 0.962811 0.961334 0.963227 0.963191 0.963905 0.964616 0.964833 0.965021 0.961858 0.961599 0.961000 0.950498 0.943692 0.941628 0.943835 0.946792 0.944038 0.940065 0.941642 0.944364 0.943838 0.943350 0.934279 0.930978 0.909608 0.898696 0.886521 0.886830 0.889315 0.891226 0.888975 0.880746 0.871074 0.867242 0.867485 0.863784 0.857296 0.873853 0.868311 0.867494 0.871610 0.874554 0.879821 0.875483 0.871462 0.867234 0.863187 0.857982 0.860005 0.864623 0.868152 0.856017 0.848587 0.851864 0.841135 0.833292 0.840631 0.842721 0.839709 0.838586 0.839465 0.837982 0.830894 0.826466 0.829161 0.838284 0.837407 0.826041 0.822031 0.816773 0.816657 0.810929 0.813496 0.813113 0.809469 0.802501 0.816788 0.784021 0.808150 0.806267 0.792644 0.777665 0.765528 0.773707 0.785168 0.788024 0.781244 0.774074 0.773160 0.768952 0.743913 0.748486 0.755838 0.754229 0.742779 0.719175 0.726332 0.733936 0.727500 0.722487 0.725252 0.726552 0.696902 0.710009 0.713461 0.697835 0.712798 0.714343 0.705217 0.704724 0.707004 0.709099 0.702628 0.663714 0.665760 0.666132 0.656360 0.605442 0.604890 0.605177 0.561439 0.564888 0.529772 0.512727 0.512364 0.510378 0.554584 0.526401 0.509698 0.539414 0.482658 0.394105 0.408192 0.402525 0.412462 0.423093 0.398322 0.397187 0.387185 0.359466 0.368272 0.384549 0.397928 0.372862 0.372818 0.367911 0.337863 0.311434 0.322443 0.326159 0.347736 0.350128 0.326390 0.358575 0.391920 0.336113 0.310257 0.296546 0.276343 0.290818 0.295594 0.285104 0.248662 0.250392 0.210771 0.235438 0.221349 0.215231 0.229544 0.262643 0.256109 0.263630 0.278315 0.236480 0.250441 0.252358 0.241714 0.244116 0.255222 0.253059 0.239936 0.256318 0.222931 0.235878 0.213896 0.194318 0.257344 0.241490 0.211090 0.210064 0.216111 0.229572 0.199261 0.155422 0.132550 0.142826 0.078515 0.057730 0.057158 0.051123 0.006809 -0.021511 -0.037813 -0.075719 -0.075198 -0.073857 -0.037731 -0.068387 -0.040366 -0.027913 -0.027913 -0.027913 -0.027913 -0.027913 -0.027913 -0.027913 -0.027913 -0.027913 -0.027913 -0.027913 -0.027913 -0.027913 -0.027913 -0.005251 -0.005251 -0.005251 -0.005251 -0.005251 -0.005251 -0.005251 -0.005251 -0.005251 -0.005251 -0.005251 -0.005251
0.000000 0.000000 0.000000 0.000000 0.000000 0.000000 0.000000 0.000000 0.000000 0.000000 0.000000 0.000000 0.000000 0.000000 0.000000 0.000000 0.000000 0.000000 0.000000 0.000000 0.000000 0.000000 0.000000 0.000000 0.000000 7.000000 4.000000 0.000000 0.000000 0.000000 0.000000 0.000000 0.000000 0.000000 0.000000 0.000000 0.000000 0.000000 0.000000 0.000000 0.000000 0.000000 0.000000 0.000000 0.000000 0.000000 0.000000 0.000000 0.000000 0.000000 0.000000 0.000000 0.209657 0.209657 0.209657 0.209657 0.209657 0.209657 0.209657 0.209657 0.209657 0.209657 0.209657 0.209657 0.209657 0.209657 0.209657 0.209657 0.209657 0.209657 0.209657 0.209657 0.209657 0.209657 0.209657 0.209657 0.209657 0.209657 0.209657 0.209657 0.209657 0.209657 0.209657 0.209657 0.209657 0.244339 0.244339 0.244339 0.244339 0.244339 0.244339 0.244339 0.244339 0.244339 0.244339 0.244339 0.244339 0.244339 0.244339 0.244339 0.244339 0.244339 0.244339 0.244339 0.244339 0.244339 0.244339 0.244339 0.244339 0.244339 0.260378 0.260378 0.260378 0.260378 0.260378 0.260378 0.260378 0.260378 0.260378 0.260378 0.260378 0.260378 0.260378 0.260378 0.260378 0.260378 0.260378 0.260378 0.260378 0.260378 0.269680 0.269680 0.269680 0.269680 0.269680 0.269680 0.269680 0.269680 0.269680 0.269680 0.269680 0.269680 0.269680 0.269680 0.269680 0.269680 0.269680 0.269680 0.269680 0.269680 0.269680 0.269680 0.269680 0.269680 0.269680 0.269680 0.269680 0.269680 0.269680 0.269680 0.269680 0.269680 0.269680 0.280056 0.280056 0.280056 0.280056 0.280056 0.280056 0.280056 0.280056 0.280056 0.280056 0.280056 0.280056 0.280056 0.280056 0.280056 0.280056 0.280056 0.280056 0.280056 0.280056 0.280056 0.280056 0.280056 0.280056 0.280056 0.280056 0.280056 0.274721 0.274721 0.274721 0.274721 0.274721 0.274721 0.274721 0.274721 0.274721 0.274721 0.274721 0.274721 0.274721 0.285714 0.285714 0.285714 0.285714 0.285714 0.285714 0.285714 0.285714 0.285714 0.285714 0.285714 0.280056 0.280056 0.280056 0.280056 0.280056 0.280056 0.280056 0.280056 0.280056 0.280056 0.280056 0.274721 0.274721 0.274721 0.274721 0.274721 0.274721 0.274721 0.274721 0.274721 0.274721 0.274721 0.280056 0.280056 0.280056 0.280056 0.280056 0.280056 0.280056 0.280056 0.280056 0.280056 0.285714 0.285714 0.285714 0.285714 0.285714 0.285714 0.285714 0.285714 0.285714 0.269680 0.269680 0.269680 0.269680 0.269680 0.269680 0.269680 0.269680 0.269680 0.269680 0.274721 0.274721 0.274721 0.274721 0.274721 0.274721 0.274721 0.274721 0.274721 0.285714 0.285714 0.285714 0.285714 0.285714 0.285714 0.285714 0.285714 0.264906 0.264906 0.264906 0.264906 0.264906 0.264906 0.264906 0.264906 0.264906 0.274721 0.274721 0.274721 0.274721 0.274721 0.274721 0.274721 0.274721 0.269680 0.269680 0.269680 0.269680 0.269680 0.269680 0.269680 0.269680 0.269680 0.269680 0.269680 0.269680 0.269680 0.269680 0.269680 0.269680 0.280056 0.280056 0.280056 0.280056 0.280056 0.280056 0.280056 0.260378 0.260378 0.260378 0.260378 0.260378 0.260378 0.260378 0.260378 0.269680 0.269680 0.269680 0.269680 0.269680 0.269680 0.269680 0.264906 0.264906 0.264906 0.264906 0.264906 0.264906 0.264906 0.264906 0.264906 0.264906 0.264906 0.264906 0.264906 0.264906 0.260378 0.260378 0.260378 0.260378 0.260378 0.260378 0.260378 0.260378 0.260378 0.260378 0.260378 0.260378
