# Output from CTFFind version 4.1.9, run on 2019-11-03 19:01:37
# Input file: stack11_bm3d_averaged_1_2.75_0_750_half.mrc ; Number of micrographs: 1
# Pixel size: 3.000 Angstroms ; acceleration voltage: 300.0 keV ; spherical aberration: 0.00 mm ; amplitude contrast: 0.07
# Box size: 512 pixels ; min. res.: 30.0 Angstroms ; max. res.: 5.0 Angstroms ; min. def.: 5000.0 um; max. def. 50000.0 um; num. frames averaged: 1
# 6 lines per micrograph: #1 - spatial frequency (1/Angstroms); #2 - 1D rotational average of spectrum (assuming no astigmatism); #3 - 1D rotational average of spectrum; #4 - CTF fit; #5 - cross-correlation between spectrum and CTF fit; #6 - 2sigma of expected cross correlation of noise
0.000000 0.000651 0.001302 0.001953 0.002604 0.003255 0.003906 0.004557 0.005208 0.005859 0.006510 0.007161 0.007812 0.008464 0.009115 0.009766 0.010417 0.011068 0.011719 0.012370 0.013021 0.013672 0.014323 0.014974 0.015625 0.016276 0.016927 0.017578 0.018229 0.018880 0.019531 0.020182 0.020833 0.021484 0.022135 0.022786 0.023438 0.024089 0.024740 0.025391 0.026042 0.026693 0.027344 0.027995 0.028646 0.029297 0.029948 0.030599 0.031250 0.031901 0.032552 0.033203 0.033854 0.034505 0.035156 0.035807 0.036458 0.037109 0.037760 0.038411 0.039062 0.039714 0.040365 0.041016 0.041667 0.042318 0.042969 0.043620 0.044271 0.044922 0.045573 0.046224 0.046875 0.047526 0.048177 0.048828 0.049479 0.050130 0.050781 0.051432 0.052083 0.052734 0.053385 0.054036 0.054688 0.055339 0.055990 0.056641 0.057292 0.057943 0.058594 0.059245 0.059896 0.060547 0.061198 0.061849 0.062500 0.063151 0.063802 0.064453 0.065104 0.065755 0.066406 0.067057 0.067708 0.068359 0.069010 0.069661 0.070312 0.070964 0.071615 0.072266 0.072917 0.073568 0.074219 0.074870 0.075521 0.076172 0.076823 0.077474 0.078125 0.078776 0.079427 0.080078 0.080729 0.081380 0.082031 0.082682 0.083333 0.083984 0.084635 0.085286 0.085938 0.086589 0.087240 0.087891 0.088542 0.089193 0.089844 0.090495 0.091146 0.091797 0.092448 0.093099 0.093750 0.094401 0.095052 0.095703 0.096354 0.097005 0.097656 0.098307 0.098958 0.099609 0.100260 0.100911 0.101562 0.102214 0.102865 0.103516 0.104167 0.104818 0.105469 0.106120 0.106771 0.107422 0.108073 0.108724 0.109375 0.110026 0.110677 0.111328 0.111979 0.112630 0.113281 0.113932 0.114583 0.115234 0.115885 0.116536 0.117188 0.117839 0.118490 0.119141 0.119792 0.120443 0.121094 0.121745 0.122396 0.123047 0.123698 0.124349 0.125000 0.125651 0.126302 0.126953 0.127604 0.128255 0.128906 0.129557 0.130208 0.130859 0.131510 0.132161 0.132812 0.133464 0.134115 0.134766 0.135417 0.136068 0.136719 0.137370 0.138021 0.138672 0.139323 0.139974 0.140625 0.141276 0.141927 0.142578 0.143229 0.143880 0.144531 0.145182 0.145833 0.146484 0.147135 0.147786 0.148438 0.149089 0.149740 0.150391 0.151042 0.151693 0.152344 0.152995 0.153646 0.154297 0.154948 0.155599 0.156250 0.156901 0.157552 0.158203 0.158854 0.159505 0.160156 0.160807 0.161458 0.162109 0.162760 0.163411 0.164062 0.164714 0.165365 0.166016 0.166667 0.167318 0.167969 0.168620 0.169271 0.169922 0.170573 0.171224 0.171875 0.172526 0.173177 0.173828 0.174479 0.175130 0.175781 0.176432 0.177083 0.177734 0.178385 0.179036 0.179688 0.180339 0.180990 0.181641 0.182292 0.182943 0.183594 0.184245 0.184896 0.185547 0.186198 0.186849 0.187500 0.188151 0.188802 0.189453 0.190104 0.190755 0.191406 0.192057 0.192708 0.193359 0.194010 0.194661 0.195312 0.195964 0.196615 0.197266 0.197917 0.198568 0.199219 0.199870 0.200521 0.201172 0.201823 0.202474 0.203125 0.203776 0.204427 0.205078 0.205729 0.206380 0.207031 0.207682 0.208333 0.208984 0.209635 0.210286 0.210938 0.211589 0.212240 0.212891 0.213542 0.214193 0.214844 0.215495 0.216146 0.216797 0.217448 0.218099 0.218750 0.219401 0.220052 0.220703 0.221354 0.222005 0.222656 0.223307 0.223958 0.224609 0.225260 0.225911 0.226562 0.227214 0.227865 0.228516 0.229167 0.229818 0.230469 0.231120 0.231771 0.232422 0.233073 0.233724 0.234375 0.235026 0.235677
       0.31916        0.31916        0.31916        0.31916        0.31916        0.31916        0.31916        0.31916        0.31916        0.31916        0.31916        0.31916        0.31916        0.31916        0.31916        0.31916        0.31916        0.31916        0.31916        0.31916        0.31916        0.31916        0.31916        0.31916        0.31916        0.31916        0.31916        0.31916        0.31916        0.31916        0.31916        0.31916        0.31916        0.31916        0.31916        0.31916        0.31916        0.31916        0.31916        0.31916        0.31916        0.31916        0.31916        0.31916        0.31916        0.31916        0.31916        0.31916        0.31916        0.31916        0.31916        0.68108        0.86119        0.52455        0.09143       -0.05594       -0.42223       -0.20119       -0.29981       -0.11620       -0.07250       -0.11839       -0.06665       -0.20175       -0.22951       -0.24935       -0.32959       -0.33746       -0.47808       -0.38017       -0.45727       -0.44651       -0.42001       -0.45722       -0.51812       -0.55139       -0.58177       -0.60872       -0.56979       -0.40328       -0.37469       -0.32764       -0.30796       -0.20508       -0.19939        0.02398        0.09198        0.12279        0.23226        0.36783        0.44184        0.50998        0.56217        0.55935        0.56463        0.68910        0.80452        0.72462        0.73083        0.64781        0.56770        0.48178        0.41036        0.49676        0.38185        0.21824        0.08104        0.05679        0.03045       -0.05620       -0.02127        0.00020       -0.05377       -0.00530       -0.01562        0.22015        0.25370        0.28416        0.42191        0.44923        0.40427        0.55103        0.62083        0.67753        0.74540        0.68436        0.64951        0.68369        0.56903        0.48222        0.41441        0.29093        0.20934        0.15659        0.10948        0.04243        0.01548        0.01195        0.07431        0.12860        0.21105        0.26968        0.39442        0.42934        0.49316        0.59629        0.62458        0.62817        0.62090        0.55301        0.44598        0.45545        0.35524        0.23306        0.18333        0.14597        0.12772        0.13318        0.09638        0.12519        0.25254        0.27096        0.35067        0.37853        0.43980        0.50988        0.53772        0.54334        0.47100        0.43671        0.38543        0.34773        0.30498        0.25949        0.21248        0.20226        0.18103        0.20601        0.18850        0.27995        0.33971        0.37035        0.42936        0.45320        0.47439        0.42259        0.38555        0.40875        0.36568        0.27666        0.25890        0.22218        0.22610        0.19658        0.23237        0.23737        0.32749        0.36807        0.37716        0.46778        0.42755        0.43100        0.42962        0.39649        0.34136        0.31592        0.27993        0.26836        0.24511        0.27753        0.27875        0.30393        0.30800        0.32959        0.32027        0.40185        0.41500        0.37592        0.34507        0.36452        0.28409        0.28191        0.26322        0.28667        0.26654        0.28296        0.29777        0.31382        0.34245        0.36349        0.36673        0.35276        0.35467        0.29733        0.32212        0.27398        0.24714        0.30260        0.29406        0.30954        0.30774        0.32015        0.33642        0.31919        0.31946        0.29236        0.30015        0.27200        0.28718        0.26126        0.29134        0.28896        0.27958        0.30692        0.31732        0.32223        0.26974        0.30300        0.27306        0.27276        0.25642        0.21947        0.27830        0.28177        0.33427        0.30864        0.31205        0.31729        0.31661        0.27903        0.30737        0.32752        0.26750        0.26098        0.30427        0.28702        0.33556        0.32697        0.33143        0.32438        0.29404        0.27590        0.28331        0.24707        0.22295        0.28588        0.30887        0.29949        0.28699        0.30417        0.28009        0.33430        0.32712        0.25550        0.22901        0.28639        0.30856        0.27792        0.30710        0.33138        0.32797        0.30579        0.30609        0.33196        0.29944        0.27777        0.25501        0.29973        0.34986        0.36932        0.28047        0.26739        0.26416        0.29575        0.23148        0.28424        0.25206        0.24865        0.32627        0.32407        0.33913        0.30067        0.25432        0.25169        0.24699        0.24157        0.21730        0.23620        0.30567        0.29183        0.22851        0.31908        0.32314        0.25632        0.25610        0.19432        0.17132        0.23533        0.20149        0.21266        0.22714        0.22568        0.19395        0.25921        0.34362        0.32126        0.33543        0.23253        0.20510        0.18326        0.24860        0.26651        0.15271        0.19994        0.24752        0.13557        0.16855        0.13167        0.11200        0.22193        0.10279       -0.09821       -0.57734
2.598451 2.571420 2.544535 2.517795 2.491202 2.464755 2.438454 2.412299 2.386290 2.360427 2.334710 2.309139 2.283714 2.258435 2.233302 2.208315 2.183475 2.158780 2.134231 2.109828 2.085572 2.061461 2.037497 2.013678 1.990006 1.966479 1.943099 1.919865 1.896776 1.873834 1.851038 1.828388 1.805884 1.783526 1.761314 1.739247 1.717328 1.695554 1.673926 1.652444 1.631108 1.609918 1.588874 1.567977 1.547225 1.526620 1.506160 1.485846 1.465679 1.445657 1.425782 1.643918 2.058379 1.630358 1.136836 0.997547 0.414959 0.816226 0.548739 0.834136 0.775650 0.793741 0.746214 0.712636 0.566587 0.523606 0.480284 0.431965 0.215136 0.372912 0.199668 0.309424 0.226273 0.184668 0.144125 0.012679 0.031937 -0.006547 -0.063686 0.111267 0.207699 0.187349 0.156839 0.336054 0.191094 0.496873 0.595854 0.577587 0.609517 0.875202 0.819195 0.942248 0.897243 0.991169 0.955243 1.079874 1.144834 1.063365 1.144028 0.937795 0.936311 0.793633 0.657749 0.786348 0.714011 0.474715 0.319289 0.251417 0.239350 0.149767 0.105615 0.145343 0.092215 0.146376 0.062795 0.267404 0.382735 0.357584 0.483098 0.571241 0.455458 0.574077 0.712540 0.734491 0.774247 0.726556 0.738685 0.701560 0.623396 0.555470 0.419855 0.290240 0.226930 0.089746 0.130617 -0.046483 -0.033485 -0.063232 -0.042602 -0.008727 0.158475 0.077838 0.288039 0.299396 0.357822 0.454244 0.525908 0.503582 0.533566 0.514185 0.337731 0.321964 0.292378 0.105675 0.059066 -0.019462 -0.011564 -0.029572 -0.069273 -0.084763 0.026300 0.073668 0.133721 0.177054 0.241736 0.317852 0.329839 0.415151 0.404001 0.292559 0.245562 0.235500 0.190887 0.124899 0.104512 0.022664 0.019283 0.036570 -0.001075 0.075987 0.162449 0.147565 0.253873 0.261089 0.315650 0.217782 0.224802 0.165444 0.221717 0.123739 0.046482 0.017323 -0.001347 -0.003230 -0.035586 0.034762 0.022460 0.155436 0.145779 0.182468 0.251647 0.195526 0.181552 0.186410 0.137519 0.076434 0.036490 0.054166 -0.016795 -0.005491 0.017127 0.048714 0.051820 0.059547 0.070498 0.109816 0.135607 0.181953 0.081591 0.089535 0.068013 0.009275 -0.002703 0.012321 0.005734 0.012659 0.011145 0.032331 0.065115 0.085842 0.122358 0.060478 0.119504 0.066052 0.023449 0.060578 -0.030709 -0.000692 0.051733 0.008541 0.058598 0.052983 0.042890 0.088214 0.064565 0.044125 0.048025 0.017309 0.032083 0.019189 -0.000794 0.063556 0.003757 0.031225 0.068037 0.068478 0.040317 0.048643 0.047162 0.029848 0.015736 -0.014880 -0.014643 0.035294 0.056277 0.096725 0.065884 0.074318 0.087757 0.084044 0.038716 0.092496 0.098785 0.013957 0.032679 0.079122 0.061663 0.100238 0.084598 0.137898 0.099743 0.068454 0.026655 0.063424 -0.016960 0.008199 0.069453 0.078693 0.058537 0.051154 0.049972 0.012273 0.115138 0.058599 -0.024750 -0.041924 0.036761 0.076383 0.013251 0.024595 0.084125 0.091591 0.028548 0.056383 0.073538 0.039748 0.028237 -0.033485 0.052053 0.111350 0.088874 -0.005473 -0.016277 -0.022945 0.056365 -0.081341 0.036856 -0.040833 -0.021733 0.058953 0.057227 0.029664 -0.003463 -0.047180 -0.032162 -0.073725 -0.028311 -0.081275 -0.068380 0.036553 0.042005 -0.062233 0.067162 0.024731 -0.049411 0.031535 -0.106419 -0.098043 -0.028423 -0.048666 -0.030268 -0.022093 -0.001273 -0.060547 0.027992 0.191787 -0.007787 0.151417 0.013888 0.224692 0.187559 0.280279 0.284921 0.145374 0.202389 0.296418 0.087531 0.204166 0.129811 0.114060 0.328314 0.106440 -0.608506
0.072396 0.072898 0.074405 0.076915 0.080428 0.084944 0.090461 0.096977 0.104491 0.112999 0.122498 0.132984 0.144452 0.156895 0.170306 0.184674 0.199990 0.216241 0.233411 0.251483 0.270438 0.290252 0.310900 0.332352 0.354575 0.377531 0.401181 0.425478 0.450371 0.475805 0.501718 0.528044 0.554710 0.581637 0.608741 0.635929 0.663104 0.690161 0.716988 0.743467 0.769472 0.794871 0.819526 0.843291 0.866017 0.887545 0.907715 0.926359 0.943307 0.958386 0.971419 0.982229 0.990637 0.996467 0.999544 0.999696 0.996758 0.990570 0.980982 0.967853 0.951056 0.930478 0.906023 0.877611 0.845187 0.808717 0.768192 0.723632 0.675087 0.622636 0.566394 0.506512 0.443176 0.376611 0.307081 0.234892 0.160387 0.083953 0.006014 0.072966 0.152486 0.232008 0.310964 0.388755 0.464757 0.538323 0.608795 0.675499 0.737761 0.794912 0.846291 0.891258 0.929202 0.959547 0.981766 0.995386 1.000000 0.995277 0.980968 0.956921 0.923080 0.879502 0.826359 0.763942 0.692667 0.613082 0.525857 0.431796 0.331825 0.226988 0.118445 0.007457 0.104626 0.216373 0.326300 0.432877 0.534557 0.629797 0.717083 0.794953 0.862029 0.917041 0.958855 0.986499 0.999194 0.996371 0.977699 0.943099 0.892765 0.827170 0.747077 0.653538 0.547887 0.431735 0.306952 0.175639 0.040104 0.097179 0.233609 0.366505 0.493159 0.610897 0.717130 0.809421 0.885543 0.943542 0.981792 0.999049 0.994501 0.967802 0.919107 0.849092 0.758958 0.650432 0.525742 0.387589 0.239096 0.083750 0.074675 0.232207 0.384765 0.528274 0.658774 0.772530 0.866152 0.936703 0.981805 0.999726 0.989468 0.950817 0.884390 0.791648 0.674886 0.537199 0.382415 0.215005 0.039968 0.137311 0.311223 0.476103 0.626430 0.757005 0.863151 0.940889 0.987103 0.999687 0.977656 0.921222 0.831837 0.712181 0.566114 0.398574 0.215430 0.023294 0.170707 0.359188 0.534786 0.690456 0.819759 0.917149 0.978230 0.999974 0.980902 0.921196 0.822748 0.689146 0.525569 0.338620 0.136086 0.073372 0.280575 0.476223 0.651320 0.797595 0.907914 0.976649 1.000000 0.976230 0.905822 0.791523 0.638289 0.453103 0.244695 0.023158 0.200523 0.415007 0.609171 0.772703 0.896661 0.973998 0.999997 0.972596 0.892582 0.763635 0.592213 0.387275 0.159851 0.077525 0.311480 0.528562 0.716009 0.862525 0.958989 0.999067 0.979669 0.901232 0.767801 0.586872 0.369037 0.127400 0.123171 0.366946 0.588314 0.772788 0.907999 0.984544 0.996703 0.942918 0.826015 0.653126 0.435328 0.186989 0.075150 0.333055 0.568657 0.765107 0.908028 0.986599 0.994444 0.930204 0.797777 0.606159 0.368908 0.103259 0.171109 0.433489 0.663714 0.843729 0.959047 0.999977 0.962507 0.848768 0.667016 0.431124 0.159584 0.125872 0.401991 0.645881 0.836943 0.958638 0.999996 0.956683 0.831535 0.634478 0.381850 0.095110 0.200923 0.480178 0.717650 0.891657 0.985884 0.990987 0.905620 0.736742 0.499163 0.214342 0.091474 0.389631 0.651732 0.852374 0.971661 0.997262 0.925790 0.763328 0.525048 0.233903 0.081511 0.389692 0.659387 0.862766 0.978371 0.993468 0.905562 0.722883 0.463745 0.154840 0.171442 0.480355 0.738495 0.917447 0.997007 0.967562 0.831384 0.602624 0.305982 0.025849 0.355718 0.646142 0.863596 0.982457 0.988124 0.878952 0.666715 0.375478 0.039017 0.303023 0.609764 0.843983 0.976716 0.990941 0.883913 0.667788 0.368406 0.022346 0.327456 0.636976 0.866694 0.986699 0.980717 0.848482 0.606071 0.284143 0.075828
1.000000 1.000000 1.000000 1.000000 1.000000 1.000000 1.000000 1.000000 1.000000 1.000000 1.000000 1.000000 1.000000 1.000000 1.000000 1.000000 1.000000 1.000000 1.000000 1.000000 1.000000 1.000000 1.000000 1.000000 1.000000 1.000000 1.000000 1.000000 1.000000 1.000000 1.000000 1.000000 1.000000 1.000000 1.000000 1.000000 1.000000 1.000000 1.000000 1.000000 1.000000 1.000000 1.000000 1.000000 1.000000 1.000000 1.000000 1.000000 1.000000 1.000000 1.000000 1.000000 0.927949 0.927949 0.927949 0.914764 0.914764 0.914764 0.914764 0.914764 0.914764 0.914764 0.914764 0.914764 0.914764 0.914764 0.914764 0.914764 0.914764 0.914764 0.914764 0.914764 0.914764 0.914764 0.914764 0.914764 0.914764 0.914764 0.914764 0.914764 0.914764 0.914764 0.914764 0.914764 0.914764 0.914764 0.914764 0.914764 0.914764 0.914764 0.914764 0.914764 0.914764 0.914764 0.914764 0.914764 0.942333 0.943828 0.951892 0.951705 0.951116 0.948807 0.947816 0.947316 0.947176 0.947473 0.948152 0.949093 0.958019 0.959200 0.962064 0.962987 0.963812 0.964579 0.965370 0.966290 0.965018 0.962322 0.961514 0.961335 0.964192 0.963871 0.964149 0.965286 0.965188 0.966028 0.966408 0.966217 0.965605 0.965018 0.964346 0.963919 0.963743 0.964391 0.964691 0.966038 0.969283 0.969746 0.969805 0.969959 0.970045 0.970199 0.970595 0.972274 0.968275 0.969020 0.969058 0.966860 0.973868 0.970724 0.971364 0.971851 0.973173 0.973367 0.967488 0.963697 0.954256 0.953414 0.948069 0.939115 0.935385 0.936623 0.938588 0.939647 0.939767 0.934377 0.934754 0.930854 0.929303 0.932814 0.930160 0.928956 0.930315 0.931329 0.931608 0.930800 0.929414 0.924478 0.919781 0.918964 0.921947 0.924848 0.926500 0.927010 0.922736 0.898427 0.896450 0.902779 0.890909 0.881834 0.876981 0.873131 0.877955 0.881135 0.885311 0.883950 0.872114 0.855406 0.841160 0.839768 0.840819 0.836543 0.836818 0.838894 0.829567 0.841873 0.839609 0.845483 0.843320 0.850438 0.848013 0.833371 0.829867 0.827003 0.822350 0.815762 0.822278 0.817054 0.817118 0.815485 0.812541 0.807037 0.811895 0.786044 0.774191 0.768146 0.771419 0.775751 0.769184 0.765290 0.772116 0.776255 0.780570 0.768420 0.761024 0.747874 0.752000 0.758108 0.765546 0.759932 0.743164 0.719860 0.669356 0.684987 0.722828 0.664149 0.685085 0.689357 0.673019 0.673269 0.664793 0.658389 0.655359 0.654602 0.661326 0.672349 0.686127 0.707400 0.696912 0.686507 0.686985 0.671363 0.665963 0.646982 0.655804 0.637405 0.633750 0.662938 0.637542 0.632858 0.624859 0.633011 0.648344 0.627178 0.625187 0.622638 0.616281 0.614990 0.614838 0.605156 0.612794 0.615035 0.605953 0.618513 0.632235 0.617441 0.603468 0.591660 0.555634 0.545505 0.578500 0.584944 0.567444 0.533197 0.534071 0.556031 0.556454 0.552382 0.526156 0.524960 0.529236 0.572569 0.560621 0.527835 0.545016 0.540051 0.541043 0.485503 0.479769 0.458848 0.449651 0.388001 0.373696 0.373932 0.360563 0.346055 0.310310 0.309395 0.316102 0.326656 0.331242 0.325813 0.311505 0.313537 0.308875 0.294338 0.234166 0.215574 0.199676 0.186284 0.190120 0.159511 0.182573 0.248576 0.250941 0.250941 0.250941 0.250941 0.250941 0.250941 0.261266 0.261266 0.261266 0.261266 0.261266 0.261266 0.261266 0.261266 0.261266 0.271289 0.271289 0.271289 0.271289 0.271289 0.271289 0.271289 0.271289 0.271289 0.271289 0.271289 0.271289 0.271289 0.271289
0.000000 0.000000 0.000000 0.000000 0.000000 0.000000 0.000000 0.000000 0.000000 0.000000 0.000000 0.000000 0.000000 0.000000 0.000000 0.000000 0.000000 0.000000 0.000000 0.000000 0.000000 0.000000 0.000000 0.000000 0.000000 0.000000 0.000000 0.000000 0.000000 0.000000 0.000000 0.000000 0.000000 0.000000 0.000000 0.000000 0.000000 0.000000 0.000000 0.000000 0.000000 0.000000 0.000000 0.000000 0.000000 0.000000 0.000000 0.000000 0.000000 0.000000 0.000000 0.000000 0.180334 0.180334 0.180334 0.199007 0.199007 0.199007 0.199007 0.199007 0.199007 0.199007 0.199007 0.199007 0.199007 0.199007 0.199007 0.199007 0.199007 0.199007 0.199007 0.199007 0.199007 0.199007 0.199007 0.199007 0.199007 0.199007 0.199007 0.199007 0.199007 0.199007 0.199007 0.199007 0.199007 0.199007 0.199007 0.199007 0.199007 0.199007 0.199007 0.199007 0.199007 0.199007 0.199007 0.199007 0.225018 0.225018 0.225018 0.225018 0.225018 0.225018 0.225018 0.225018 0.225018 0.225018 0.225018 0.225018 0.225018 0.225018 0.225018 0.225018 0.225018 0.225018 0.225018 0.225018 0.225018 0.225018 0.225018 0.225018 0.225018 0.225018 0.225018 0.225018 0.225018 0.244339 0.244339 0.244339 0.244339 0.244339 0.244339 0.244339 0.244339 0.244339 0.244339 0.244339 0.244339 0.244339 0.244339 0.244339 0.244339 0.244339 0.244339 0.244339 0.244339 0.244339 0.244339 0.244339 0.251976 0.251976 0.251976 0.251976 0.251976 0.251976 0.251976 0.251976 0.251976 0.251976 0.251976 0.251976 0.251976 0.251976 0.251976 0.251976 0.251976 0.251976 0.251976 0.251976 0.264906 0.264906 0.264906 0.264906 0.264906 0.264906 0.264906 0.264906 0.264906 0.264906 0.264906 0.264906 0.264906 0.264906 0.264906 0.264906 0.264906 0.256074 0.256074 0.256074 0.256074 0.256074 0.256074 0.256074 0.256074 0.256074 0.256074 0.256074 0.256074 0.256074 0.256074 0.256074 0.256074 0.256074 0.269680 0.269680 0.269680 0.269680 0.269680 0.269680 0.269680 0.269680 0.269680 0.269680 0.269680 0.269680 0.269680 0.269680 0.264906 0.264906 0.264906 0.264906 0.264906 0.264906 0.264906 0.264906 0.264906 0.264906 0.264906 0.264906 0.264906 0.264906 0.256074 0.256074 0.256074 0.256074 0.256074 0.256074 0.256074 0.256074 0.256074 0.256074 0.256074 0.256074 0.256074 0.256074 0.269680 0.269680 0.269680 0.269680 0.269680 0.269680 0.269680 0.269680 0.269680 0.269680 0.269680 0.269680 0.264906 0.264906 0.264906 0.264906 0.264906 0.264906 0.264906 0.264906 0.264906 0.264906 0.264906 0.264906 0.260378 0.260378 0.260378 0.260378 0.260378 0.260378 0.260378 0.260378 0.260378 0.260378 0.260378 0.260378 0.274721 0.274721 0.274721 0.274721 0.274721 0.274721 0.274721 0.274721 0.274721 0.274721 0.256074 0.256074 0.256074 0.256074 0.256074 0.256074 0.256074 0.256074 0.256074 0.256074 0.256074 0.264906 0.264906 0.264906 0.264906 0.264906 0.264906 0.264906 0.264906 0.264906 0.264906 0.260378 0.260378 0.260378 0.260378 0.260378 0.260378 0.260378 0.260378 0.260378 0.260378 0.256074 0.256074 0.256074 0.256074 0.256074 0.256074 0.256074 0.256074 0.256074 0.256074 0.260378 0.260378 0.260378 0.260378 0.260378 0.260378 0.260378 0.260378 0.260378 0.256074 0.256074 0.256074 0.256074 0.256074 0.256074 0.256074 0.256074 0.256074 0.251976 0.251976 0.251976 0.251976 0.251976 0.251976 0.251976 0.251976 0.251976 0.251976 0.251976 0.251976 0.251976 0.251976
