# Output from CTFFind version 4.1.9, run on 2019-11-02 17:46:51
# Input file: stack11_bm3d_averaged_1_1.0_0_1250_half.mrc ; Number of micrographs: 1
# Pixel size: 3.000 Angstroms ; acceleration voltage: 300.0 keV ; spherical aberration: 0.00 mm ; amplitude contrast: 0.07
# Box size: 512 pixels ; min. res.: 30.0 Angstroms ; max. res.: 5.0 Angstroms ; min. def.: 5000.0 um; max. def. 50000.0 um; num. frames averaged: 1
# 6 lines per micrograph: #1 - spatial frequency (1/Angstroms); #2 - 1D rotational average of spectrum (assuming no astigmatism); #3 - 1D rotational average of spectrum; #4 - CTF fit; #5 - cross-correlation between spectrum and CTF fit; #6 - 2sigma of expected cross correlation of noise
0.000000 0.000651 0.001302 0.001953 0.002604 0.003255 0.003906 0.004557 0.005208 0.005859 0.006510 0.007161 0.007812 0.008464 0.009115 0.009766 0.010417 0.011068 0.011719 0.012370 0.013021 0.013672 0.014323 0.014974 0.015625 0.016276 0.016927 0.017578 0.018229 0.018880 0.019531 0.020182 0.020833 0.021484 0.022135 0.022786 0.023438 0.024089 0.024740 0.025391 0.026042 0.026693 0.027344 0.027995 0.028646 0.029297 0.029948 0.030599 0.031250 0.031901 0.032552 0.033203 0.033854 0.034505 0.035156 0.035807 0.036458 0.037109 0.037760 0.038411 0.039062 0.039714 0.040365 0.041016 0.041667 0.042318 0.042969 0.043620 0.044271 0.044922 0.045573 0.046224 0.046875 0.047526 0.048177 0.048828 0.049479 0.050130 0.050781 0.051432 0.052083 0.052734 0.053385 0.054036 0.054688 0.055339 0.055990 0.056641 0.057292 0.057943 0.058594 0.059245 0.059896 0.060547 0.061198 0.061849 0.062500 0.063151 0.063802 0.064453 0.065104 0.065755 0.066406 0.067057 0.067708 0.068359 0.069010 0.069661 0.070312 0.070964 0.071615 0.072266 0.072917 0.073568 0.074219 0.074870 0.075521 0.076172 0.076823 0.077474 0.078125 0.078776 0.079427 0.080078 0.080729 0.081380 0.082031 0.082682 0.083333 0.083984 0.084635 0.085286 0.085938 0.086589 0.087240 0.087891 0.088542 0.089193 0.089844 0.090495 0.091146 0.091797 0.092448 0.093099 0.093750 0.094401 0.095052 0.095703 0.096354 0.097005 0.097656 0.098307 0.098958 0.099609 0.100260 0.100911 0.101562 0.102214 0.102865 0.103516 0.104167 0.104818 0.105469 0.106120 0.106771 0.107422 0.108073 0.108724 0.109375 0.110026 0.110677 0.111328 0.111979 0.112630 0.113281 0.113932 0.114583 0.115234 0.115885 0.116536 0.117188 0.117839 0.118490 0.119141 0.119792 0.120443 0.121094 0.121745 0.122396 0.123047 0.123698 0.124349 0.125000 0.125651 0.126302 0.126953 0.127604 0.128255 0.128906 0.129557 0.130208 0.130859 0.131510 0.132161 0.132812 0.133464 0.134115 0.134766 0.135417 0.136068 0.136719 0.137370 0.138021 0.138672 0.139323 0.139974 0.140625 0.141276 0.141927 0.142578 0.143229 0.143880 0.144531 0.145182 0.145833 0.146484 0.147135 0.147786 0.148438 0.149089 0.149740 0.150391 0.151042 0.151693 0.152344 0.152995 0.153646 0.154297 0.154948 0.155599 0.156250 0.156901 0.157552 0.158203 0.158854 0.159505 0.160156 0.160807 0.161458 0.162109 0.162760 0.163411 0.164062 0.164714 0.165365 0.166016 0.166667 0.167318 0.167969 0.168620 0.169271 0.169922 0.170573 0.171224 0.171875 0.172526 0.173177 0.173828 0.174479 0.175130 0.175781 0.176432 0.177083 0.177734 0.178385 0.179036 0.179688 0.180339 0.180990 0.181641 0.182292 0.182943 0.183594 0.184245 0.184896 0.185547 0.186198 0.186849 0.187500 0.188151 0.188802 0.189453 0.190104 0.190755 0.191406 0.192057 0.192708 0.193359 0.194010 0.194661 0.195312 0.195964 0.196615 0.197266 0.197917 0.198568 0.199219 0.199870 0.200521 0.201172 0.201823 0.202474 0.203125 0.203776 0.204427 0.205078 0.205729 0.206380 0.207031 0.207682 0.208333 0.208984 0.209635 0.210286 0.210938 0.211589 0.212240 0.212891 0.213542 0.214193 0.214844 0.215495 0.216146 0.216797 0.217448 0.218099 0.218750 0.219401 0.220052 0.220703 0.221354 0.222005 0.222656 0.223307 0.223958 0.224609 0.225260 0.225911 0.226562 0.227214 0.227865 0.228516 0.229167 0.229818 0.230469 0.231120 0.231771 0.232422 0.233073 0.233724 0.234375 0.235026 0.235677
       0.31721        0.31721        0.31721        0.31721        0.31721        0.31721        0.31721        0.31721        0.31721        0.31721        0.31721        0.31721        0.31721        0.31721        0.31721        0.31721        0.31721        0.31721        0.31721        0.31721        0.31721        0.31721        0.31721        0.31721        0.31721        0.31721        0.31721        0.31721        0.31721        0.31721        0.31721        0.31721        0.31721        0.31721        0.31721        0.31721        0.31721        0.31721        0.31721        0.31721        0.31721        0.31721        0.31721        0.31721        0.31721        0.31721        0.31721        0.31721        0.31721        0.31721        0.31721        0.68487        0.87173        0.52280        0.08719       -0.06538       -0.42523       -0.20765       -0.29579       -0.11706       -0.07748       -0.11828       -0.06788       -0.20879       -0.23623       -0.25945       -0.32975       -0.33704       -0.49106       -0.38337       -0.46686       -0.44966       -0.42139       -0.47070       -0.54694       -0.56344       -0.58906       -0.62749       -0.57954       -0.41711       -0.37871       -0.33005       -0.31597       -0.21386       -0.20049        0.01814        0.06964        0.10395        0.22496        0.37219        0.44281        0.51723        0.55977        0.55469        0.57175        0.69908        0.81459        0.74472        0.73432        0.67336        0.58366        0.48629        0.40775        0.49380        0.37460        0.20264        0.07707        0.04678        0.00967       -0.06068       -0.03965       -0.02612       -0.07426       -0.00716       -0.02064        0.21112        0.24958        0.29127        0.43102        0.46601        0.40401        0.53490        0.63085        0.70314        0.76723        0.69192        0.65960        0.70077        0.58763        0.50572        0.41882        0.28925        0.18578        0.15726        0.10766        0.03807        0.01324       -0.00172        0.07543        0.13211        0.20306        0.28338        0.40208        0.41694        0.51335        0.60340        0.63567        0.61511        0.63150        0.55363        0.44614        0.44465        0.35098        0.22939        0.18466        0.14937        0.10637        0.12030        0.06618        0.09887        0.22281        0.26317        0.34058        0.34886        0.45343        0.51396        0.53784        0.55055        0.46923        0.42886        0.39292        0.37318        0.30770        0.25040        0.20042        0.18605        0.16099        0.19103        0.17756        0.26886        0.33299        0.36472        0.42406        0.46252        0.47893        0.44649        0.39397        0.41520        0.37488        0.29001        0.27439        0.22692        0.21360        0.19458        0.21242        0.23005        0.32979        0.37383        0.36630        0.45963        0.44046        0.43966        0.43093        0.39572        0.34384        0.32864        0.27711        0.23572        0.23735        0.26993        0.27030        0.30063        0.30077        0.34026        0.32978        0.40984        0.41729        0.37521        0.34408        0.36405        0.28039        0.28094        0.26295        0.27733        0.26029        0.28064        0.29201        0.31493        0.35210        0.35948        0.35975        0.33228        0.35164        0.28561        0.32263        0.26914        0.24945        0.28424        0.28122        0.30685        0.31408        0.33218        0.32718        0.31344        0.31656        0.28749        0.28752        0.26001        0.28158        0.26777        0.31096        0.28339        0.26321        0.30889        0.31124        0.31640        0.29034        0.30005        0.29145        0.24520        0.23977        0.22150        0.27925        0.27298        0.31138        0.31646        0.32085        0.31645        0.30528        0.27777        0.28435        0.33110        0.27190        0.26516        0.29504        0.29429        0.34073        0.33769        0.36147        0.33227        0.31320        0.28055        0.26635        0.26395        0.22759        0.26787        0.30060        0.29580        0.27797        0.29506        0.27119        0.32401        0.32987        0.25082        0.21835        0.27280        0.33917        0.27808        0.31429        0.32653        0.32695        0.29947        0.32337        0.34254        0.29711        0.29359        0.26240        0.27841        0.35253        0.35194        0.25902        0.26875        0.25446        0.28170        0.22456        0.29106        0.22087        0.25167        0.33060        0.31848        0.34664        0.29720        0.24046        0.24069        0.24291        0.24284        0.18435        0.22288        0.25950        0.29676        0.27883        0.30393        0.29494        0.27864        0.28118        0.21014        0.17769        0.19018        0.23310        0.20003        0.21723        0.23244        0.20868        0.24762        0.33542        0.29607        0.30654        0.22155        0.25867        0.23531        0.28633        0.30293        0.14503        0.21750        0.21951        0.12791        0.22939        0.11070        0.16147        0.18964        0.13481       -0.11405       -0.61084
2.588141 2.561122 2.534250 2.507524 2.480944 2.454512 2.428225 2.402085 2.376091 2.350244 2.324543 2.298989 2.273581 2.248320 2.223205 2.198236 2.173414 2.148738 2.124209 2.099826 2.075590 2.051500 2.027556 2.003759 1.980109 1.956604 1.933247 1.910035 1.886970 1.864052 1.841280 1.818654 1.796175 1.773842 1.751656 1.729616 1.707723 1.685976 1.664375 1.642921 1.621614 1.600452 1.579438 1.558569 1.537847 1.517272 1.496843 1.476560 1.456424 1.436434 1.416591 1.638349 2.044431 1.616867 1.129841 0.988160 0.424117 0.811398 0.564098 0.835728 0.773597 0.787595 0.754273 0.710353 0.562860 0.513023 0.486570 0.446368 0.205978 0.380540 0.204124 0.306373 0.239347 0.180724 0.129933 0.004816 0.042920 -0.016007 -0.055234 0.103791 0.207437 0.196879 0.154410 0.330163 0.197710 0.496225 0.575234 0.548012 0.592799 0.877459 0.808931 0.946326 0.888973 0.973972 0.941295 1.079817 1.141098 1.077830 1.125643 0.953633 0.945154 0.784873 0.652696 0.769499 0.704350 0.462312 0.306515 0.253735 0.213739 0.148069 0.089418 0.125634 0.065919 0.152334 0.051701 0.261579 0.377949 0.358274 0.479203 0.583669 0.467198 0.544050 0.698953 0.747401 0.781307 0.733595 0.732749 0.716240 0.627029 0.571560 0.428790 0.284910 0.205740 0.077018 0.131438 -0.044636 -0.027980 -0.082160 -0.038540 0.004566 0.142863 0.090823 0.301712 0.276383 0.365779 0.456142 0.522299 0.507659 0.519084 0.505148 0.331528 0.308288 0.275327 0.100400 0.046343 -0.002454 -0.036420 -0.042328 -0.092374 -0.105196 -0.016534 0.055178 0.134383 0.136197 0.227353 0.332198 0.307604 0.410433 0.395407 0.281869 0.231781 0.247827 0.206672 0.100598 0.071397 0.016468 0.002127 0.003262 -0.018132 0.057049 0.146134 0.142099 0.224886 0.253295 0.305251 0.259025 0.220031 0.187423 0.209826 0.148095 0.045117 0.045678 -0.011160 -0.010501 -0.032372 0.015190 0.014803 0.172132 0.124394 0.180818 0.237448 0.199201 0.191709 0.197091 0.136082 0.102725 0.063178 0.043753 -0.039924 0.007208 0.021015 0.051996 0.048434 0.077964 0.096646 0.119635 0.136398 0.185353 0.076229 0.095974 0.069787 -0.000836 0.004746 0.008659 -0.011529 0.018493 0.002457 0.028890 0.069730 0.081103 0.117164 0.048572 0.096797 0.053550 0.009652 0.062216 -0.035584 -0.013783 0.021864 -0.002044 0.051312 0.052704 0.049454 0.054303 0.051318 0.044901 0.020095 -0.000764 0.005279 0.014177 -0.012980 0.069000 -0.016446 0.007892 0.055330 0.046490 0.032890 0.044023 0.036637 0.015640 -0.024696 -0.044729 -0.016185 0.016113 0.019614 0.061348 0.058678 0.057755 0.079238 0.061604 0.021022 0.061769 0.084342 0.017026 0.019664 0.058134 0.052395 0.100246 0.108523 0.113483 0.110912 0.064009 0.040370 0.030626 0.006256 -0.004505 0.046379 0.075493 0.042361 0.030000 0.026675 0.024820 0.087658 0.060254 -0.047598 -0.053102 0.031040 0.095079 0.006647 0.031622 0.057470 0.088143 0.023299 0.056052 0.081675 0.031042 0.039107 -0.037995 0.016034 0.110131 0.066465 -0.056048 -0.019736 -0.051537 0.020288 -0.106908 0.035139 -0.109948 -0.032941 0.054170 0.027033 0.031089 -0.044473 -0.064048 -0.087720 -0.081422 -0.066920 -0.127729 -0.095356 -0.039022 0.019063 -0.028141 0.036984 -0.018124 -0.042827 0.052303 -0.109162 -0.094611 -0.093070 -0.005413 -0.057407 -0.039524 0.003958 0.013248 0.014082 0.181140 -0.007772 0.145041 0.009495 0.265664 0.250762 0.327050 0.278530 0.108632 0.220700 0.259358 0.050632 0.253254 0.117597 0.131041 0.248852 0.137694 -0.630835
0.072396 0.072899 0.074406 0.076917 0.080432 0.084951 0.090470 0.096990 0.104508 0.113020 0.122525 0.133017 0.144491 0.156940 0.170358 0.184734 0.200058 0.216317 0.233496 0.251577 0.270541 0.290366 0.311023 0.332486 0.354719 0.377687 0.401348 0.425655 0.450559 0.476003 0.501927 0.528263 0.554939 0.581875 0.608987 0.636183 0.663365 0.690427 0.717258 0.743740 0.769746 0.795145 0.819797 0.843558 0.866276 0.887795 0.907953 0.926582 0.943512 0.958570 0.971578 0.982360 0.990736 0.996530 0.999567 0.999676 0.996690 0.990450 0.980806 0.967618 0.950757 0.930112 0.905585 0.877100 0.844599 0.808049 0.767443 0.722800 0.674170 0.621635 0.565309 0.505344 0.441927 0.375285 0.305681 0.233423 0.158856 0.082366 0.004380 0.074638 0.154184 0.233722 0.312680 0.390459 0.466434 0.539958 0.610369 0.676996 0.739164 0.796201 0.847448 0.892265 0.930040 0.960199 0.982214 0.995615 0.999997 0.995028 0.980464 0.956153 0.922044 0.878195 0.824782 0.762100 0.690569 0.610740 0.523288 0.429021 0.328868 0.223879 0.115218 0.004148 0.107976 0.219720 0.329597 0.436076 0.537607 0.632649 0.719684 0.797255 0.863983 0.918602 0.959982 0.987157 0.999351 0.996005 0.976794 0.941650 0.890774 0.824651 0.744053 0.650042 0.543966 0.427445 0.302359 0.170819 0.035139 0.102195 0.238580 0.371328 0.497732 0.615116 0.720894 0.812634 0.888116 0.945397 0.982863 0.999286 0.993868 0.966284 0.916710 0.845841 0.754903 0.645644 0.520313 0.381633 0.232745 0.077151 0.081360 0.238805 0.391102 0.534172 0.664061 0.777042 0.869740 0.939238 0.983183 0.999873 0.988342 0.948413 0.880740 0.786826 0.669002 0.530402 0.374890 0.206966 0.031654 0.145641 0.319297 0.483654 0.633188 0.762725 0.867609 0.943897 0.988518 0.999415 0.975661 0.917528 0.826531 0.705414 0.558095 0.389569 0.205751 0.013292 0.180659 0.368699 0.543475 0.697957 0.825744 0.921336 0.980403 0.999993 0.978712 0.916833 0.816345 0.680924 0.515839 0.327771 0.124566 0.085067 0.291924 0.486703 0.660431 0.804885 0.913000 0.979241 0.999916 0.973411 0.900340 0.783586 0.628229 0.441371 0.231841 0.009805 0.213706 0.427338 0.619992 0.781413 0.902753 0.977092 0.999860 0.969164 0.885971 0.754140 0.580300 0.373559 0.145068 0.092555 0.325899 0.541522 0.726722 0.870313 0.963329 0.999626 0.976336 0.894131 0.757287 0.573528 0.353635 0.110868 0.139812 0.382633 0.602017 0.783585 0.915121 0.987452 0.995120 0.936863 0.815806 0.639378 0.418913 0.168986 0.093520 0.350513 0.583954 0.777114 0.915823 0.989542 0.992229 0.922897 0.785821 0.590353 0.350371 0.083331 0.190936 0.451700 0.678876 0.854610 0.964719 0.999900 0.956584 0.837365 0.650955 0.411617 0.138162 0.147479 0.422004 0.662610 0.848925 0.964781 0.999676 0.949816 0.818598 0.616490 0.360296 0.071820 0.223914 0.500820 0.734053 0.902270 0.989643 0.987434 0.894961 0.719846 0.477506 0.189876 0.116484 0.412814 0.670842 0.865501 0.977436 0.995005 0.915590 0.746069 0.502332 0.207913 0.108207 0.414402 0.679558 0.876260 0.983689 0.989930 0.893399 0.703241 0.438588 0.126757 0.199488 0.505340 0.757665 0.928623 0.998841 0.959711 0.814573 0.578594 0.277326 0.055963 0.383886 0.669115 0.878658 0.987744 0.982878 0.863633 0.642976 0.346011 0.007246 0.333327 0.634926 0.860884 0.983176 0.986019 0.868053 0.642797 0.337273 0.011119 0.359062 0.662696 0.883169 0.991684 0.973411 0.829659 0.578025 0.250415 0.110867
1.000000 1.000000 1.000000 1.000000 1.000000 1.000000 1.000000 1.000000 1.000000 1.000000 1.000000 1.000000 1.000000 1.000000 1.000000 1.000000 1.000000 1.000000 1.000000 1.000000 1.000000 1.000000 1.000000 1.000000 1.000000 1.000000 1.000000 1.000000 1.000000 1.000000 1.000000 1.000000 1.000000 1.000000 1.000000 1.000000 1.000000 1.000000 1.000000 1.000000 1.000000 1.000000 1.000000 1.000000 1.000000 1.000000 1.000000 1.000000 1.000000 1.000000 1.000000 1.000000 0.933322 0.933322 0.933322 0.924199 0.924199 0.924199 0.924199 0.924199 0.924199 0.924199 0.924199 0.924199 0.924199 0.924199 0.924199 0.924199 0.924199 0.924199 0.924199 0.924199 0.924199 0.924199 0.924199 0.924199 0.924199 0.924199 0.924199 0.924199 0.924199 0.924199 0.924199 0.924199 0.924199 0.924199 0.924199 0.924199 0.924199 0.924199 0.924199 0.924199 0.924199 0.924199 0.924199 0.924199 0.950130 0.951337 0.959184 0.959015 0.958510 0.956404 0.955497 0.954371 0.953922 0.954193 0.954797 0.955628 0.967376 0.968390 0.969923 0.970722 0.971427 0.972080 0.971933 0.972728 0.971978 0.971442 0.970939 0.966987 0.967615 0.968204 0.968374 0.969422 0.969306 0.971553 0.971675 0.971102 0.970269 0.969579 0.968914 0.968523 0.968251 0.968740 0.969006 0.970267 0.973407 0.972822 0.972510 0.972668 0.972771 0.972939 0.973330 0.974094 0.970203 0.968705 0.967043 0.964860 0.969068 0.966201 0.965984 0.967346 0.967727 0.968126 0.966902 0.962937 0.957311 0.956236 0.953649 0.944608 0.943361 0.944013 0.946254 0.946683 0.945257 0.937898 0.938464 0.931801 0.933332 0.936604 0.931025 0.930874 0.932023 0.931332 0.930189 0.929586 0.926710 0.923996 0.922386 0.922121 0.925114 0.925061 0.926233 0.926087 0.920567 0.912435 0.900088 0.898556 0.893512 0.896570 0.885686 0.885496 0.885463 0.881379 0.884801 0.884258 0.885205 0.882113 0.865934 0.848440 0.842049 0.845957 0.850880 0.846482 0.845156 0.838093 0.849323 0.829003 0.841649 0.852950 0.849916 0.850077 0.849560 0.847675 0.841587 0.842528 0.844585 0.846100 0.844717 0.843459 0.842818 0.824565 0.825982 0.761564 0.744134 0.736520 0.742247 0.748947 0.750881 0.749959 0.756756 0.761711 0.752646 0.735215 0.727779 0.720301 0.724868 0.725219 0.728193 0.713665 0.685220 0.679963 0.649403 0.667218 0.679666 0.640439 0.664607 0.675762 0.673837 0.672539 0.666019 0.663605 0.659163 0.661838 0.668958 0.681931 0.699262 0.722146 0.718978 0.709592 0.707681 0.688192 0.679285 0.673823 0.686936 0.666977 0.662914 0.680805 0.680578 0.666266 0.645171 0.633985 0.625525 0.619916 0.629274 0.618998 0.614193 0.604039 0.580033 0.573055 0.608158 0.624377 0.644992 0.614236 0.600451 0.588003 0.567999 0.581195 0.526603 0.526274 0.546770 0.554418 0.532385 0.521974 0.533205 0.539999 0.541592 0.531629 0.517282 0.505847 0.521552 0.554438 0.544311 0.525638 0.528403 0.526928 0.519508 0.429005 0.422790 0.395535 0.362792 0.304411 0.282725 0.275869 0.259929 0.248578 0.213206 0.209581 0.219891 0.226664 0.240455 0.242453 0.225064 0.235055 0.229712 0.216359 0.154558 0.144469 0.137271 0.126659 0.125421 0.102096 0.125280 0.192075 0.194463 0.194463 0.194463 0.194463 0.194463 0.194463 0.204913 0.204913 0.204913 0.204913 0.204913 0.204913 0.204913 0.204913 0.204913 0.214641 0.214641 0.214641 0.214641 0.214641 0.214641 0.214641 0.214641 0.214641 0.214641 0.214641 0.214641 0.214641 0.214641
0.000000 0.000000 0.000000 0.000000 0.000000 0.000000 0.000000 0.000000 0.000000 0.000000 0.000000 0.000000 0.000000 0.000000 0.000000 0.000000 0.000000 0.000000 0.000000 0.000000 0.000000 0.000000 0.000000 0.000000 0.000000 0.000000 0.000000 0.000000 0.000000 0.000000 0.000000 0.000000 0.000000 0.000000 0.000000 0.000000 0.000000 0.000000 0.000000 0.000000 0.000000 0.000000 0.000000 0.000000 0.000000 0.000000 0.000000 0.000000 0.000000 0.000000 0.000000 0.000000 0.180334 0.180334 0.180334 0.199007 0.199007 0.199007 0.199007 0.199007 0.199007 0.199007 0.199007 0.199007 0.199007 0.199007 0.199007 0.199007 0.199007 0.199007 0.199007 0.199007 0.199007 0.199007 0.199007 0.199007 0.199007 0.199007 0.199007 0.199007 0.199007 0.199007 0.199007 0.199007 0.199007 0.199007 0.199007 0.199007 0.199007 0.199007 0.199007 0.199007 0.199007 0.199007 0.199007 0.199007 0.225018 0.225018 0.225018 0.225018 0.225018 0.225018 0.225018 0.225018 0.225018 0.225018 0.225018 0.225018 0.225018 0.225018 0.225018 0.225018 0.225018 0.225018 0.225018 0.225018 0.225018 0.225018 0.225018 0.225018 0.225018 0.225018 0.225018 0.225018 0.225018 0.244339 0.244339 0.244339 0.244339 0.244339 0.244339 0.244339 0.244339 0.244339 0.244339 0.244339 0.244339 0.244339 0.244339 0.244339 0.244339 0.244339 0.244339 0.244339 0.244339 0.244339 0.244339 0.244339 0.251976 0.251976 0.251976 0.251976 0.251976 0.251976 0.251976 0.251976 0.251976 0.251976 0.251976 0.251976 0.251976 0.251976 0.251976 0.251976 0.251976 0.251976 0.251976 0.251976 0.264906 0.264906 0.264906 0.264906 0.264906 0.264906 0.264906 0.264906 0.264906 0.264906 0.264906 0.264906 0.264906 0.264906 0.264906 0.264906 0.264906 0.264906 0.264906 0.264906 0.264906 0.264906 0.264906 0.264906 0.264906 0.264906 0.264906 0.264906 0.264906 0.264906 0.264906 0.264906 0.264906 0.264906 0.264906 0.264906 0.264906 0.264906 0.264906 0.264906 0.264906 0.264906 0.264906 0.264906 0.264906 0.264906 0.264906 0.264906 0.264906 0.264906 0.264906 0.264906 0.264906 0.264906 0.264906 0.264906 0.264906 0.264906 0.264906 0.264906 0.264906 0.264906 0.256074 0.256074 0.256074 0.256074 0.256074 0.256074 0.256074 0.256074 0.256074 0.256074 0.256074 0.256074 0.256074 0.256074 0.269680 0.269680 0.269680 0.269680 0.269680 0.269680 0.269680 0.269680 0.269680 0.269680 0.269680 0.269680 0.264906 0.264906 0.264906 0.264906 0.264906 0.264906 0.264906 0.264906 0.264906 0.264906 0.264906 0.264906 0.269680 0.269680 0.269680 0.269680 0.269680 0.269680 0.269680 0.269680 0.269680 0.269680 0.269680 0.264906 0.264906 0.264906 0.264906 0.264906 0.264906 0.264906 0.264906 0.264906 0.264906 0.264906 0.256074 0.256074 0.256074 0.256074 0.256074 0.256074 0.256074 0.256074 0.256074 0.256074 0.256074 0.264906 0.264906 0.264906 0.264906 0.264906 0.264906 0.264906 0.264906 0.264906 0.264906 0.260378 0.260378 0.260378 0.260378 0.260378 0.260378 0.260378 0.260378 0.260378 0.260378 0.256074 0.256074 0.256074 0.256074 0.256074 0.256074 0.256074 0.256074 0.256074 0.256074 0.260378 0.260378 0.260378 0.260378 0.260378 0.260378 0.260378 0.260378 0.260378 0.256074 0.256074 0.256074 0.256074 0.256074 0.256074 0.256074 0.256074 0.256074 0.251976 0.251976 0.251976 0.251976 0.251976 0.251976 0.251976 0.251976 0.251976 0.251976 0.251976 0.251976 0.251976 0.251976
