# Output from CTFFind version 4.1.9, run on 2019-11-03 20:09:02
# Input file: stack16_bm3d_averaged_1_6.0_0_2000_half.mrc ; Number of micrographs: 1
# Pixel size: 3.000 Angstroms ; acceleration voltage: 300.0 keV ; spherical aberration: 0.00 mm ; amplitude contrast: 0.07
# Box size: 512 pixels ; min. res.: 30.0 Angstroms ; max. res.: 5.0 Angstroms ; min. def.: 5000.0 um; max. def. 50000.0 um; num. frames averaged: 1
# 6 lines per micrograph: #1 - spatial frequency (1/Angstroms); #2 - 1D rotational average of spectrum (assuming no astigmatism); #3 - 1D rotational average of spectrum; #4 - CTF fit; #5 - cross-correlation between spectrum and CTF fit; #6 - 2sigma of expected cross correlation of noise
0.000000 0.000651 0.001302 0.001953 0.002604 0.003255 0.003906 0.004557 0.005208 0.005859 0.006510 0.007161 0.007812 0.008464 0.009115 0.009766 0.010417 0.011068 0.011719 0.012370 0.013021 0.013672 0.014323 0.014974 0.015625 0.016276 0.016927 0.017578 0.018229 0.018880 0.019531 0.020182 0.020833 0.021484 0.022135 0.022786 0.023438 0.024089 0.024740 0.025391 0.026042 0.026693 0.027344 0.027995 0.028646 0.029297 0.029948 0.030599 0.031250 0.031901 0.032552 0.033203 0.033854 0.034505 0.035156 0.035807 0.036458 0.037109 0.037760 0.038411 0.039062 0.039714 0.040365 0.041016 0.041667 0.042318 0.042969 0.043620 0.044271 0.044922 0.045573 0.046224 0.046875 0.047526 0.048177 0.048828 0.049479 0.050130 0.050781 0.051432 0.052083 0.052734 0.053385 0.054036 0.054688 0.055339 0.055990 0.056641 0.057292 0.057943 0.058594 0.059245 0.059896 0.060547 0.061198 0.061849 0.062500 0.063151 0.063802 0.064453 0.065104 0.065755 0.066406 0.067057 0.067708 0.068359 0.069010 0.069661 0.070312 0.070964 0.071615 0.072266 0.072917 0.073568 0.074219 0.074870 0.075521 0.076172 0.076823 0.077474 0.078125 0.078776 0.079427 0.080078 0.080729 0.081380 0.082031 0.082682 0.083333 0.083984 0.084635 0.085286 0.085938 0.086589 0.087240 0.087891 0.088542 0.089193 0.089844 0.090495 0.091146 0.091797 0.092448 0.093099 0.093750 0.094401 0.095052 0.095703 0.096354 0.097005 0.097656 0.098307 0.098958 0.099609 0.100260 0.100911 0.101562 0.102214 0.102865 0.103516 0.104167 0.104818 0.105469 0.106120 0.106771 0.107422 0.108073 0.108724 0.109375 0.110026 0.110677 0.111328 0.111979 0.112630 0.113281 0.113932 0.114583 0.115234 0.115885 0.116536 0.117188 0.117839 0.118490 0.119141 0.119792 0.120443 0.121094 0.121745 0.122396 0.123047 0.123698 0.124349 0.125000 0.125651 0.126302 0.126953 0.127604 0.128255 0.128906 0.129557 0.130208 0.130859 0.131510 0.132161 0.132812 0.133464 0.134115 0.134766 0.135417 0.136068 0.136719 0.137370 0.138021 0.138672 0.139323 0.139974 0.140625 0.141276 0.141927 0.142578 0.143229 0.143880 0.144531 0.145182 0.145833 0.146484 0.147135 0.147786 0.148438 0.149089 0.149740 0.150391 0.151042 0.151693 0.152344 0.152995 0.153646 0.154297 0.154948 0.155599 0.156250 0.156901 0.157552 0.158203 0.158854 0.159505 0.160156 0.160807 0.161458 0.162109 0.162760 0.163411 0.164062 0.164714 0.165365 0.166016 0.166667 0.167318 0.167969 0.168620 0.169271 0.169922 0.170573 0.171224 0.171875 0.172526 0.173177 0.173828 0.174479 0.175130 0.175781 0.176432 0.177083 0.177734 0.178385 0.179036 0.179688 0.180339 0.180990 0.181641 0.182292 0.182943 0.183594 0.184245 0.184896 0.185547 0.186198 0.186849 0.187500 0.188151 0.188802 0.189453 0.190104 0.190755 0.191406 0.192057 0.192708 0.193359 0.194010 0.194661 0.195312 0.195964 0.196615 0.197266 0.197917 0.198568 0.199219 0.199870 0.200521 0.201172 0.201823 0.202474 0.203125 0.203776 0.204427 0.205078 0.205729 0.206380 0.207031 0.207682 0.208333 0.208984 0.209635 0.210286 0.210938 0.211589 0.212240 0.212891 0.213542 0.214193 0.214844 0.215495 0.216146 0.216797 0.217448 0.218099 0.218750 0.219401 0.220052 0.220703 0.221354 0.222005 0.222656 0.223307 0.223958 0.224609 0.225260 0.225911 0.226562 0.227214 0.227865 0.228516 0.229167 0.229818 0.230469 0.231120 0.231771 0.232422 0.233073 0.233724 0.234375 0.235026 0.235677
       0.34442        0.34442        0.34442        0.34442        0.34442        0.34442        0.34442        0.34442        0.34442        0.34442        0.34442        0.34442        0.34442        0.34442        0.34442        0.34442        0.34442        0.34442        0.34442        0.34442        0.34442        0.34442        0.34442        0.34442        0.34442        0.34442        0.34442        0.34442        0.34442        0.34442        0.34442        0.34442        0.34442        0.34442        0.34442        0.34442        0.34442        0.34442        0.34442        0.34442        0.34442        0.34442        0.34442        0.34442        0.34442        0.34442        0.34442        0.34442        0.34442        0.34442        0.34442        0.42466        0.55567        0.34148       -0.21426       -0.45515       -0.54934       -0.64936       -0.71966       -0.72792       -0.82326       -0.89517       -0.68850       -0.84470       -0.82589       -0.97107       -1.00862       -0.88991       -0.84881       -0.80413       -0.71951       -0.64997       -0.56139       -0.46708       -0.40147       -0.17292       -0.07018        0.03012        0.25295        0.25440        0.31114        0.36940        0.39921        0.51553        0.53567        0.57141        0.53155        0.47121        0.50461        0.52227        0.44433        0.32840        0.21003        0.17720        0.10848        0.00349       -0.01265       -0.02129        0.05157        0.01791        0.06994        0.04380        0.15937        0.19256        0.40545        0.45762        0.54814        0.65690        0.68741        0.71281        0.63460        0.61029        0.53618        0.43763        0.38537        0.27206        0.21427        0.20895        0.09778        0.10556        0.10082        0.08218        0.09293        0.30339        0.41268        0.51906        0.53193        0.56999        0.60733        0.58669        0.57349        0.58157        0.56453        0.46382        0.30181        0.26171        0.24988        0.14431        0.08714        0.16350        0.19993        0.28108        0.35096        0.42319        0.47044        0.52875        0.59974        0.54382        0.50575        0.49809        0.35327        0.26946        0.25559        0.17224        0.18955        0.22909        0.27115        0.27915        0.32179        0.42441        0.45851        0.49789        0.45064        0.44110        0.48299        0.38959        0.32715        0.28396        0.25503        0.22857        0.22705        0.23614        0.33371        0.43995        0.42813        0.48784        0.55179        0.44418        0.41005        0.35385        0.31015        0.26590        0.27768        0.26772        0.28602        0.34241        0.35160        0.43225        0.47094        0.43647        0.45689        0.37142        0.37602        0.35288        0.26667        0.24832        0.24552        0.32460        0.37632        0.36405        0.38781        0.43138        0.43819        0.37276        0.33697        0.31829        0.34828        0.31030        0.27783        0.28033        0.35138        0.36865        0.38506        0.38651        0.38619        0.41517        0.40031        0.31859        0.28658        0.31300        0.34092        0.37249        0.35737        0.40173        0.34074        0.36856        0.39002        0.33389        0.35189        0.31750        0.29792        0.33547        0.33915        0.32560        0.35028        0.36832        0.32474        0.34459        0.31726        0.31367        0.29137        0.31688        0.31348        0.32552        0.36372        0.36839        0.35032        0.30593        0.29597        0.28366        0.32655        0.30814        0.31216        0.36737        0.35641        0.33902        0.31208        0.30255        0.30862        0.27301        0.31018        0.32435        0.33296        0.36800        0.34614        0.30556        0.33240        0.34076        0.32574        0.35333        0.34336        0.30954        0.33084        0.28985        0.32039        0.29266        0.31104        0.28679        0.31855        0.35174        0.32835        0.35188        0.30842        0.32465        0.34740        0.33744        0.31289        0.31494        0.35445        0.33664        0.33186        0.32266        0.30981        0.30944        0.31172        0.32040        0.31921        0.34975        0.33841        0.33703        0.29097        0.28117        0.26574        0.26725        0.35968        0.30891        0.34493        0.29425        0.25977        0.27745        0.36086        0.30591        0.28077        0.30585        0.31418        0.29482        0.26472        0.30540        0.26939        0.28533        0.30337        0.33001        0.33195        0.31869        0.30403        0.26409        0.26969        0.26487        0.27100        0.29197        0.35802        0.29009        0.19747        0.30032        0.28249        0.31961        0.24810        0.29855        0.30161        0.33331        0.28979        0.27525        0.26446        0.24100        0.29880        0.34178        0.34290        0.24510        0.28910        0.23634        0.23002        0.20917        0.33114        0.24953        0.17688        0.12346        0.20998        0.32629        0.22315        0.18981        0.10234       -0.49600       -0.59876
3.167158 3.127092 3.087286 3.047739 3.008452 2.969425 2.930657 2.892148 2.853900 2.815911 2.778181 2.740711 2.703500 2.666550 2.629858 2.593427 2.557254 2.521342 2.485689 2.450296 2.415162 2.380287 2.345673 2.311317 2.277222 2.243386 2.209810 2.176493 2.143435 2.110638 2.078100 2.045821 2.013802 1.982043 1.950543 1.919303 1.888322 1.857601 1.827139 1.796937 1.766995 1.737312 1.707889 1.678725 1.649821 1.621177 1.592792 1.564666 1.536801 1.509194 1.481848 1.516676 1.597258 1.537266 0.843250 0.592878 0.453581 0.385270 0.289668 0.214478 0.180679 -0.051299 0.202885 0.068138 -0.032278 -0.113393 -0.239698 -0.146312 -0.058501 -0.093912 -0.076421 0.034086 0.031224 0.225334 0.106331 0.354040 0.461230 0.488535 0.764835 0.684388 0.691739 0.825005 0.796124 0.837498 0.922873 0.853174 0.889360 0.725421 0.791238 0.844573 0.683959 0.604326 0.436374 0.425573 0.338519 0.188252 0.184339 0.115468 0.209006 0.120278 0.209448 0.105477 0.217893 0.229897 0.443892 0.405337 0.576911 0.615933 0.645944 0.722799 0.609117 0.584868 0.461125 0.412370 0.292941 0.264227 0.096303 0.156341 -0.025950 0.038394 -0.032454 -0.040969 -0.051353 0.030443 0.271938 0.294503 0.364640 0.307091 0.389595 0.400468 0.425139 0.405409 0.359375 0.334296 0.126363 0.079713 0.065039 -0.016579 -0.152846 -0.046580 -0.066164 0.038891 0.081474 0.155689 0.221660 0.230787 0.320911 0.410292 0.294416 0.364286 0.238774 0.140571 0.067386 0.039325 0.002640 0.047980 0.071623 0.099933 0.117761 0.175678 0.240755 0.308863 0.275030 0.216188 0.255842 0.227418 0.111154 0.066691 0.050848 0.028282 0.007308 -0.014101 0.032477 0.169945 0.189402 0.192744 0.302143 0.188772 0.197228 0.076785 0.068858 0.005139 -0.007145 0.000402 -0.007357 0.042416 0.062121 0.095519 0.156916 0.142417 0.222036 0.132699 0.077473 0.099956 0.046108 -0.054770 -0.022924 0.023236 0.061781 0.074732 0.070647 0.152200 0.120963 0.152095 0.036858 0.052425 0.045310 0.048970 0.025652 -0.021531 0.039522 0.046823 0.088939 0.102154 0.090650 0.110341 0.125529 0.078073 0.013775 -0.005889 0.028303 0.078201 0.067218 0.093479 0.088252 0.053751 0.107911 0.066666 0.042056 0.080288 -0.016264 0.017073 0.063347 0.038343 0.043422 0.061290 0.073728 0.050517 0.063715 0.013926 0.019746 0.001631 0.051581 0.005604 0.043681 0.067541 0.076352 0.041232 -0.007778 -0.004620 -0.018954 0.037948 0.000118 0.013264 0.070266 0.053913 -0.001779 0.009830 -0.014080 0.009180 -0.042807 0.002105 0.007971 0.035639 0.048578 0.022694 -0.012782 0.005267 0.019958 0.003680 0.039973 0.011760 -0.017512 0.022867 -0.043440 -0.023101 -0.054134 -0.012435 -0.054975 0.010241 0.027259 -0.006924 -0.004226 -0.005802 0.001837 0.025617 0.020716 -0.011778 0.003425 0.025490 0.039011 0.017984 0.010235 0.024034 -0.001428 -0.002069 0.018467 -0.004692 0.081182 0.051703 0.033304 0.001953 -0.010292 -0.033930 -0.000563 0.083698 -0.008769 0.067986 -0.023487 -0.024721 -0.020469 0.095303 -0.000754 -0.020532 0.043015 0.048396 0.010813 0.005177 0.025347 0.003839 0.028109 0.035292 0.072905 0.065110 0.048611 0.038070 -0.005488 0.006281 -0.006600 -0.010996 0.007929 0.102294 -0.022033 -0.093693 0.050485 -0.006293 0.054531 -0.058302 0.002735 0.012221 0.024842 0.003107 -0.019652 -0.021251 -0.072171 0.035265 0.049628 0.060509 -0.125072 0.005703 -0.015958 -0.012069 -0.115088 0.103363 0.015391 -0.035060 -0.090649 0.187827 0.274422 0.155284 0.143809 0.105429 -0.569889
0.072396 0.073047 0.074998 0.078249 0.082800 0.088648 0.095792 0.104228 0.113953 0.124961 0.137246 0.150800 0.165612 0.181669 0.198957 0.217456 0.237145 0.257998 0.279984 0.303067 0.327206 0.352355 0.378459 0.405459 0.433286 0.461862 0.491104 0.520916 0.551195 0.581826 0.612684 0.643634 0.674530 0.705211 0.735510 0.765245 0.794224 0.822243 0.849089 0.874536 0.898352 0.920294 0.940114 0.957557 0.972363 0.984270 0.993017 0.998342 0.999990 0.997714 0.991274 0.980448 0.965027 0.944826 0.919684 0.889470 0.854084 0.813467 0.767597 0.716501 0.660257 0.598993 0.532897 0.462217 0.387264 0.308415 0.226114 0.140872 0.053268 0.036053 0.126380 0.216942 0.306912 0.395414 0.481525 0.564291 0.642731 0.715855 0.782668 0.842193 0.893482 0.935632 0.967805 0.989241 0.999282 0.997386 0.983147 0.956312 0.916793 0.864691 0.800295 0.724106 0.636831 0.539398 0.432945 0.318824 0.198587 0.073971 0.053118 0.180632 0.306411 0.428214 0.543763 0.650786 0.747059 0.830464 0.899033 0.951008 0.984884 0.999470 0.993926 0.967811 0.921116 0.854293 0.768272 0.664467 0.544774 0.411549 0.267582 0.116045 0.039561 0.195488 0.347819 0.492566 0.625782 0.743664 0.842679 0.919674 0.971993 0.997578 0.995073 0.963894 0.904294 0.817402 0.705229 0.570653 0.417371 0.249821 0.073072 0.107320 0.285468 0.455352 0.611017 0.746792 0.857510 0.938721 0.986890 0.999580 0.975591 0.915073 0.819579 0.692074 0.536883 0.359575 0.166799 0.033945 0.234584 0.426784 0.602302 0.753344 0.872937 0.955264 0.995990 0.992520 0.944192 0.852398 0.720603 0.554269 0.360675 0.148644 0.071843 0.290079 0.495161 0.676526 0.824520 0.930939 0.989521 0.996361 0.950214 0.852674 0.708194 0.523955 0.309564 0.076599 0.161972 0.392507 0.601459 0.776191 0.905766 0.981676 0.998462 0.954160 0.850557 0.693215 0.491258 0.256909 0.004806 0.248870 0.487425 0.694746 0.856424 0.960791 0.999836 0.969886 0.872019 0.712150 0.500777 0.252372 0.015537 0.283565 0.531855 0.741545 0.896257 0.983421 0.995381 0.930160 0.791795 0.590223 0.340662 0.062563 0.221857 0.489352 0.717548 0.886864 0.982240 0.994586 0.921742 0.768885 0.548304 0.278540 0.017092 0.312442 0.580822 0.797427 0.941685 0.999304 0.963800 0.837347 0.630820 0.363015 0.059059 0.251881 0.539330 0.774527 0.933335 0.998835 0.963244 0.828983 0.608715 0.324318 0.004832 0.316396 0.605180 0.830141 0.966193 0.997466 0.919302 0.739088 0.475760 0.157967 0.178901 0.496595 0.758352 0.933191 0.999715 0.948877 0.785396 0.527543 0.205301 0.142979 0.475044 0.749868 0.932767 0.999911 0.941604 0.763875 0.488111 0.148695 0.211127 0.544685 0.807911 0.965275 0.994711 0.890935 0.666569 0.350858 0.013930 0.378012 0.690855 0.908215 0.998533 0.947724 0.761603 0.465534 0.101213 0.279011 0.619593 0.869895 0.991852 0.965969 0.794686 0.502516 0.132829 0.258404 0.610952 0.869634 0.993066 0.960507 0.775627 0.466466 0.081480 0.317844 0.666706 0.907551 0.999701 0.926497 0.698607 0.352828 0.053537 0.452013 0.774411 0.964584 0.988404 0.840217 0.544423 0.151825 0.268828 0.642742 0.902385 0.999855 0.916005 0.664550 0.290235 0.138801 0.543229 0.847157 0.992500 0.950366 0.727151 0.364049 0.070186 0.492010 0.819112 0.986555 0.959970 0.742982 0.377263 0.065103 0.495527 0.826596 0.989953 0.950692 0.715232 0.330790 0.123655 0.553358 0.867483 0.998452 0.916849 0.638446 0.221673 0.244220 0.658080
1.000000 1.000000 1.000000 1.000000 1.000000 1.000000 1.000000 1.000000 1.000000 1.000000 1.000000 1.000000 1.000000 1.000000 1.000000 1.000000 1.000000 1.000000 1.000000 1.000000 1.000000 1.000000 1.000000 1.000000 1.000000 1.000000 1.000000 1.000000 1.000000 1.000000 1.000000 1.000000 1.000000 1.000000 1.000000 1.000000 1.000000 1.000000 1.000000 1.000000 1.000000 1.000000 1.000000 1.000000 1.000000 1.000000 1.000000 1.000000 1.000000 1.000000 1.000000 1.000000 0.923150 0.923150 0.923150 0.923150 0.923150 0.923150 0.923150 0.923150 0.923150 0.923150 0.923150 0.923150 0.923150 0.923150 0.923150 0.923150 0.923150 0.923150 0.923150 0.923150 0.923150 0.923150 0.923150 0.923150 0.923150 0.923150 0.923150 0.923150 0.923150 0.923150 0.923150 0.923150 0.923150 0.913245 0.911350 0.912507 0.911056 0.909606 0.909016 0.908623 0.909663 0.911266 0.913343 0.934980 0.938085 0.939329 0.940654 0.942027 0.944311 0.942149 0.949721 0.956225 0.955162 0.956302 0.950134 0.951546 0.950889 0.950150 0.951495 0.951629 0.949930 0.947907 0.946328 0.945775 0.945463 0.949044 0.949640 0.949795 0.950389 0.950335 0.951052 0.951655 0.949801 0.952064 0.944179 0.942842 0.948111 0.946024 0.947396 0.947358 0.948047 0.948850 0.949170 0.949441 0.946422 0.945976 0.945115 0.936995 0.930048 0.929666 0.932152 0.935402 0.932915 0.929497 0.930692 0.932931 0.932219 0.935856 0.926618 0.922410 0.897698 0.885112 0.874498 0.874794 0.878274 0.880788 0.878456 0.871248 0.861898 0.858150 0.858094 0.854078 0.846501 0.862406 0.856679 0.854387 0.858224 0.861358 0.866755 0.864173 0.859716 0.855058 0.850503 0.842244 0.843832 0.847852 0.851986 0.835434 0.825990 0.843120 0.833353 0.824206 0.831871 0.833834 0.830817 0.829557 0.830035 0.828277 0.821835 0.815623 0.819167 0.828082 0.827919 0.817156 0.814093 0.810682 0.810241 0.804527 0.808895 0.809687 0.806097 0.799053 0.815779 0.781911 0.804555 0.804811 0.789403 0.773395 0.761516 0.771094 0.781732 0.783631 0.775865 0.775689 0.775188 0.766536 0.738658 0.738048 0.744942 0.743320 0.730927 0.714415 0.721425 0.725121 0.721196 0.717472 0.720497 0.721900 0.697001 0.710680 0.714805 0.702083 0.716618 0.718711 0.709549 0.712084 0.715272 0.718430 0.713021 0.674703 0.677885 0.661230 0.655019 0.609426 0.608066 0.605433 0.546320 0.550359 0.519511 0.503271 0.502675 0.485654 0.538023 0.469267 0.454598 0.485052 0.411600 0.342783 0.359400 0.358977 0.372488 0.379387 0.362279 0.362620 0.349886 0.330434 0.329604 0.353987 0.370353 0.335321 0.338984 0.329397 0.302340 0.270862 0.287076 0.290288 0.315157 0.317098 0.294774 0.321736 0.360993 0.301558 0.279427 0.258792 0.279441 0.293419 0.297161 0.286266 0.275671 0.249690 0.232675 0.256420 0.256610 0.276816 0.296536 0.325019 0.318977 0.321565 0.349433 0.302716 0.317328 0.319648 0.309690 0.324204 0.327680 0.329301 0.320347 0.349192 0.329681 0.342446 0.328548 0.317831 0.370287 0.351077 0.323610 0.313356 0.318513 0.318158 0.300619 0.248723 0.232977 0.230235 0.176903 0.147861 0.149912 0.150110 0.106833 0.085013 0.068472 0.030202 0.029433 0.032931 0.070124 0.039930 0.060965 0.065449 0.065449 0.065449 0.065449 0.065449 0.065449 0.065449 0.065449 0.065449 0.065449 0.065449 0.065449 0.065449 0.065449 0.088466 0.088466 0.088466 0.088466 0.088466 0.088466 0.088466 0.088466 0.088466 0.088466 0.088466 0.088466
0.000000 0.000000 0.000000 0.000000 0.000000 0.000000 0.000000 0.000000 0.000000 0.000000 0.000000 0.000000 0.000000 0.000000 0.000000 0.000000 0.000000 0.000000 0.000000 0.000000 0.000000 0.000000 0.000000 0.000000 0.000000 0.000000 0.000000 0.000000 0.000000 0.000000 0.000000 0.000000 0.000000 0.000000 0.000000 0.000000 0.000000 0.000000 0.000000 0.000000 0.000000 0.000000 0.000000 0.000000 0.000000 0.000000 0.000000 0.000000 0.000000 0.000000 0.000000 0.000000 0.209657 0.209657 0.209657 0.209657 0.209657 0.209657 0.209657 0.209657 0.209657 0.209657 0.209657 0.209657 0.209657 0.209657 0.209657 0.209657 0.209657 0.209657 0.209657 0.209657 0.209657 0.209657 0.209657 0.209657 0.209657 0.209657 0.209657 0.209657 0.209657 0.209657 0.209657 0.209657 0.209657 0.244339 0.244339 0.244339 0.244339 0.244339 0.244339 0.244339 0.244339 0.244339 0.244339 0.244339 0.244339 0.244339 0.244339 0.244339 0.244339 0.244339 0.244339 0.244339 0.244339 0.244339 0.244339 0.244339 0.244339 0.244339 0.260378 0.260378 0.260378 0.260378 0.260378 0.260378 0.260378 0.260378 0.260378 0.260378 0.260378 0.260378 0.260378 0.260378 0.260378 0.260378 0.260378 0.260378 0.260378 0.260378 0.269680 0.269680 0.269680 0.269680 0.269680 0.269680 0.269680 0.269680 0.269680 0.269680 0.269680 0.269680 0.269680 0.269680 0.269680 0.269680 0.269680 0.269680 0.269680 0.269680 0.269680 0.269680 0.269680 0.269680 0.269680 0.269680 0.269680 0.269680 0.269680 0.269680 0.269680 0.269680 0.269680 0.280056 0.280056 0.280056 0.280056 0.280056 0.280056 0.280056 0.280056 0.280056 0.280056 0.280056 0.280056 0.280056 0.280056 0.280056 0.280056 0.280056 0.280056 0.280056 0.280056 0.280056 0.280056 0.280056 0.280056 0.280056 0.280056 0.280056 0.274721 0.274721 0.274721 0.274721 0.274721 0.274721 0.274721 0.274721 0.274721 0.274721 0.274721 0.274721 0.274721 0.285714 0.285714 0.285714 0.285714 0.285714 0.285714 0.285714 0.285714 0.285714 0.285714 0.285714 0.280056 0.280056 0.280056 0.280056 0.280056 0.280056 0.280056 0.280056 0.280056 0.280056 0.280056 0.274721 0.274721 0.274721 0.274721 0.274721 0.274721 0.274721 0.274721 0.274721 0.274721 0.274721 0.280056 0.280056 0.280056 0.280056 0.280056 0.280056 0.280056 0.280056 0.280056 0.280056 0.285714 0.285714 0.285714 0.285714 0.285714 0.285714 0.285714 0.285714 0.285714 0.269680 0.269680 0.269680 0.269680 0.269680 0.269680 0.269680 0.269680 0.269680 0.269680 0.274721 0.274721 0.274721 0.274721 0.274721 0.274721 0.274721 0.274721 0.274721 0.285714 0.285714 0.285714 0.285714 0.285714 0.285714 0.285714 0.285714 0.264906 0.264906 0.264906 0.264906 0.264906 0.264906 0.264906 0.264906 0.264906 0.274721 0.274721 0.274721 0.274721 0.274721 0.274721 0.274721 0.274721 0.269680 0.269680 0.269680 0.269680 0.269680 0.269680 0.269680 0.269680 0.269680 0.269680 0.269680 0.269680 0.269680 0.269680 0.269680 0.269680 0.280056 0.280056 0.280056 0.280056 0.280056 0.280056 0.280056 0.260378 0.260378 0.260378 0.260378 0.260378 0.260378 0.260378 0.260378 0.269680 0.269680 0.269680 0.269680 0.269680 0.269680 0.269680 0.264906 0.264906 0.264906 0.264906 0.264906 0.264906 0.264906 0.264906 0.264906 0.264906 0.264906 0.264906 0.264906 0.264906 0.260378 0.260378 0.260378 0.260378 0.260378 0.260378 0.260378 0.260378 0.260378 0.260378 0.260378 0.260378
