# Output from CTFFind version 4.1.9, run on 2019-11-03 20:07:54
# Input file: stack6_bm3d_averaged_1_10_0_1500_half.mrc ; Number of micrographs: 1
# Pixel size: 3.000 Angstroms ; acceleration voltage: 300.0 keV ; spherical aberration: 0.00 mm ; amplitude contrast: 0.07
# Box size: 512 pixels ; min. res.: 30.0 Angstroms ; max. res.: 5.0 Angstroms ; min. def.: 5000.0 um; max. def. 50000.0 um; num. frames averaged: 1
# 6 lines per micrograph: #1 - spatial frequency (1/Angstroms); #2 - 1D rotational average of spectrum (assuming no astigmatism); #3 - 1D rotational average of spectrum; #4 - CTF fit; #5 - cross-correlation between spectrum and CTF fit; #6 - 2sigma of expected cross correlation of noise
0.000000 0.000651 0.001302 0.001953 0.002604 0.003255 0.003906 0.004557 0.005208 0.005859 0.006510 0.007161 0.007812 0.008464 0.009115 0.009766 0.010417 0.011068 0.011719 0.012370 0.013021 0.013672 0.014323 0.014974 0.015625 0.016276 0.016927 0.017578 0.018229 0.018880 0.019531 0.020182 0.020833 0.021484 0.022135 0.022786 0.023438 0.024089 0.024740 0.025391 0.026042 0.026693 0.027344 0.027995 0.028646 0.029297 0.029948 0.030599 0.031250 0.031901 0.032552 0.033203 0.033854 0.034505 0.035156 0.035807 0.036458 0.037109 0.037760 0.038411 0.039062 0.039714 0.040365 0.041016 0.041667 0.042318 0.042969 0.043620 0.044271 0.044922 0.045573 0.046224 0.046875 0.047526 0.048177 0.048828 0.049479 0.050130 0.050781 0.051432 0.052083 0.052734 0.053385 0.054036 0.054688 0.055339 0.055990 0.056641 0.057292 0.057943 0.058594 0.059245 0.059896 0.060547 0.061198 0.061849 0.062500 0.063151 0.063802 0.064453 0.065104 0.065755 0.066406 0.067057 0.067708 0.068359 0.069010 0.069661 0.070312 0.070964 0.071615 0.072266 0.072917 0.073568 0.074219 0.074870 0.075521 0.076172 0.076823 0.077474 0.078125 0.078776 0.079427 0.080078 0.080729 0.081380 0.082031 0.082682 0.083333 0.083984 0.084635 0.085286 0.085938 0.086589 0.087240 0.087891 0.088542 0.089193 0.089844 0.090495 0.091146 0.091797 0.092448 0.093099 0.093750 0.094401 0.095052 0.095703 0.096354 0.097005 0.097656 0.098307 0.098958 0.099609 0.100260 0.100911 0.101562 0.102214 0.102865 0.103516 0.104167 0.104818 0.105469 0.106120 0.106771 0.107422 0.108073 0.108724 0.109375 0.110026 0.110677 0.111328 0.111979 0.112630 0.113281 0.113932 0.114583 0.115234 0.115885 0.116536 0.117188 0.117839 0.118490 0.119141 0.119792 0.120443 0.121094 0.121745 0.122396 0.123047 0.123698 0.124349 0.125000 0.125651 0.126302 0.126953 0.127604 0.128255 0.128906 0.129557 0.130208 0.130859 0.131510 0.132161 0.132812 0.133464 0.134115 0.134766 0.135417 0.136068 0.136719 0.137370 0.138021 0.138672 0.139323 0.139974 0.140625 0.141276 0.141927 0.142578 0.143229 0.143880 0.144531 0.145182 0.145833 0.146484 0.147135 0.147786 0.148438 0.149089 0.149740 0.150391 0.151042 0.151693 0.152344 0.152995 0.153646 0.154297 0.154948 0.155599 0.156250 0.156901 0.157552 0.158203 0.158854 0.159505 0.160156 0.160807 0.161458 0.162109 0.162760 0.163411 0.164062 0.164714 0.165365 0.166016 0.166667 0.167318 0.167969 0.168620 0.169271 0.169922 0.170573 0.171224 0.171875 0.172526 0.173177 0.173828 0.174479 0.175130 0.175781 0.176432 0.177083 0.177734 0.178385 0.179036 0.179688 0.180339 0.180990 0.181641 0.182292 0.182943 0.183594 0.184245 0.184896 0.185547 0.186198 0.186849 0.187500 0.188151 0.188802 0.189453 0.190104 0.190755 0.191406 0.192057 0.192708 0.193359 0.194010 0.194661 0.195312 0.195964 0.196615 0.197266 0.197917 0.198568 0.199219 0.199870 0.200521 0.201172 0.201823 0.202474 0.203125 0.203776 0.204427 0.205078 0.205729 0.206380 0.207031 0.207682 0.208333 0.208984 0.209635 0.210286 0.210938 0.211589 0.212240 0.212891 0.213542 0.214193 0.214844 0.215495 0.216146 0.216797 0.217448 0.218099 0.218750 0.219401 0.220052 0.220703 0.221354 0.222005 0.222656 0.223307 0.223958 0.224609 0.225260 0.225911 0.226562 0.227214 0.227865 0.228516 0.229167 0.229818 0.230469 0.231120 0.231771 0.232422 0.233073 0.233724 0.234375 0.235026 0.235677
       0.34236        0.34236        0.34236        0.34236        0.34236        0.34236        0.34236        0.34236        0.34236        0.34236        0.34236        0.34236        0.34236        0.34236        0.34236        0.34236        0.34236        0.34236        0.34236        0.34236        0.34236        0.34236        0.34236        0.34236        0.34236        0.34236        0.34236        0.34236        0.34236        0.34236        0.34236        0.34236        0.34236        0.34236        0.34236        0.34236        0.34236        0.34236        0.34236        0.34236        0.34236        0.34236        0.34236        0.34236        0.34236        0.34236        0.34236        0.34236        0.34236        0.34236        0.34236        0.58861        0.69396        0.36668        0.16024        0.14326       -0.12113        0.10989        0.04277        0.04432        0.08947        0.30746        0.29180        0.22783        0.13480       -0.04131       -0.00899        0.05497       -0.06869       -0.07715       -0.06510       -0.06320       -0.14690       -0.08702       -0.19749       -0.21594       -0.21975       -0.27431       -0.33814       -0.26264       -0.17573       -0.13260       -0.24539       -0.17829       -0.20540       -0.14403       -0.10090       -0.03789       -0.01672        0.03110        0.09061        0.16396        0.20447        0.24770        0.34987        0.41318        0.36721        0.49941        0.54687        0.55089        0.62258        0.54305        0.57635        0.60996        0.59615        0.56892        0.55893        0.60599        0.53387        0.40545        0.37031        0.38141        0.34043        0.22385        0.23127        0.19203        0.13725        0.12748        0.06419        0.14361        0.11374        0.09441        0.16573        0.21694        0.29449        0.33945        0.38049        0.42054        0.44945        0.47825        0.42568        0.61765        0.55153        0.47653        0.56217        0.50579        0.56727        0.51593        0.40230        0.34307        0.33238        0.29324        0.27925        0.22336        0.21033        0.19921        0.29250        0.27603        0.27820        0.25213        0.27585        0.34709        0.33541        0.45285        0.44647        0.44795        0.42513        0.48872        0.44291        0.41085        0.41632        0.38468        0.33583        0.28262        0.31817        0.28750        0.28283        0.23100        0.23817        0.26822        0.28748        0.29891        0.34605        0.39547        0.42521        0.42615        0.42815        0.51021        0.49249        0.42904        0.37695        0.42048        0.39766        0.33601        0.34740        0.33973        0.29172        0.29282        0.28389        0.27054        0.32744        0.31611        0.33449        0.35680        0.40483        0.43086        0.41457        0.44644        0.40671        0.44615        0.42521        0.36224        0.31152        0.30873        0.30941        0.28573        0.24736        0.31726        0.38968        0.34689        0.31932        0.38004        0.32074        0.36969        0.41701        0.40136        0.37091        0.36870        0.35683        0.36549        0.33277        0.32153        0.29625        0.29363        0.33524        0.34836        0.37501        0.38563        0.40020        0.37812        0.35429        0.33315        0.37082        0.37767        0.35713        0.33583        0.28625        0.29401        0.28596        0.33945        0.33803        0.36317        0.33449        0.35673        0.39818        0.34260        0.35937        0.35978        0.32411        0.32753        0.31066        0.30029        0.29298        0.28027        0.26464        0.28872        0.27969        0.29633        0.26821        0.31378        0.38075        0.27643        0.29982        0.28600        0.28437        0.33320        0.31823        0.31764        0.34053        0.33351        0.34368        0.32645        0.32271        0.32737        0.40493        0.36945        0.30287        0.32704        0.31648        0.36686        0.28619        0.29036        0.32100        0.31443        0.34243        0.38374        0.35044        0.29682        0.23711        0.30211        0.28385        0.27115        0.26865        0.30028        0.33037        0.26708        0.32279        0.34280        0.37925        0.29513        0.33648        0.30951        0.29653        0.29100        0.30008        0.31663        0.27286        0.26948        0.34876        0.35742        0.29311        0.35209        0.31906        0.26258        0.23883        0.21235        0.33837        0.31654        0.36390        0.36401        0.28581        0.23811        0.22764        0.31295        0.28204        0.27569        0.32827        0.30024        0.26059        0.29823        0.30820        0.30125        0.29939        0.29356        0.27782        0.23469        0.28125        0.32413        0.26217        0.21801        0.24057        0.27243        0.26349        0.21579        0.21220        0.27810        0.34548        0.30971        0.23840        0.17643        0.25445        0.18958        0.27415        0.26721        0.17650        0.17137        0.24555        0.22317        0.31782        0.03608       -0.19092       -0.68235       -0.96139
3.499075 3.461433 3.423999 3.386772 3.349751 3.312938 3.276332 3.239932 3.203740 3.167755 3.131977 3.096406 3.061042 3.025885 2.990935 2.956192 2.921656 2.887327 2.853205 2.819291 2.785583 2.752082 2.718788 2.685702 2.652822 2.620149 2.587684 2.555425 2.523374 2.491529 2.459892 2.428461 2.397238 2.366221 2.335412 2.304810 2.274414 2.244226 2.214245 2.184470 2.154903 2.125543 2.096390 2.067444 2.038705 2.010173 1.981848 1.953730 1.925819 1.898115 1.870618 2.226861 2.583885 1.854670 1.576443 1.355329 0.701147 1.158575 0.941600 1.063637 0.854665 1.662027 1.356290 1.375936 1.142656 0.672092 0.556777 0.852271 0.725969 0.378424 0.300953 0.553671 0.308029 0.327839 0.130621 0.008768 -0.021236 -0.021527 -0.367724 -0.141875 -0.009452 0.021092 -0.112783 -0.061837 -0.142299 -0.107507 0.010796 0.165747 0.211278 0.212324 0.350166 0.601859 0.513071 0.641130 0.772545 1.040079 0.759084 1.273445 1.174136 1.249203 1.351925 1.203467 1.129389 1.386282 1.141013 1.244580 1.126757 1.184675 1.151861 0.846964 0.638658 0.623926 0.676785 0.314533 0.338389 0.210119 0.096603 0.017450 -0.162202 0.102668 -0.001761 -0.094570 -0.012087 0.079447 0.209692 0.419844 0.438625 0.515967 0.521203 0.711639 0.424256 0.859383 0.844869 0.620697 0.763344 0.595873 0.759417 0.773132 0.470577 0.235375 0.258847 0.205339 0.020787 0.079912 -0.075186 -0.233327 0.060782 0.081848 0.060487 -0.023086 0.015747 0.134909 0.054097 0.313461 0.420828 0.403868 0.205540 0.491270 0.426346 0.224375 0.417136 0.262021 0.109779 0.107025 0.014401 0.080922 -0.128937 0.078414 -0.185732 -0.075871 -0.069321 0.124735 -0.116216 0.272765 0.246926 0.295366 0.258090 0.323645 0.615822 0.347623 0.282134 0.377411 0.193267 0.378391 0.055798 0.256386 0.049965 0.068724 0.051018 0.045022 0.031370 0.165156 0.049853 0.183185 0.260163 0.304031 0.304172 0.466545 0.333612 0.346178 0.378404 0.294290 0.175443 0.087901 0.094550 0.086692 0.024618 -0.022283 0.210568 0.294928 0.095824 0.169522 0.239318 0.134716 0.292550 0.304656 0.248338 0.185894 0.139427 0.243543 0.118226 0.127888 0.091855 -0.060994 0.071647 0.150849 0.139871 0.228955 0.206500 0.294087 0.112253 0.168279 0.184472 0.251669 0.139300 0.218815 0.117999 0.004886 0.036740 0.007290 0.149351 0.140413 0.204728 0.096190 0.204307 0.220411 0.034328 0.195165 0.095655 0.009284 0.054498 0.020818 -0.021925 -0.031536 -0.114064 -0.030190 -0.016000 -0.124348 -0.017592 -0.066940 0.062818 0.118827 -0.137543 -0.022997 -0.075181 -0.064971 0.066358 0.004944 -0.057430 0.030792 0.088745 0.017313 -0.048069 0.062025 -0.026174 0.282230 -0.002999 -0.119534 0.035761 0.004176 0.073124 -0.160284 -0.065726 0.013298 0.006367 0.075084 0.098391 0.079772 -0.105899 -0.143287 -0.029386 -0.078152 -0.071900 -0.080434 -0.039400 0.055046 -0.203733 0.159837 -0.014489 0.189354 -0.033314 0.067877 0.025433 -0.057018 0.059289 0.008965 -0.032791 -0.052041 -0.055464 0.112395 0.171133 -0.122339 0.155089 0.053039 -0.128351 -0.099341 -0.209320 0.175972 -0.001312 0.167726 0.189026 0.037458 -0.174280 -0.170455 0.019754 -0.046822 -0.121843 0.054436 -0.035970 -0.151171 -0.009794 -0.023917 0.100885 -0.014976 -0.072066 -0.000348 -0.251130 0.042551 0.065375 -0.112767 -0.166981 -0.162013 -0.042366 -0.031265 -0.150316 -0.198457 0.064633 0.140268 0.014689 -0.088388 -0.336362 0.077214 -0.201990 0.641831 0.574554 0.302373 0.369405 0.677313 0.540100 0.654760 -0.191063 -0.404993 -2.098434
0.072396 0.072836 0.074156 0.076356 0.079435 0.083393 0.088229 0.093941 0.100528 0.107988 0.116318 0.125516 0.135578 0.146498 0.158272 0.170893 0.184353 0.198644 0.213755 0.229674 0.246387 0.263878 0.282130 0.301122 0.320831 0.341232 0.362295 0.383991 0.406283 0.429132 0.452498 0.476333 0.500587 0.525205 0.550129 0.575294 0.600631 0.626068 0.651525 0.676918 0.702158 0.727152 0.751798 0.775994 0.799629 0.822587 0.844750 0.865992 0.886186 0.905199 0.922894 0.939131 0.953770 0.966665 0.977672 0.986644 0.993435 0.997902 0.999901 0.999294 0.995945 0.989726 0.980513 0.968192 0.952659 0.933820 0.911594 0.885914 0.856730 0.824007 0.787731 0.747907 0.704564 0.657752 0.607548 0.554055 0.497402 0.437749 0.375284 0.310226 0.242824 0.173358 0.102140 0.029511 0.044155 0.118459 0.192969 0.267232 0.340769 0.413078 0.483643 0.551927 0.617388 0.679474 0.737631 0.791309 0.839967 0.883076 0.920132 0.950655 0.974199 0.990360 0.998780 0.999157 0.991249 0.974882 0.949955 0.916447 0.874423 0.824036 0.765534 0.699258 0.625651 0.545251 0.458699 0.366728 0.270166 0.169931 0.067021 0.037491 0.142467 0.246715 0.349004 0.448073 0.542653 0.631478 0.713307 0.786941 0.851243 0.905155 0.947723 0.978112 0.995626 0.999727 0.990053 0.966428 0.928877 0.877640 0.813170 0.736145 0.647466 0.548250 0.439824 0.323714 0.201628 0.075434 0.052867 0.181166 0.307281 0.428994 0.544092 0.650403 0.745848 0.828476 0.896515 0.948408 0.982863 0.998882 0.995799 0.973309 0.931488 0.870810 0.792154 0.696804 0.586435 0.463097 0.329184 0.187396 0.040688 0.107785 0.254732 0.396801 0.530653 0.653042 0.760900 0.851421 0.922134 0.970984 0.996403 0.997361 0.973422 0.924774 0.852253 0.757339 0.642148 0.509398 0.362351 0.204753 0.040740 0.125262 0.288650 0.444777 0.589077 0.717209 0.825193 0.909542 0.967386 0.996583 0.995808 0.964630 0.903551 0.814029 0.698458 0.560131 0.403156 0.232358 0.053131 0.128712 0.307134 0.476063 0.629606 0.762264 0.869131 0.946097 0.990016 0.998855 0.971805 0.909349 0.813289 0.686719 0.533952 0.360389 0.172357 0.023122 0.218575 0.406358 0.578964 0.729325 0.851108 0.939008 0.988988 0.998495 0.966607 0.894123 0.783586 0.639218 0.466794 0.273434 0.067327 0.142600 0.347061 0.536822 0.703122 0.838091 0.935140 0.989305 0.997533 0.958875 0.874597 0.748179 0.585212 0.393179 0.181142 0.040659 0.261305 0.469707 0.655184 0.808016 0.919972 0.984783 0.998525 0.959885 0.870310 0.733996 0.557738 0.350636 0.123640 0.110988 0.340336 0.551544 0.732532 0.872716 0.963645 0.999550 0.977748 0.898882 0.766964 0.589224 0.375760 0.139000 0.106990 0.347331 0.567225 0.752880 0.892385 0.976519 0.999394 0.958918 0.857021 0.699624 0.496361 0.260023 0.005810 0.249640 0.489317 0.696990 0.858304 0.961828 0.999892 0.969220 0.871253 0.712160 0.502520 0.256665 0.008256 0.273436 0.519748 0.729113 0.885878 0.977994 0.998020 0.943769 0.818598 0.631277 0.395442 0.128657 0.148843 0.415684 0.650981 0.835991 0.955657 0.999871 0.964402 0.851365 0.669183 0.432037 0.158836 0.128255 0.405581 0.649936 0.840534 0.960813 0.999932 0.953825 0.825689 0.625866 0.371087 0.083135 0.212954 0.491064 0.726285 0.897196 0.987848 0.989335 0.900749 0.729426 0.490442 0.205355 0.099660 0.396189 0.656207 0.854756 0.972390 0.997149 0.925864 0.764640 0.528447 0.239816 0.073238 0.379877 0.649484 0.854731 0.974401
1.000000 1.000000 1.000000 1.000000 1.000000 1.000000 1.000000 1.000000 1.000000 1.000000 1.000000 1.000000 1.000000 1.000000 1.000000 1.000000 1.000000 1.000000 1.000000 1.000000 1.000000 1.000000 1.000000 1.000000 1.000000 1.000000 1.000000 1.000000 1.000000 1.000000 1.000000 1.000000 1.000000 1.000000 1.000000 1.000000 1.000000 1.000000 1.000000 1.000000 1.000000 1.000000 1.000000 1.000000 1.000000 1.000000 1.000000 1.000000 1.000000 1.000000 1.000000 1.000000 0.748883 0.748883 0.748883 0.748883 0.748883 0.748883 0.748883 0.748410 0.748410 0.748410 0.748410 0.748410 0.748410 0.748410 0.748410 0.748410 0.748410 0.748410 0.748410 0.748410 0.748410 0.748410 0.748410 0.748410 0.748410 0.748410 0.748410 0.748410 0.748410 0.748410 0.748410 0.748410 0.748410 0.748410 0.748410 0.748410 0.748410 0.748410 0.748410 0.748410 0.748410 0.748410 0.748410 0.748410 0.748410 0.748410 0.748410 0.748410 0.748410 0.748410 0.748410 0.899561 0.900623 0.903332 0.895550 0.888852 0.887708 0.882941 0.880033 0.881910 0.881402 0.882481 0.884069 0.887904 0.895304 0.904825 0.907925 0.915323 0.919257 0.919202 0.923925 0.923899 0.928919 0.925817 0.922818 0.913007 0.916500 0.915394 0.913650 0.911716 0.904836 0.916199 0.914153 0.911088 0.901607 0.896258 0.894647 0.895352 0.893158 0.894227 0.894384 0.893602 0.891506 0.892202 0.887240 0.886135 0.871705 0.869776 0.865958 0.862999 0.860331 0.857574 0.855473 0.846424 0.844931 0.841375 0.834436 0.834252 0.834216 0.834909 0.835800 0.836724 0.839469 0.832657 0.827626 0.826533 0.822098 0.815085 0.806396 0.806039 0.809556 0.817817 0.824972 0.823055 0.821050 0.811158 0.798337 0.796051 0.800446 0.776680 0.779107 0.784830 0.787677 0.785006 0.780610 0.776840 0.774055 0.769822 0.762311 0.770879 0.768408 0.760504 0.757233 0.757073 0.759009 0.768337 0.769016 0.759172 0.745239 0.741564 0.745420 0.751559 0.756140 0.748334 0.748806 0.753310 0.758575 0.763388 0.748995 0.743909 0.735834 0.729059 0.737940 0.758638 0.748515 0.754722 0.758479 0.751619 0.751040 0.744128 0.754114 0.756160 0.763452 0.763568 0.756587 0.710019 0.685123 0.646748 0.647697 0.650702 0.608061 0.608567 0.609280 0.608823 0.553427 0.514349 0.494352 0.491934 0.496758 0.502155 0.492762 0.484754 0.480350 0.477932 0.457572 0.443733 0.441452 0.445401 0.434750 0.444982 0.446174 0.443208 0.401051 0.409962 0.428509 0.438099 0.426256 0.414874 0.418318 0.404368 0.408493 0.403545 0.395981 0.350449 0.369138 0.347790 0.367426 0.328005 0.306321 0.279165 0.315721 0.308968 0.258954 0.286618 0.248751 0.247508 0.251256 0.237628 0.212670 0.230663 0.251451 0.214005 0.219286 0.216817 0.258858 0.250135 0.266453 0.285609 0.272537 0.260427 0.275774 0.259723 0.252112 0.224171 0.219886 0.214070 0.214713 0.267808 0.255285 0.257005 0.265542 0.287108 0.294540 0.305226 0.305986 0.304760 0.317516 0.287807 0.236759 0.244350 0.237710 0.244801 0.214954 0.170826 0.149976 0.155769 0.136620 0.130131 0.099089 0.094992 0.095160 0.104455 0.083805 0.089720 0.054270 0.065970 0.044807 0.071941 0.090822 0.094669 0.015714 0.015714 0.015714 0.015714 0.015714 0.015714 0.015714 0.015714 0.015714 0.015714 0.015714 -0.010546 -0.010546 -0.010546 -0.010546 -0.010546 -0.010546 -0.010546 -0.010546 -0.010546 -0.010546 -0.010546 -0.010546 -0.010546 -0.010546 -0.010546 -0.010546 -0.010546 -0.010546 -0.010546 -0.010546
0.000000 0.000000 0.000000 0.000000 0.000000 0.000000 0.000000 0.000000 0.000000 0.000000 0.000000 0.000000 0.000000 0.000000 0.000000 0.000000 0.000000 0.000000 0.000000 0.000000 0.000000 0.000000 0.000000 0.000000 0.000000 0.000000 0.000000 0.000000 0.000000 0.000000 0.000000 0.000000 0.000000 0.000000 0.000000 0.000000 0.000000 0.000000 0.000000 0.000000 0.000000 0.000000 0.000000 0.000000 0.000000 0.000000 0.000000 0.000000 0.000000 0.000000 0.000000 0.000000 0.173422 0.173422 0.173422 0.173422 0.173422 0.173422 0.173422 0.191565 0.191565 0.191565 0.191565 0.191565 0.191565 0.191565 0.191565 0.191565 0.191565 0.191565 0.191565 0.191565 0.191565 0.191565 0.191565 0.191565 0.191565 0.191565 0.191565 0.191565 0.191565 0.191565 0.191565 0.191565 0.191565 0.191565 0.191565 0.191565 0.191565 0.191565 0.191565 0.191565 0.191565 0.191565 0.191565 0.191565 0.191565 0.191565 0.191565 0.191565 0.191565 0.191565 0.191565 0.222222 0.222222 0.222222 0.222222 0.222222 0.222222 0.222222 0.222222 0.222222 0.222222 0.222222 0.222222 0.222222 0.222222 0.222222 0.222222 0.222222 0.222222 0.222222 0.222222 0.222222 0.222222 0.222222 0.222222 0.222222 0.222222 0.222222 0.222222 0.222222 0.222222 0.234082 0.234082 0.234082 0.234082 0.234082 0.234082 0.234082 0.234082 0.234082 0.234082 0.234082 0.234082 0.234082 0.234082 0.234082 0.234082 0.234082 0.234082 0.234082 0.234082 0.234082 0.234082 0.234082 0.234082 0.234082 0.244339 0.244339 0.244339 0.244339 0.244339 0.244339 0.244339 0.244339 0.244339 0.244339 0.244339 0.244339 0.244339 0.244339 0.244339 0.244339 0.244339 0.244339 0.244339 0.244339 0.244339 0.248069 0.248069 0.248069 0.248069 0.248069 0.248069 0.248069 0.248069 0.248069 0.248069 0.248069 0.248069 0.248069 0.248069 0.248069 0.248069 0.248069 0.248069 0.248069 0.256074 0.256074 0.256074 0.256074 0.256074 0.256074 0.256074 0.256074 0.256074 0.256074 0.256074 0.256074 0.256074 0.256074 0.256074 0.256074 0.256074 0.256074 0.256074 0.256074 0.256074 0.256074 0.256074 0.256074 0.256074 0.256074 0.256074 0.256074 0.256074 0.256074 0.256074 0.256074 0.256074 0.256074 0.256074 0.256074 0.256074 0.256074 0.256074 0.256074 0.256074 0.256074 0.256074 0.256074 0.256074 0.256074 0.256074 0.256074 0.256074 0.256074 0.256074 0.256074 0.256074 0.256074 0.256074 0.256074 0.256074 0.256074 0.256074 0.256074 0.256074 0.256074 0.251976 0.251976 0.251976 0.251976 0.251976 0.251976 0.251976 0.251976 0.251976 0.251976 0.251976 0.251976 0.251976 0.251976 0.264906 0.264906 0.264906 0.264906 0.264906 0.264906 0.264906 0.264906 0.264906 0.264906 0.264906 0.264906 0.248069 0.248069 0.248069 0.248069 0.248069 0.248069 0.248069 0.248069 0.248069 0.248069 0.248069 0.248069 0.248069 0.264906 0.264906 0.264906 0.264906 0.264906 0.264906 0.264906 0.264906 0.264906 0.264906 0.264906 0.248069 0.248069 0.248069 0.248069 0.248069 0.248069 0.248069 0.248069 0.248069 0.248069 0.248069 0.248069 0.264906 0.264906 0.264906 0.264906 0.264906 0.264906 0.264906 0.264906 0.264906 0.264906 0.248069 0.248069 0.248069 0.248069 0.248069 0.248069 0.248069 0.248069 0.248069 0.248069 0.248069 0.256074 0.256074 0.256074 0.256074 0.256074 0.256074 0.256074 0.256074 0.256074 0.256074 0.256074 0.256074 0.256074 0.256074 0.256074 0.256074 0.256074 0.256074 0.256074 0.256074
