# Output from CTFFind version 4.1.9, run on 2019-11-03 19:38:19
# Input file: stack16_bm3d_averaged_1_4.75_0_50_half.mrc ; Number of micrographs: 1
# Pixel size: 3.000 Angstroms ; acceleration voltage: 300.0 keV ; spherical aberration: 0.00 mm ; amplitude contrast: 0.07
# Box size: 512 pixels ; min. res.: 30.0 Angstroms ; max. res.: 5.0 Angstroms ; min. def.: 5000.0 um; max. def. 50000.0 um; num. frames averaged: 1
# 6 lines per micrograph: #1 - spatial frequency (1/Angstroms); #2 - 1D rotational average of spectrum (assuming no astigmatism); #3 - 1D rotational average of spectrum; #4 - CTF fit; #5 - cross-correlation between spectrum and CTF fit; #6 - 2sigma of expected cross correlation of noise
0.000000 0.000651 0.001302 0.001953 0.002604 0.003255 0.003906 0.004557 0.005208 0.005859 0.006510 0.007161 0.007812 0.008464 0.009115 0.009766 0.010417 0.011068 0.011719 0.012370 0.013021 0.013672 0.014323 0.014974 0.015625 0.016276 0.016927 0.017578 0.018229 0.018880 0.019531 0.020182 0.020833 0.021484 0.022135 0.022786 0.023438 0.024089 0.024740 0.025391 0.026042 0.026693 0.027344 0.027995 0.028646 0.029297 0.029948 0.030599 0.031250 0.031901 0.032552 0.033203 0.033854 0.034505 0.035156 0.035807 0.036458 0.037109 0.037760 0.038411 0.039062 0.039714 0.040365 0.041016 0.041667 0.042318 0.042969 0.043620 0.044271 0.044922 0.045573 0.046224 0.046875 0.047526 0.048177 0.048828 0.049479 0.050130 0.050781 0.051432 0.052083 0.052734 0.053385 0.054036 0.054688 0.055339 0.055990 0.056641 0.057292 0.057943 0.058594 0.059245 0.059896 0.060547 0.061198 0.061849 0.062500 0.063151 0.063802 0.064453 0.065104 0.065755 0.066406 0.067057 0.067708 0.068359 0.069010 0.069661 0.070312 0.070964 0.071615 0.072266 0.072917 0.073568 0.074219 0.074870 0.075521 0.076172 0.076823 0.077474 0.078125 0.078776 0.079427 0.080078 0.080729 0.081380 0.082031 0.082682 0.083333 0.083984 0.084635 0.085286 0.085938 0.086589 0.087240 0.087891 0.088542 0.089193 0.089844 0.090495 0.091146 0.091797 0.092448 0.093099 0.093750 0.094401 0.095052 0.095703 0.096354 0.097005 0.097656 0.098307 0.098958 0.099609 0.100260 0.100911 0.101562 0.102214 0.102865 0.103516 0.104167 0.104818 0.105469 0.106120 0.106771 0.107422 0.108073 0.108724 0.109375 0.110026 0.110677 0.111328 0.111979 0.112630 0.113281 0.113932 0.114583 0.115234 0.115885 0.116536 0.117188 0.117839 0.118490 0.119141 0.119792 0.120443 0.121094 0.121745 0.122396 0.123047 0.123698 0.124349 0.125000 0.125651 0.126302 0.126953 0.127604 0.128255 0.128906 0.129557 0.130208 0.130859 0.131510 0.132161 0.132812 0.133464 0.134115 0.134766 0.135417 0.136068 0.136719 0.137370 0.138021 0.138672 0.139323 0.139974 0.140625 0.141276 0.141927 0.142578 0.143229 0.143880 0.144531 0.145182 0.145833 0.146484 0.147135 0.147786 0.148438 0.149089 0.149740 0.150391 0.151042 0.151693 0.152344 0.152995 0.153646 0.154297 0.154948 0.155599 0.156250 0.156901 0.157552 0.158203 0.158854 0.159505 0.160156 0.160807 0.161458 0.162109 0.162760 0.163411 0.164062 0.164714 0.165365 0.166016 0.166667 0.167318 0.167969 0.168620 0.169271 0.169922 0.170573 0.171224 0.171875 0.172526 0.173177 0.173828 0.174479 0.175130 0.175781 0.176432 0.177083 0.177734 0.178385 0.179036 0.179688 0.180339 0.180990 0.181641 0.182292 0.182943 0.183594 0.184245 0.184896 0.185547 0.186198 0.186849 0.187500 0.188151 0.188802 0.189453 0.190104 0.190755 0.191406 0.192057 0.192708 0.193359 0.194010 0.194661 0.195312 0.195964 0.196615 0.197266 0.197917 0.198568 0.199219 0.199870 0.200521 0.201172 0.201823 0.202474 0.203125 0.203776 0.204427 0.205078 0.205729 0.206380 0.207031 0.207682 0.208333 0.208984 0.209635 0.210286 0.210938 0.211589 0.212240 0.212891 0.213542 0.214193 0.214844 0.215495 0.216146 0.216797 0.217448 0.218099 0.218750 0.219401 0.220052 0.220703 0.221354 0.222005 0.222656 0.223307 0.223958 0.224609 0.225260 0.225911 0.226562 0.227214 0.227865 0.228516 0.229167 0.229818 0.230469 0.231120 0.231771 0.232422 0.233073 0.233724 0.234375 0.235026 0.235677
       0.34022        0.34022        0.34022        0.34022        0.34022        0.34022        0.34022        0.34022        0.34022        0.34022        0.34022        0.34022        0.34022        0.34022        0.34022        0.34022        0.34022        0.34022        0.34022        0.34022        0.34022        0.34022        0.34022        0.34022        0.34022        0.34022        0.34022        0.34022        0.34022        0.34022        0.34022        0.34022        0.34022        0.34022        0.34022        0.34022        0.34022        0.34022        0.34022        0.34022        0.34022        0.34022        0.34022        0.34022        0.34022        0.34022        0.34022        0.34022        0.34022        0.34022        0.34022        0.42323        0.55882        0.34510       -0.20758       -0.45509       -0.55133       -0.65097       -0.72172       -0.73421       -0.83344       -0.90083       -0.69527       -0.85322       -0.83328       -0.97927       -1.01592       -0.89858       -0.85709       -0.80881       -0.72899       -0.65797       -0.56984       -0.47566       -0.40884       -0.18005       -0.07557        0.02116        0.24712        0.25040        0.30667        0.36854        0.39717        0.50969        0.53551        0.57140        0.53198        0.47265        0.50713        0.51530        0.43746        0.32548        0.20383        0.17361        0.10415       -0.00667       -0.02124       -0.02980        0.04464        0.00833        0.06397        0.03797        0.15346        0.18988        0.40321        0.45742        0.55121        0.65752        0.68828        0.71366        0.63579        0.61151        0.53375        0.43753        0.38228        0.26676        0.20996        0.20243        0.08925        0.09463        0.08639        0.07541        0.08883        0.30141        0.41053        0.51508        0.53305        0.57282        0.60855        0.58749        0.57549        0.58331        0.56444        0.46450        0.29586        0.25550        0.24021        0.13584        0.08256        0.15254        0.18611        0.27633        0.34883        0.41733        0.46967        0.52945        0.60003        0.54708        0.50611        0.49392        0.35309        0.25873        0.24539        0.16735        0.17486        0.21757        0.26125        0.27352        0.31644        0.42065        0.45058        0.49768        0.45172        0.44335        0.47718        0.38293        0.32313        0.27957        0.24829        0.22352        0.22189        0.23301        0.33074        0.43617        0.42424        0.48809        0.55158        0.44210        0.40844        0.35313        0.30401        0.25691        0.27046        0.26742        0.28439        0.33351        0.34481        0.42499        0.46908        0.43485        0.45372        0.36539        0.37454        0.35148        0.26038        0.23987        0.23750        0.31369        0.37018        0.36438        0.38592        0.43028        0.43356        0.36638        0.33436        0.31596        0.34516        0.30444        0.27252        0.27499        0.34274        0.36395        0.37947        0.39045        0.38015        0.40926        0.39281        0.30864        0.28043        0.31164        0.33984        0.36439        0.35789        0.40378        0.33717        0.36933        0.38820        0.32898        0.34923        0.31192        0.29311        0.33387        0.33262        0.31998        0.34160        0.36287        0.32198        0.34023        0.30954        0.31029        0.28421        0.31067        0.30567        0.32563        0.36400        0.36365        0.34462        0.30003        0.28875        0.28234        0.32394        0.30164        0.31000        0.36238        0.35859        0.33660        0.30708        0.30154        0.30813        0.26967        0.29967        0.31165        0.32507        0.35968        0.33792        0.29572        0.32763        0.32648        0.31593        0.35398        0.34029        0.30651        0.32916        0.28924        0.31969        0.28777        0.30693        0.28928        0.31789        0.35875        0.32862        0.34717        0.30365        0.31806        0.33920        0.33113        0.30105        0.30216        0.34090        0.32846        0.32184        0.31397        0.31000        0.30085        0.30633        0.31907        0.31900        0.33900        0.33499        0.33154        0.28616        0.27640        0.26507        0.26528        0.36112        0.31015        0.35406        0.29428        0.25954        0.27833        0.35763        0.30346        0.28117        0.28951        0.31058        0.28877        0.26601        0.30837        0.27089        0.27341        0.29809        0.31878        0.33339        0.32181        0.29990        0.26561        0.26286        0.25490        0.26409        0.29154        0.35397        0.28433        0.19469        0.29921        0.27668        0.31173        0.23901        0.30605        0.30526        0.32915        0.28492        0.26911        0.26737        0.23103        0.29078        0.33934        0.35199        0.24109        0.27577        0.21615        0.21840        0.20620        0.33878        0.24580        0.20180        0.13470        0.22315        0.28808        0.20676        0.17074        0.07838       -0.55710       -0.71160
3.136060 3.096524 3.057245 3.018222 2.979454 2.940942 2.902686 2.864685 2.826941 2.789452 2.752219 2.715242 2.678520 2.642055 2.605845 2.569891 2.534193 2.498750 2.463564 2.428633 2.393958 2.359539 2.325375 2.291468 2.257816 2.224420 2.191280 2.158395 2.125767 2.093394 2.061277 2.029415 1.997810 1.966460 1.935367 1.904529 1.873946 1.843620 1.813549 1.783734 1.754175 1.724872 1.695825 1.667033 1.638497 1.610217 1.582193 1.554424 1.526912 1.499655 1.472654 1.508097 1.596000 1.535930 0.848698 0.591133 0.450727 0.381737 0.288188 0.208789 0.170980 -0.055631 0.197305 0.061685 -0.038831 -0.118804 -0.242846 -0.152320 -0.065216 -0.094603 -0.082900 0.030956 0.025866 0.220484 0.102079 0.351027 0.459386 0.482677 0.760995 0.686621 0.688183 0.828814 0.798541 0.835986 0.920907 0.861519 0.893944 0.729667 0.800595 0.845736 0.680327 0.605707 0.438956 0.425357 0.345061 0.184465 0.182716 0.115651 0.211071 0.117871 0.212330 0.105602 0.222071 0.233189 0.451608 0.410674 0.586359 0.624992 0.657714 0.727294 0.620028 0.596920 0.467146 0.418879 0.300414 0.268874 0.101306 0.162732 -0.024618 0.036090 -0.033753 -0.040155 -0.044423 0.035953 0.282225 0.300027 0.375446 0.318677 0.400170 0.410193 0.437466 0.418668 0.367435 0.347289 0.135006 0.083565 0.066498 -0.010451 -0.150450 -0.042070 -0.068555 0.042959 0.089759 0.162083 0.231368 0.239762 0.332645 0.417691 0.305062 0.370488 0.251302 0.142610 0.065947 0.046505 0.004215 0.044363 0.072414 0.104889 0.118201 0.186253 0.243484 0.308388 0.289760 0.227749 0.259169 0.231982 0.110978 0.078221 0.047810 0.035314 0.006947 -0.005821 0.038500 0.174096 0.193318 0.196734 0.312566 0.193219 0.204695 0.084235 0.074937 -0.001016 -0.006310 0.005482 -0.000165 0.044002 0.058971 0.096341 0.159824 0.149372 0.218066 0.130109 0.079831 0.103575 0.047935 -0.060161 -0.026224 0.016984 0.058945 0.073225 0.076085 0.155925 0.125888 0.151082 0.036186 0.055472 0.049876 0.049687 0.025374 -0.022070 0.038488 0.043629 0.087808 0.110203 0.092729 0.108422 0.126365 0.074713 0.009771 -0.002806 0.032195 0.082165 0.062765 0.103392 0.096239 0.051795 0.113205 0.066498 0.041281 0.081429 -0.020809 0.021078 0.059643 0.038250 0.038292 0.054747 0.070859 0.050597 0.059057 0.010250 0.020994 -0.005954 0.044511 0.002203 0.047303 0.069396 0.071648 0.037298 -0.012295 -0.009375 -0.016823 0.033312 -0.001519 0.012828 0.069061 0.058048 -0.009475 0.009124 -0.011820 0.009564 -0.044276 -0.008548 -0.001123 0.030583 0.041305 0.018987 -0.018545 0.006267 0.005072 0.002116 0.043991 0.012712 -0.012193 0.040439 -0.040972 -0.017201 -0.047543 -0.013126 -0.039870 0.017456 0.043531 0.000742 -0.000710 -0.002160 0.007193 0.023657 0.025211 -0.015138 -0.001395 0.024753 0.046610 0.013622 0.009595 0.040509 -0.009018 0.003081 0.024889 0.003416 0.075256 0.055033 0.027888 0.001814 -0.007622 -0.033428 0.003226 0.081630 0.000277 0.074570 -0.017201 -0.024886 -0.019615 0.093903 -0.003142 -0.011422 0.023589 0.042140 0.007093 0.007731 0.029881 0.005870 0.012574 0.021316 0.074157 0.080082 0.053079 0.035054 0.004634 -0.002085 -0.006138 -0.018365 0.008016 0.107097 -0.024171 -0.097538 0.058699 -0.009885 0.045400 -0.056211 0.017192 0.013627 0.022529 -0.002333 -0.022396 -0.015465 -0.078577 0.024309 0.048089 0.070011 -0.121530 0.002811 -0.039282 -0.016076 -0.110765 0.122788 0.019260 0.010881 -0.072453 0.152765 0.263521 0.144646 0.123854 0.082543 -0.675866
0.072396 0.073047 0.074998 0.078250 0.082802 0.088651 0.095796 0.104233 0.113960 0.124969 0.137256 0.150812 0.165626 0.181686 0.198976 0.217478 0.237170 0.258026 0.280014 0.303101 0.327244 0.352396 0.378504 0.405507 0.433337 0.461917 0.491162 0.520978 0.551260 0.581894 0.612755 0.643707 0.674604 0.705288 0.735588 0.765324 0.794302 0.822320 0.849164 0.874609 0.898421 0.920360 0.940174 0.957610 0.972408 0.984306 0.993041 0.998354 0.999989 0.997698 0.991242 0.980397 0.964956 0.944735 0.919571 0.889333 0.853923 0.813279 0.767383 0.716261 0.659989 0.598697 0.532574 0.461868 0.386890 0.308017 0.225693 0.140431 0.052810 0.036524 0.126861 0.217430 0.307402 0.395899 0.482001 0.564751 0.643170 0.716265 0.783043 0.842527 0.893767 0.935862 0.967972 0.989340 0.999308 0.997334 0.983013 0.956092 0.916487 0.864296 0.799814 0.723539 0.636184 0.538676 0.432156 0.317976 0.197692 0.073041 0.054069 0.181588 0.307354 0.429127 0.544628 0.651584 0.747771 0.831072 0.899521 0.951358 0.985084 0.999508 0.993793 0.967503 0.920632 0.853635 0.767447 0.663487 0.543655 0.410312 0.266252 0.114652 0.040987 0.196912 0.349202 0.493871 0.626970 0.744699 0.843525 0.920301 0.972373 0.997691 0.994905 0.963439 0.903556 0.816391 0.703966 0.569168 0.415704 0.248019 0.071188 0.109224 0.287329 0.457105 0.612597 0.748138 0.858566 0.939437 0.987229 0.999515 0.975112 0.914183 0.818299 0.690441 0.534949 0.357409 0.164481 0.036325 0.236928 0.428993 0.604275 0.754990 0.874171 0.956020 0.996220 0.992195 0.943311 0.850984 0.718707 0.551965 0.358064 0.145842 0.074700 0.292853 0.497706 0.678707 0.826214 0.932043 0.989960 0.996091 0.949231 0.851010 0.705922 0.521185 0.306439 0.073290 0.165282 0.395624 0.604195 0.778372 0.907245 0.982345 0.998258 0.953072 0.848629 0.690549 0.488005 0.253264 0.000999 0.252594 0.490814 0.697564 0.858464 0.961893 0.999901 0.968883 0.869992 0.709220 0.497132 0.248261 0.019824 0.287715 0.535552 0.744499 0.898224 0.984226 0.994935 0.928468 0.788963 0.586449 0.336230 0.057818 0.226533 0.493568 0.720943 0.889130 0.983162 0.994053 0.919767 0.765609 0.543990 0.273546 0.022332 0.317461 0.585155 0.800663 0.943498 0.999493 0.962314 0.834290 0.626453 0.357735 0.053357 0.257448 0.544210 0.778215 0.935438 0.999105 0.961616 0.825586 0.603868 0.318498 0.001363 0.322313 0.610178 0.833661 0.967822 0.996986 0.916726 0.734663 0.469945 0.151398 0.185488 0.502444 0.762768 0.935633 0.999856 0.946658 0.781034 0.521525 0.198326 0.150073 0.481390 0.754663 0.935385 0.999982 0.939072 0.759016 0.481509 0.141173 0.218608 0.551137 0.812468 0.967290 0.993870 0.887302 0.660587 0.343306 0.022035 0.385557 0.696775 0.911648 0.998950 0.945012 0.756100 0.457988 0.092690 0.287287 0.626388 0.874174 0.992935 0.963639 0.789238 0.494733 0.123863 0.267182 0.618177 0.874149 0.994114 0.957867 0.769658 0.458074 0.071983 0.326918 0.673868 0.911587 0.999892 0.922751 0.691487 0.343495 0.063545 0.460987 0.780796 0.967226 0.986791 0.834566 0.535665 0.141471 0.278961 0.650830 0.906930 0.999980 0.911621 0.656393 0.279763 0.149680 0.552478 0.853015 0.993806 0.946802 0.719333 0.353417 0.081613 0.502013 0.825709 0.988393 0.956617 0.735036 0.366243 0.077005 0.505915 0.833328 0.991598 0.946833 0.706594 0.319108 0.135971 0.563724 0.873662 0.999075 0.911703 0.628559 0.209134 0.256725 0.667801
1.000000 1.000000 1.000000 1.000000 1.000000 1.000000 1.000000 1.000000 1.000000 1.000000 1.000000 1.000000 1.000000 1.000000 1.000000 1.000000 1.000000 1.000000 1.000000 1.000000 1.000000 1.000000 1.000000 1.000000 1.000000 1.000000 1.000000 1.000000 1.000000 1.000000 1.000000 1.000000 1.000000 1.000000 1.000000 1.000000 1.000000 1.000000 1.000000 1.000000 1.000000 1.000000 1.000000 1.000000 1.000000 1.000000 1.000000 1.000000 1.000000 1.000000 1.000000 1.000000 0.926424 0.926424 0.926424 0.926424 0.926424 0.926424 0.926424 0.926424 0.926424 0.926424 0.926424 0.926424 0.926424 0.926424 0.926424 0.926424 0.926424 0.926424 0.926424 0.926424 0.926424 0.926424 0.926424 0.926424 0.926424 0.926424 0.926424 0.926424 0.926424 0.926424 0.926424 0.926424 0.926424 0.913437 0.911511 0.912681 0.913861 0.913765 0.913212 0.912849 0.913886 0.915441 0.917450 0.939050 0.942085 0.943249 0.944535 0.945953 0.948381 0.946375 0.954130 0.960764 0.959803 0.960823 0.954692 0.955973 0.955363 0.954648 0.956213 0.956260 0.954661 0.952774 0.951308 0.950814 0.950527 0.954111 0.954552 0.954734 0.955282 0.955219 0.955938 0.956558 0.954691 0.956892 0.949088 0.947878 0.953269 0.951407 0.952963 0.952931 0.953626 0.954409 0.954694 0.954935 0.951799 0.951474 0.950747 0.940552 0.934058 0.932738 0.935161 0.938516 0.935909 0.932201 0.933521 0.936057 0.935176 0.934528 0.924652 0.920766 0.898058 0.886623 0.875140 0.875656 0.878550 0.880742 0.878339 0.870438 0.860675 0.856717 0.857879 0.852817 0.846608 0.862864 0.857769 0.857122 0.861074 0.863965 0.869436 0.866030 0.861867 0.857073 0.852738 0.846560 0.848805 0.853410 0.857333 0.841005 0.832407 0.849147 0.838509 0.829173 0.836465 0.838397 0.834944 0.833801 0.834509 0.832912 0.826297 0.820641 0.823610 0.833093 0.832237 0.820391 0.816841 0.811840 0.811638 0.804549 0.807740 0.807766 0.804183 0.797625 0.813415 0.781567 0.805328 0.804211 0.791019 0.775320 0.760191 0.769574 0.781223 0.784328 0.778064 0.768640 0.767673 0.761389 0.736782 0.740170 0.747692 0.745957 0.732933 0.711404 0.719171 0.726209 0.720752 0.714894 0.717416 0.718901 0.689400 0.703060 0.706868 0.692922 0.707944 0.710716 0.701478 0.701900 0.704011 0.705197 0.699300 0.659319 0.662087 0.660417 0.652460 0.600052 0.600420 0.599684 0.553002 0.556892 0.521148 0.503320 0.503382 0.499381 0.547099 0.509548 0.503564 0.533493 0.461880 0.373692 0.387942 0.386445 0.402845 0.411209 0.387118 0.386509 0.373581 0.354775 0.364071 0.380985 0.394866 0.367074 0.367294 0.360413 0.332684 0.303435 0.314975 0.319107 0.342755 0.345027 0.321995 0.353841 0.392105 0.336344 0.312071 0.297116 0.296922 0.310342 0.312686 0.302045 0.273037 0.270882 0.238688 0.263703 0.253071 0.246812 0.263381 0.295806 0.289813 0.298352 0.315442 0.266015 0.282383 0.286029 0.275160 0.277831 0.285552 0.284230 0.273209 0.289142 0.262003 0.267428 0.248066 0.232117 0.297195 0.274779 0.245528 0.241830 0.248504 0.254970 0.225031 0.181859 0.158760 0.164448 0.099847 0.081150 0.081812 0.075506 0.030693 0.005735 -0.010539 -0.047561 -0.046862 -0.044815 -0.012400 -0.043937 -0.017388 -0.004270 -0.004270 -0.004270 -0.004270 -0.004270 -0.004270 -0.004270 -0.004270 -0.004270 -0.004270 -0.004270 -0.004270 -0.004270 -0.004270 0.018070 0.018070 0.018070 0.018070 0.018070 0.018070 0.018070 0.018070 0.018070 0.018070 0.018070 0.018070
0.000000 0.000000 0.000000 0.000000 0.000000 0.000000 0.000000 0.000000 0.000000 0.000000 0.000000 0.000000 0.000000 0.000000 0.000000 0.000000 0.000000 0.000000 0.000000 0.000000 0.000000 0.000000 0.000000 0.000000 0.000000 0.000000 0.000000 0.000000 0.000000 0.000000 0.000000 0.000000 0.000000 0.000000 0.000000 0.000000 0.000000 0.000000 0.000000 0.000000 0.000000 0.000000 0.000000 0.000000 0.000000 0.000000 0.000000 0.000000 0.000000 0.000000 0.000000 0.000000 0.209657 0.209657 0.209657 0.209657 0.209657 0.209657 0.209657 0.209657 0.209657 0.209657 0.209657 0.209657 0.209657 0.209657 0.209657 0.209657 0.209657 0.209657 0.209657 0.209657 0.209657 0.209657 0.209657 0.209657 0.209657 0.209657 0.209657 0.209657 0.209657 0.209657 0.209657 0.209657 0.209657 0.244339 0.244339 0.244339 0.244339 0.244339 0.244339 0.244339 0.244339 0.244339 0.244339 0.244339 0.244339 0.244339 0.244339 0.244339 0.244339 0.244339 0.244339 0.244339 0.244339 0.244339 0.244339 0.244339 0.244339 0.244339 0.260378 0.260378 0.260378 0.260378 0.260378 0.260378 0.260378 0.260378 0.260378 0.260378 0.260378 0.260378 0.260378 0.260378 0.260378 0.260378 0.260378 0.260378 0.260378 0.260378 0.269680 0.269680 0.269680 0.269680 0.269680 0.269680 0.269680 0.269680 0.269680 0.269680 0.269680 0.269680 0.269680 0.269680 0.269680 0.269680 0.269680 0.269680 0.269680 0.269680 0.269680 0.269680 0.269680 0.269680 0.269680 0.269680 0.269680 0.269680 0.269680 0.269680 0.269680 0.269680 0.269680 0.280056 0.280056 0.280056 0.280056 0.280056 0.280056 0.280056 0.280056 0.280056 0.280056 0.280056 0.280056 0.280056 0.280056 0.280056 0.280056 0.280056 0.280056 0.280056 0.280056 0.280056 0.280056 0.280056 0.280056 0.280056 0.280056 0.280056 0.274721 0.274721 0.274721 0.274721 0.274721 0.274721 0.274721 0.274721 0.274721 0.274721 0.274721 0.274721 0.274721 0.285714 0.285714 0.285714 0.285714 0.285714 0.285714 0.285714 0.285714 0.285714 0.285714 0.285714 0.280056 0.280056 0.280056 0.280056 0.280056 0.280056 0.280056 0.280056 0.280056 0.280056 0.280056 0.274721 0.274721 0.274721 0.274721 0.274721 0.274721 0.274721 0.274721 0.274721 0.274721 0.274721 0.280056 0.280056 0.280056 0.280056 0.280056 0.280056 0.280056 0.280056 0.280056 0.280056 0.285714 0.285714 0.285714 0.285714 0.285714 0.285714 0.285714 0.285714 0.285714 0.269680 0.269680 0.269680 0.269680 0.269680 0.269680 0.269680 0.269680 0.269680 0.269680 0.274721 0.274721 0.274721 0.274721 0.274721 0.274721 0.274721 0.274721 0.274721 0.285714 0.285714 0.285714 0.285714 0.285714 0.285714 0.285714 0.285714 0.264906 0.264906 0.264906 0.264906 0.264906 0.264906 0.264906 0.264906 0.264906 0.274721 0.274721 0.274721 0.274721 0.274721 0.274721 0.274721 0.274721 0.269680 0.269680 0.269680 0.269680 0.269680 0.269680 0.269680 0.269680 0.269680 0.269680 0.269680 0.269680 0.269680 0.269680 0.269680 0.269680 0.280056 0.280056 0.280056 0.280056 0.280056 0.280056 0.280056 0.260378 0.260378 0.260378 0.260378 0.260378 0.260378 0.260378 0.260378 0.269680 0.269680 0.269680 0.269680 0.269680 0.269680 0.269680 0.264906 0.264906 0.264906 0.264906 0.264906 0.264906 0.264906 0.264906 0.264906 0.264906 0.264906 0.264906 0.264906 0.264906 0.260378 0.260378 0.260378 0.260378 0.260378 0.260378 0.260378 0.260378 0.260378 0.260378 0.260378 0.260378
