# Output from CTFFind version 4.1.9, run on 2019-11-02 17:49:28
# Input file: stack11_bm3d_averaged_1_0.75_0_2500_half.mrc ; Number of micrographs: 1
# Pixel size: 3.000 Angstroms ; acceleration voltage: 300.0 keV ; spherical aberration: 0.00 mm ; amplitude contrast: 0.07
# Box size: 512 pixels ; min. res.: 30.0 Angstroms ; max. res.: 5.0 Angstroms ; min. def.: 5000.0 um; max. def. 50000.0 um; num. frames averaged: 1
# 6 lines per micrograph: #1 - spatial frequency (1/Angstroms); #2 - 1D rotational average of spectrum (assuming no astigmatism); #3 - 1D rotational average of spectrum; #4 - CTF fit; #5 - cross-correlation between spectrum and CTF fit; #6 - 2sigma of expected cross correlation of noise
0.000000 0.000651 0.001302 0.001953 0.002604 0.003255 0.003906 0.004557 0.005208 0.005859 0.006510 0.007161 0.007812 0.008464 0.009115 0.009766 0.010417 0.011068 0.011719 0.012370 0.013021 0.013672 0.014323 0.014974 0.015625 0.016276 0.016927 0.017578 0.018229 0.018880 0.019531 0.020182 0.020833 0.021484 0.022135 0.022786 0.023438 0.024089 0.024740 0.025391 0.026042 0.026693 0.027344 0.027995 0.028646 0.029297 0.029948 0.030599 0.031250 0.031901 0.032552 0.033203 0.033854 0.034505 0.035156 0.035807 0.036458 0.037109 0.037760 0.038411 0.039062 0.039714 0.040365 0.041016 0.041667 0.042318 0.042969 0.043620 0.044271 0.044922 0.045573 0.046224 0.046875 0.047526 0.048177 0.048828 0.049479 0.050130 0.050781 0.051432 0.052083 0.052734 0.053385 0.054036 0.054688 0.055339 0.055990 0.056641 0.057292 0.057943 0.058594 0.059245 0.059896 0.060547 0.061198 0.061849 0.062500 0.063151 0.063802 0.064453 0.065104 0.065755 0.066406 0.067057 0.067708 0.068359 0.069010 0.069661 0.070312 0.070964 0.071615 0.072266 0.072917 0.073568 0.074219 0.074870 0.075521 0.076172 0.076823 0.077474 0.078125 0.078776 0.079427 0.080078 0.080729 0.081380 0.082031 0.082682 0.083333 0.083984 0.084635 0.085286 0.085938 0.086589 0.087240 0.087891 0.088542 0.089193 0.089844 0.090495 0.091146 0.091797 0.092448 0.093099 0.093750 0.094401 0.095052 0.095703 0.096354 0.097005 0.097656 0.098307 0.098958 0.099609 0.100260 0.100911 0.101562 0.102214 0.102865 0.103516 0.104167 0.104818 0.105469 0.106120 0.106771 0.107422 0.108073 0.108724 0.109375 0.110026 0.110677 0.111328 0.111979 0.112630 0.113281 0.113932 0.114583 0.115234 0.115885 0.116536 0.117188 0.117839 0.118490 0.119141 0.119792 0.120443 0.121094 0.121745 0.122396 0.123047 0.123698 0.124349 0.125000 0.125651 0.126302 0.126953 0.127604 0.128255 0.128906 0.129557 0.130208 0.130859 0.131510 0.132161 0.132812 0.133464 0.134115 0.134766 0.135417 0.136068 0.136719 0.137370 0.138021 0.138672 0.139323 0.139974 0.140625 0.141276 0.141927 0.142578 0.143229 0.143880 0.144531 0.145182 0.145833 0.146484 0.147135 0.147786 0.148438 0.149089 0.149740 0.150391 0.151042 0.151693 0.152344 0.152995 0.153646 0.154297 0.154948 0.155599 0.156250 0.156901 0.157552 0.158203 0.158854 0.159505 0.160156 0.160807 0.161458 0.162109 0.162760 0.163411 0.164062 0.164714 0.165365 0.166016 0.166667 0.167318 0.167969 0.168620 0.169271 0.169922 0.170573 0.171224 0.171875 0.172526 0.173177 0.173828 0.174479 0.175130 0.175781 0.176432 0.177083 0.177734 0.178385 0.179036 0.179688 0.180339 0.180990 0.181641 0.182292 0.182943 0.183594 0.184245 0.184896 0.185547 0.186198 0.186849 0.187500 0.188151 0.188802 0.189453 0.190104 0.190755 0.191406 0.192057 0.192708 0.193359 0.194010 0.194661 0.195312 0.195964 0.196615 0.197266 0.197917 0.198568 0.199219 0.199870 0.200521 0.201172 0.201823 0.202474 0.203125 0.203776 0.204427 0.205078 0.205729 0.206380 0.207031 0.207682 0.208333 0.208984 0.209635 0.210286 0.210938 0.211589 0.212240 0.212891 0.213542 0.214193 0.214844 0.215495 0.216146 0.216797 0.217448 0.218099 0.218750 0.219401 0.220052 0.220703 0.221354 0.222005 0.222656 0.223307 0.223958 0.224609 0.225260 0.225911 0.226562 0.227214 0.227865 0.228516 0.229167 0.229818 0.230469 0.231120 0.231771 0.232422 0.233073 0.233724 0.234375 0.235026 0.235677
       0.31594        0.31594        0.31594        0.31594        0.31594        0.31594        0.31594        0.31594        0.31594        0.31594        0.31594        0.31594        0.31594        0.31594        0.31594        0.31594        0.31594        0.31594        0.31594        0.31594        0.31594        0.31594        0.31594        0.31594        0.31594        0.31594        0.31594        0.31594        0.31594        0.31594        0.31594        0.31594        0.31594        0.31594        0.31594        0.31594        0.31594        0.31594        0.31594        0.31594        0.31594        0.31594        0.31594        0.31594        0.31594        0.31594        0.31594        0.31594        0.31594        0.31594        0.31594        0.68431        0.87261        0.52109        0.08465       -0.06942       -0.42822       -0.20874       -0.29759       -0.11893       -0.07989       -0.11950       -0.07107       -0.21170       -0.24023       -0.26200       -0.33194       -0.33878       -0.49541       -0.38642       -0.46979       -0.45336       -0.42342       -0.47320       -0.55183       -0.56705       -0.59081       -0.63048       -0.58177       -0.41884       -0.37983       -0.33172       -0.31875       -0.21514       -0.20098        0.01893        0.06550        0.09985        0.22119        0.37088        0.44141        0.51624        0.55830        0.55266        0.57221        0.69859        0.81474        0.74757        0.73415        0.67503        0.58202        0.48644        0.40553        0.49129        0.36994        0.19831        0.07640        0.04290        0.00423       -0.06101       -0.04309       -0.02974       -0.07652       -0.00698       -0.02390        0.20852        0.24723        0.29216        0.42915        0.46675        0.40327        0.53034        0.63142        0.70434        0.76860        0.69033        0.66252        0.70146        0.58886        0.50701        0.41815        0.28888        0.18369        0.15707        0.10840        0.03489        0.01141       -0.00262        0.07475        0.13224        0.20169        0.28331        0.40360        0.41513        0.51049        0.60159        0.63717        0.61127        0.63102        0.55215        0.44465        0.44030        0.35018        0.22822        0.18463        0.14869        0.10139        0.11733        0.06223        0.09771        0.21722        0.26204        0.33847        0.34369        0.45248        0.51103        0.53623        0.55131        0.46764        0.42533        0.39280        0.37773        0.30777        0.24993        0.20042        0.18272        0.16050        0.19085        0.17641        0.26730        0.33245        0.36250        0.41965        0.46206        0.47786        0.44556        0.39232        0.41115        0.37610        0.29212        0.27543        0.22879        0.21119        0.19247        0.20961        0.22942        0.32775        0.37103        0.36474        0.45637        0.43746        0.43946        0.42937        0.39431        0.34180        0.32905        0.27837        0.23259        0.23345        0.26664        0.26892        0.29796        0.29619        0.33954        0.32861        0.41014        0.41591        0.37261        0.34166        0.36192        0.28046        0.27930        0.26262        0.27575        0.25781        0.28027        0.29414        0.31638        0.35262        0.35675        0.35840        0.33119        0.35033        0.28717        0.32408        0.26628        0.24839        0.28006        0.28073        0.30577        0.31533        0.33117        0.32273        0.31081        0.31741        0.28618        0.28384        0.25849        0.28188        0.27108        0.31121        0.28225        0.25910        0.30713        0.31079        0.31428        0.29153        0.29772        0.29394        0.24272        0.23797        0.21961        0.27544        0.26990        0.30385        0.31664        0.32065        0.31255        0.30021        0.27565        0.28138        0.33112        0.27409        0.26840        0.29305        0.29670        0.34150        0.33976        0.36246        0.33093        0.31143        0.28045        0.26305        0.26179        0.22426        0.26376        0.29884        0.29642        0.27615        0.29399        0.26936        0.32194        0.33415        0.24926        0.21503        0.26579        0.33700        0.27913        0.31478        0.32675        0.32839        0.29629        0.31880        0.34358        0.29603        0.29527        0.26247        0.27304        0.34860        0.35038        0.25582        0.26882        0.25339        0.27427        0.22828        0.29011        0.22094        0.25158        0.32573        0.31653        0.34371        0.29932        0.23529        0.23717        0.24374        0.24369        0.17808        0.21493        0.25756        0.28818        0.28171        0.30054        0.28745        0.27968        0.28496        0.20963        0.18195        0.18378        0.23368        0.20036        0.22507        0.23211        0.21015        0.25060        0.32919        0.28912        0.30362        0.21707        0.26588        0.23479        0.28163        0.30266        0.14852        0.21014        0.22370        0.13907        0.23755        0.11296        0.17941        0.19261        0.13992       -0.12621       -0.65590
2.580353 2.553454 2.526699 2.500091 2.473628 2.447311 2.421140 2.395114 2.369234 2.343500 2.317911 2.292468 2.267171 2.242019 2.217013 2.192153 2.167439 2.142870 2.118447 2.094169 2.070038 2.046052 2.022211 1.998517 1.974968 1.951564 1.928307 1.905195 1.882229 1.859408 1.836733 1.814204 1.791820 1.769583 1.747491 1.725544 1.703743 1.682088 1.660579 1.639215 1.617997 1.596925 1.575998 1.555217 1.534582 1.514093 1.493749 1.473551 1.453498 1.433591 1.413830 1.636538 2.042410 1.613480 1.126121 0.984337 0.420665 0.810843 0.561328 0.834571 0.770693 0.785958 0.751095 0.709260 0.558509 0.509465 0.485505 0.446017 0.202225 0.378284 0.202547 0.303730 0.237485 0.179614 0.127652 0.001379 0.042654 -0.016729 -0.054992 0.103317 0.206626 0.197543 0.152771 0.331315 0.197995 0.499764 0.571772 0.545205 0.588890 0.878252 0.807354 0.946804 0.889069 0.972886 0.940394 1.081531 1.142253 1.082835 1.125515 0.958082 0.943832 0.786616 0.652134 0.768399 0.702071 0.459507 0.307616 0.253832 0.209094 0.149730 0.089114 0.124924 0.064853 0.157579 0.049551 0.261687 0.377372 0.362935 0.478321 0.586123 0.471175 0.540242 0.700445 0.753415 0.780798 0.736019 0.736777 0.721378 0.629054 0.575035 0.431959 0.286398 0.207505 0.078183 0.135293 -0.042483 -0.027477 -0.081411 -0.036098 0.009385 0.143094 0.093899 0.306420 0.278092 0.367524 0.453280 0.527068 0.512034 0.518180 0.505963 0.334015 0.306639 0.276089 0.102493 0.047628 0.002314 -0.037604 -0.042675 -0.093498 -0.101290 -0.019259 0.053876 0.138492 0.133695 0.227431 0.334121 0.304961 0.413156 0.398387 0.282409 0.232988 0.253964 0.213892 0.100518 0.073707 0.018771 0.002476 0.007705 -0.016921 0.058663 0.148265 0.143661 0.224252 0.251707 0.307358 0.260803 0.219805 0.187996 0.208986 0.154859 0.047147 0.052368 -0.009682 -0.010699 -0.031326 0.014543 0.016983 0.172020 0.121589 0.186477 0.233547 0.202669 0.194384 0.198240 0.134489 0.106132 0.066803 0.045304 -0.042343 0.006862 0.020442 0.052948 0.045889 0.076803 0.099359 0.118817 0.138474 0.183097 0.074510 0.094753 0.068891 0.000244 0.003591 0.009304 -0.012944 0.015921 0.004076 0.032782 0.071428 0.086768 0.102603 0.050612 0.093622 0.054478 0.013305 0.061783 -0.037338 -0.015705 0.017460 0.000173 0.048241 0.056761 0.044046 0.057341 0.045024 0.046215 0.016857 -0.003399 0.001519 0.017953 -0.012677 0.067673 -0.017384 0.004025 0.052434 0.046626 0.029090 0.041885 0.036960 0.016571 -0.027726 -0.046347 -0.020283 0.013349 0.015425 0.053168 0.059838 0.053264 0.079593 0.056987 0.021168 0.059919 0.085263 0.020229 0.024465 0.055901 0.056347 0.101650 0.111258 0.116400 0.109536 0.062199 0.044430 0.030496 0.006174 -0.006166 0.044253 0.077082 0.047347 0.027837 0.031753 0.028528 0.084331 0.070059 -0.049455 -0.055583 0.028929 0.092437 0.013034 0.034573 0.063772 0.086913 0.018304 0.056235 0.086710 0.031369 0.040891 -0.026947 0.006189 0.107562 0.066700 -0.060018 -0.016023 -0.050594 0.006124 -0.098945 0.033664 -0.111931 -0.033481 0.048790 0.021800 0.029039 -0.047115 -0.069652 -0.097097 -0.079827 -0.069265 -0.138609 -0.102475 -0.042608 0.002569 -0.030155 0.028530 -0.027290 -0.043082 0.052642 -0.115130 -0.093823 -0.103783 -0.007410 -0.062471 -0.021707 -0.015445 0.010674 0.013669 0.165496 -0.015037 0.136712 -0.009499 0.273215 0.246632 0.321873 0.278099 0.115296 0.213055 0.268322 0.061658 0.262483 0.118766 0.167585 0.241033 0.142635 -0.676434
0.072396 0.072898 0.074405 0.076917 0.080432 0.084949 0.090468 0.096987 0.104504 0.113016 0.122519 0.133010 0.144483 0.156931 0.170347 0.184722 0.200044 0.216301 0.233478 0.251558 0.270520 0.290342 0.310998 0.332458 0.354689 0.377655 0.401313 0.425619 0.450520 0.475962 0.501884 0.528218 0.554891 0.581826 0.608936 0.636130 0.663311 0.690372 0.717202 0.743683 0.769689 0.795088 0.819741 0.843503 0.866223 0.887744 0.907904 0.926536 0.943470 0.958532 0.971545 0.982332 0.990715 0.996517 0.999562 0.999680 0.996704 0.990475 0.980842 0.967666 0.950819 0.930188 0.905676 0.877205 0.844720 0.808187 0.767598 0.722972 0.674360 0.621842 0.565534 0.505586 0.442186 0.375559 0.305971 0.233727 0.159173 0.082695 0.004718 0.074292 0.153833 0.233367 0.312325 0.390107 0.466087 0.539620 0.610043 0.676686 0.738874 0.795935 0.847209 0.892057 0.929867 0.960064 0.982122 0.995568 0.999998 0.995080 0.980569 0.956312 0.922259 0.878466 0.825109 0.762481 0.691004 0.611225 0.523821 0.429596 0.329480 0.224523 0.115886 0.004833 0.107282 0.219028 0.328915 0.435414 0.536976 0.632059 0.719147 0.796779 0.863580 0.918280 0.959750 0.987022 0.999320 0.996083 0.976983 0.941951 0.891188 0.825174 0.744680 0.650766 0.544778 0.428334 0.303310 0.171816 0.036167 0.101157 0.237551 0.370330 0.496787 0.614244 0.720117 0.811971 0.887586 0.945016 0.982644 0.999240 0.994002 0.966601 0.917208 0.846517 0.755745 0.646637 0.521439 0.382867 0.234060 0.078518 0.079977 0.237440 0.389792 0.532954 0.662969 0.776111 0.869001 0.938718 0.982902 0.999848 0.988580 0.948915 0.881500 0.787827 0.670223 0.531812 0.376449 0.208631 0.033376 0.143918 0.317629 0.482094 0.631794 0.761546 0.866692 0.943281 0.988232 0.999479 0.976081 0.918299 0.827636 0.706820 0.559759 0.391437 0.207758 0.015363 0.178600 0.366734 0.541682 0.696411 0.824512 0.920478 0.979962 0.999999 0.979175 0.917745 0.817678 0.682634 0.517857 0.330019 0.126952 0.082648 0.289577 0.484539 0.658553 0.803386 0.911959 0.978717 0.999946 0.974007 0.901487 0.785240 0.630321 0.443805 0.234505 0.012568 0.210981 0.424793 0.617763 0.779622 0.901507 0.976467 0.999905 0.969891 0.887354 0.756118 0.582776 0.376406 0.148131 0.089446 0.322922 0.538851 0.724520 0.868718 0.962450 0.999531 0.977046 0.895619 0.759480 0.576303 0.356830 0.114292 0.136370 0.379395 0.599195 0.781369 0.913670 0.986875 0.995473 0.938141 0.817941 0.642242 0.422322 0.172715 0.089718 0.346909 0.580804 0.774652 0.914237 0.988963 0.992717 0.924437 0.788320 0.593643 0.354220 0.087458 0.186838 0.447946 0.675761 0.852388 0.963579 0.999952 0.957844 0.839757 0.654302 0.415670 0.142604 0.143014 0.417878 0.659174 0.846480 0.963549 0.999784 0.951278 0.821313 0.620241 0.364772 0.076643 0.219164 0.496572 0.730692 0.900116 0.988912 0.988218 0.897212 0.723380 0.482011 0.194949 0.111315 0.408038 0.666921 0.862831 0.976294 0.995527 0.917754 0.749683 0.507064 0.213305 0.102687 0.409313 0.675425 0.873520 0.982649 0.990725 0.895974 0.707352 0.443822 0.132579 0.193698 0.500203 0.753748 0.926374 0.998532 0.961404 0.818111 0.583611 0.283280 0.049735 0.378084 0.664410 0.875608 0.986727 0.984042 0.866873 0.647941 0.352138 0.013826 0.327083 0.629773 0.857460 0.981924 0.987125 0.871413 0.648030 0.343747 0.004195 0.352552 0.657435 0.879842 0.990747 0.975019 0.833637 0.583887 0.257425 0.103623
1.000000 1.000000 1.000000 1.000000 1.000000 1.000000 1.000000 1.000000 1.000000 1.000000 1.000000 1.000000 1.000000 1.000000 1.000000 1.000000 1.000000 1.000000 1.000000 1.000000 1.000000 1.000000 1.000000 1.000000 1.000000 1.000000 1.000000 1.000000 1.000000 1.000000 1.000000 1.000000 1.000000 1.000000 1.000000 1.000000 1.000000 1.000000 1.000000 1.000000 1.000000 1.000000 1.000000 1.000000 1.000000 1.000000 1.000000 1.000000 1.000000 1.000000 1.000000 1.000000 0.931996 0.931996 0.931996 0.923900 0.923900 0.923900 0.923900 0.923900 0.923900 0.923900 0.923900 0.923900 0.923900 0.923900 0.923900 0.923900 0.923900 0.923900 0.923900 0.923900 0.923900 0.923900 0.923900 0.923900 0.923900 0.923900 0.923900 0.923900 0.923900 0.923900 0.923900 0.923900 0.923900 0.923900 0.923900 0.923900 0.923900 0.923900 0.923900 0.923900 0.923900 0.923900 0.923900 0.923900 0.949886 0.951108 0.958958 0.958783 0.958271 0.956141 0.955239 0.954097 0.953651 0.953921 0.954527 0.955361 0.967124 0.968141 0.969683 0.970479 0.971179 0.971822 0.971662 0.972446 0.971678 0.971123 0.970604 0.966603 0.967256 0.967838 0.967984 0.967731 0.967285 0.971166 0.971314 0.970724 0.969873 0.967634 0.966662 0.966242 0.965957 0.966059 0.966518 0.967820 0.971002 0.970403 0.970117 0.970275 0.970373 0.970546 0.970963 0.971788 0.967780 0.966241 0.964462 0.962204 0.966378 0.963463 0.963260 0.964628 0.965030 0.965451 0.964211 0.959969 0.954119 0.953257 0.950958 0.941948 0.940988 0.941673 0.944133 0.944695 0.943217 0.936118 0.936647 0.929426 0.931201 0.934505 0.928367 0.928662 0.929846 0.929684 0.928955 0.928414 0.925603 0.923205 0.921749 0.921292 0.924284 0.923951 0.925105 0.925083 0.919620 0.911781 0.900525 0.898667 0.894217 0.897226 0.885884 0.888797 0.887614 0.883659 0.886981 0.886118 0.887058 0.883841 0.868597 0.852969 0.847250 0.852058 0.856734 0.855091 0.852542 0.845709 0.856982 0.832143 0.844251 0.854279 0.850723 0.851060 0.849811 0.848525 0.842763 0.844207 0.845827 0.846960 0.844257 0.842165 0.842428 0.820700 0.821255 0.760769 0.743006 0.732909 0.738022 0.745683 0.747042 0.745895 0.753061 0.757816 0.750905 0.734940 0.728326 0.724051 0.728281 0.724601 0.726745 0.707428 0.675786 0.671387 0.643633 0.661691 0.670715 0.634039 0.658956 0.670104 0.670004 0.668735 0.662496 0.660509 0.655555 0.657522 0.662544 0.674130 0.691515 0.714080 0.708614 0.699071 0.694644 0.674818 0.668342 0.664260 0.682341 0.659463 0.655912 0.674796 0.673658 0.656033 0.632862 0.621749 0.617083 0.612338 0.622135 0.606650 0.600882 0.593933 0.573176 0.568173 0.600600 0.615790 0.638021 0.607195 0.594878 0.583573 0.566728 0.577679 0.519730 0.520018 0.540586 0.548535 0.527456 0.515667 0.526804 0.529439 0.528079 0.518415 0.508669 0.498977 0.515977 0.553351 0.540032 0.521356 0.523172 0.522533 0.514480 0.422226 0.416508 0.392041 0.358198 0.301100 0.285731 0.277536 0.260753 0.245128 0.207772 0.204466 0.214406 0.217839 0.230735 0.233049 0.213740 0.224968 0.221633 0.208000 0.145410 0.135877 0.128738 0.118174 0.115296 0.090443 0.117618 0.189822 0.192008 0.192008 0.192008 0.192008 0.192008 0.192008 0.198374 0.198374 0.198374 0.198374 0.198374 0.198374 0.198374 0.198374 0.198374 0.210927 0.210927 0.210927 0.210927 0.210927 0.210927 0.210927 0.210927 0.210927 0.210927 0.210927 0.210927 0.210927 0.210927
0.000000 0.000000 0.000000 0.000000 0.000000 0.000000 0.000000 0.000000 0.000000 0.000000 0.000000 0.000000 0.000000 0.000000 0.000000 0.000000 0.000000 0.000000 0.000000 0.000000 0.000000 0.000000 0.000000 0.000000 0.000000 7.000000 4.000000 0.000000 0.000000 0.000000 0.000000 0.000000 0.000000 0.000000 0.000000 0.000000 0.000000 0.000000 0.000000 0.000000 0.000000 0.000000 0.000000 0.000000 0.000000 0.000000 0.000000 0.000000 0.000000 0.000000 0.000000 0.000000 0.180334 0.180334 0.180334 0.199007 0.199007 0.199007 0.199007 0.199007 0.199007 0.199007 0.199007 0.199007 0.199007 0.199007 0.199007 0.199007 0.199007 0.199007 0.199007 0.199007 0.199007 0.199007 0.199007 0.199007 0.199007 0.199007 0.199007 0.199007 0.199007 0.199007 0.199007 0.199007 0.199007 0.199007 0.199007 0.199007 0.199007 0.199007 0.199007 0.199007 0.199007 0.199007 0.199007 0.199007 0.225018 0.225018 0.225018 0.225018 0.225018 0.225018 0.225018 0.225018 0.225018 0.225018 0.225018 0.225018 0.225018 0.225018 0.225018 0.225018 0.225018 0.225018 0.225018 0.225018 0.225018 0.225018 0.225018 0.225018 0.225018 0.225018 0.225018 0.225018 0.225018 0.244339 0.244339 0.244339 0.244339 0.244339 0.244339 0.244339 0.244339 0.244339 0.244339 0.244339 0.244339 0.244339 0.244339 0.244339 0.244339 0.244339 0.244339 0.244339 0.244339 0.244339 0.244339 0.244339 0.251976 0.251976 0.251976 0.251976 0.251976 0.251976 0.251976 0.251976 0.251976 0.251976 0.251976 0.251976 0.251976 0.251976 0.251976 0.251976 0.251976 0.251976 0.251976 0.251976 0.264906 0.264906 0.264906 0.264906 0.264906 0.264906 0.264906 0.264906 0.264906 0.264906 0.264906 0.264906 0.264906 0.264906 0.264906 0.264906 0.264906 0.264906 0.264906 0.264906 0.264906 0.264906 0.264906 0.264906 0.264906 0.264906 0.264906 0.264906 0.264906 0.264906 0.264906 0.264906 0.264906 0.264906 0.264906 0.264906 0.264906 0.264906 0.264906 0.264906 0.264906 0.264906 0.264906 0.264906 0.264906 0.264906 0.264906 0.264906 0.264906 0.264906 0.264906 0.264906 0.264906 0.264906 0.264906 0.264906 0.264906 0.264906 0.264906 0.264906 0.264906 0.264906 0.256074 0.256074 0.256074 0.256074 0.256074 0.256074 0.256074 0.256074 0.256074 0.256074 0.256074 0.256074 0.256074 0.256074 0.269680 0.269680 0.269680 0.269680 0.269680 0.269680 0.269680 0.269680 0.269680 0.269680 0.269680 0.269680 0.264906 0.264906 0.264906 0.264906 0.264906 0.264906 0.264906 0.264906 0.264906 0.264906 0.264906 0.264906 0.269680 0.269680 0.269680 0.269680 0.269680 0.269680 0.269680 0.269680 0.269680 0.269680 0.269680 0.264906 0.264906 0.264906 0.264906 0.264906 0.264906 0.264906 0.264906 0.264906 0.264906 0.264906 0.256074 0.256074 0.256074 0.256074 0.256074 0.256074 0.256074 0.256074 0.256074 0.256074 0.256074 0.264906 0.264906 0.264906 0.264906 0.264906 0.264906 0.264906 0.264906 0.264906 0.264906 0.260378 0.260378 0.260378 0.260378 0.260378 0.260378 0.260378 0.260378 0.260378 0.260378 0.256074 0.256074 0.256074 0.256074 0.256074 0.256074 0.256074 0.256074 0.256074 0.256074 0.260378 0.260378 0.260378 0.260378 0.260378 0.260378 0.260378 0.260378 0.260378 0.256074 0.256074 0.256074 0.256074 0.256074 0.256074 0.256074 0.256074 0.256074 0.251976 0.251976 0.251976 0.251976 0.251976 0.251976 0.251976 0.251976 0.251976 0.251976 0.251976 0.251976 0.251976 0.251976
