# Output from CTFFind version 4.1.9, run on 2019-11-02 17:43:01
# Input file: stack1_bm3d_averaged_1_1.0_0_50_half.mrc ; Number of micrographs: 1
# Pixel size: 3.000 Angstroms ; acceleration voltage: 300.0 keV ; spherical aberration: 0.00 mm ; amplitude contrast: 0.07
# Box size: 512 pixels ; min. res.: 30.0 Angstroms ; max. res.: 5.0 Angstroms ; min. def.: 5000.0 um; max. def. 50000.0 um; num. frames averaged: 1
# 6 lines per micrograph: #1 - spatial frequency (1/Angstroms); #2 - 1D rotational average of spectrum (assuming no astigmatism); #3 - 1D rotational average of spectrum; #4 - CTF fit; #5 - cross-correlation between spectrum and CTF fit; #6 - 2sigma of expected cross correlation of noise
0.000000 0.000651 0.001302 0.001953 0.002604 0.003255 0.003906 0.004557 0.005208 0.005859 0.006510 0.007161 0.007812 0.008464 0.009115 0.009766 0.010417 0.011068 0.011719 0.012370 0.013021 0.013672 0.014323 0.014974 0.015625 0.016276 0.016927 0.017578 0.018229 0.018880 0.019531 0.020182 0.020833 0.021484 0.022135 0.022786 0.023438 0.024089 0.024740 0.025391 0.026042 0.026693 0.027344 0.027995 0.028646 0.029297 0.029948 0.030599 0.031250 0.031901 0.032552 0.033203 0.033854 0.034505 0.035156 0.035807 0.036458 0.037109 0.037760 0.038411 0.039062 0.039714 0.040365 0.041016 0.041667 0.042318 0.042969 0.043620 0.044271 0.044922 0.045573 0.046224 0.046875 0.047526 0.048177 0.048828 0.049479 0.050130 0.050781 0.051432 0.052083 0.052734 0.053385 0.054036 0.054688 0.055339 0.055990 0.056641 0.057292 0.057943 0.058594 0.059245 0.059896 0.060547 0.061198 0.061849 0.062500 0.063151 0.063802 0.064453 0.065104 0.065755 0.066406 0.067057 0.067708 0.068359 0.069010 0.069661 0.070312 0.070964 0.071615 0.072266 0.072917 0.073568 0.074219 0.074870 0.075521 0.076172 0.076823 0.077474 0.078125 0.078776 0.079427 0.080078 0.080729 0.081380 0.082031 0.082682 0.083333 0.083984 0.084635 0.085286 0.085938 0.086589 0.087240 0.087891 0.088542 0.089193 0.089844 0.090495 0.091146 0.091797 0.092448 0.093099 0.093750 0.094401 0.095052 0.095703 0.096354 0.097005 0.097656 0.098307 0.098958 0.099609 0.100260 0.100911 0.101562 0.102214 0.102865 0.103516 0.104167 0.104818 0.105469 0.106120 0.106771 0.107422 0.108073 0.108724 0.109375 0.110026 0.110677 0.111328 0.111979 0.112630 0.113281 0.113932 0.114583 0.115234 0.115885 0.116536 0.117188 0.117839 0.118490 0.119141 0.119792 0.120443 0.121094 0.121745 0.122396 0.123047 0.123698 0.124349 0.125000 0.125651 0.126302 0.126953 0.127604 0.128255 0.128906 0.129557 0.130208 0.130859 0.131510 0.132161 0.132812 0.133464 0.134115 0.134766 0.135417 0.136068 0.136719 0.137370 0.138021 0.138672 0.139323 0.139974 0.140625 0.141276 0.141927 0.142578 0.143229 0.143880 0.144531 0.145182 0.145833 0.146484 0.147135 0.147786 0.148438 0.149089 0.149740 0.150391 0.151042 0.151693 0.152344 0.152995 0.153646 0.154297 0.154948 0.155599 0.156250 0.156901 0.157552 0.158203 0.158854 0.159505 0.160156 0.160807 0.161458 0.162109 0.162760 0.163411 0.164062 0.164714 0.165365 0.166016 0.166667 0.167318 0.167969 0.168620 0.169271 0.169922 0.170573 0.171224 0.171875 0.172526 0.173177 0.173828 0.174479 0.175130 0.175781 0.176432 0.177083 0.177734 0.178385 0.179036 0.179688 0.180339 0.180990 0.181641 0.182292 0.182943 0.183594 0.184245 0.184896 0.185547 0.186198 0.186849 0.187500 0.188151 0.188802 0.189453 0.190104 0.190755 0.191406 0.192057 0.192708 0.193359 0.194010 0.194661 0.195312 0.195964 0.196615 0.197266 0.197917 0.198568 0.199219 0.199870 0.200521 0.201172 0.201823 0.202474 0.203125 0.203776 0.204427 0.205078 0.205729 0.206380 0.207031 0.207682 0.208333 0.208984 0.209635 0.210286 0.210938 0.211589 0.212240 0.212891 0.213542 0.214193 0.214844 0.215495 0.216146 0.216797 0.217448 0.218099 0.218750 0.219401 0.220052 0.220703 0.221354 0.222005 0.222656 0.223307 0.223958 0.224609 0.225260 0.225911 0.226562 0.227214 0.227865 0.228516 0.229167 0.229818 0.230469 0.231120 0.231771 0.232422 0.233073 0.233724 0.234375 0.235026 0.235677
       0.33185        0.33185        0.33185        0.33185        0.33185        0.33185        0.33185        0.33185        0.33185        0.33185        0.33185        0.33185        0.33185        0.33185        0.33185        0.33185        0.33185        0.33185        0.33185        0.33185        0.33185        0.33185        0.33185        0.33185        0.33185        0.33185        0.33185        0.33185        0.33185        0.33185        0.33185        0.33185        0.33185        0.33185        0.33185        0.33185        0.33185        0.33185        0.33185        0.33185        0.33185        0.33185        0.33185        0.33185        0.33185        0.33185        0.33185        0.33185        0.33185        0.33185        0.33185        0.50102        0.71837        0.42896        0.18834       -0.08209       -0.25947       -0.06722       -0.13156       -0.05322       -0.00552       -0.14969       -0.09142       -0.05750       -0.00575       -0.15535       -0.22538       -0.34755       -0.46044       -0.55365       -0.51111       -0.44068       -0.36959       -0.54533       -0.45145       -0.62215       -0.50667       -0.47236       -0.38908       -0.38721       -0.33899       -0.25218       -0.16394       -0.14205        0.03235       -0.01254        0.11856        0.16308        0.30538        0.41106        0.45846        0.50210        0.54314        0.55143        0.68586        0.64065        0.67436        0.58946        0.55289        0.64730        0.52438        0.42557        0.38185        0.31965        0.23154        0.25896        0.25257        0.10252        0.07862        0.00054       -0.00263        0.04207       -0.01137        0.07052        0.10596        0.23431        0.28677        0.29727        0.37875        0.56167        0.53030        0.57839        0.66342        0.70248        0.62970        0.64222        0.63388        0.55725        0.57328        0.40272        0.34558        0.26245        0.18287        0.07642        0.14111        0.11656        0.09794        0.10578        0.20485        0.21118        0.31743        0.36022        0.41192        0.49426        0.57787        0.54373        0.55527        0.60044        0.52649        0.45528        0.48456        0.32930        0.24380        0.25785        0.23848        0.13916        0.14311        0.15407        0.21818        0.23783        0.33410        0.37075        0.39375        0.46761        0.44319        0.48180        0.44731        0.47016        0.44878        0.40558        0.38417        0.35433        0.31780        0.29382        0.20372        0.18875        0.21873        0.26939        0.26413        0.34747        0.37633        0.35591        0.41140        0.44827        0.44017        0.42920        0.44680        0.38263        0.33446        0.28287        0.25599        0.28994        0.26264        0.29360        0.29957        0.33907        0.33888        0.39203        0.40109        0.42739        0.40620        0.43877        0.40088        0.35743        0.28023        0.28883        0.30307        0.26902        0.24919        0.32175        0.36701        0.34117        0.35249        0.36188        0.35597        0.40987        0.40690        0.36534        0.33878        0.30187        0.31407        0.32141        0.31943        0.29941        0.27612        0.33536        0.35646        0.37982        0.33787        0.33266        0.33674        0.34420        0.31214        0.28079        0.30153        0.30899        0.33994        0.31506        0.32654        0.35498        0.32256        0.31610        0.32689        0.29954        0.26618        0.25688        0.26239        0.30722        0.32234        0.35542        0.30012        0.30356        0.32524        0.29414        0.31454        0.28558        0.28329        0.29338        0.29292        0.30492        0.34586        0.33483        0.33094        0.33833        0.32043        0.33828        0.32134        0.32156        0.30828        0.27115        0.28459        0.30436        0.29217        0.31952        0.32938        0.33066        0.33222        0.34755        0.32595        0.28382        0.24687        0.26742        0.33053        0.34891        0.33655        0.31078        0.28956        0.29358        0.30614        0.25749        0.29969        0.31212        0.34157        0.30101        0.29931        0.27298        0.32966        0.33647        0.33811        0.30815        0.29154        0.31646        0.39405        0.32279        0.31031        0.31663        0.28369        0.28097        0.30191        0.28437        0.32776        0.23010        0.26501        0.29991        0.31141        0.29770        0.25435        0.28479        0.24316        0.21826        0.26774        0.29484        0.30707        0.27534        0.27813        0.32374        0.26596        0.23130        0.29706        0.26221        0.26481        0.28342        0.38400        0.28508        0.29158        0.25881        0.24407        0.27540        0.26441        0.23312        0.18629        0.25934        0.23046        0.23999        0.31288        0.24937        0.36208        0.32999        0.23216        0.22146        0.21567        0.24826        0.32305        0.22985        0.14017        0.18605        0.23008        0.23817        0.24445        0.18098        0.01115       -0.47548       -0.97855
2.649589 2.621678 2.593918 2.566306 2.538845 2.511532 2.484370 2.457356 2.430492 2.403778 2.377213 2.350798 2.324531 2.298415 2.272448 2.246630 2.220962 2.195443 2.170074 2.144854 2.119784 2.094863 2.070092 2.045470 2.020998 1.996675 1.972501 1.948477 1.924603 1.900878 1.877302 1.853876 1.830599 1.807472 1.784494 1.761666 1.738987 1.716458 1.694078 1.671848 1.649767 1.627835 1.606053 1.584421 1.562938 1.541604 1.520420 1.499385 1.478500 1.457764 1.437178 1.506472 1.808988 1.507834 1.140267 0.922362 0.532985 0.899064 0.621473 0.860394 0.908476 0.575475 0.700348 0.756613 0.804616 0.614292 0.519199 0.337883 0.097423 0.074206 0.045052 0.084003 0.298121 -0.043426 0.074391 -0.141639 -0.023854 -0.018182 0.077781 0.048478 0.100361 0.168905 0.270816 0.237875 0.473260 0.392681 0.542105 0.515165 0.757877 0.784407 0.865050 0.920619 0.931360 0.942287 1.070998 0.970913 1.129415 0.933258 0.846592 0.999913 0.837996 0.748067 0.615061 0.584945 0.462549 0.407038 0.505522 0.261551 0.189244 0.153399 0.016058 0.216265 -0.006627 0.108848 0.184388 0.262816 0.336562 0.341275 0.423056 0.541341 0.650187 0.539376 0.727330 0.865734 0.634657 0.702091 0.668337 0.595905 0.532763 0.470369 0.301451 0.211733 0.117678 -0.037966 -0.016418 0.051071 -0.089069 -0.053395 0.052297 0.049615 0.111772 0.224277 0.238923 0.316567 0.430616 0.431848 0.446521 0.473245 0.433357 0.309301 0.339022 0.247259 0.042708 0.059724 0.025103 -0.061883 -0.092184 -0.100569 -0.011183 -0.062453 0.073228 0.132653 0.131766 0.256481 0.223895 0.243994 0.290165 0.250104 0.251623 0.209649 0.178974 0.112707 0.110978 0.037384 0.017884 -0.124629 -0.057106 0.007504 0.004964 0.013808 0.103517 0.086341 0.136983 0.190114 0.241850 0.164079 0.200574 0.117156 0.149382 0.014119 -0.029121 0.010318 -0.016413 -0.012752 -0.000243 0.031839 0.060254 0.063031 0.133955 0.125368 0.154957 0.073222 0.157757 0.082344 -0.009392 -0.054543 -0.020631 -0.032670 -0.079959 -0.065270 0.045574 0.066689 -0.008576 0.054699 0.068327 0.070992 0.150492 0.079438 0.070324 0.041325 -0.025273 0.037323 0.010954 0.015524 0.006738 -0.016373 0.047914 0.062746 0.076556 0.037723 0.046737 0.020314 0.068308 -0.005879 -0.023535 0.020925 0.009460 0.068000 0.027726 0.041914 0.065271 0.032952 0.019504 0.036362 -0.000949 -0.033409 -0.024145 -0.029103 0.027344 0.052745 0.099072 0.007625 0.049582 0.062457 0.005524 0.072116 0.029229 0.026775 0.054214 0.052968 0.055068 0.112012 0.078028 0.084231 0.093086 0.100197 0.073830 0.080320 0.091321 0.032991 -0.006267 0.045620 0.036804 0.063820 0.060156 0.098340 -0.006320 0.084044 0.075815 0.019393 0.021546 -0.076927 -0.016728 0.106214 0.064513 0.050929 0.027353 -0.018386 0.032602 0.017253 -0.046325 0.038668 0.054178 0.076979 0.033298 -0.006064 -0.005126 0.036028 0.052543 0.024840 0.026864 -0.024725 0.065173 0.114668 0.011227 -0.006558 0.021155 -0.041738 -0.022433 -0.011077 -0.036607 0.025302 -0.110585 -0.028997 -0.021739 0.020419 -0.028454 -0.066807 -0.005969 -0.057818 -0.058483 -0.052018 0.044589 0.007304 0.014854 -0.007633 0.073477 -0.036197 -0.034910 0.025082 -0.025769 0.036878 0.004577 0.180345 -0.020213 0.011610 0.037459 -0.018917 0.004509 0.011759 -0.024540 -0.126456 0.019959 -0.025082 -0.002005 0.034577 -0.030513 0.166634 0.083244 -0.005254 -0.085843 -0.056636 -0.010126 0.090688 0.274002 0.164992 0.234824 0.214510 0.316243 0.279564 0.203854 0.091916 -0.338105
0.072396 0.072910 0.074450 0.077016 0.080609 0.085226 0.090866 0.097529 0.105211 0.113909 0.123621 0.134341 0.146064 0.158783 0.172491 0.187176 0.202828 0.219432 0.236974 0.255435 0.274793 0.295024 0.316100 0.337991 0.360661 0.384070 0.408176 0.432928 0.458274 0.484153 0.510501 0.537246 0.564313 0.591616 0.619066 0.646565 0.674009 0.701287 0.728281 0.754866 0.780907 0.806267 0.830799 0.854350 0.876761 0.897867 0.917499 0.935482 0.951639 0.965787 0.977744 0.987326 0.994350 0.998633 0.999996 0.998266 0.993276 0.984865 0.972885 0.957199 0.937684 0.914234 0.886764 0.855206 0.819518 0.779685 0.735717 0.687658 0.635582 0.579599 0.519855 0.456535 0.389863 0.320103 0.247563 0.172593 0.095583 0.016966 0.062784 0.143153 0.223591 0.303514 0.382304 0.459319 0.533892 0.605343 0.672976 0.736095 0.794006 0.846026 0.891495 0.929778 0.960283 0.982465 0.995837 0.999982 0.994562 0.979326 0.954124 0.918910 0.873753 0.818843 0.754500 0.681171 0.599439 0.510021 0.413769 0.311661 0.204802 0.094412 0.018184 0.131570 0.244254 0.354685 0.461277 0.562428 0.656550 0.742088 0.817557 0.881561 0.932832 0.970249 0.992875 0.999978 0.991058 0.965871 0.924444 0.867092 0.794427 0.707365 0.607123 0.495209 0.373414 0.243786 0.108605 0.029653 0.168359 0.304774 0.436106 0.559566 0.672431 0.772103 0.856178 0.922513 0.969280 0.995030 0.998747 0.979888 0.938423 0.874860 0.790255 0.686217 0.564886 0.428909 0.281393 0.125842 0.033916 0.193815 0.349660 0.497223 0.632372 0.751186 0.850078 0.925911 0.976110 0.998767 0.992720 0.957624 0.893995 0.803231 0.687606 0.550234 0.395006 0.226490 0.049821 0.129454 0.305544 0.472591 0.624879 0.757030 0.864203 0.942289 0.988085 0.999443 0.975394 0.916221 0.823503 0.700104 0.550112 0.378730 0.192117 0.002813 0.198646 0.387731 0.562487 0.715712 0.840889 0.932486 0.986217 0.999272 0.970488 0.900456 0.791561 0.647935 0.475342 0.280971 0.073164 0.138928 0.345727 0.537677 0.705676 0.841525 0.938360 0.991014 0.996334 0.953396 0.863629 0.730820 0.560997 0.362201 0.144134 0.082290 0.305471 0.513718 0.695865 0.841882 0.943464 0.994527 0.991619 0.934189 0.824712 0.668638 0.474178 0.251912 0.014249 0.225235 0.452573 0.654214 0.817851 0.933201 0.992689 0.991995 0.930412 0.811004 0.640512 0.429044 0.189521 0.063074 0.312604 0.542813 0.738376 0.885963 0.975174 0.999327 0.956021 0.847415 0.680204 0.465285 0.217100 0.047283 0.309321 0.550263 0.752541 0.901046 0.984319 0.995492 0.932924 0.800465 0.607302 0.367408 0.098591 0.178782 0.443301 0.674168 0.852852 0.964632 0.999857 0.954872 0.832452 0.641754 0.397709 0.119933 0.168787 0.444355 0.683349 0.865051 0.973300 0.997993 0.936117 0.792192 0.578045 0.311945 0.017121 0.280226 0.553205 0.776706 0.929721 0.997418 0.972648 0.856807 0.659902 0.399802 0.100712 0.209008 0.499513 0.742329 0.913204 0.994581 0.977520 0.862776 0.660949 0.391631 0.081600 0.237754 0.533575 0.774940 0.936128 0.999439 0.957264 0.813108 0.581464 0.286477 0.040450 0.363942 0.648464 0.862232 0.980851 0.990196 0.888225 0.685473 0.404112 0.075661 0.262457 0.571147 0.814150 0.962387 0.997531 0.914418 0.721929 0.442222 0.108321 0.239680 0.559376 0.811237 0.963537 0.996490 0.904953 0.699374 0.404786 0.057906 0.297333 0.615295 0.854536 0.983263 0.983711 0.854753 0.612375 0.287886 0.075980 0.430599 0.727924 0.927041 0.999926
1.000000 1.000000 1.000000 1.000000 1.000000 1.000000 1.000000 1.000000 1.000000 1.000000 1.000000 1.000000 1.000000 1.000000 1.000000 1.000000 1.000000 1.000000 1.000000 1.000000 1.000000 1.000000 1.000000 1.000000 1.000000 1.000000 1.000000 1.000000 1.000000 1.000000 1.000000 1.000000 1.000000 1.000000 1.000000 1.000000 1.000000 1.000000 1.000000 1.000000 1.000000 1.000000 1.000000 1.000000 1.000000 1.000000 1.000000 1.000000 1.000000 1.000000 1.000000 1.000000 0.917960 0.917960 0.907082 0.907082 0.907082 0.907082 0.907082 0.907082 0.907082 0.907082 0.907082 0.907082 0.907082 0.907082 0.907082 0.907082 0.907082 0.907082 0.907082 0.907082 0.907082 0.907082 0.907082 0.907082 0.907082 0.907082 0.907082 0.907082 0.907082 0.907082 0.907082 0.907082 0.907082 0.907082 0.907082 0.907082 0.907082 0.907082 0.907082 0.907082 0.907082 0.907082 0.907082 0.903890 0.908286 0.910218 0.908363 0.911956 0.912053 0.911352 0.911658 0.911264 0.911519 0.912868 0.923459 0.934602 0.946007 0.946717 0.951725 0.956091 0.958344 0.959451 0.960955 0.967010 0.965870 0.965286 0.966013 0.967682 0.969985 0.968436 0.968383 0.971518 0.972284 0.970402 0.968484 0.967852 0.967210 0.966918 0.966466 0.966621 0.966540 0.967031 0.967243 0.967074 0.967207 0.967222 0.965391 0.965617 0.967849 0.968927 0.968669 0.967270 0.964861 0.968798 0.969324 0.968918 0.968789 0.968254 0.968619 0.957977 0.955000 0.954981 0.951252 0.950345 0.948494 0.945979 0.942770 0.942596 0.942495 0.943383 0.938618 0.927527 0.914393 0.900492 0.923943 0.909507 0.894877 0.875252 0.874382 0.874628 0.875420 0.870024 0.862875 0.858902 0.855949 0.856913 0.854813 0.857008 0.854947 0.845138 0.847443 0.845499 0.818519 0.801446 0.786165 0.784749 0.782801 0.784139 0.783843 0.783051 0.790849 0.778199 0.776889 0.769528 0.751468 0.712944 0.699922 0.708617 0.716910 0.722259 0.718746 0.703792 0.671222 0.680157 0.701007 0.698047 0.701056 0.691328 0.682490 0.681998 0.682717 0.672588 0.662352 0.662015 0.659210 0.668627 0.674379 0.676485 0.665371 0.647641 0.632877 0.619035 0.628578 0.633025 0.596167 0.590805 0.575140 0.566416 0.552032 0.536527 0.532726 0.505621 0.497319 0.499289 0.504343 0.507573 0.514352 0.516398 0.499750 0.517800 0.524928 0.551533 0.531769 0.530299 0.530907 0.534014 0.522171 0.505281 0.505093 0.505975 0.514843 0.537996 0.575855 0.558677 0.547941 0.536609 0.537640 0.499210 0.501188 0.519029 0.498037 0.446879 0.390762 0.389088 0.347574 0.345582 0.323892 0.310812 0.304100 0.299485 0.290624 0.276283 0.260553 0.192886 0.152703 0.136279 0.126253 0.116625 0.137287 0.137726 0.138351 0.154101 0.202111 0.203158 0.193975 0.161277 0.151836 0.125380 0.119300 0.141754 0.096848 0.090167 0.082422 0.054668 0.026576 -0.019413 -0.000599 -0.089736 -0.111139 -0.114568 -0.090621 -0.079740 -0.079437 -0.077046 -0.116974 -0.105514 -0.058139 -0.053012 -0.061985 -0.118022 -0.096341 -0.085764 -0.084821 -0.101279 -0.111237 -0.107277 -0.116957 -0.115643 -0.112524 -0.060353 0.001970 0.006288 0.003073 0.000857 -0.008964 -0.018857 -0.007812 0.011965 0.018669 -0.002223 -0.001704 -0.002164 -0.042821 -0.042821 -0.044505 -0.044505 -0.044505 -0.044505 -0.044505 -0.044505 -0.044505 -0.044505 -0.044505 -0.047258 -0.047258 -0.047258 -0.047258 -0.047258 -0.047258 -0.047258 -0.047258 -0.047258 -0.047258 -0.047258 -0.047258 -0.047258 -0.047258 -0.047258 -0.047258 -0.047258 -0.047258
0.000000 0.000000 0.000000 0.000000 0.000000 0.000000 0.000000 0.000000 0.000000 0.000000 0.000000 0.000000 0.000000 0.000000 0.000000 0.000000 0.000000 0.000000 2.000000 0.000000 0.000000 0.000000 0.000000 0.000000 0.000000 0.000000 0.000000 0.000000 0.000000 0.000000 0.000000 0.000000 0.000000 0.000000 0.000000 0.000000 0.000000 0.000000 0.000000 0.000000 0.000000 0.000000 0.000000 0.000000 0.000000 0.000000 0.000000 0.000000 0.000000 0.000000 0.000000 0.000000 0.181818 0.181818 0.199007 0.199007 0.199007 0.199007 0.199007 0.199007 0.199007 0.199007 0.199007 0.199007 0.199007 0.199007 0.199007 0.199007 0.199007 0.199007 0.199007 0.199007 0.199007 0.199007 0.199007 0.199007 0.199007 0.199007 0.199007 0.199007 0.199007 0.199007 0.199007 0.199007 0.199007 0.199007 0.199007 0.199007 0.199007 0.199007 0.199007 0.199007 0.199007 0.199007 0.199007 0.230940 0.230940 0.230940 0.230940 0.230940 0.230940 0.230940 0.230940 0.230940 0.230940 0.230940 0.230940 0.230940 0.230940 0.230940 0.230940 0.230940 0.230940 0.230940 0.230940 0.230940 0.230940 0.230940 0.230940 0.230940 0.230940 0.230940 0.230940 0.244339 0.244339 0.244339 0.244339 0.244339 0.244339 0.244339 0.244339 0.244339 0.244339 0.244339 0.244339 0.244339 0.244339 0.244339 0.244339 0.244339 0.244339 0.244339 0.244339 0.244339 0.244339 0.244339 0.251976 0.251976 0.251976 0.251976 0.251976 0.251976 0.251976 0.251976 0.251976 0.251976 0.251976 0.251976 0.251976 0.251976 0.251976 0.251976 0.251976 0.251976 0.251976 0.251976 0.264906 0.264906 0.264906 0.264906 0.264906 0.264906 0.264906 0.264906 0.264906 0.264906 0.264906 0.264906 0.264906 0.264906 0.264906 0.264906 0.264906 0.264906 0.264906 0.264906 0.264906 0.264906 0.264906 0.264906 0.264906 0.264906 0.264906 0.264906 0.264906 0.264906 0.264906 0.264906 0.264906 0.264906 0.264906 0.264906 0.264906 0.264906 0.264906 0.264906 0.264906 0.264906 0.264906 0.264906 0.264906 0.264906 0.264906 0.264906 0.264906 0.264906 0.264906 0.264906 0.264906 0.264906 0.264906 0.264906 0.264906 0.264906 0.264906 0.264906 0.264906 0.264906 0.264906 0.264906 0.264906 0.264906 0.264906 0.264906 0.264906 0.264906 0.264906 0.264906 0.264906 0.264906 0.264906 0.269680 0.269680 0.269680 0.269680 0.269680 0.269680 0.269680 0.269680 0.269680 0.269680 0.269680 0.269680 0.264906 0.264906 0.264906 0.264906 0.264906 0.264906 0.264906 0.264906 0.264906 0.264906 0.264906 0.264906 0.269680 0.269680 0.269680 0.269680 0.269680 0.269680 0.269680 0.269680 0.269680 0.269680 0.269680 0.264906 0.264906 0.264906 0.264906 0.264906 0.264906 0.264906 0.264906 0.264906 0.264906 0.264906 0.256074 0.256074 0.256074 0.256074 0.256074 0.256074 0.256074 0.256074 0.256074 0.256074 0.256074 0.264906 0.264906 0.264906 0.264906 0.264906 0.264906 0.264906 0.264906 0.264906 0.264906 0.260378 0.260378 0.260378 0.260378 0.260378 0.260378 0.260378 0.260378 0.260378 0.260378 0.264906 0.264906 0.264906 0.264906 0.264906 0.264906 0.264906 0.264906 0.264906 0.260378 0.260378 0.260378 0.260378 0.260378 0.260378 0.260378 0.260378 0.260378 0.256074 0.256074 0.256074 0.256074 0.256074 0.256074 0.256074 0.256074 0.256074 0.251976 0.251976 0.251976 0.251976 0.251976 0.251976 0.251976 0.251976 0.251976 0.251976 0.251976 0.251976 0.251976 0.251976 0.251976 0.251976 0.251976 0.251976
