# Output from CTFFind version 4.1.9, run on 2019-11-02 17:43:14
# Input file: stack6_bm3d_averaged_1_1.5_0_50_half.mrc ; Number of micrographs: 1
# Pixel size: 3.000 Angstroms ; acceleration voltage: 300.0 keV ; spherical aberration: 0.00 mm ; amplitude contrast: 0.07
# Box size: 512 pixels ; min. res.: 30.0 Angstroms ; max. res.: 5.0 Angstroms ; min. def.: 5000.0 um; max. def. 50000.0 um; num. frames averaged: 1
# 6 lines per micrograph: #1 - spatial frequency (1/Angstroms); #2 - 1D rotational average of spectrum (assuming no astigmatism); #3 - 1D rotational average of spectrum; #4 - CTF fit; #5 - cross-correlation between spectrum and CTF fit; #6 - 2sigma of expected cross correlation of noise
0.000000 0.000651 0.001302 0.001953 0.002604 0.003255 0.003906 0.004557 0.005208 0.005859 0.006510 0.007161 0.007812 0.008464 0.009115 0.009766 0.010417 0.011068 0.011719 0.012370 0.013021 0.013672 0.014323 0.014974 0.015625 0.016276 0.016927 0.017578 0.018229 0.018880 0.019531 0.020182 0.020833 0.021484 0.022135 0.022786 0.023438 0.024089 0.024740 0.025391 0.026042 0.026693 0.027344 0.027995 0.028646 0.029297 0.029948 0.030599 0.031250 0.031901 0.032552 0.033203 0.033854 0.034505 0.035156 0.035807 0.036458 0.037109 0.037760 0.038411 0.039062 0.039714 0.040365 0.041016 0.041667 0.042318 0.042969 0.043620 0.044271 0.044922 0.045573 0.046224 0.046875 0.047526 0.048177 0.048828 0.049479 0.050130 0.050781 0.051432 0.052083 0.052734 0.053385 0.054036 0.054688 0.055339 0.055990 0.056641 0.057292 0.057943 0.058594 0.059245 0.059896 0.060547 0.061198 0.061849 0.062500 0.063151 0.063802 0.064453 0.065104 0.065755 0.066406 0.067057 0.067708 0.068359 0.069010 0.069661 0.070312 0.070964 0.071615 0.072266 0.072917 0.073568 0.074219 0.074870 0.075521 0.076172 0.076823 0.077474 0.078125 0.078776 0.079427 0.080078 0.080729 0.081380 0.082031 0.082682 0.083333 0.083984 0.084635 0.085286 0.085938 0.086589 0.087240 0.087891 0.088542 0.089193 0.089844 0.090495 0.091146 0.091797 0.092448 0.093099 0.093750 0.094401 0.095052 0.095703 0.096354 0.097005 0.097656 0.098307 0.098958 0.099609 0.100260 0.100911 0.101562 0.102214 0.102865 0.103516 0.104167 0.104818 0.105469 0.106120 0.106771 0.107422 0.108073 0.108724 0.109375 0.110026 0.110677 0.111328 0.111979 0.112630 0.113281 0.113932 0.114583 0.115234 0.115885 0.116536 0.117188 0.117839 0.118490 0.119141 0.119792 0.120443 0.121094 0.121745 0.122396 0.123047 0.123698 0.124349 0.125000 0.125651 0.126302 0.126953 0.127604 0.128255 0.128906 0.129557 0.130208 0.130859 0.131510 0.132161 0.132812 0.133464 0.134115 0.134766 0.135417 0.136068 0.136719 0.137370 0.138021 0.138672 0.139323 0.139974 0.140625 0.141276 0.141927 0.142578 0.143229 0.143880 0.144531 0.145182 0.145833 0.146484 0.147135 0.147786 0.148438 0.149089 0.149740 0.150391 0.151042 0.151693 0.152344 0.152995 0.153646 0.154297 0.154948 0.155599 0.156250 0.156901 0.157552 0.158203 0.158854 0.159505 0.160156 0.160807 0.161458 0.162109 0.162760 0.163411 0.164062 0.164714 0.165365 0.166016 0.166667 0.167318 0.167969 0.168620 0.169271 0.169922 0.170573 0.171224 0.171875 0.172526 0.173177 0.173828 0.174479 0.175130 0.175781 0.176432 0.177083 0.177734 0.178385 0.179036 0.179688 0.180339 0.180990 0.181641 0.182292 0.182943 0.183594 0.184245 0.184896 0.185547 0.186198 0.186849 0.187500 0.188151 0.188802 0.189453 0.190104 0.190755 0.191406 0.192057 0.192708 0.193359 0.194010 0.194661 0.195312 0.195964 0.196615 0.197266 0.197917 0.198568 0.199219 0.199870 0.200521 0.201172 0.201823 0.202474 0.203125 0.203776 0.204427 0.205078 0.205729 0.206380 0.207031 0.207682 0.208333 0.208984 0.209635 0.210286 0.210938 0.211589 0.212240 0.212891 0.213542 0.214193 0.214844 0.215495 0.216146 0.216797 0.217448 0.218099 0.218750 0.219401 0.220052 0.220703 0.221354 0.222005 0.222656 0.223307 0.223958 0.224609 0.225260 0.225911 0.226562 0.227214 0.227865 0.228516 0.229167 0.229818 0.230469 0.231120 0.231771 0.232422 0.233073 0.233724 0.234375 0.235026 0.235677
       0.31200        0.31200        0.31200        0.31200        0.31200        0.31200        0.31200        0.31200        0.31200        0.31200        0.31200        0.31200        0.31200        0.31200        0.31200        0.31200        0.31200        0.31200        0.31200        0.31200        0.31200        0.31200        0.31200        0.31200        0.31200        0.31200        0.31200        0.31200        0.31200        0.31201        0.31200        0.31200        0.31200        0.31200        0.31200        0.31200        0.31200        0.31200        0.31200        0.31200        0.31200        0.31200        0.31200        0.31200        0.31200        0.31200        0.31200        0.31200        0.31200        0.31200        0.31200        0.63107        0.81634        0.41680        0.31155        0.18261       -0.10384        0.11062       -0.00156        0.03122        0.11885        0.34010        0.42136        0.40764        0.23002       -0.01440        0.04834        0.06947       -0.17661       -0.18165       -0.09080       -0.10564       -0.29860       -0.19823       -0.29801       -0.24852       -0.28627       -0.40949       -0.47336       -0.48626       -0.43697       -0.34487       -0.43997       -0.36666       -0.41317       -0.35989       -0.28258       -0.20923       -0.19420       -0.14332       -0.09377        0.04010        0.07072        0.25408        0.27472        0.36154        0.40741        0.53171        0.60240        0.62199        0.74618        0.70730        0.74811        0.66121        0.66291        0.68993        0.63461        0.61804        0.60837        0.42722        0.40364        0.34951        0.30915        0.22836        0.13075        0.06117        0.05777        0.00153       -0.08144       -0.02560       -0.03159       -0.07227        0.07051        0.16546        0.25356        0.32082        0.34078        0.42586        0.54473        0.60006        0.55005        0.67092        0.57612        0.54959        0.60112        0.65271        0.53652        0.44890        0.40951        0.37718        0.24031        0.21099        0.12789        0.11654        0.05407        0.04276        0.10035        0.16872        0.14717        0.18157        0.22485        0.24586        0.32615        0.46198        0.49922        0.50057        0.50428        0.58043        0.57119        0.53061        0.43838        0.39232        0.36582        0.27287        0.24840        0.20302        0.20284        0.19059        0.17128        0.16489        0.13807        0.19576        0.24685        0.32978        0.38049        0.41401        0.46272        0.54532        0.47749        0.50029        0.42587        0.39507        0.38027        0.36549        0.29454        0.24320        0.19070        0.24070        0.21385        0.18515        0.22023        0.22473        0.22819        0.30156        0.39534        0.39346        0.38508        0.40395        0.46318        0.48949        0.42729        0.35286        0.32471        0.27508        0.27519        0.26101        0.21880        0.28288        0.29749        0.29974        0.31745        0.31088        0.34571        0.37594        0.38007        0.37677        0.34926        0.31362        0.32754        0.32979        0.29861        0.28674        0.27760        0.21981        0.26972        0.27757        0.29632        0.31265        0.33634        0.37874        0.33776        0.30629        0.36463        0.35407        0.25513        0.28945        0.30812        0.24176        0.20415        0.25652        0.27895        0.28174        0.29815        0.31227        0.34871        0.33453        0.36245        0.32292        0.32592        0.30788        0.30396        0.26541        0.24900        0.25977        0.25524        0.28409        0.30965        0.30956        0.29789        0.30901        0.33109        0.27363        0.29853        0.26640        0.25309        0.27514        0.26324        0.26285        0.26135        0.31204        0.29324        0.32646        0.28980        0.26427        0.30976        0.31890        0.33737        0.32076        0.28960        0.24840        0.24935        0.25945        0.26435        0.31719        0.30757        0.32509        0.31799        0.31465        0.23786        0.27535        0.20759        0.21144        0.25866        0.26147        0.26458        0.28243        0.30327        0.29807        0.37431        0.30481        0.24416        0.23249        0.24166        0.28522        0.31650        0.31530        0.27967        0.27945        0.26935        0.33128        0.29015        0.25693        0.26040        0.26134        0.27841        0.25141        0.26402        0.30841        0.29430        0.24315        0.24618        0.28267        0.31648        0.25812        0.26402        0.25011        0.28468        0.28689        0.35882        0.27104        0.26915        0.27711        0.23434        0.23392        0.19924        0.23881        0.22086        0.22553        0.17178        0.20441        0.22785        0.19713        0.23462        0.21694        0.23833        0.23648        0.22800        0.17619        0.17674        0.20321        0.27081        0.11659        0.06021        0.22492        0.12987        0.10886        0.25260        0.17274        0.24309        0.21868        0.02966       -0.52832       -1.00948
2.757407 2.730468 2.703666 2.677003 2.650478 2.624091 2.597842 2.571731 2.545758 2.519924 2.494227 2.468669 2.443249 2.417967 2.392823 2.367817 2.342949 2.318220 2.293628 2.269174 2.244859 2.220682 2.196643 2.172742 2.148979 2.125354 2.101867 2.078519 2.055308 2.032236 2.009302 1.986506 1.963848 1.941328 1.918946 1.896702 1.874597 1.852629 1.830800 1.809108 1.787555 1.766140 1.744863 1.723725 1.702724 1.681861 1.661137 1.640550 1.620102 1.599792 1.579620 1.861188 2.207281 1.649240 1.695604 1.342437 0.912093 1.165805 0.999274 1.045580 1.003161 1.458792 1.477337 1.495778 1.260351 0.918211 0.800133 0.991030 0.680182 0.480889 0.572458 0.663255 0.411097 0.467091 0.328834 0.380251 0.246319 0.146278 -0.026291 0.003738 0.005589 0.081437 0.040413 0.086295 -0.044067 0.031161 0.107815 0.212997 0.270332 0.207890 0.314977 0.553607 0.423632 0.716231 0.780759 0.840856 0.899931 1.101531 1.146470 1.163311 1.302307 1.222976 1.353013 1.182777 1.087302 1.276816 1.104349 1.034568 1.114315 0.853634 0.731257 0.663366 0.639324 0.462451 0.387530 0.269614 0.227550 0.103322 0.004024 0.100334 0.036934 -0.054444 0.124338 0.257942 0.321981 0.449359 0.491128 0.547390 0.703544 0.818001 0.658477 0.955026 0.778206 0.689024 0.754746 0.803679 0.719409 0.618346 0.440790 0.502824 0.285119 0.175804 0.148334 0.016273 -0.011937 -0.104230 -0.023954 0.055008 0.075418 -0.022134 0.251362 0.107489 0.228135 0.379926 0.428568 0.552767 0.407432 0.548451 0.646338 0.502764 0.412940 0.354185 0.328916 0.154035 0.151060 0.010067 0.099616 0.018907 0.002285 -0.025252 -0.087450 0.008316 0.035721 0.099085 0.276352 0.225522 0.355069 0.365882 0.444581 0.415118 0.406639 0.328860 0.223802 0.310770 0.185813 0.156395 -0.002849 0.052961 0.088087 -0.028593 0.009374 0.026141 0.062462 0.065911 0.226371 0.301781 0.246035 0.226794 0.391087 0.400410 0.351222 0.243656 0.178538 0.148665 0.099201 0.081747 0.049165 0.026283 0.138037 0.069972 0.183688 0.101897 0.139557 0.225405 0.214450 0.234371 0.201484 0.197015 0.098901 0.164355 0.145297 0.098086 0.113798 0.001341 0.042196 0.089581 0.050007 0.138820 0.109294 0.197845 0.209349 0.125735 0.127623 0.214932 0.093152 0.057611 0.079159 0.065113 -0.006467 -0.033634 0.049349 0.076660 0.047332 0.108656 0.114442 0.145273 0.139740 0.171604 0.107856 0.103654 0.101513 0.095323 0.015041 0.019391 0.053400 -0.002125 0.081453 0.122476 0.090701 0.069808 0.109569 0.118934 0.035846 0.104000 0.033434 0.014250 0.082823 0.017074 0.025328 0.051774 0.101643 0.042988 0.120648 0.074477 -0.005694 0.112833 0.092334 0.095718 0.098603 0.009636 -0.014765 -0.027448 0.044821 -0.007539 0.089396 0.054086 0.085771 0.059245 0.132544 -0.053603 0.028900 -0.096829 -0.008633 -0.036571 0.022891 0.005753 0.022534 0.074573 0.056681 0.132227 -0.008888 -0.053512 -0.077265 -0.066495 0.040201 0.059244 0.037122 -0.002559 -0.022621 -0.024213 0.094254 -0.012451 -0.093383 -0.037368 -0.067141 -0.010481 -0.056574 -0.038812 0.010402 -0.018161 -0.065797 -0.030421 0.017174 -0.007658 -0.027379 -0.028697 -0.074254 0.063111 0.035000 0.112326 -0.018680 -0.000836 0.037274 -0.025061 -0.041816 -0.036204 0.021694 -0.012057 -0.003102 -0.069492 -0.037999 0.054476 -0.073502 0.077053 0.015716 0.108274 0.014166 0.105735 -0.064120 0.023868 -0.029721 0.217685 -0.048760 -0.000938 0.306564 0.147369 0.149203 0.453244 0.199964 0.313325 0.290791 0.044809 -1.369361
0.072396 0.072835 0.074149 0.076341 0.079408 0.083351 0.088168 0.093858 0.100419 0.107850 0.116149 0.125311 0.135334 0.146212 0.157941 0.170514 0.183923 0.198160 0.213214 0.229073 0.245724 0.263151 0.281336 0.300259 0.319898 0.340227 0.361218 0.382840 0.405057 0.427833 0.451125 0.474888 0.499071 0.523620 0.548478 0.573580 0.598858 0.624241 0.649650 0.675001 0.700208 0.725176 0.749806 0.773996 0.797637 0.820614 0.842808 0.864098 0.884354 0.903447 0.921239 0.937594 0.952370 0.965424 0.976612 0.985788 0.992808 0.997527 0.999804 0.999500 0.996480 0.990615 0.981782 0.969867 0.954765 0.936380 0.914630 0.889448 0.860781 0.828592 0.792864 0.753600 0.710826 0.664587 0.614957 0.562035 0.505944 0.446840 0.384905 0.320352 0.253423 0.184394 0.113568 0.041281 0.032101 0.106185 0.180547 0.254741 0.328292 0.400708 0.471476 0.540067 0.605941 0.668551 0.727347 0.781781 0.831313 0.875414 0.913579 0.945323 0.970198 0.987794 0.997744 0.999737 0.993521 0.978906 0.955780 0.924104 0.883923 0.835373 0.778679 0.714160 0.642235 0.563420 0.478327 0.387666 0.292242 0.192945 0.090751 0.013290 0.118059 0.222384 0.325047 0.424802 0.520387 0.610542 0.694024 0.769630 0.836212 0.892697 0.938109 0.971586 0.992401 0.999976 0.993905 0.973963 0.940123 0.892566 0.831685 0.758097 0.672635 0.576353 0.470516 0.356587 0.236217 0.111220 0.016448 0.144718 0.271437 0.394408 0.511422 0.620306 0.718962 0.805406 0.877821 0.934590 0.974345 0.996004 0.998799 0.982316 0.946512 0.891734 0.818732 0.728654 0.623047 0.503833 0.373288 0.234001 0.088835 0.059131 0.206662 0.350437 0.487123 0.613453 0.726310 0.822806 0.900362 0.956789 0.990353 0.999840 0.984608 0.944625 0.880496 0.793466 0.685419 0.558849 0.416812 0.262870 0.101004 0.064478 0.229048 0.388088 0.537012 0.671407 0.787165 0.880621 0.948676 0.988914 0.999698 0.980254 0.930719 0.852174 0.746642 0.617055 0.467191 0.301579 0.125375 0.055786 0.235968 0.409124 0.569298 0.710838 0.828601 0.918156 0.975958 0.999514 0.987503 0.939861 0.857829 0.743949 0.602008 0.436932 0.254644 0.061855 0.134165 0.325853 0.505652 0.666302 0.801153 0.904446 0.971581 0.999339 0.986065 0.931780 0.838230 0.708870 0.548762 0.364401 0.163481 0.045416 0.253175 0.450538 0.628525 0.778845 0.894301 0.969158 0.999449 0.983215 0.920655 0.814179 0.668353 0.489743 0.286640 0.068706 0.153467 0.368868 0.566607 0.736483 0.869510 0.958427 0.998125 0.985964 0.921990 0.808995 0.652451 0.460278 0.242484 0.010661 0.222600 0.444398 0.642227 0.804707 0.922242 0.987635 0.996558 0.947876 0.843803 0.689847 0.494572 0.269170 0.026838 0.217965 0.450368 0.656000 0.821885 0.937299 0.994489 0.989243 0.921243 0.794182 0.615627 0.396610 0.151001 0.105342 0.355579 0.582995 0.772116 0.909799 0.986174 0.995404 0.936185 0.811939 0.630686 0.404589 0.149182 0.117652 0.376923 0.609870 0.799341 0.931087 0.994868 0.985315 0.902434 0.751736 0.543929 0.294234 0.021316 0.254079 0.510693 0.728385 0.889759 0.981577 0.995920 0.930929 0.791084 0.586986 0.334623 0.054173 0.231564 0.499004 0.725728 0.892389 0.984414 0.993338 0.917657 0.763106 0.542313 0.273848 0.019280 0.311561 0.577179 0.792306 0.937290 0.998490 0.969652 0.852618 0.657328 0.401068 0.107012 0.197813 0.484989 0.727350 0.901592 0.990562 0.985032 0.884742 0.698602 0.444009 0.145297 0.168515 0.466506 0.718909 0.900100
1.000000 1.000000 1.000000 1.000000 1.000000 1.000000 1.000000 1.000000 1.000000 1.000000 1.000000 1.000000 1.000000 1.000000 1.000000 1.000000 1.000000 1.000000 1.000000 1.000000 1.000000 1.000000 1.000000 1.000000 1.000000 1.000000 1.000000 1.000000 1.000000 1.000000 1.000000 1.000000 1.000000 1.000000 1.000000 1.000000 1.000000 1.000000 1.000000 1.000000 1.000000 1.000000 1.000000 1.000000 1.000000 1.000000 1.000000 1.000000 1.000000 1.000000 1.000000 1.000000 0.831694 0.831694 0.831694 0.831694 0.831694 0.831694 0.831694 0.814440 0.814440 0.814440 0.814440 0.814440 0.814440 0.814440 0.814440 0.814440 0.814440 0.814440 0.814440 0.814440 0.814440 0.814440 0.814440 0.814440 0.814440 0.814440 0.814440 0.814440 0.814440 0.814440 0.814440 0.814440 0.814440 0.814440 0.814440 0.814440 0.814440 0.814440 0.814440 0.814440 0.814440 0.814440 0.814440 0.814440 0.814440 0.814440 0.814440 0.814440 0.814440 0.814440 0.814440 0.952188 0.952913 0.950119 0.949089 0.947466 0.944028 0.939821 0.939338 0.941801 0.942024 0.942446 0.944562 0.945132 0.946746 0.948327 0.949131 0.949924 0.957984 0.961651 0.961199 0.960575 0.951449 0.958199 0.957230 0.954859 0.955586 0.955848 0.956528 0.956424 0.956274 0.955831 0.954373 0.955059 0.954878 0.954137 0.953102 0.950905 0.950827 0.950397 0.950542 0.951509 0.952236 0.952892 0.953423 0.952649 0.952860 0.952856 0.952761 0.948153 0.948161 0.941125 0.941566 0.942547 0.942107 0.941041 0.939526 0.939600 0.939509 0.939477 0.939359 0.939781 0.923344 0.923367 0.923636 0.923195 0.916149 0.905929 0.898855 0.894176 0.895389 0.899570 0.904253 0.904765 0.901969 0.900888 0.885214 0.882003 0.867070 0.862713 0.851809 0.861962 0.863277 0.864476 0.853865 0.853608 0.851263 0.849386 0.839582 0.844293 0.844183 0.840650 0.836303 0.834977 0.831488 0.835778 0.844498 0.841684 0.839590 0.841449 0.827908 0.817912 0.816667 0.817498 0.825593 0.837984 0.836689 0.834894 0.829909 0.826096 0.821056 0.819049 0.819171 0.820878 0.818944 0.822464 0.819969 0.831559 0.821208 0.813004 0.818149 0.826015 0.825373 0.826009 0.827281 0.823573 0.829186 0.812858 0.813518 0.815161 0.781622 0.785627 0.777206 0.772008 0.746887 0.748405 0.742034 0.742384 0.732063 0.722321 0.734249 0.743412 0.699799 0.708389 0.702697 0.689094 0.659818 0.672418 0.684224 0.695199 0.692000 0.691146 0.678184 0.671901 0.679583 0.679314 0.684057 0.670047 0.665327 0.658439 0.662104 0.648737 0.651773 0.648446 0.648371 0.648833 0.643593 0.618596 0.627665 0.611954 0.591747 0.580893 0.567699 0.536645 0.524044 0.513972 0.488955 0.468122 0.482872 0.479340 0.450327 0.434914 0.419224 0.410543 0.411310 0.410461 0.414554 0.417054 0.403611 0.362495 0.371239 0.368849 0.368682 0.356453 0.373389 0.360787 0.296517 0.274233 0.248063 0.267883 0.271969 0.272814 0.255461 0.242782 0.265921 0.231039 0.233464 0.232243 0.255441 0.216958 0.155752 0.174358 0.174413 0.173798 0.165254 0.127937 0.148605 0.125604 0.141833 0.149326 0.090354 0.060458 0.044526 0.028402 0.039323 0.063466 0.073544 0.060324 0.045297 -0.058463 -0.018961 0.007706 0.007706 0.007706 0.007706 0.007706 0.007706 0.007706 0.007706 0.007706 0.007706 0.007706 -0.056894 -0.056894 -0.056894 -0.056894 -0.056894 -0.056894 -0.056894 -0.056894 -0.056894 -0.056894 -0.056894 -0.056894 -0.056894 -0.056894 -0.056894 -0.056894 -0.056894 -0.056894 -0.056894
0.000000 0.000000 0.000000 0.000000 0.000000 0.000000 0.000000 0.000000 0.000000 0.000000 0.000000 0.000000 0.000000 0.000000 0.000000 0.000000 0.000000 0.000000 2.000000 0.000000 0.000000 0.000000 0.000000 0.000000 0.000000 0.000000 0.000000 0.000000 0.000000 0.000000 0.000000 0.000000 0.000000 0.000000 0.000000 0.000000 0.000000 0.000000 0.000000 0.000000 0.000000 0.000000 0.000000 0.000000 0.000000 0.000000 0.000000 0.000000 0.000000 0.000000 0.000000 0.000000 0.173422 0.173422 0.173422 0.173422 0.173422 0.173422 0.173422 0.191565 0.191565 0.191565 0.191565 0.191565 0.191565 0.191565 0.191565 0.191565 0.191565 0.191565 0.191565 0.191565 0.191565 0.191565 0.191565 0.191565 0.191565 0.191565 0.191565 0.191565 0.191565 0.191565 0.191565 0.191565 0.191565 0.191565 0.191565 0.191565 0.191565 0.191565 0.191565 0.191565 0.191565 0.191565 0.191565 0.191565 0.191565 0.191565 0.191565 0.191565 0.191565 0.191565 0.191565 0.219529 0.219529 0.219529 0.219529 0.219529 0.219529 0.219529 0.219529 0.219529 0.219529 0.219529 0.219529 0.219529 0.219529 0.219529 0.219529 0.219529 0.219529 0.219529 0.219529 0.219529 0.219529 0.219529 0.219529 0.219529 0.219529 0.219529 0.219529 0.219529 0.219529 0.219529 0.237356 0.237356 0.237356 0.237356 0.237356 0.237356 0.237356 0.237356 0.237356 0.237356 0.237356 0.237356 0.237356 0.237356 0.237356 0.237356 0.237356 0.237356 0.237356 0.237356 0.237356 0.237356 0.237356 0.237356 0.244339 0.244339 0.244339 0.244339 0.244339 0.244339 0.244339 0.244339 0.244339 0.244339 0.244339 0.244339 0.244339 0.244339 0.244339 0.244339 0.244339 0.244339 0.244339 0.244339 0.244339 0.248069 0.248069 0.248069 0.248069 0.248069 0.248069 0.248069 0.248069 0.248069 0.248069 0.248069 0.248069 0.248069 0.248069 0.248069 0.248069 0.248069 0.248069 0.248069 0.248069 0.248069 0.248069 0.248069 0.248069 0.248069 0.248069 0.248069 0.248069 0.248069 0.248069 0.248069 0.248069 0.248069 0.248069 0.248069 0.248069 0.248069 0.256074 0.256074 0.256074 0.256074 0.256074 0.256074 0.256074 0.256074 0.256074 0.256074 0.256074 0.256074 0.256074 0.256074 0.256074 0.256074 0.256074 0.256074 0.256074 0.256074 0.256074 0.256074 0.256074 0.256074 0.256074 0.256074 0.256074 0.256074 0.256074 0.256074 0.256074 0.256074 0.256074 0.256074 0.256074 0.256074 0.256074 0.256074 0.256074 0.256074 0.256074 0.256074 0.256074 0.256074 0.256074 0.260378 0.260378 0.260378 0.260378 0.260378 0.260378 0.260378 0.260378 0.260378 0.260378 0.260378 0.260378 0.260378 0.256074 0.256074 0.256074 0.256074 0.256074 0.256074 0.256074 0.256074 0.256074 0.256074 0.256074 0.256074 0.256074 0.260378 0.260378 0.260378 0.260378 0.260378 0.260378 0.260378 0.260378 0.260378 0.260378 0.260378 0.260378 0.251976 0.251976 0.251976 0.251976 0.251976 0.251976 0.251976 0.251976 0.251976 0.251976 0.251976 0.251976 0.256074 0.256074 0.256074 0.256074 0.256074 0.256074 0.256074 0.256074 0.256074 0.256074 0.256074 0.251976 0.251976 0.251976 0.251976 0.251976 0.251976 0.251976 0.251976 0.251976 0.251976 0.251976 0.248069 0.248069 0.248069 0.248069 0.248069 0.248069 0.248069 0.248069 0.248069 0.248069 0.248069 0.256074 0.256074 0.256074 0.256074 0.256074 0.256074 0.256074 0.256074 0.256074 0.256074 0.256074 0.256074 0.256074 0.256074 0.256074 0.256074 0.256074 0.256074 0.256074
