# Output from CTFFind version 4.1.9, run on 2019-11-03 19:38:40
# Input file: stack6_bm3d_averaged_1_4.75_0_250_half.mrc ; Number of micrographs: 1
# Pixel size: 3.000 Angstroms ; acceleration voltage: 300.0 keV ; spherical aberration: 0.00 mm ; amplitude contrast: 0.07
# Box size: 512 pixels ; min. res.: 30.0 Angstroms ; max. res.: 5.0 Angstroms ; min. def.: 5000.0 um; max. def. 50000.0 um; num. frames averaged: 1
# 6 lines per micrograph: #1 - spatial frequency (1/Angstroms); #2 - 1D rotational average of spectrum (assuming no astigmatism); #3 - 1D rotational average of spectrum; #4 - CTF fit; #5 - cross-correlation between spectrum and CTF fit; #6 - 2sigma of expected cross correlation of noise
0.000000 0.000651 0.001302 0.001953 0.002604 0.003255 0.003906 0.004557 0.005208 0.005859 0.006510 0.007161 0.007812 0.008464 0.009115 0.009766 0.010417 0.011068 0.011719 0.012370 0.013021 0.013672 0.014323 0.014974 0.015625 0.016276 0.016927 0.017578 0.018229 0.018880 0.019531 0.020182 0.020833 0.021484 0.022135 0.022786 0.023438 0.024089 0.024740 0.025391 0.026042 0.026693 0.027344 0.027995 0.028646 0.029297 0.029948 0.030599 0.031250 0.031901 0.032552 0.033203 0.033854 0.034505 0.035156 0.035807 0.036458 0.037109 0.037760 0.038411 0.039062 0.039714 0.040365 0.041016 0.041667 0.042318 0.042969 0.043620 0.044271 0.044922 0.045573 0.046224 0.046875 0.047526 0.048177 0.048828 0.049479 0.050130 0.050781 0.051432 0.052083 0.052734 0.053385 0.054036 0.054688 0.055339 0.055990 0.056641 0.057292 0.057943 0.058594 0.059245 0.059896 0.060547 0.061198 0.061849 0.062500 0.063151 0.063802 0.064453 0.065104 0.065755 0.066406 0.067057 0.067708 0.068359 0.069010 0.069661 0.070312 0.070964 0.071615 0.072266 0.072917 0.073568 0.074219 0.074870 0.075521 0.076172 0.076823 0.077474 0.078125 0.078776 0.079427 0.080078 0.080729 0.081380 0.082031 0.082682 0.083333 0.083984 0.084635 0.085286 0.085938 0.086589 0.087240 0.087891 0.088542 0.089193 0.089844 0.090495 0.091146 0.091797 0.092448 0.093099 0.093750 0.094401 0.095052 0.095703 0.096354 0.097005 0.097656 0.098307 0.098958 0.099609 0.100260 0.100911 0.101562 0.102214 0.102865 0.103516 0.104167 0.104818 0.105469 0.106120 0.106771 0.107422 0.108073 0.108724 0.109375 0.110026 0.110677 0.111328 0.111979 0.112630 0.113281 0.113932 0.114583 0.115234 0.115885 0.116536 0.117188 0.117839 0.118490 0.119141 0.119792 0.120443 0.121094 0.121745 0.122396 0.123047 0.123698 0.124349 0.125000 0.125651 0.126302 0.126953 0.127604 0.128255 0.128906 0.129557 0.130208 0.130859 0.131510 0.132161 0.132812 0.133464 0.134115 0.134766 0.135417 0.136068 0.136719 0.137370 0.138021 0.138672 0.139323 0.139974 0.140625 0.141276 0.141927 0.142578 0.143229 0.143880 0.144531 0.145182 0.145833 0.146484 0.147135 0.147786 0.148438 0.149089 0.149740 0.150391 0.151042 0.151693 0.152344 0.152995 0.153646 0.154297 0.154948 0.155599 0.156250 0.156901 0.157552 0.158203 0.158854 0.159505 0.160156 0.160807 0.161458 0.162109 0.162760 0.163411 0.164062 0.164714 0.165365 0.166016 0.166667 0.167318 0.167969 0.168620 0.169271 0.169922 0.170573 0.171224 0.171875 0.172526 0.173177 0.173828 0.174479 0.175130 0.175781 0.176432 0.177083 0.177734 0.178385 0.179036 0.179688 0.180339 0.180990 0.181641 0.182292 0.182943 0.183594 0.184245 0.184896 0.185547 0.186198 0.186849 0.187500 0.188151 0.188802 0.189453 0.190104 0.190755 0.191406 0.192057 0.192708 0.193359 0.194010 0.194661 0.195312 0.195964 0.196615 0.197266 0.197917 0.198568 0.199219 0.199870 0.200521 0.201172 0.201823 0.202474 0.203125 0.203776 0.204427 0.205078 0.205729 0.206380 0.207031 0.207682 0.208333 0.208984 0.209635 0.210286 0.210938 0.211589 0.212240 0.212891 0.213542 0.214193 0.214844 0.215495 0.216146 0.216797 0.217448 0.218099 0.218750 0.219401 0.220052 0.220703 0.221354 0.222005 0.222656 0.223307 0.223958 0.224609 0.225260 0.225911 0.226562 0.227214 0.227865 0.228516 0.229167 0.229818 0.230469 0.231120 0.231771 0.232422 0.233073 0.233724 0.234375 0.235026 0.235677
       0.30713        0.30713        0.30713        0.30713        0.30713        0.30713        0.30713        0.30713        0.30713        0.30713        0.30713        0.30713        0.30713        0.30713        0.30713        0.30713        0.30713        0.30713        0.30713        0.30713        0.30713        0.30713        0.30713        0.30713        0.30713        0.30713        0.30713        0.30713        0.30713        0.30713        0.30713        0.30713        0.30713        0.30713        0.30713        0.30713        0.30713        0.30713        0.30713        0.30713        0.30713        0.30713        0.30713        0.30713        0.30713        0.30713        0.30713        0.30713        0.30713        0.30713        0.30713        0.59717        0.72304        0.35521        0.18327        0.12581       -0.15075        0.10502        0.02528        0.02901        0.08686        0.30611        0.32587        0.25399        0.14755       -0.04307       -0.01417        0.03865       -0.13514       -0.14466       -0.08827       -0.10803       -0.22874       -0.14832       -0.26721       -0.28217       -0.28290       -0.34772       -0.42397       -0.36706       -0.27508       -0.24425       -0.34443       -0.25644       -0.31402       -0.25084       -0.17683       -0.12550       -0.08869       -0.01787        0.01564        0.11717        0.16031        0.20971        0.33167        0.39739        0.35312        0.46187        0.54683        0.55638        0.63699        0.57629        0.61102        0.59830        0.61119        0.61135        0.55288        0.56856        0.54925        0.39157        0.32812        0.36045        0.34105        0.18704        0.15453        0.12485        0.07939        0.08523       -0.00455        0.05437        0.03075       -0.01077        0.09174        0.15721        0.25419        0.34747        0.33807        0.36687        0.45691        0.49163        0.42146        0.64704        0.53256        0.47848        0.56573        0.49726        0.52800        0.49050        0.36372        0.30299        0.26476        0.21860        0.20367        0.18603        0.16415        0.11637        0.19057        0.18068        0.22256        0.19506        0.25698        0.30139        0.32611        0.44482        0.42667        0.40978        0.43191        0.47335        0.44868        0.43830        0.38693        0.39739        0.33448        0.27996        0.23205        0.24160        0.23349        0.18464        0.15877        0.20887        0.21460        0.25874        0.33176        0.35195        0.40751        0.38838        0.43958        0.45369        0.44706        0.42012        0.38871        0.40717        0.36824        0.32823        0.32568        0.30574        0.25292        0.26876        0.26404        0.22246        0.28684        0.26651        0.27699        0.31591        0.36593        0.40319        0.39764        0.41624        0.37177        0.40607        0.38831        0.29800        0.27844        0.23738        0.25464        0.21446        0.19493        0.27973        0.32976        0.30541        0.27754        0.33509        0.25866        0.32493        0.36861        0.36426        0.35859        0.37803        0.31975        0.33237        0.31312        0.27869        0.27496        0.23952        0.28285        0.29801        0.30546        0.32654        0.37047        0.37139        0.36298        0.32945        0.34736        0.32786        0.31386        0.31228        0.27767        0.28082        0.25129        0.30906        0.32051        0.31091        0.28804        0.32270        0.32352        0.32660        0.33728        0.30726        0.27577        0.28544        0.28382        0.26348        0.24244        0.22791        0.24206        0.25618        0.24112        0.27667        0.27759        0.31825        0.31280        0.26847        0.30147        0.25925        0.20271        0.25980        0.24028        0.22389        0.27033        0.29883        0.28856        0.29344        0.29533        0.29514        0.30678        0.31743        0.26515        0.30293        0.29823        0.34216        0.27286        0.26468        0.25143        0.30333        0.30678        0.31962        0.33333        0.30886        0.21915        0.27719        0.25397        0.24245        0.23741        0.24330        0.28246        0.23883        0.29546        0.30621        0.34212        0.30545        0.28060        0.24174        0.25565        0.25779        0.23876        0.26320        0.27983        0.31254        0.32956        0.28880        0.28794        0.26119        0.29522        0.26644        0.22699        0.19234        0.26753        0.33043        0.31127        0.30324        0.28442        0.23354        0.22594        0.23641        0.21798        0.22510        0.26836        0.27631        0.25764        0.22257        0.21106        0.26051        0.23433        0.25329        0.26253        0.25574        0.17920        0.22209        0.25543        0.23871        0.28309        0.24257        0.23261        0.18835        0.25616        0.28287        0.19385        0.20160        0.12429        0.13890        0.30578        0.16708        0.17127        0.31617        0.18846        0.16759        0.11842        0.20347        0.12995        0.16010       -0.04381       -0.63081       -0.99523
2.326499 2.306371 2.286335 2.266392 2.246542 2.226784 2.207119 2.187547 2.168067 2.148680 2.129386 2.110185 2.091076 2.072060 2.053137 2.034306 2.015568 1.996923 1.978370 1.959911 1.941544 1.923269 1.905088 1.886999 1.869002 1.851099 1.833288 1.815570 1.797945 1.780412 1.762972 1.745625 1.728370 1.711208 1.694139 1.677163 1.660279 1.643488 1.626790 1.610184 1.593671 1.577251 1.560923 1.544689 1.528546 1.512497 1.496540 1.480677 1.464905 1.449227 1.433641 1.795491 2.127426 1.477461 1.346759 1.089153 0.541757 0.918807 0.814209 0.853256 0.715265 1.372653 1.224626 1.237952 0.992264 0.648593 0.505077 0.762029 0.567706 0.242452 0.318212 0.478928 0.228048 0.260941 0.115132 0.016358 -0.017275 -0.015357 -0.292967 -0.178872 -0.021531 -0.051881 -0.109027 -0.015735 -0.145649 -0.116424 0.060574 0.150438 0.217124 0.266589 0.337157 0.587327 0.536675 0.615240 0.827620 0.993138 0.806752 1.187020 1.158843 1.223942 1.322760 1.232631 1.179694 1.338634 1.206644 1.334412 1.160529 1.096420 1.185088 0.953640 0.662515 0.720428 0.776978 0.474025 0.394863 0.337873 0.193887 0.190718 0.038434 0.169527 0.131233 -0.000463 0.109202 0.227275 0.338674 0.599428 0.592584 0.557808 0.717717 0.877579 0.595431 1.030393 0.970844 0.770895 0.897769 0.751048 0.829222 0.853040 0.576872 0.415479 0.372064 0.315383 0.211825 0.159580 0.170740 -0.016129 0.157290 0.129438 0.222417 0.105547 0.273357 0.310255 0.274598 0.495235 0.593629 0.506588 0.412850 0.602052 0.589654 0.495699 0.489867 0.436601 0.315703 0.322324 0.116686 0.164991 0.053835 0.164461 -0.055497 0.040439 0.012230 0.220534 0.096449 0.354258 0.318533 0.367325 0.423044 0.417033 0.587015 0.369071 0.394295 0.446085 0.246138 0.340754 0.181713 0.268763 0.106080 0.143930 0.101267 0.095025 0.042330 0.162687 0.065127 0.157184 0.251283 0.277771 0.345321 0.328749 0.357791 0.278388 0.322605 0.217440 0.121389 0.073514 0.022731 0.038812 -0.055711 -0.022269 0.113812 0.209547 0.091472 0.120978 0.125010 0.061638 0.214986 0.250606 0.221879 0.272202 0.171891 0.159648 0.141649 0.124679 0.084605 -0.023733 0.017658 0.168687 0.025787 0.156351 0.134547 0.265635 0.171305 0.238210 0.193198 0.209322 0.105678 0.142910 0.137920 0.064256 0.017626 0.059344 0.129426 0.151241 0.120832 0.076217 0.161532 0.089419 0.113755 0.128092 0.032823 -0.008211 0.046121 -0.000460 -0.005359 -0.069566 -0.086878 -0.013275 -0.044404 -0.066612 0.011199 0.022348 0.088457 0.051919 -0.035850 0.050857 -0.080313 -0.118823 0.009602 -0.089342 -0.106706 0.036648 0.035908 0.006689 0.056897 -0.054224 0.063133 0.124260 -0.030903 -0.014499 0.093721 0.018213 0.123819 -0.042597 -0.011295 -0.057834 0.122472 0.043232 0.069299 0.124076 0.043778 -0.092763 0.012432 -0.017373 -0.037290 -0.055363 -0.032160 0.019483 -0.065768 0.080269 0.107307 0.164435 0.064452 -0.006659 -0.012407 0.000849 0.019251 -0.036833 0.053124 0.037428 0.137285 0.142335 0.063080 0.087201 0.036497 0.141384 -0.004465 0.002444 -0.109330 0.100673 0.179787 0.082453 0.133861 0.064948 -0.005472 -0.033146 -0.020236 -0.035203 -0.014111 0.058587 0.100348 0.032424 -0.031648 -0.008868 0.083548 0.051403 0.075841 0.098476 0.048342 -0.010507 0.023792 0.133999 0.063275 0.199983 0.108037 0.057942 0.079783 0.160920 0.221558 0.084144 0.089329 -0.062892 -0.111777 0.472733 0.327179 0.273982 0.608846 0.257786 0.292790 0.144016 0.461383 0.228442 0.312567 -0.067643 -1.760372
0.072396 0.072837 0.074161 0.076367 0.079455 0.083424 0.088274 0.094002 0.100608 0.108089 0.116443 0.125666 0.135756 0.146707 0.158514 0.171170 0.184668 0.198998 0.214151 0.230113 0.246872 0.264410 0.282711 0.301753 0.321513 0.341966 0.363083 0.384833 0.407178 0.430082 0.453502 0.477389 0.501695 0.526364 0.551336 0.576547 0.601927 0.627402 0.652894 0.678317 0.703582 0.728593 0.753251 0.777451 0.801080 0.824025 0.846163 0.867371 0.887518 0.906471 0.924093 0.940244 0.954781 0.967559 0.978432 0.987253 0.993876 0.998157 0.999952 0.999121 0.995530 0.989049 0.979557 0.966938 0.951089 0.931916 0.909341 0.883296 0.853733 0.820619 0.783941 0.743707 0.699948 0.652717 0.602094 0.548184 0.491122 0.431070 0.368220 0.302795 0.235050 0.165270 0.093769 0.020897 0.052971 0.127427 0.202038 0.276343 0.349859 0.422081 0.492485 0.560535 0.625682 0.687371 0.745048 0.798161 0.846166 0.888537 0.924770 0.954387 0.976946 0.992047 0.999338 0.998525 0.989373 0.971718 0.945471 0.910623 0.867252 0.815526 0.755709 0.688158 0.613334 0.531794 0.444194 0.351289 0.253924 0.153033 0.049634 0.055185 0.160271 0.264420 0.366389 0.464909 0.558706 0.646511 0.727083 0.799229 0.861818 0.913807 0.954256 0.982352 0.997425 0.998966 0.986644 0.960320 0.920060 0.866146 0.799076 0.719575 0.628590 0.527286 0.417036 0.299410 0.176159 0.049187 0.079471 0.207678 0.333234 0.453909 0.567486 0.671799 0.764784 0.844517 0.909260 0.957507 0.988018 0.999865 0.992455 0.965566 0.919364 0.854416 0.771696 0.672586 0.558858 0.432653 0.296449 0.153023 0.005396 0.143225 0.289514 0.430101 0.561646 0.680928 0.784921 0.870882 0.936427 0.979608 0.998978 0.993651 0.963343 0.908409 0.829853 0.729329 0.609120 0.472104 0.321692 0.161757 0.003458 0.169451 0.331574 0.485169 0.625698 0.748886 0.850859 0.928274 0.978437 0.999417 0.990128 0.950395 0.880992 0.783650 0.661039 0.516704 0.354996 0.180934 0.000076 0.181653 0.358159 0.523376 0.671483 0.797108 0.895547 0.962944 0.996462 0.994421 0.956398 0.883282 0.777285 0.641902 0.481818 0.302767 0.111345 0.085223 0.279348 0.463364 0.629838 0.771877 0.883422 0.959530 0.996609 0.992614 0.947177 0.861676 0.739230 0.584614 0.404101 0.205236 0.003472 0.212894 0.413670 0.596646 0.753278 0.876062 0.958906 0.997459 0.989368 0.934446 0.834748 0.694526 0.520097 0.319577 0.102536 0.120442 0.338264 0.539879 0.714843 0.853878 0.949384 0.995883 0.990372 0.932540 0.824868 0.672564 0.483355 0.267128 0.035447 0.199047 0.423325 0.624680 0.791476 0.913823 0.984212 0.998002 0.953771 0.853476 0.702435 0.509087 0.284561 0.042076 0.203822 0.438105 0.646208 0.814928 0.933298 0.993333 0.990614 0.924658 0.799049 0.621301 0.402464 0.156482 0.100667 0.351982 0.580565 0.770766 0.909279 0.986111 0.995355 0.935693 0.810601 0.628208 0.400839 0.144227 0.123537 0.383260 0.616016 0.804549 0.934567 0.995885 0.983276 0.896971 0.742775 0.531744 0.279452 0.004903 0.270872 0.526424 0.741541 0.898886 0.985444 0.993645 0.922105 0.775865 0.566129 0.309467 0.026578 0.259360 0.524546 0.746570 0.906316 0.989673 0.988841 0.903137 0.739202 0.510588 0.236699 0.058790 0.349929 0.610786 0.817754 0.951730 0.999952 0.957283 0.826844 0.619893 0.354945 0.056189 0.248670 0.530944 0.763688 0.924294 0.996757 0.973347 0.855526 0.653991 0.387803 0.082665 0.231493 0.523428 0.763691 0.927638 0.998026
1.000000 1.000000 1.000000 1.000000 1.000000 1.000000 1.000000 1.000000 1.000000 1.000000 1.000000 1.000000 1.000000 1.000000 1.000000 1.000000 1.000000 1.000000 1.000000 1.000000 1.000000 1.000000 1.000000 1.000000 1.000000 1.000000 1.000000 1.000000 1.000000 1.000000 1.000000 1.000000 1.000000 1.000000 1.000000 1.000000 1.000000 1.000000 1.000000 1.000000 1.000000 1.000000 1.000000 1.000000 1.000000 1.000000 1.000000 1.000000 1.000000 1.000000 1.000000 1.000000 0.779148 0.779148 0.779148 0.779148 0.779148 0.779148 0.779148 0.764259 0.764259 0.764259 0.764259 0.764259 0.764259 0.764259 0.764259 0.764259 0.764259 0.764259 0.764259 0.764259 0.764259 0.764259 0.764259 0.764259 0.764259 0.764259 0.764259 0.764259 0.764259 0.764259 0.764259 0.764259 0.764259 0.764259 0.764259 0.764259 0.764259 0.764259 0.764259 0.764259 0.764259 0.764259 0.764259 0.764259 0.764259 0.764259 0.764259 0.764259 0.764259 0.764259 0.764259 0.911197 0.911464 0.914144 0.908508 0.910330 0.908078 0.902004 0.904946 0.904131 0.903994 0.904921 0.906161 0.908053 0.911389 0.917897 0.920751 0.928904 0.932271 0.933483 0.933337 0.930442 0.937369 0.934835 0.932811 0.921462 0.924882 0.924355 0.924840 0.923473 0.923801 0.924809 0.925062 0.922711 0.921021 0.918617 0.916853 0.917361 0.916901 0.916855 0.917019 0.916364 0.917387 0.918016 0.913918 0.916400 0.915074 0.911859 0.908049 0.907926 0.908992 0.902606 0.899980 0.890213 0.892014 0.891113 0.895305 0.890910 0.890885 0.892037 0.892824 0.893512 0.893572 0.893655 0.891051 0.891352 0.888388 0.884754 0.881155 0.881143 0.883467 0.889792 0.892960 0.892880 0.890248 0.884918 0.875929 0.874129 0.860205 0.835181 0.836841 0.838712 0.840248 0.841048 0.839848 0.838703 0.835918 0.831742 0.826439 0.831210 0.830846 0.823996 0.810239 0.809727 0.805646 0.812996 0.817430 0.809640 0.809384 0.808659 0.813251 0.814107 0.810379 0.809861 0.805439 0.808478 0.816664 0.816702 0.810149 0.804494 0.799445 0.780962 0.783036 0.786766 0.799840 0.802085 0.797411 0.784717 0.792973 0.788359 0.795267 0.807866 0.807624 0.806385 0.790233 0.752049 0.737428 0.731387 0.733420 0.735631 0.727408 0.722843 0.722239 0.725351 0.684564 0.675029 0.664726 0.660871 0.669243 0.671194 0.673635 0.626963 0.646517 0.642736 0.623887 0.619706 0.580513 0.570312 0.516458 0.520679 0.519705 0.491154 0.478668 0.469718 0.483582 0.495765 0.495984 0.489401 0.469011 0.451845 0.446048 0.447485 0.458391 0.458118 0.462303 0.424371 0.398779 0.396084 0.414174 0.417158 0.415665 0.436474 0.451537 0.453243 0.441884 0.419743 0.414825 0.431697 0.439058 0.450324 0.452183 0.441011 0.421753 0.400578 0.405084 0.442841 0.439266 0.434476 0.420452 0.427900 0.441991 0.431698 0.415543 0.398131 0.441384 0.439328 0.426559 0.381271 0.351506 0.361022 0.355103 0.352217 0.341558 0.380176 0.401313 0.399928 0.405346 0.395377 0.433029 0.505372 0.495733 0.489110 0.510433 0.499837 0.480462 0.465485 0.452102 0.448172 0.435538 0.423869 0.401881 0.394801 0.382552 0.380830 0.400816 0.406511 0.432699 0.417279 0.370484 0.219242 0.261316 0.261316 0.261316 0.261316 0.261316 0.261316 0.261316 0.261316 0.261316 0.261316 0.261316 0.216772 0.216772 0.216772 0.216772 0.216772 0.216772 0.216772 0.216772 0.216772 0.216772 0.216772 0.216772 0.216772 0.216772 0.216772 0.216772 0.216772 0.216772 0.216772 0.216772
0.000000 0.000000 0.000000 0.000000 0.000000 0.000000 0.000000 0.000000 0.000000 0.000000 0.000000 0.000000 0.000000 0.000000 0.000000 0.000000 0.000000 0.000000 0.000000 0.000000 0.000000 0.000000 0.000000 0.000000 0.000000 0.000000 0.000000 0.000000 0.000000 0.000000 0.000000 0.000000 0.000000 0.000000 0.000000 0.000000 0.000000 0.000000 0.000000 0.000000 0.000000 0.000000 0.000000 0.000000 0.000000 0.000000 0.000000 0.000000 0.000000 0.000000 0.000000 0.000000 0.173422 0.173422 0.173422 0.173422 0.173422 0.173422 0.173422 0.191565 0.191565 0.191565 0.191565 0.191565 0.191565 0.191565 0.191565 0.191565 0.191565 0.191565 0.191565 0.191565 0.191565 0.191565 0.191565 0.191565 0.191565 0.191565 0.191565 0.191565 0.191565 0.191565 0.191565 0.191565 0.191565 0.191565 0.191565 0.191565 0.191565 0.191565 0.191565 0.191565 0.191565 0.191565 0.191565 0.191565 0.191565 0.191565 0.191565 0.191565 0.191565 0.191565 0.191565 0.222222 0.222222 0.222222 0.222222 0.222222 0.222222 0.222222 0.222222 0.222222 0.222222 0.222222 0.222222 0.222222 0.222222 0.222222 0.222222 0.222222 0.222222 0.222222 0.222222 0.222222 0.222222 0.222222 0.222222 0.222222 0.222222 0.222222 0.222222 0.222222 0.222222 0.234082 0.234082 0.234082 0.234082 0.234082 0.234082 0.234082 0.234082 0.234082 0.234082 0.234082 0.234082 0.234082 0.234082 0.234082 0.234082 0.234082 0.234082 0.234082 0.234082 0.234082 0.234082 0.234082 0.234082 0.234082 0.244339 0.244339 0.244339 0.244339 0.244339 0.244339 0.244339 0.244339 0.244339 0.244339 0.244339 0.244339 0.244339 0.244339 0.244339 0.244339 0.244339 0.244339 0.244339 0.244339 0.244339 0.248069 0.248069 0.248069 0.248069 0.248069 0.248069 0.248069 0.248069 0.248069 0.248069 0.248069 0.248069 0.248069 0.248069 0.248069 0.248069 0.248069 0.248069 0.248069 0.256074 0.256074 0.256074 0.256074 0.256074 0.256074 0.256074 0.256074 0.256074 0.256074 0.256074 0.256074 0.256074 0.256074 0.256074 0.256074 0.256074 0.256074 0.256074 0.256074 0.256074 0.256074 0.256074 0.256074 0.256074 0.256074 0.256074 0.256074 0.256074 0.256074 0.256074 0.256074 0.256074 0.256074 0.256074 0.256074 0.256074 0.256074 0.256074 0.256074 0.256074 0.256074 0.256074 0.256074 0.256074 0.256074 0.256074 0.256074 0.256074 0.256074 0.256074 0.256074 0.256074 0.256074 0.256074 0.256074 0.256074 0.256074 0.256074 0.256074 0.256074 0.256074 0.260378 0.260378 0.260378 0.260378 0.260378 0.260378 0.260378 0.260378 0.260378 0.260378 0.260378 0.260378 0.260378 0.256074 0.256074 0.256074 0.256074 0.256074 0.256074 0.256074 0.256074 0.256074 0.256074 0.256074 0.256074 0.256074 0.260378 0.260378 0.260378 0.260378 0.260378 0.260378 0.260378 0.260378 0.260378 0.260378 0.260378 0.260378 0.251976 0.251976 0.251976 0.251976 0.251976 0.251976 0.251976 0.251976 0.251976 0.251976 0.251976 0.251976 0.256074 0.256074 0.256074 0.256074 0.256074 0.256074 0.256074 0.256074 0.256074 0.256074 0.256074 0.251976 0.251976 0.251976 0.251976 0.251976 0.251976 0.251976 0.251976 0.251976 0.251976 0.251976 0.248069 0.248069 0.248069 0.248069 0.248069 0.248069 0.248069 0.248069 0.248069 0.248069 0.248069 0.256074 0.256074 0.256074 0.256074 0.256074 0.256074 0.256074 0.256074 0.256074 0.256074 0.256074 0.256074 0.256074 0.256074 0.256074 0.256074 0.256074 0.256074 0.256074 0.256074
