# Output from CTFFind version 4.1.9, run on 2019-11-03 19:36:54
# Input file: stack16_bm3d_averaged_1_4.25_0_2500_half.mrc ; Number of micrographs: 1
# Pixel size: 3.000 Angstroms ; acceleration voltage: 300.0 keV ; spherical aberration: 0.00 mm ; amplitude contrast: 0.07
# Box size: 512 pixels ; min. res.: 30.0 Angstroms ; max. res.: 5.0 Angstroms ; min. def.: 5000.0 um; max. def. 50000.0 um; num. frames averaged: 1
# 6 lines per micrograph: #1 - spatial frequency (1/Angstroms); #2 - 1D rotational average of spectrum (assuming no astigmatism); #3 - 1D rotational average of spectrum; #4 - CTF fit; #5 - cross-correlation between spectrum and CTF fit; #6 - 2sigma of expected cross correlation of noise
0.000000 0.000651 0.001302 0.001953 0.002604 0.003255 0.003906 0.004557 0.005208 0.005859 0.006510 0.007161 0.007812 0.008464 0.009115 0.009766 0.010417 0.011068 0.011719 0.012370 0.013021 0.013672 0.014323 0.014974 0.015625 0.016276 0.016927 0.017578 0.018229 0.018880 0.019531 0.020182 0.020833 0.021484 0.022135 0.022786 0.023438 0.024089 0.024740 0.025391 0.026042 0.026693 0.027344 0.027995 0.028646 0.029297 0.029948 0.030599 0.031250 0.031901 0.032552 0.033203 0.033854 0.034505 0.035156 0.035807 0.036458 0.037109 0.037760 0.038411 0.039062 0.039714 0.040365 0.041016 0.041667 0.042318 0.042969 0.043620 0.044271 0.044922 0.045573 0.046224 0.046875 0.047526 0.048177 0.048828 0.049479 0.050130 0.050781 0.051432 0.052083 0.052734 0.053385 0.054036 0.054688 0.055339 0.055990 0.056641 0.057292 0.057943 0.058594 0.059245 0.059896 0.060547 0.061198 0.061849 0.062500 0.063151 0.063802 0.064453 0.065104 0.065755 0.066406 0.067057 0.067708 0.068359 0.069010 0.069661 0.070312 0.070964 0.071615 0.072266 0.072917 0.073568 0.074219 0.074870 0.075521 0.076172 0.076823 0.077474 0.078125 0.078776 0.079427 0.080078 0.080729 0.081380 0.082031 0.082682 0.083333 0.083984 0.084635 0.085286 0.085938 0.086589 0.087240 0.087891 0.088542 0.089193 0.089844 0.090495 0.091146 0.091797 0.092448 0.093099 0.093750 0.094401 0.095052 0.095703 0.096354 0.097005 0.097656 0.098307 0.098958 0.099609 0.100260 0.100911 0.101562 0.102214 0.102865 0.103516 0.104167 0.104818 0.105469 0.106120 0.106771 0.107422 0.108073 0.108724 0.109375 0.110026 0.110677 0.111328 0.111979 0.112630 0.113281 0.113932 0.114583 0.115234 0.115885 0.116536 0.117188 0.117839 0.118490 0.119141 0.119792 0.120443 0.121094 0.121745 0.122396 0.123047 0.123698 0.124349 0.125000 0.125651 0.126302 0.126953 0.127604 0.128255 0.128906 0.129557 0.130208 0.130859 0.131510 0.132161 0.132812 0.133464 0.134115 0.134766 0.135417 0.136068 0.136719 0.137370 0.138021 0.138672 0.139323 0.139974 0.140625 0.141276 0.141927 0.142578 0.143229 0.143880 0.144531 0.145182 0.145833 0.146484 0.147135 0.147786 0.148438 0.149089 0.149740 0.150391 0.151042 0.151693 0.152344 0.152995 0.153646 0.154297 0.154948 0.155599 0.156250 0.156901 0.157552 0.158203 0.158854 0.159505 0.160156 0.160807 0.161458 0.162109 0.162760 0.163411 0.164062 0.164714 0.165365 0.166016 0.166667 0.167318 0.167969 0.168620 0.169271 0.169922 0.170573 0.171224 0.171875 0.172526 0.173177 0.173828 0.174479 0.175130 0.175781 0.176432 0.177083 0.177734 0.178385 0.179036 0.179688 0.180339 0.180990 0.181641 0.182292 0.182943 0.183594 0.184245 0.184896 0.185547 0.186198 0.186849 0.187500 0.188151 0.188802 0.189453 0.190104 0.190755 0.191406 0.192057 0.192708 0.193359 0.194010 0.194661 0.195312 0.195964 0.196615 0.197266 0.197917 0.198568 0.199219 0.199870 0.200521 0.201172 0.201823 0.202474 0.203125 0.203776 0.204427 0.205078 0.205729 0.206380 0.207031 0.207682 0.208333 0.208984 0.209635 0.210286 0.210938 0.211589 0.212240 0.212891 0.213542 0.214193 0.214844 0.215495 0.216146 0.216797 0.217448 0.218099 0.218750 0.219401 0.220052 0.220703 0.221354 0.222005 0.222656 0.223307 0.223958 0.224609 0.225260 0.225911 0.226562 0.227214 0.227865 0.228516 0.229167 0.229818 0.230469 0.231120 0.231771 0.232422 0.233073 0.233724 0.234375 0.235026 0.235677
       0.33107        0.33107        0.33107        0.33107        0.33107        0.33107        0.33107        0.33107        0.33107        0.33107        0.33107        0.33107        0.33107        0.33107        0.33107        0.33107        0.33107        0.33107        0.33107        0.33107        0.33107        0.33107        0.33107        0.33107        0.33107        0.33107        0.33107        0.33107        0.33107        0.33107        0.33107        0.33107        0.33107        0.33107        0.33107        0.33107        0.33107        0.33107        0.33107        0.33107        0.33107        0.33107        0.33107        0.33107        0.33107        0.33107        0.33107        0.33107        0.33107        0.33107        0.33107        0.42120        0.57052        0.35873       -0.18435       -0.45404       -0.56246       -0.65722       -0.73210       -0.75313       -0.86509       -0.91911       -0.72010       -0.88551       -0.85300       -1.00538       -1.04320       -0.92752       -0.88540       -0.82475       -0.76016       -0.67908       -0.59250       -0.50059       -0.42646       -0.20514       -0.09361       -0.00278        0.22662        0.23867        0.30090        0.36716        0.39266        0.49413        0.54104        0.57481        0.53925        0.47644        0.51568        0.49587        0.41704        0.31593        0.18352        0.16507        0.10195       -0.03922       -0.05223       -0.05372        0.02510       -0.01338        0.04248        0.02494        0.13914        0.18516        0.40172        0.45881        0.55485        0.65972        0.70717        0.72028        0.64584        0.62478        0.52922        0.44075        0.37702        0.25692        0.20161        0.18720        0.07647        0.05906        0.03852        0.05692        0.08056        0.28923        0.40445        0.50342        0.54608        0.58557        0.62794        0.60040        0.60008        0.59434        0.56572        0.46548        0.28224        0.24582        0.21221        0.11479        0.06046        0.11719        0.13739        0.26020        0.34937        0.40589        0.47404        0.53955        0.61240        0.55897        0.51397        0.48928        0.35704        0.22740        0.22117        0.15416        0.13151        0.17854        0.22980        0.26212        0.30982        0.41436        0.43292        0.51351        0.46445        0.45479        0.46794        0.37060        0.31468        0.26886        0.22295        0.20482        0.21875        0.22895        0.31717        0.42112        0.41815        0.48350        0.54096        0.45355        0.41991        0.35511        0.28915        0.23824        0.23974        0.26377        0.27625        0.29942        0.31982        0.40744        0.46555        0.43970        0.44544        0.34779        0.36248        0.34888        0.22499        0.22492        0.23644        0.28282        0.35056        0.36698        0.39272        0.43596        0.43507        0.36208        0.34211        0.30576        0.32197        0.28553        0.26606        0.26733        0.32097        0.36308        0.37235        0.39746        0.37504        0.39822        0.36439        0.28276        0.27495        0.29878        0.32819        0.35369        0.34848        0.40584        0.33887        0.36936        0.37618        0.31740        0.33265        0.28536        0.28651        0.33554        0.31960        0.31844        0.32655        0.34807        0.31193        0.33360        0.29340        0.30576        0.27199        0.28722        0.28772        0.33688        0.37250        0.35159        0.33376        0.28898        0.26956        0.27266        0.30899        0.27799        0.29999        0.35459        0.37286        0.33029        0.30375        0.30342        0.29506        0.27019        0.27466        0.27818        0.31290        0.33879        0.30881        0.27522        0.32719        0.29993        0.29383        0.33584        0.32795        0.31194        0.33103        0.29162        0.31681        0.27326        0.29554        0.29787        0.30876        0.38895        0.32029        0.34056        0.29967        0.30091        0.30231        0.31066        0.28405        0.27867        0.30494        0.30310        0.31963        0.29894        0.30863        0.28882        0.29215        0.30959        0.32725        0.31670        0.32924        0.32905        0.29928        0.27073        0.27720        0.25631        0.33310        0.31743        0.33911        0.29524        0.26834        0.29889        0.33165        0.30409        0.28826        0.26672        0.30294        0.28070        0.25151        0.30234        0.27461        0.27597        0.30611        0.29629        0.32996        0.34637        0.29064        0.25703        0.24127        0.26015        0.27479        0.26590        0.29543        0.26543        0.23358        0.28089        0.27148        0.27223        0.23286        0.31198        0.29358        0.27237        0.25078        0.24724        0.26705        0.22299        0.26851        0.32078        0.36202        0.26475        0.26566        0.25068        0.24456        0.19743        0.30244        0.22334        0.22152        0.15778        0.23430        0.22911        0.23078        0.06370        0.08208       -0.54939       -1.00492
3.002020 2.964711 2.927643 2.890814 2.854225 2.817875 2.781766 2.745896 2.710266 2.674876 2.639725 2.604815 2.570144 2.535713 2.501521 2.467570 2.433858 2.400386 2.367154 2.334162 2.301409 2.268896 2.236623 2.204590 2.172796 2.141243 2.109929 2.078855 2.048020 2.017426 1.987071 1.956956 1.927081 1.897445 1.868050 1.838894 1.809978 1.781302 1.752865 1.724668 1.696711 1.668994 1.641517 1.614279 1.587282 1.560524 1.534005 1.507727 1.481688 1.455889 1.430330 1.464876 1.575111 1.516475 0.857677 0.581648 0.432846 0.367139 0.277060 0.191830 0.142356 -0.066249 0.175423 0.038325 -0.053540 -0.131791 -0.250697 -0.166738 -0.085066 -0.096313 -0.097558 0.022736 0.017514 0.203327 0.098045 0.336329 0.449354 0.463871 0.738623 0.686354 0.678440 0.831361 0.798618 0.820297 0.917509 0.875115 0.904454 0.733705 0.819390 0.843948 0.664313 0.598390 0.446255 0.418815 0.373216 0.177349 0.169682 0.119560 0.216448 0.122414 0.216209 0.106607 0.244232 0.242105 0.475550 0.424195 0.606466 0.639567 0.688529 0.734020 0.660137 0.634508 0.486107 0.437216 0.322083 0.290690 0.120321 0.184671 -0.005180 0.030110 -0.037722 -0.035749 -0.016169 0.049567 0.301162 0.323603 0.405397 0.355384 0.438860 0.476366 0.461012 0.456520 0.386039 0.383215 0.153131 0.109989 0.071290 0.012383 -0.144845 -0.028119 -0.081903 0.044566 0.124107 0.185663 0.264807 0.267021 0.356637 0.463564 0.348631 0.396962 0.293203 0.149819 0.065686 0.072559 0.015377 0.033532 0.075506 0.114596 0.129238 0.225344 0.259976 0.304316 0.351418 0.255585 0.278727 0.241630 0.118732 0.104866 0.039796 0.041494 0.013996 0.020872 0.053222 0.177646 0.200415 0.200487 0.326559 0.209789 0.238348 0.108269 0.091181 -0.013957 -0.006363 0.004638 0.022272 0.037090 0.034580 0.089083 0.163507 0.170176 0.214256 0.114749 0.078564 0.104922 0.036388 -0.084767 -0.018593 0.008156 0.039594 0.060890 0.098677 0.158464 0.138774 0.162432 0.048033 0.063832 0.038607 0.046914 0.014305 -0.011098 0.025147 0.047244 0.087194 0.117253 0.104950 0.104156 0.122468 0.050701 -0.002243 0.005694 0.022176 0.079156 0.056916 0.102661 0.111553 0.057179 0.099139 0.067109 0.037072 0.057437 -0.029715 0.028140 0.062666 0.029378 0.030735 0.098845 0.036621 0.051084 0.035758 0.010565 0.025273 -0.024204 0.006758 0.006155 0.064541 0.091851 0.063660 0.036576 -0.014606 -0.019302 -0.007696 0.019317 -0.008252 0.017869 0.075583 0.077308 -0.003297 0.027264 -0.004289 0.005083 -0.026795 -0.022271 -0.010777 0.038209 0.002000 0.013721 -0.011569 0.023398 -0.010238 0.008557 0.033695 0.027072 0.037141 -0.026167 0.006543 0.007716 -0.041990 -0.003596 -0.000736 0.030969 0.096446 0.009292 0.024166 0.007256 0.018289 -0.012821 0.033265 -0.014205 -0.011201 0.008752 0.022384 0.021049 0.005909 0.057001 -0.029898 0.000242 0.022574 0.031906 0.046135 0.046441 0.019672 0.025821 -0.000280 -0.023407 -0.006127 0.046662 0.039839 0.047327 0.007451 -0.013887 0.002250 0.057881 0.007960 0.020567 -0.019047 0.008907 -0.014080 -0.031215 0.006277 0.002970 -0.012858 0.025432 0.013731 0.074535 0.058760 0.018846 -0.004165 -0.045911 -0.005005 0.002880 -0.043894 0.043382 -0.032562 -0.076717 0.024413 -0.018617 -0.063280 -0.064604 0.017293 -0.024295 -0.049063 -0.063493 -0.046937 -0.018347 -0.072282 -0.006683 0.035809 0.086574 -0.053001 0.002307 0.079973 0.004526 -0.056976 0.143408 0.061283 0.119460 0.033103 0.254507 0.207182 0.245336 -0.043092 0.081272 -0.935269
0.072396 0.073047 0.075001 0.078256 0.082812 0.088666 0.095818 0.104264 0.113999 0.125020 0.137318 0.150887 0.165715 0.181790 0.199096 0.217615 0.237325 0.258200 0.280209 0.303316 0.327480 0.352654 0.378784 0.405809 0.433661 0.462263 0.491530 0.521366 0.551668 0.582321 0.613199 0.644167 0.675076 0.705770 0.736077 0.765816 0.794794 0.822807 0.849640 0.875069 0.898860 0.920770 0.940549 0.957942 0.972689 0.984528 0.993196 0.998433 0.999982 0.997595 0.991034 0.980075 0.964512 0.944158 0.918854 0.888467 0.852902 0.812097 0.766034 0.714742 0.658298 0.596834 0.530541 0.459668 0.384529 0.305505 0.223042 0.137655 0.049926 0.039496 0.129896 0.220502 0.310481 0.398953 0.484995 0.567647 0.645928 0.718844 0.785401 0.844620 0.895553 0.937298 0.969018 0.989958 0.999462 0.996995 0.982155 0.954696 0.914541 0.861797 0.796767 0.719959 0.632097 0.534117 0.427172 0.312627 0.192046 0.067179 0.060057 0.187604 0.313292 0.434873 0.550067 0.656596 0.752240 0.834882 0.902564 0.953537 0.986311 0.999713 0.992924 0.965528 0.917544 0.849454 0.762218 0.657284 0.536581 0.402500 0.257859 0.105860 0.049972 0.205868 0.357898 0.502065 0.634422 0.751176 0.848810 0.924195 0.974711 0.998343 0.993786 0.960512 0.898840 0.809961 0.695957 0.559772 0.405170 0.236646 0.059320 0.121211 0.299033 0.468114 0.622503 0.756552 0.865134 0.943857 0.989262 0.999004 0.971987 0.908475 0.810141 0.680070 0.522702 0.343716 0.149853 0.051316 0.251667 0.442847 0.616625 0.765249 0.881824 0.960643 0.997510 0.989989 0.937602 0.841930 0.706633 0.537358 0.341550 0.128173 0.092686 0.310265 0.513648 0.692316 0.836718 0.938803 0.992509 0.994173 0.942820 0.840331 0.691446 0.503614 0.286681 0.052415 0.186099 0.415164 0.621271 0.791897 0.916308 0.986274 0.996674 0.945927 0.836226 0.673538 0.467355 0.230219 0.022994 0.275972 0.511999 0.715072 0.871008 0.968486 0.999935 0.962193 0.856884 0.690473 0.473963 0.222249 0.046831 0.313733 0.558607 0.762774 0.910207 0.988844 0.991654 0.917359 0.770725 0.562376 0.308130 0.027890 0.255869 0.519864 0.741929 0.902914 0.988405 0.990113 0.906780 0.744512 0.516462 0.241901 0.055348 0.348883 0.612082 0.820512 0.954276 0.999996 0.952274 0.814440 0.598491 0.324200 0.017405 0.292325 0.574527 0.800842 0.947933 0.999988 0.950559 0.803490 0.572811 0.281559 0.040388 0.359303 0.641113 0.855068 0.977173 0.993014 0.899610 0.706059 0.432850 0.109863 0.226798 0.538767 0.789784 0.950004 0.999647 0.931618 0.752685 0.483030 0.154175 0.194586 0.520786 0.783954 0.950721 0.999175 0.921928 0.727428 0.439278 0.093585 0.265439 0.591038 0.840030 0.978619 0.987156 0.863132 0.621945 0.295236 0.073058 0.432494 0.732985 0.931837 0.999978 0.926402 0.720191 0.409684 0.038824 0.338898 0.668085 0.899588 0.997986 0.947224 0.753490 0.444790 0.067167 0.321970 0.662496 0.900875 0.998747 0.939310 0.730501 0.404281 0.012025 0.383378 0.717517 0.935020 0.998900 0.897111 0.645122 0.283909 0.126404 0.516422 0.819132 0.981555 0.974240 0.796922 0.479187 0.075903 0.342041 0.700042 0.933169 0.998121 0.881578 0.603274 0.213054 0.217746 0.609170 0.887470 0.999166 0.921614 0.667974 0.285419 0.153294 0.563444 0.864679 0.996880 0.932493 0.682647 0.295711 0.151704 0.569651 0.872932 0.998584 0.919302 0.649775 0.244458 0.213019 0.626925 0.909401 0.999331 0.875932 0.563983 0.129378 0.334458 0.726421
1.000000 1.000000 1.000000 1.000000 1.000000 1.000000 1.000000 1.000000 1.000000 1.000000 1.000000 1.000000 1.000000 1.000000 1.000000 1.000000 1.000000 1.000000 1.000000 1.000000 1.000000 1.000000 1.000000 1.000000 1.000000 1.000000 1.000000 1.000000 1.000000 1.000000 1.000000 1.000000 1.000000 1.000000 1.000000 1.000000 1.000000 1.000000 1.000000 1.000000 1.000000 1.000000 1.000000 1.000000 1.000000 1.000000 1.000000 1.000000 1.000000 1.000000 1.000000 1.000000 0.934252 0.934252 0.934252 0.934252 0.934252 0.934252 0.934252 0.934252 0.934252 0.934252 0.934252 0.934252 0.934252 0.934252 0.934252 0.934252 0.934252 0.934252 0.934252 0.934252 0.934252 0.934252 0.934252 0.934252 0.934252 0.934252 0.934252 0.934252 0.934252 0.934252 0.934252 0.934252 0.934252 0.922483 0.920499 0.923333 0.924311 0.924216 0.923752 0.923476 0.923770 0.925225 0.927040 0.948414 0.950678 0.951271 0.952431 0.952494 0.955176 0.953499 0.958132 0.968812 0.968133 0.969024 0.963354 0.964204 0.963822 0.963246 0.965109 0.964827 0.963541 0.962019 0.960858 0.960531 0.960311 0.961859 0.962309 0.962585 0.962950 0.962913 0.962813 0.960382 0.958172 0.960573 0.959935 0.958879 0.964388 0.963052 0.965027 0.965023 0.965711 0.966507 0.966724 0.966899 0.961020 0.959648 0.957617 0.942942 0.937078 0.933110 0.935949 0.939161 0.937079 0.932341 0.930398 0.932403 0.924111 0.923630 0.916912 0.916712 0.903056 0.896662 0.886525 0.887973 0.889123 0.889166 0.886621 0.875782 0.865975 0.863580 0.866726 0.860509 0.856770 0.872963 0.868218 0.870165 0.873460 0.875803 0.881534 0.871962 0.866933 0.862886 0.858675 0.857757 0.859795 0.864478 0.866445 0.861244 0.853406 0.857070 0.850413 0.851818 0.857408 0.857347 0.852274 0.850015 0.850243 0.851477 0.846832 0.853412 0.841726 0.838617 0.837799 0.833466 0.831326 0.823721 0.823099 0.824241 0.827560 0.820238 0.825095 0.795287 0.804934 0.798116 0.804580 0.803937 0.802117 0.803401 0.785076 0.777676 0.774585 0.785316 0.794923 0.774181 0.771593 0.767640 0.751844 0.755804 0.763234 0.757665 0.753124 0.740549 0.749343 0.748910 0.751247 0.744568 0.724471 0.727066 0.737240 0.744375 0.719124 0.712250 0.706842 0.706357 0.708157 0.677141 0.674367 0.656082 0.643106 0.647014 0.630665 0.602606 0.607089 0.605847 0.578915 0.581489 0.571962 0.516310 0.501904 0.487977 0.492261 0.494263 0.523409 0.526653 0.508886 0.526920 0.532016 0.527368 0.544415 0.429423 0.437119 0.418416 0.425475 0.431054 0.427355 0.401188 0.411712 0.411802 0.419502 0.416923 0.416774 0.434823 0.413076 0.412073 0.427599 0.409100 0.402961 0.412769 0.428283 0.431622 0.419643 0.414910 0.419333 0.426702 0.368409 0.361932 0.391621 0.353578 0.336561 0.330540 0.349502 0.328779 0.352890 0.342343 0.351260 0.362182 0.322096 0.340584 0.328539 0.359660 0.376275 0.365005 0.347430 0.339806 0.356053 0.296870 0.309043 0.337203 0.314413 0.377944 0.336186 0.325710 0.250296 0.300764 0.267160 0.278309 0.263615 0.211942 0.210345 0.200432 0.186211 0.174030 0.187764 0.155985 0.128224 0.086027 0.094246 0.072370 0.088196 0.101345 0.074751 0.068412 0.068412 0.068412 0.068412 0.050691 0.050691 0.050691 0.050691 0.050691 0.050691 0.050691 0.050691 0.050691 0.050691 0.050691 0.050691 0.050691 0.050691 -0.046765 -0.046765 -0.046765 -0.046765 -0.046765 -0.046765 -0.046765 -0.046765 -0.046765 -0.046765 -0.046765 -0.046765
0.000000 0.000000 0.000000 0.000000 0.000000 0.000000 0.000000 0.000000 0.000000 0.000000 0.000000 0.000000 0.000000 0.000000 0.000000 0.000000 0.000000 0.000000 0.000000 0.000000 0.000000 0.000000 0.000000 0.000000 0.000000 7.000000 4.000000 0.000000 0.000000 0.000000 0.000000 0.000000 0.000000 0.000000 0.000000 0.000000 0.000000 0.000000 0.000000 0.000000 0.000000 0.000000 0.000000 0.000000 0.000000 0.000000 0.000000 0.000000 0.000000 0.000000 0.000000 0.000000 0.209657 0.209657 0.209657 0.209657 0.209657 0.209657 0.209657 0.209657 0.209657 0.209657 0.209657 0.209657 0.209657 0.209657 0.209657 0.209657 0.209657 0.209657 0.209657 0.209657 0.209657 0.209657 0.209657 0.209657 0.209657 0.209657 0.209657 0.209657 0.209657 0.209657 0.209657 0.209657 0.209657 0.244339 0.244339 0.244339 0.244339 0.244339 0.244339 0.244339 0.244339 0.244339 0.244339 0.244339 0.244339 0.244339 0.244339 0.244339 0.244339 0.244339 0.244339 0.244339 0.244339 0.244339 0.244339 0.244339 0.244339 0.244339 0.260378 0.260378 0.260378 0.260378 0.260378 0.260378 0.260378 0.260378 0.260378 0.260378 0.260378 0.260378 0.260378 0.260378 0.260378 0.260378 0.260378 0.260378 0.260378 0.260378 0.269680 0.269680 0.269680 0.269680 0.269680 0.269680 0.269680 0.269680 0.269680 0.269680 0.269680 0.269680 0.269680 0.269680 0.269680 0.269680 0.269680 0.269680 0.269680 0.269680 0.269680 0.269680 0.269680 0.269680 0.269680 0.269680 0.269680 0.269680 0.269680 0.269680 0.269680 0.269680 0.269680 0.280056 0.280056 0.280056 0.280056 0.280056 0.280056 0.280056 0.280056 0.280056 0.280056 0.280056 0.280056 0.280056 0.280056 0.280056 0.280056 0.280056 0.280056 0.280056 0.280056 0.280056 0.280056 0.280056 0.280056 0.280056 0.280056 0.280056 0.285714 0.285714 0.285714 0.285714 0.285714 0.285714 0.285714 0.285714 0.285714 0.285714 0.285714 0.285714 0.274721 0.274721 0.274721 0.274721 0.274721 0.274721 0.274721 0.274721 0.274721 0.274721 0.274721 0.274721 0.280056 0.280056 0.280056 0.280056 0.280056 0.280056 0.280056 0.280056 0.280056 0.280056 0.280056 0.285714 0.285714 0.285714 0.285714 0.285714 0.285714 0.285714 0.285714 0.285714 0.285714 0.269680 0.269680 0.269680 0.269680 0.269680 0.269680 0.269680 0.269680 0.269680 0.269680 0.269680 0.285714 0.285714 0.285714 0.285714 0.285714 0.285714 0.285714 0.285714 0.285714 0.280056 0.280056 0.280056 0.280056 0.280056 0.280056 0.280056 0.280056 0.280056 0.274721 0.274721 0.274721 0.274721 0.274721 0.274721 0.274721 0.274721 0.274721 0.269680 0.269680 0.269680 0.269680 0.269680 0.269680 0.269680 0.269680 0.269680 0.280056 0.280056 0.280056 0.280056 0.280056 0.280056 0.280056 0.280056 0.260378 0.260378 0.260378 0.260378 0.260378 0.260378 0.260378 0.260378 0.260378 0.269680 0.269680 0.269680 0.269680 0.269680 0.269680 0.269680 0.269680 0.285714 0.285714 0.285714 0.285714 0.285714 0.285714 0.285714 0.264906 0.264906 0.264906 0.264906 0.264906 0.264906 0.264906 0.264906 0.274721 0.274721 0.274721 0.274721 0.274721 0.274721 0.274721 0.256074 0.256074 0.256074 0.256074 0.256074 0.256074 0.256074 0.256074 0.264906 0.264906 0.264906 0.264906 0.264906 0.264906 0.264906 0.264906 0.264906 0.264906 0.264906 0.264906 0.264906 0.264906 0.280056 0.280056 0.280056 0.280056 0.280056 0.280056 0.280056 0.280056 0.280056 0.280056 0.280056 0.280056
