# Output from CTFFind version 4.1.9, run on 2019-11-02 17:44:06
# Input file: stack6_bm3d_averaged_1_1.5_0_250_half.mrc ; Number of micrographs: 1
# Pixel size: 3.000 Angstroms ; acceleration voltage: 300.0 keV ; spherical aberration: 0.00 mm ; amplitude contrast: 0.07
# Box size: 512 pixels ; min. res.: 30.0 Angstroms ; max. res.: 5.0 Angstroms ; min. def.: 5000.0 um; max. def. 50000.0 um; num. frames averaged: 1
# 6 lines per micrograph: #1 - spatial frequency (1/Angstroms); #2 - 1D rotational average of spectrum (assuming no astigmatism); #3 - 1D rotational average of spectrum; #4 - CTF fit; #5 - cross-correlation between spectrum and CTF fit; #6 - 2sigma of expected cross correlation of noise
0.000000 0.000651 0.001302 0.001953 0.002604 0.003255 0.003906 0.004557 0.005208 0.005859 0.006510 0.007161 0.007812 0.008464 0.009115 0.009766 0.010417 0.011068 0.011719 0.012370 0.013021 0.013672 0.014323 0.014974 0.015625 0.016276 0.016927 0.017578 0.018229 0.018880 0.019531 0.020182 0.020833 0.021484 0.022135 0.022786 0.023438 0.024089 0.024740 0.025391 0.026042 0.026693 0.027344 0.027995 0.028646 0.029297 0.029948 0.030599 0.031250 0.031901 0.032552 0.033203 0.033854 0.034505 0.035156 0.035807 0.036458 0.037109 0.037760 0.038411 0.039062 0.039714 0.040365 0.041016 0.041667 0.042318 0.042969 0.043620 0.044271 0.044922 0.045573 0.046224 0.046875 0.047526 0.048177 0.048828 0.049479 0.050130 0.050781 0.051432 0.052083 0.052734 0.053385 0.054036 0.054688 0.055339 0.055990 0.056641 0.057292 0.057943 0.058594 0.059245 0.059896 0.060547 0.061198 0.061849 0.062500 0.063151 0.063802 0.064453 0.065104 0.065755 0.066406 0.067057 0.067708 0.068359 0.069010 0.069661 0.070312 0.070964 0.071615 0.072266 0.072917 0.073568 0.074219 0.074870 0.075521 0.076172 0.076823 0.077474 0.078125 0.078776 0.079427 0.080078 0.080729 0.081380 0.082031 0.082682 0.083333 0.083984 0.084635 0.085286 0.085938 0.086589 0.087240 0.087891 0.088542 0.089193 0.089844 0.090495 0.091146 0.091797 0.092448 0.093099 0.093750 0.094401 0.095052 0.095703 0.096354 0.097005 0.097656 0.098307 0.098958 0.099609 0.100260 0.100911 0.101562 0.102214 0.102865 0.103516 0.104167 0.104818 0.105469 0.106120 0.106771 0.107422 0.108073 0.108724 0.109375 0.110026 0.110677 0.111328 0.111979 0.112630 0.113281 0.113932 0.114583 0.115234 0.115885 0.116536 0.117188 0.117839 0.118490 0.119141 0.119792 0.120443 0.121094 0.121745 0.122396 0.123047 0.123698 0.124349 0.125000 0.125651 0.126302 0.126953 0.127604 0.128255 0.128906 0.129557 0.130208 0.130859 0.131510 0.132161 0.132812 0.133464 0.134115 0.134766 0.135417 0.136068 0.136719 0.137370 0.138021 0.138672 0.139323 0.139974 0.140625 0.141276 0.141927 0.142578 0.143229 0.143880 0.144531 0.145182 0.145833 0.146484 0.147135 0.147786 0.148438 0.149089 0.149740 0.150391 0.151042 0.151693 0.152344 0.152995 0.153646 0.154297 0.154948 0.155599 0.156250 0.156901 0.157552 0.158203 0.158854 0.159505 0.160156 0.160807 0.161458 0.162109 0.162760 0.163411 0.164062 0.164714 0.165365 0.166016 0.166667 0.167318 0.167969 0.168620 0.169271 0.169922 0.170573 0.171224 0.171875 0.172526 0.173177 0.173828 0.174479 0.175130 0.175781 0.176432 0.177083 0.177734 0.178385 0.179036 0.179688 0.180339 0.180990 0.181641 0.182292 0.182943 0.183594 0.184245 0.184896 0.185547 0.186198 0.186849 0.187500 0.188151 0.188802 0.189453 0.190104 0.190755 0.191406 0.192057 0.192708 0.193359 0.194010 0.194661 0.195312 0.195964 0.196615 0.197266 0.197917 0.198568 0.199219 0.199870 0.200521 0.201172 0.201823 0.202474 0.203125 0.203776 0.204427 0.205078 0.205729 0.206380 0.207031 0.207682 0.208333 0.208984 0.209635 0.210286 0.210938 0.211589 0.212240 0.212891 0.213542 0.214193 0.214844 0.215495 0.216146 0.216797 0.217448 0.218099 0.218750 0.219401 0.220052 0.220703 0.221354 0.222005 0.222656 0.223307 0.223958 0.224609 0.225260 0.225911 0.226562 0.227214 0.227865 0.228516 0.229167 0.229818 0.230469 0.231120 0.231771 0.232422 0.233073 0.233724 0.234375 0.235026 0.235677
       0.31069        0.31069        0.31069        0.31069        0.31069        0.31069        0.31069        0.31069        0.31069        0.31069        0.31069        0.31069        0.31069        0.31069        0.31069        0.31069        0.31069        0.31069        0.31069        0.31069        0.31069        0.31069        0.31069        0.31069        0.31069        0.31069        0.31069        0.31069        0.31069        0.31069        0.31069        0.31069        0.31069        0.31069        0.31069        0.31069        0.31069        0.31069        0.31069        0.31069        0.31069        0.31069        0.31069        0.31069        0.31069        0.31069        0.31069        0.31069        0.31069        0.31069        0.31069        0.63088        0.81351        0.41484        0.30990        0.18253       -0.10556        0.11115       -0.00121        0.03098        0.11679        0.33893        0.42113        0.40410        0.22753       -0.01559        0.04665        0.06950       -0.17692       -0.18192       -0.08947       -0.10839       -0.29900       -0.19604       -0.30045       -0.25234       -0.28695       -0.41044       -0.47439       -0.48302       -0.43294       -0.34566       -0.43946       -0.36703       -0.41437       -0.35805       -0.28145       -0.20771       -0.19569       -0.14089       -0.09184        0.04009        0.07302        0.25343        0.27784        0.36453        0.40604        0.52587        0.59761        0.61878        0.74242        0.70396        0.74634        0.65759        0.66231        0.69000        0.63379        0.61743        0.60828        0.42838        0.39935        0.34942        0.31440        0.22718        0.12889        0.05975        0.05502        0.00093       -0.08235       -0.02575       -0.03302       -0.07343        0.06890        0.16458        0.25428        0.31852        0.33762        0.42548        0.54355        0.59650        0.54535        0.67186        0.57114        0.54325        0.60137        0.64640        0.53464        0.45278        0.40593        0.37776        0.24094        0.20685        0.12839        0.11527        0.05302        0.04534        0.09917        0.16370        0.14588        0.18066        0.22455        0.24267        0.32608        0.45761        0.49486        0.49798        0.50965        0.58061        0.57245        0.52997        0.43292        0.38878        0.36479        0.27035        0.24512        0.20522        0.20294        0.19017        0.17240        0.16269        0.13437        0.19356        0.24497        0.33234        0.37808        0.41118        0.46157        0.54054        0.47299        0.49519        0.42719        0.39787        0.37977        0.36576        0.29105        0.24381        0.19232        0.23896        0.21442        0.18676        0.21762        0.22286        0.23102        0.30325        0.39673        0.39271        0.38288        0.39924        0.45929        0.48473        0.42949        0.35345        0.32145        0.27390        0.27122        0.25887        0.21893        0.28193        0.29565        0.29782        0.31577        0.30837        0.34147        0.37683        0.37566        0.37341        0.34981        0.31344        0.32775        0.32684        0.29609        0.28779        0.27581        0.21879        0.26893        0.27384        0.29575        0.31261        0.33571        0.37729        0.33497        0.30725        0.36252        0.35642        0.25473        0.28944        0.30717        0.24028        0.20438        0.25929        0.27620        0.27978        0.29755        0.30742        0.34205        0.33391        0.35928        0.32281        0.32514        0.30637        0.30174        0.26522        0.24589        0.25583        0.25391        0.28215        0.30613        0.30512        0.29648        0.31286        0.33181        0.27328        0.30064        0.26644        0.25424        0.27087        0.25871        0.26075        0.26297        0.31401        0.28747        0.32099        0.28845        0.26590        0.31000        0.31157        0.33399        0.31839        0.29076        0.24802        0.25056        0.26046        0.26187        0.31439        0.30874        0.32518        0.31924        0.31205        0.24265        0.27882        0.20957        0.20367        0.25981        0.26314        0.26177        0.27984        0.30526        0.29754        0.37112        0.30198        0.24169        0.22457        0.24263        0.28796        0.31231        0.31027        0.27752        0.28090        0.27059        0.32560        0.28473        0.25362        0.26030        0.25719        0.28100        0.24892        0.26923        0.31554        0.29227        0.23007        0.24068        0.28414        0.31566        0.25255        0.26161        0.24610        0.29067        0.28558        0.36836        0.27532        0.26335        0.27466        0.23775        0.22701        0.20232        0.23647        0.21380        0.21348        0.16672        0.20011        0.23460        0.20136        0.23268        0.21278        0.24374        0.22768        0.22973        0.18272        0.16785        0.19655        0.27007        0.12417        0.05875        0.22252        0.14506        0.11707        0.24882        0.16625        0.23812        0.20381       -0.00657       -0.53557       -0.99540
2.791385 2.764020 2.736796 2.709713 2.682770 2.655968 2.629306 2.602785 2.576405 2.550165 2.524065 2.498107 2.472288 2.446611 2.421074 2.395677 2.370421 2.345306 2.320331 2.295496 2.270803 2.246249 2.221837 2.197565 2.173433 2.149442 2.125592 2.101882 2.078313 2.054884 2.031596 2.008448 1.985441 1.962575 1.939849 1.917264 1.894819 1.872515 1.850351 1.828328 1.806446 1.784704 1.763102 1.741641 1.720321 1.699141 1.678102 1.657204 1.636446 1.615828 1.595351 1.881071 2.225822 1.665326 1.710017 1.355994 0.921387 1.179109 1.011601 1.057572 1.011595 1.472503 1.490513 1.509606 1.267376 0.926978 0.808144 1.000123 0.691185 0.483501 0.582038 0.668121 0.414730 0.475812 0.330096 0.377215 0.249712 0.150347 -0.028204 0.007473 0.014146 0.080885 0.042071 0.088066 -0.044332 0.032658 0.108820 0.217908 0.273961 0.211232 0.320976 0.557858 0.429866 0.720748 0.790068 0.853773 0.902779 1.107478 1.144614 1.169697 1.308565 1.224357 1.361588 1.185649 1.094155 1.286560 1.111332 1.041793 1.119591 0.863033 0.730589 0.665927 0.648661 0.466067 0.387671 0.268599 0.222823 0.102432 -0.001007 0.100440 0.032233 -0.058983 0.121143 0.259839 0.318434 0.453276 0.486706 0.547901 0.707310 0.817856 0.656094 0.956228 0.785489 0.677217 0.757036 0.799680 0.716582 0.625282 0.439658 0.503089 0.285512 0.173152 0.144410 0.011571 -0.013484 -0.108330 -0.022967 0.039989 0.076265 -0.030627 0.253924 0.105259 0.219288 0.377657 0.426011 0.545316 0.412000 0.553711 0.653488 0.505289 0.407286 0.346333 0.325920 0.151336 0.143578 0.009080 0.098881 0.014652 0.001909 -0.028053 -0.094990 0.001431 0.030188 0.098337 0.279374 0.218065 0.353066 0.366378 0.439293 0.409672 0.410572 0.332248 0.224555 0.310690 0.181471 0.157210 -0.005346 0.055439 0.083569 -0.026761 0.006925 0.021293 0.062054 0.070437 0.228645 0.301307 0.246278 0.223090 0.385056 0.395676 0.353271 0.246818 0.175990 0.143924 0.095381 0.079144 0.047321 0.026938 0.134996 0.065516 0.184735 0.098464 0.134670 0.226370 0.216418 0.227462 0.200153 0.197716 0.101167 0.166435 0.138605 0.096519 0.118527 -0.001713 0.039730 0.087075 0.046760 0.141580 0.108121 0.200805 0.208868 0.124808 0.130077 0.216465 0.101533 0.058057 0.084078 0.064056 -0.004925 -0.029552 0.054717 0.075281 0.046609 0.109875 0.111752 0.139705 0.143465 0.170638 0.118788 0.102837 0.103767 0.097519 0.018429 0.017179 0.049616 0.000194 0.082610 0.121037 0.088947 0.069545 0.115889 0.120863 0.034641 0.110736 0.030763 0.018186 0.067661 0.014037 0.021617 0.061500 0.100636 0.031009 0.115466 0.077400 -0.004757 0.113429 0.079637 0.095162 0.095580 0.012050 -0.013569 -0.024892 0.041932 -0.008489 0.083529 0.060921 0.082540 0.064286 0.134706 -0.047250 0.037948 -0.101308 -0.017616 -0.027305 0.019838 0.007637 0.015275 0.081075 0.055456 0.128828 -0.020412 -0.055996 -0.089365 -0.068829 0.045445 0.047300 0.033697 -0.007880 -0.020234 -0.023289 0.080346 -0.011926 -0.090326 -0.032686 -0.078727 0.000452 -0.056763 -0.024073 0.024755 -0.017884 -0.081263 -0.032025 0.023803 0.000372 -0.036833 -0.024151 -0.075804 0.079027 0.039857 0.132915 -0.005600 -0.006003 0.036192 -0.010774 -0.044922 -0.023008 0.024761 -0.016679 -0.019761 -0.068884 -0.036741 0.073039 -0.069887 0.084576 0.014443 0.117835 0.000168 0.116969 -0.052850 0.009666 -0.033580 0.213895 -0.034576 0.000983 0.304820 0.174263 0.162519 0.434087 0.204665 0.305441 0.273040 -0.004711 -1.361376
0.072396 0.072835 0.074150 0.076341 0.079408 0.083351 0.088168 0.093858 0.100420 0.107851 0.116150 0.125313 0.135335 0.146214 0.157944 0.170517 0.183926 0.198164 0.213218 0.229078 0.245729 0.263157 0.281342 0.300266 0.319905 0.340235 0.361226 0.382849 0.405067 0.427843 0.451136 0.474899 0.499082 0.523632 0.548490 0.573593 0.598872 0.624255 0.649664 0.675016 0.700223 0.725191 0.749822 0.774012 0.797652 0.820629 0.842823 0.864112 0.884369 0.903460 0.921252 0.937606 0.952381 0.965434 0.976620 0.985795 0.992813 0.997530 0.999805 0.999498 0.996476 0.990608 0.981773 0.969855 0.954749 0.936360 0.914607 0.889421 0.860750 0.828557 0.792825 0.753557 0.710778 0.664535 0.614901 0.561973 0.505879 0.446771 0.384831 0.320274 0.253342 0.184309 0.113480 0.041191 0.032194 0.106279 0.180643 0.254837 0.328389 0.400804 0.471570 0.540158 0.606030 0.668636 0.727427 0.781856 0.831380 0.875474 0.913630 0.945365 0.970230 0.987815 0.997753 0.999734 0.993504 0.978877 0.955736 0.924046 0.883852 0.835287 0.778579 0.714046 0.642108 0.563281 0.478177 0.387506 0.292073 0.192768 0.090568 0.013476 0.118247 0.222571 0.325232 0.424983 0.520560 0.610705 0.694175 0.769766 0.836330 0.892796 0.938186 0.971640 0.992429 0.999978 0.993879 0.973908 0.940040 0.892454 0.831546 0.757931 0.672444 0.576139 0.470281 0.356336 0.235952 0.110945 0.016730 0.145000 0.271715 0.394676 0.511677 0.620542 0.719173 0.805589 0.877970 0.934702 0.974417 0.996032 0.998783 0.982254 0.946403 0.891580 0.818533 0.728415 0.622770 0.503524 0.372951 0.233644 0.088465 0.059506 0.207034 0.350798 0.487463 0.613765 0.726584 0.823035 0.900540 0.956909 0.990410 0.999832 0.984533 0.944484 0.880289 0.793197 0.685094 0.558475 0.416398 0.262425 0.100541 0.064947 0.229511 0.388531 0.537421 0.671770 0.787471 0.880858 0.948836 0.988989 0.999685 0.980151 0.930526 0.851896 0.746284 0.616629 0.466707 0.301052 0.124820 0.056350 0.236522 0.409649 0.569775 0.711250 0.828932 0.918392 0.976089 0.999533 0.987406 0.939649 0.857508 0.743527 0.601499 0.436354 0.254017 0.061202 0.134821 0.326485 0.506231 0.666808 0.801563 0.904740 0.971745 0.999364 0.985947 0.931520 0.837837 0.708357 0.548148 0.363713 0.162745 0.046167 0.253908 0.451221 0.629124 0.779332 0.894652 0.969353 0.999475 0.983067 0.920338 0.813704 0.667741 0.489019 0.285838 0.067866 0.154305 0.369662 0.567319 0.737071 0.869942 0.958679 0.998179 0.985814 0.921639 0.808459 0.651755 0.459457 0.241579 0.009722 0.223523 0.445250 0.642964 0.805280 0.922618 0.987788 0.996475 0.947558 0.843264 0.689115 0.493687 0.268185 0.025805 0.218978 0.451304 0.656794 0.822489 0.937672 0.994601 0.989083 0.920817 0.793514 0.614755 0.395584 0.149892 0.106465 0.356644 0.583924 0.772850 0.910280 0.986367 0.995291 0.935769 0.811242 0.629753 0.403483 0.147978 0.118868 0.378064 0.610852 0.800093 0.931545 0.994995 0.985097 0.901881 0.750885 0.542837 0.292987 0.020004 0.255360 0.511837 0.729302 0.890372 0.981835 0.995796 0.930425 0.790238 0.585861 0.333304 0.052767 0.232940 0.500237 0.726711 0.893039 0.984668 0.993168 0.917072 0.762148 0.541065 0.272410 0.020786 0.312999 0.578421 0.793240 0.937825 0.998574 0.969270 0.851797 0.656140 0.399614 0.105426 0.199387 0.486399 0.728464 0.902297 0.990785 0.984746 0.883968 0.697408 0.442504 0.143625 0.170188 0.468014 0.720098 0.900852
1.000000 1.000000 1.000000 1.000000 1.000000 1.000000 1.000000 1.000000 1.000000 1.000000 1.000000 1.000000 1.000000 1.000000 1.000000 1.000000 1.000000 1.000000 1.000000 1.000000 1.000000 1.000000 1.000000 1.000000 1.000000 1.000000 1.000000 1.000000 1.000000 1.000000 1.000000 1.000000 1.000000 1.000000 1.000000 1.000000 1.000000 1.000000 1.000000 1.000000 1.000000 1.000000 1.000000 1.000000 1.000000 1.000000 1.000000 1.000000 1.000000 1.000000 1.000000 1.000000 0.833146 0.833146 0.833146 0.833146 0.833146 0.833146 0.833146 0.815252 0.815252 0.815252 0.815252 0.815252 0.815252 0.815252 0.815252 0.815252 0.815252 0.815252 0.815252 0.815252 0.815252 0.815252 0.815252 0.815252 0.815252 0.815252 0.815252 0.815252 0.815252 0.815252 0.815252 0.815252 0.815252 0.815252 0.815252 0.815252 0.815252 0.815252 0.815252 0.815252 0.815252 0.815252 0.815252 0.815252 0.815252 0.815252 0.815252 0.815252 0.815252 0.815252 0.815252 0.953849 0.954533 0.951723 0.950690 0.949080 0.945626 0.941447 0.940974 0.942297 0.942514 0.942933 0.945029 0.945601 0.947203 0.948370 0.949172 0.949964 0.958020 0.961686 0.962215 0.961926 0.952830 0.959611 0.958667 0.956303 0.956995 0.957245 0.957920 0.957827 0.957683 0.957240 0.955890 0.956550 0.956375 0.955658 0.954656 0.952489 0.952429 0.952011 0.952152 0.953102 0.953616 0.954387 0.954902 0.954122 0.954323 0.954320 0.954230 0.949623 0.949628 0.942585 0.943013 0.944011 0.943602 0.942589 0.941114 0.941186 0.941098 0.941065 0.940942 0.941362 0.924641 0.924633 0.924896 0.924644 0.918281 0.907961 0.900507 0.895531 0.896658 0.900817 0.905427 0.906031 0.902876 0.901883 0.885756 0.882674 0.867140 0.863213 0.852908 0.863012 0.864670 0.866146 0.857201 0.856759 0.854533 0.852505 0.840297 0.844972 0.844712 0.841014 0.836702 0.835185 0.831828 0.834487 0.843172 0.839313 0.836923 0.838832 0.825956 0.815421 0.814079 0.815384 0.823641 0.835814 0.834295 0.832746 0.827123 0.822992 0.816900 0.813917 0.814280 0.816259 0.813663 0.817350 0.816445 0.827561 0.817052 0.808561 0.813751 0.822636 0.823546 0.824127 0.824875 0.821229 0.826805 0.809860 0.811222 0.812810 0.777342 0.780227 0.770471 0.766535 0.751759 0.754894 0.749918 0.747931 0.737480 0.720878 0.733417 0.743188 0.700299 0.708954 0.703692 0.691067 0.664927 0.675320 0.686931 0.697507 0.695810 0.697176 0.685739 0.681815 0.689523 0.689881 0.694976 0.683559 0.678612 0.672881 0.676553 0.665016 0.662668 0.659786 0.659719 0.659340 0.654661 0.631928 0.641488 0.625063 0.608278 0.597716 0.578555 0.551366 0.539640 0.529375 0.507391 0.487427 0.501671 0.500519 0.474945 0.461885 0.444777 0.426658 0.425000 0.424162 0.421691 0.420766 0.404875 0.355965 0.364103 0.359136 0.359736 0.344115 0.351136 0.333355 0.266745 0.254079 0.221222 0.244411 0.251856 0.254684 0.237778 0.224635 0.252401 0.230062 0.236171 0.234839 0.257756 0.217709 0.155859 0.172311 0.169550 0.170216 0.160056 0.123615 0.145616 0.131297 0.146568 0.154077 0.095919 0.066080 0.048216 0.037357 0.048118 0.071757 0.082965 0.069756 0.053594 -0.047890 -0.009962 0.017431 0.017431 0.017431 0.017431 0.017431 0.017431 0.017431 0.017431 0.017431 0.017431 0.017431 -0.045587 -0.045587 -0.045587 -0.045587 -0.045587 -0.045587 -0.045587 -0.045587 -0.045587 -0.045587 -0.045587 -0.045587 -0.045587 -0.045587 -0.045587 -0.045587 -0.045587 -0.045587 -0.045587
0.000000 0.000000 0.000000 0.000000 0.000000 0.000000 0.000000 0.000000 0.000000 0.000000 0.000000 0.000000 0.000000 0.000000 0.000000 0.000000 0.000000 0.000000 0.000000 0.000000 0.000000 0.000000 0.000000 0.000000 0.000000 0.000000 0.000000 0.000000 0.000000 0.000000 0.000000 0.000000 0.000000 0.000000 0.000000 0.000000 0.000000 0.000000 0.000000 0.000000 0.000000 0.000000 0.000000 0.000000 0.000000 0.000000 0.000000 0.000000 0.000000 0.000000 0.000000 0.000000 0.173422 0.173422 0.173422 0.173422 0.173422 0.173422 0.173422 0.191565 0.191565 0.191565 0.191565 0.191565 0.191565 0.191565 0.191565 0.191565 0.191565 0.191565 0.191565 0.191565 0.191565 0.191565 0.191565 0.191565 0.191565 0.191565 0.191565 0.191565 0.191565 0.191565 0.191565 0.191565 0.191565 0.191565 0.191565 0.191565 0.191565 0.191565 0.191565 0.191565 0.191565 0.191565 0.191565 0.191565 0.191565 0.191565 0.191565 0.191565 0.191565 0.191565 0.191565 0.219529 0.219529 0.219529 0.219529 0.219529 0.219529 0.219529 0.219529 0.219529 0.219529 0.219529 0.219529 0.219529 0.219529 0.219529 0.219529 0.219529 0.219529 0.219529 0.219529 0.219529 0.219529 0.219529 0.219529 0.219529 0.219529 0.219529 0.219529 0.219529 0.219529 0.219529 0.237356 0.237356 0.237356 0.237356 0.237356 0.237356 0.237356 0.237356 0.237356 0.237356 0.237356 0.237356 0.237356 0.237356 0.237356 0.237356 0.237356 0.237356 0.237356 0.237356 0.237356 0.237356 0.237356 0.237356 0.244339 0.244339 0.244339 0.244339 0.244339 0.244339 0.244339 0.244339 0.244339 0.244339 0.244339 0.244339 0.244339 0.244339 0.244339 0.244339 0.244339 0.244339 0.244339 0.244339 0.244339 0.248069 0.248069 0.248069 0.248069 0.248069 0.248069 0.248069 0.248069 0.248069 0.248069 0.248069 0.248069 0.248069 0.248069 0.248069 0.248069 0.248069 0.248069 0.248069 0.248069 0.248069 0.248069 0.248069 0.248069 0.248069 0.248069 0.248069 0.248069 0.248069 0.248069 0.248069 0.248069 0.248069 0.248069 0.248069 0.248069 0.248069 0.256074 0.256074 0.256074 0.256074 0.256074 0.256074 0.256074 0.256074 0.256074 0.256074 0.256074 0.256074 0.256074 0.256074 0.256074 0.256074 0.256074 0.256074 0.256074 0.256074 0.256074 0.256074 0.256074 0.256074 0.256074 0.256074 0.256074 0.256074 0.256074 0.256074 0.256074 0.256074 0.256074 0.256074 0.256074 0.256074 0.256074 0.256074 0.256074 0.256074 0.256074 0.256074 0.256074 0.256074 0.256074 0.260378 0.260378 0.260378 0.260378 0.260378 0.260378 0.260378 0.260378 0.260378 0.260378 0.260378 0.260378 0.260378 0.256074 0.256074 0.256074 0.256074 0.256074 0.256074 0.256074 0.256074 0.256074 0.256074 0.256074 0.256074 0.256074 0.260378 0.260378 0.260378 0.260378 0.260378 0.260378 0.260378 0.260378 0.260378 0.260378 0.260378 0.260378 0.251976 0.251976 0.251976 0.251976 0.251976 0.251976 0.251976 0.251976 0.251976 0.251976 0.251976 0.251976 0.256074 0.256074 0.256074 0.256074 0.256074 0.256074 0.256074 0.256074 0.256074 0.256074 0.256074 0.251976 0.251976 0.251976 0.251976 0.251976 0.251976 0.251976 0.251976 0.251976 0.251976 0.251976 0.248069 0.248069 0.248069 0.248069 0.248069 0.248069 0.248069 0.248069 0.248069 0.248069 0.248069 0.256074 0.256074 0.256074 0.256074 0.256074 0.256074 0.256074 0.256074 0.256074 0.256074 0.256074 0.256074 0.256074 0.256074 0.256074 0.256074 0.256074 0.256074 0.256074
