# Output from CTFFind version 4.1.9, run on 2019-11-03 20:05:39
# Input file: stack16_bm3d_averaged_1_6.5_0_750_half.mrc ; Number of micrographs: 1
# Pixel size: 3.000 Angstroms ; acceleration voltage: 300.0 keV ; spherical aberration: 0.00 mm ; amplitude contrast: 0.07
# Box size: 512 pixels ; min. res.: 30.0 Angstroms ; max. res.: 5.0 Angstroms ; min. def.: 5000.0 um; max. def. 50000.0 um; num. frames averaged: 1
# 6 lines per micrograph: #1 - spatial frequency (1/Angstroms); #2 - 1D rotational average of spectrum (assuming no astigmatism); #3 - 1D rotational average of spectrum; #4 - CTF fit; #5 - cross-correlation between spectrum and CTF fit; #6 - 2sigma of expected cross correlation of noise
0.000000 0.000651 0.001302 0.001953 0.002604 0.003255 0.003906 0.004557 0.005208 0.005859 0.006510 0.007161 0.007812 0.008464 0.009115 0.009766 0.010417 0.011068 0.011719 0.012370 0.013021 0.013672 0.014323 0.014974 0.015625 0.016276 0.016927 0.017578 0.018229 0.018880 0.019531 0.020182 0.020833 0.021484 0.022135 0.022786 0.023438 0.024089 0.024740 0.025391 0.026042 0.026693 0.027344 0.027995 0.028646 0.029297 0.029948 0.030599 0.031250 0.031901 0.032552 0.033203 0.033854 0.034505 0.035156 0.035807 0.036458 0.037109 0.037760 0.038411 0.039062 0.039714 0.040365 0.041016 0.041667 0.042318 0.042969 0.043620 0.044271 0.044922 0.045573 0.046224 0.046875 0.047526 0.048177 0.048828 0.049479 0.050130 0.050781 0.051432 0.052083 0.052734 0.053385 0.054036 0.054688 0.055339 0.055990 0.056641 0.057292 0.057943 0.058594 0.059245 0.059896 0.060547 0.061198 0.061849 0.062500 0.063151 0.063802 0.064453 0.065104 0.065755 0.066406 0.067057 0.067708 0.068359 0.069010 0.069661 0.070312 0.070964 0.071615 0.072266 0.072917 0.073568 0.074219 0.074870 0.075521 0.076172 0.076823 0.077474 0.078125 0.078776 0.079427 0.080078 0.080729 0.081380 0.082031 0.082682 0.083333 0.083984 0.084635 0.085286 0.085938 0.086589 0.087240 0.087891 0.088542 0.089193 0.089844 0.090495 0.091146 0.091797 0.092448 0.093099 0.093750 0.094401 0.095052 0.095703 0.096354 0.097005 0.097656 0.098307 0.098958 0.099609 0.100260 0.100911 0.101562 0.102214 0.102865 0.103516 0.104167 0.104818 0.105469 0.106120 0.106771 0.107422 0.108073 0.108724 0.109375 0.110026 0.110677 0.111328 0.111979 0.112630 0.113281 0.113932 0.114583 0.115234 0.115885 0.116536 0.117188 0.117839 0.118490 0.119141 0.119792 0.120443 0.121094 0.121745 0.122396 0.123047 0.123698 0.124349 0.125000 0.125651 0.126302 0.126953 0.127604 0.128255 0.128906 0.129557 0.130208 0.130859 0.131510 0.132161 0.132812 0.133464 0.134115 0.134766 0.135417 0.136068 0.136719 0.137370 0.138021 0.138672 0.139323 0.139974 0.140625 0.141276 0.141927 0.142578 0.143229 0.143880 0.144531 0.145182 0.145833 0.146484 0.147135 0.147786 0.148438 0.149089 0.149740 0.150391 0.151042 0.151693 0.152344 0.152995 0.153646 0.154297 0.154948 0.155599 0.156250 0.156901 0.157552 0.158203 0.158854 0.159505 0.160156 0.160807 0.161458 0.162109 0.162760 0.163411 0.164062 0.164714 0.165365 0.166016 0.166667 0.167318 0.167969 0.168620 0.169271 0.169922 0.170573 0.171224 0.171875 0.172526 0.173177 0.173828 0.174479 0.175130 0.175781 0.176432 0.177083 0.177734 0.178385 0.179036 0.179688 0.180339 0.180990 0.181641 0.182292 0.182943 0.183594 0.184245 0.184896 0.185547 0.186198 0.186849 0.187500 0.188151 0.188802 0.189453 0.190104 0.190755 0.191406 0.192057 0.192708 0.193359 0.194010 0.194661 0.195312 0.195964 0.196615 0.197266 0.197917 0.198568 0.199219 0.199870 0.200521 0.201172 0.201823 0.202474 0.203125 0.203776 0.204427 0.205078 0.205729 0.206380 0.207031 0.207682 0.208333 0.208984 0.209635 0.210286 0.210938 0.211589 0.212240 0.212891 0.213542 0.214193 0.214844 0.215495 0.216146 0.216797 0.217448 0.218099 0.218750 0.219401 0.220052 0.220703 0.221354 0.222005 0.222656 0.223307 0.223958 0.224609 0.225260 0.225911 0.226562 0.227214 0.227865 0.228516 0.229167 0.229818 0.230469 0.231120 0.231771 0.232422 0.233073 0.233724 0.234375 0.235026 0.235677
       0.35202        0.35202        0.35202        0.35202        0.35202        0.35202        0.35203        0.35202        0.35202        0.35202        0.35203        0.35202        0.35202        0.35202        0.35202        0.35202        0.35203        0.35202        0.35202        0.35202        0.35202        0.35202        0.35202        0.35203        0.35202        0.35203        0.35202        0.35202        0.35202        0.35202        0.35202        0.35202        0.35202        0.35202        0.35202        0.35202        0.35203        0.35202        0.35203        0.35202        0.35202        0.35202        0.35202        0.35202        0.35202        0.35203        0.35202        0.35203        0.35202        0.35202        0.35202        0.43055        0.55715        0.34340       -0.21559       -0.45020       -0.54180       -0.64390       -0.71245       -0.71847       -0.81170       -0.88655       -0.67748       -0.83185       -0.81609       -0.95752       -0.99673       -0.87815       -0.83703       -0.79539       -0.70677       -0.63778       -0.54838       -0.45519       -0.39102       -0.16286       -0.06083        0.04249        0.26352        0.26073        0.31859        0.37306        0.40499        0.52553        0.54000        0.57530        0.53410        0.47533        0.50722        0.53130        0.45488        0.33442        0.21932        0.18561        0.11481        0.01657        0.00054       -0.00885        0.06249        0.02910        0.08065        0.05352        0.17024        0.19995        0.41076        0.46135        0.54968        0.65825        0.68629        0.71368        0.63974        0.61240        0.54547        0.44353        0.39114        0.28243        0.22278        0.21904        0.10711        0.11819        0.11910        0.09220        0.10067        0.30806        0.41962        0.52706        0.53481        0.56947        0.60767        0.58798        0.57266        0.58494        0.56907        0.46997        0.31083        0.26973        0.26073        0.15780        0.09710        0.17503        0.21576        0.29077        0.35629        0.42921        0.47537        0.53266        0.60323        0.54781        0.50668        0.50664        0.35817        0.28324        0.26556        0.18081        0.20668        0.24324        0.28121        0.28709        0.33264        0.43246        0.46633        0.50017        0.45424        0.44383        0.48975        0.39836        0.33190        0.29111        0.26531        0.23814        0.23110        0.24228        0.34158        0.44980        0.43637        0.48995        0.55522        0.45263        0.41544        0.35875        0.32064        0.27705        0.28626        0.27412        0.29293        0.35756        0.36477        0.44165        0.47430        0.44288        0.46520        0.38122        0.38151        0.35613        0.27637        0.25768        0.25547        0.33825        0.38272        0.36702        0.39211        0.43485        0.44515        0.38338        0.34110        0.32541        0.35590        0.31959        0.28732        0.29139        0.36076        0.37777        0.39601        0.39071        0.39478        0.42329        0.40959        0.32814        0.29302        0.31722        0.34478        0.38520        0.36421        0.40602        0.34777        0.37299        0.39536        0.34304        0.35759        0.32462        0.30510        0.34066        0.34833        0.33318        0.36217        0.37881        0.33208        0.35142        0.32521        0.32037        0.30215        0.32449        0.32531        0.33038        0.36960        0.37729        0.36074        0.31268        0.30496        0.29034        0.33448        0.31773        0.31872        0.37445        0.36038        0.34435        0.31973        0.30916        0.31068        0.28088        0.32200        0.33603        0.34717        0.37431        0.35612        0.31893        0.34084        0.35668        0.33813        0.35867        0.35019        0.31779        0.33642        0.29533        0.32359        0.30188        0.31817        0.28914        0.32368        0.35273        0.33126        0.35846        0.31744        0.33633        0.35728        0.34484        0.32176        0.32919        0.36861        0.34846        0.34826        0.33284        0.31487        0.32218        0.31902        0.32912        0.32648        0.36311        0.33619        0.33727        0.29745        0.29327        0.27224        0.27726        0.36597        0.31542        0.34020        0.29913        0.26620        0.27795        0.36663        0.31168        0.28729        0.32195        0.32026        0.29748        0.26332        0.30514        0.27240        0.30077        0.31025        0.34352        0.33800        0.32358        0.31674        0.26936        0.28287        0.27898        0.28196        0.30015        0.36333        0.30121        0.20607        0.30686        0.29760        0.33338        0.26294        0.29791        0.29205        0.33417        0.28948        0.27673        0.27121        0.24942        0.31057        0.34073        0.33301        0.25515        0.31093        0.26177        0.24029        0.22169        0.33024        0.25620        0.16461        0.11522        0.20395        0.34388        0.24976        0.19131        0.13256       -0.43181       -0.53913
3.222356 3.181398 3.140706 3.100280 3.060120 3.020226 2.980598 2.941236 2.902140 2.863310 2.824746 2.786448 2.748417 2.710651 2.673151 2.635918 2.598950 2.562249 2.525813 2.489644 2.453740 2.418103 2.382732 2.347627 2.312788 2.278214 2.243907 2.209866 2.176091 2.142583 2.109340 2.076363 2.043652 2.011207 1.979029 1.947116 1.915469 1.884089 1.852974 1.822126 1.791544 1.761227 1.731177 1.701393 1.671874 1.642622 1.613636 1.584916 1.556462 1.528274 1.500352 1.536006 1.609103 1.549490 0.845182 0.599465 0.460667 0.390904 0.294424 0.221004 0.188767 -0.048943 0.210051 0.075682 -0.028810 -0.106863 -0.237733 -0.143509 -0.052653 -0.093856 -0.072602 0.037640 0.036821 0.231271 0.108719 0.358067 0.464391 0.496709 0.773052 0.685060 0.697646 0.825038 0.797324 0.844356 0.919503 0.858548 0.888369 0.726298 0.787377 0.846211 0.689937 0.605637 0.434711 0.427976 0.331700 0.191122 0.186887 0.113891 0.208316 0.119512 0.207721 0.104416 0.215181 0.227781 0.438034 0.400778 0.570553 0.608799 0.632330 0.718429 0.604585 0.575179 0.458399 0.409795 0.286353 0.260633 0.091133 0.150887 -0.030400 0.035411 -0.031382 -0.044755 -0.059654 0.024338 0.262116 0.290507 0.356035 0.295677 0.379808 0.389025 0.411848 0.392896 0.354527 0.325519 0.119335 0.071718 0.061224 -0.023115 -0.153910 -0.055323 -0.066410 0.034546 0.074491 0.147282 0.211385 0.222206 0.314868 0.402824 0.282028 0.360425 0.227976 0.140979 0.064232 0.033968 0.000283 0.050881 0.069030 0.093334 0.117229 0.170574 0.237737 0.304370 0.267129 0.208705 0.251705 0.225502 0.108812 0.057751 0.053423 0.025170 0.005706 -0.023522 0.029279 0.167394 0.192845 0.189241 0.296709 0.186738 0.194807 0.072062 0.064966 0.011723 -0.007231 -0.003228 -0.011001 0.044412 0.070861 0.098615 0.156830 0.139987 0.222120 0.136273 0.077199 0.098586 0.041890 -0.050699 -0.020403 0.026545 0.066651 0.072726 0.065742 0.151176 0.116301 0.152713 0.036700 0.047959 0.045368 0.046624 0.027374 -0.020643 0.040467 0.049281 0.091398 0.101828 0.085405 0.112427 0.124389 0.080162 0.012145 -0.009181 0.023003 0.075484 0.072827 0.089561 0.088174 0.049522 0.103895 0.066213 0.041682 0.077387 -0.013673 0.012356 0.065577 0.039446 0.042820 0.068618 0.078766 0.048968 0.066019 0.016190 0.019609 0.007542 0.054632 0.011865 0.040764 0.069256 0.079151 0.043668 -0.005295 -0.002866 -0.019299 0.042752 0.000757 0.012546 0.071640 0.049690 0.002045 0.011170 -0.016655 0.006153 -0.040003 0.007552 0.015393 0.043426 0.045173 0.028215 -0.005836 0.004911 0.033617 0.007623 0.037097 0.011955 -0.016285 0.026282 -0.049246 -0.028524 -0.055187 -0.012469 -0.065373 0.006550 0.019331 -0.011818 -0.009756 -0.005339 -0.001581 0.027480 0.014739 -0.012970 0.008235 0.026759 0.035382 0.025969 0.006872 0.014186 0.005282 -0.005275 0.016848 -0.006836 0.088618 0.041562 0.028132 0.002094 -0.008996 -0.031511 0.002599 0.074589 0.002485 0.058080 -0.023148 -0.025048 -0.023387 0.094269 0.003432 -0.025050 0.057949 0.051445 0.006607 0.002355 0.018827 0.003349 0.039050 0.029309 0.097668 0.053738 0.050243 0.043797 -0.008085 0.017249 -0.004217 -0.006344 0.013836 0.093913 -0.012715 -0.089114 0.042668 0.005185 0.059822 -0.052544 -0.006918 -0.001869 0.021082 -0.001579 -0.025254 -0.019848 -0.068876 0.045792 0.045526 0.053922 -0.120590 0.023419 0.012235 -0.005332 -0.094968 0.102615 0.023530 -0.048352 -0.114453 0.186472 0.298706 0.188576 0.134586 0.134711 -0.517540
0.072396 0.073047 0.074998 0.078250 0.082800 0.088649 0.095793 0.104229 0.113954 0.124963 0.137248 0.150802 0.165614 0.181672 0.198960 0.217460 0.237149 0.258002 0.279988 0.303071 0.327211 0.352361 0.378466 0.405466 0.433293 0.461870 0.491112 0.520925 0.551204 0.581836 0.612694 0.643645 0.674540 0.705222 0.735521 0.765256 0.794235 0.822254 0.849099 0.874546 0.898362 0.920304 0.940123 0.957565 0.972369 0.984275 0.993020 0.998344 0.999990 0.997712 0.991270 0.980440 0.965017 0.944813 0.919668 0.889451 0.854062 0.813440 0.767567 0.716468 0.660219 0.598951 0.532851 0.462168 0.387211 0.308359 0.226055 0.140810 0.053203 0.036119 0.126447 0.217011 0.306981 0.395482 0.481592 0.564356 0.642793 0.715912 0.782721 0.842240 0.893522 0.935665 0.967828 0.989255 0.999286 0.997379 0.983128 0.956281 0.916750 0.864635 0.800228 0.724026 0.636740 0.539296 0.432834 0.318705 0.198461 0.073840 0.053252 0.180767 0.306544 0.428342 0.543885 0.650898 0.747160 0.830550 0.899102 0.951057 0.984913 0.999475 0.993907 0.967768 0.921048 0.854201 0.768156 0.664329 0.544616 0.411375 0.267394 0.115849 0.039763 0.195689 0.348014 0.492750 0.625949 0.743810 0.842799 0.919763 0.972046 0.997594 0.995049 0.963830 0.904191 0.817260 0.705051 0.570444 0.417136 0.249567 0.072806 0.107588 0.285730 0.455599 0.611239 0.746982 0.857659 0.938822 0.986938 0.999571 0.975523 0.914947 0.819398 0.691844 0.536610 0.359270 0.166472 0.034280 0.234915 0.427095 0.602579 0.753576 0.873111 0.955371 0.996023 0.992474 0.944068 0.852199 0.720336 0.553943 0.360307 0.148248 0.072247 0.290472 0.495519 0.676833 0.824759 0.931095 0.989584 0.996323 0.950076 0.852440 0.707874 0.523565 0.309123 0.076133 0.162439 0.392946 0.601846 0.776499 0.905975 0.981771 0.998434 0.954008 0.850286 0.692840 0.490800 0.256394 0.004270 0.249396 0.487903 0.695145 0.856712 0.960947 0.999846 0.969746 0.871734 0.711738 0.500263 0.251794 0.016141 0.284151 0.532376 0.741963 0.896535 0.983536 0.995320 0.929922 0.791398 0.589692 0.340038 0.061894 0.222517 0.489945 0.718029 0.887184 0.982372 0.994513 0.921465 0.768424 0.547698 0.277836 0.017832 0.313149 0.581434 0.797884 0.941941 0.999333 0.963593 0.836917 0.630207 0.362272 0.058255 0.252667 0.540020 0.775048 0.933634 0.998875 0.963016 0.828504 0.608031 0.323495 0.003958 0.317228 0.605884 0.830638 0.966425 0.997401 0.918941 0.738466 0.474941 0.157040 0.179828 0.497422 0.758976 0.933538 0.999738 0.948568 0.784784 0.526697 0.204316 0.143980 0.475940 0.750546 0.933140 0.999925 0.941250 0.763192 0.487182 0.147635 0.212182 0.545596 0.808558 0.965562 0.994596 0.890427 0.665727 0.349793 0.015070 0.379075 0.691693 0.908703 0.998596 0.947346 0.760831 0.464473 0.100014 0.280180 0.620554 0.870502 0.992010 0.965646 0.793921 0.501421 0.131566 0.259641 0.611972 0.870275 0.993219 0.960140 0.774791 0.465288 0.080142 0.319124 0.667721 0.908126 0.999734 0.925973 0.697607 0.351514 0.054946 0.453285 0.775318 0.964961 0.988183 0.839426 0.543194 0.150362 0.270261 0.643887 0.903032 0.999880 0.915392 0.663403 0.288760 0.140335 0.544535 0.847987 0.992691 0.949871 0.726056 0.362557 0.071792 0.493424 0.820048 0.986822 0.959505 0.741868 0.375708 0.066785 0.496991 0.827552 0.990195 0.950156 0.714021 0.329148 0.125397 0.554825 0.868362 0.998549 0.916131 0.637054 0.219909 0.245988 0.659457
1.000000 1.000000 1.000000 1.000000 1.000000 1.000000 1.000000 1.000000 1.000000 1.000000 1.000000 1.000000 1.000000 1.000000 1.000000 1.000000 1.000000 1.000000 1.000000 1.000000 1.000000 1.000000 1.000000 1.000000 1.000000 1.000000 1.000000 1.000000 1.000000 1.000000 1.000000 1.000000 1.000000 1.000000 1.000000 1.000000 1.000000 1.000000 1.000000 1.000000 1.000000 1.000000 1.000000 1.000000 1.000000 1.000000 1.000000 1.000000 1.000000 1.000000 1.000000 1.000000 0.923193 0.923193 0.923193 0.923193 0.923193 0.923193 0.923193 0.923193 0.923193 0.923193 0.923193 0.923193 0.923193 0.923193 0.923193 0.923193 0.923193 0.923193 0.923193 0.923193 0.923193 0.923193 0.923193 0.923193 0.923193 0.923193 0.923193 0.923193 0.923193 0.923193 0.923193 0.923193 0.923193 0.913272 0.911373 0.912531 0.911084 0.909628 0.909039 0.908647 0.909687 0.911291 0.913367 0.935000 0.938106 0.939350 0.940673 0.942044 0.944327 0.942167 0.949747 0.956254 0.955196 0.956338 0.950182 0.951588 0.950935 0.950199 0.951543 0.951670 0.949977 0.947959 0.946384 0.945833 0.945522 0.949173 0.949663 0.949821 0.950415 0.950362 0.951079 0.951685 0.949841 0.952109 0.944239 0.942899 0.948166 0.946084 0.947458 0.947421 0.948109 0.948915 0.949234 0.949505 0.946404 0.945907 0.944934 0.937891 0.930886 0.931040 0.933235 0.936101 0.933403 0.930519 0.931793 0.933759 0.932954 0.936359 0.927372 0.923154 0.896813 0.883306 0.873763 0.873967 0.877922 0.880558 0.878266 0.872013 0.863227 0.859640 0.859121 0.855423 0.847206 0.862603 0.856872 0.853638 0.857237 0.860453 0.865810 0.863783 0.859570 0.854763 0.849869 0.839856 0.841171 0.844408 0.848629 0.831407 0.820778 0.837464 0.828915 0.819656 0.827374 0.829260 0.826309 0.825048 0.825442 0.822856 0.816467 0.809072 0.812961 0.821927 0.822891 0.813255 0.810935 0.808837 0.808568 0.800866 0.805917 0.807465 0.803834 0.796269 0.813758 0.780930 0.801846 0.802829 0.785784 0.770011 0.757783 0.766601 0.776452 0.775459 0.770135 0.775249 0.774920 0.767330 0.741498 0.734419 0.741326 0.739479 0.727961 0.714446 0.721498 0.721248 0.717976 0.714894 0.718084 0.719018 0.695856 0.709340 0.713829 0.704578 0.718319 0.721008 0.711944 0.715233 0.719144 0.722063 0.723102 0.693040 0.696637 0.650495 0.639089 0.592580 0.588979 0.586589 0.528804 0.533068 0.507402 0.491046 0.491809 0.469968 0.521165 0.433390 0.420310 0.448370 0.374803 0.328021 0.345557 0.346443 0.360122 0.365786 0.358242 0.360385 0.345829 0.322993 0.305871 0.330374 0.346782 0.317646 0.321929 0.305101 0.284357 0.242209 0.257730 0.261929 0.291199 0.293629 0.273956 0.297200 0.346205 0.285841 0.266764 0.244670 0.270534 0.280054 0.276483 0.266303 0.275917 0.225798 0.223103 0.243452 0.245789 0.277704 0.305110 0.330493 0.326946 0.332933 0.362386 0.314812 0.330435 0.335088 0.324274 0.342457 0.345827 0.347871 0.342440 0.381423 0.369538 0.379810 0.375413 0.374561 0.415069 0.392701 0.367362 0.339055 0.347521 0.346426 0.346026 0.289299 0.269026 0.267354 0.226552 0.188597 0.190369 0.190549 0.146319 0.131529 0.115570 0.079310 0.078449 0.086616 0.113626 0.084009 0.101784 0.108555 0.108555 0.108555 0.108555 0.108555 0.108555 0.108555 0.108555 0.108555 0.108555 0.108555 0.108555 0.108555 0.108555 0.130945 0.130945 0.130945 0.130945 0.130945 0.130945 0.130945 0.130945 0.130945 0.130945 0.130945 0.130945
0.000000 0.000000 0.000000 0.000000 0.000000 0.000000 0.000000 0.000000 0.000000 0.000000 0.000000 0.000000 0.000000 0.000000 0.000000 0.000000 0.000000 0.000000 0.000000 0.000000 0.000000 0.000000 0.000000 0.000000 0.000000 0.000000 0.000000 0.000000 0.000000 0.000000 0.000000 0.000000 0.000000 0.000000 0.000000 0.000000 0.000000 0.000000 0.000000 0.000000 0.000000 0.000000 0.000000 0.000000 0.000000 0.000000 0.000000 0.000000 0.000000 0.000000 0.000000 0.000000 0.209657 0.209657 0.209657 0.209657 0.209657 0.209657 0.209657 0.209657 0.209657 0.209657 0.209657 0.209657 0.209657 0.209657 0.209657 0.209657 0.209657 0.209657 0.209657 0.209657 0.209657 0.209657 0.209657 0.209657 0.209657 0.209657 0.209657 0.209657 0.209657 0.209657 0.209657 0.209657 0.209657 0.244339 0.244339 0.244339 0.244339 0.244339 0.244339 0.244339 0.244339 0.244339 0.244339 0.244339 0.244339 0.244339 0.244339 0.244339 0.244339 0.244339 0.244339 0.244339 0.244339 0.244339 0.244339 0.244339 0.244339 0.244339 0.260378 0.260378 0.260378 0.260378 0.260378 0.260378 0.260378 0.260378 0.260378 0.260378 0.260378 0.260378 0.260378 0.260378 0.260378 0.260378 0.260378 0.260378 0.260378 0.260378 0.269680 0.269680 0.269680 0.269680 0.269680 0.269680 0.269680 0.269680 0.269680 0.269680 0.269680 0.269680 0.269680 0.269680 0.269680 0.269680 0.269680 0.269680 0.269680 0.269680 0.269680 0.269680 0.269680 0.269680 0.269680 0.269680 0.269680 0.269680 0.269680 0.269680 0.269680 0.269680 0.269680 0.280056 0.280056 0.280056 0.280056 0.280056 0.280056 0.280056 0.280056 0.280056 0.280056 0.280056 0.280056 0.280056 0.280056 0.280056 0.280056 0.280056 0.280056 0.280056 0.280056 0.280056 0.280056 0.280056 0.280056 0.280056 0.280056 0.280056 0.274721 0.274721 0.274721 0.274721 0.274721 0.274721 0.274721 0.274721 0.274721 0.274721 0.274721 0.274721 0.274721 0.285714 0.285714 0.285714 0.285714 0.285714 0.285714 0.285714 0.285714 0.285714 0.285714 0.285714 0.280056 0.280056 0.280056 0.280056 0.280056 0.280056 0.280056 0.280056 0.280056 0.280056 0.280056 0.274721 0.274721 0.274721 0.274721 0.274721 0.274721 0.274721 0.274721 0.274721 0.274721 0.274721 0.280056 0.280056 0.280056 0.280056 0.280056 0.280056 0.280056 0.280056 0.280056 0.280056 0.285714 0.285714 0.285714 0.285714 0.285714 0.285714 0.285714 0.285714 0.285714 0.269680 0.269680 0.269680 0.269680 0.269680 0.269680 0.269680 0.269680 0.269680 0.269680 0.274721 0.274721 0.274721 0.274721 0.274721 0.274721 0.274721 0.274721 0.274721 0.285714 0.285714 0.285714 0.285714 0.285714 0.285714 0.285714 0.285714 0.264906 0.264906 0.264906 0.264906 0.264906 0.264906 0.264906 0.264906 0.264906 0.274721 0.274721 0.274721 0.274721 0.274721 0.274721 0.274721 0.274721 0.269680 0.269680 0.269680 0.269680 0.269680 0.269680 0.269680 0.269680 0.269680 0.269680 0.269680 0.269680 0.269680 0.269680 0.269680 0.269680 0.280056 0.280056 0.280056 0.280056 0.280056 0.280056 0.280056 0.260378 0.260378 0.260378 0.260378 0.260378 0.260378 0.260378 0.260378 0.269680 0.269680 0.269680 0.269680 0.269680 0.269680 0.269680 0.264906 0.264906 0.264906 0.264906 0.264906 0.264906 0.264906 0.264906 0.264906 0.264906 0.264906 0.264906 0.264906 0.264906 0.260378 0.260378 0.260378 0.260378 0.260378 0.260378 0.260378 0.260378 0.260378 0.260378 0.260378 0.260378
