# Output from CTFFind version 4.1.9, run on 2019-11-03 20:07:56
# Input file: stack11_bm3d_averaged_1_6.0_0_1500_half.mrc ; Number of micrographs: 1
# Pixel size: 3.000 Angstroms ; acceleration voltage: 300.0 keV ; spherical aberration: 0.00 mm ; amplitude contrast: 0.07
# Box size: 512 pixels ; min. res.: 30.0 Angstroms ; max. res.: 5.0 Angstroms ; min. def.: 5000.0 um; max. def. 50000.0 um; num. frames averaged: 1
# 6 lines per micrograph: #1 - spatial frequency (1/Angstroms); #2 - 1D rotational average of spectrum (assuming no astigmatism); #3 - 1D rotational average of spectrum; #4 - CTF fit; #5 - cross-correlation between spectrum and CTF fit; #6 - 2sigma of expected cross correlation of noise
0.000000 0.000651 0.001302 0.001953 0.002604 0.003255 0.003906 0.004557 0.005208 0.005859 0.006510 0.007161 0.007812 0.008464 0.009115 0.009766 0.010417 0.011068 0.011719 0.012370 0.013021 0.013672 0.014323 0.014974 0.015625 0.016276 0.016927 0.017578 0.018229 0.018880 0.019531 0.020182 0.020833 0.021484 0.022135 0.022786 0.023438 0.024089 0.024740 0.025391 0.026042 0.026693 0.027344 0.027995 0.028646 0.029297 0.029948 0.030599 0.031250 0.031901 0.032552 0.033203 0.033854 0.034505 0.035156 0.035807 0.036458 0.037109 0.037760 0.038411 0.039062 0.039714 0.040365 0.041016 0.041667 0.042318 0.042969 0.043620 0.044271 0.044922 0.045573 0.046224 0.046875 0.047526 0.048177 0.048828 0.049479 0.050130 0.050781 0.051432 0.052083 0.052734 0.053385 0.054036 0.054688 0.055339 0.055990 0.056641 0.057292 0.057943 0.058594 0.059245 0.059896 0.060547 0.061198 0.061849 0.062500 0.063151 0.063802 0.064453 0.065104 0.065755 0.066406 0.067057 0.067708 0.068359 0.069010 0.069661 0.070312 0.070964 0.071615 0.072266 0.072917 0.073568 0.074219 0.074870 0.075521 0.076172 0.076823 0.077474 0.078125 0.078776 0.079427 0.080078 0.080729 0.081380 0.082031 0.082682 0.083333 0.083984 0.084635 0.085286 0.085938 0.086589 0.087240 0.087891 0.088542 0.089193 0.089844 0.090495 0.091146 0.091797 0.092448 0.093099 0.093750 0.094401 0.095052 0.095703 0.096354 0.097005 0.097656 0.098307 0.098958 0.099609 0.100260 0.100911 0.101562 0.102214 0.102865 0.103516 0.104167 0.104818 0.105469 0.106120 0.106771 0.107422 0.108073 0.108724 0.109375 0.110026 0.110677 0.111328 0.111979 0.112630 0.113281 0.113932 0.114583 0.115234 0.115885 0.116536 0.117188 0.117839 0.118490 0.119141 0.119792 0.120443 0.121094 0.121745 0.122396 0.123047 0.123698 0.124349 0.125000 0.125651 0.126302 0.126953 0.127604 0.128255 0.128906 0.129557 0.130208 0.130859 0.131510 0.132161 0.132812 0.133464 0.134115 0.134766 0.135417 0.136068 0.136719 0.137370 0.138021 0.138672 0.139323 0.139974 0.140625 0.141276 0.141927 0.142578 0.143229 0.143880 0.144531 0.145182 0.145833 0.146484 0.147135 0.147786 0.148438 0.149089 0.149740 0.150391 0.151042 0.151693 0.152344 0.152995 0.153646 0.154297 0.154948 0.155599 0.156250 0.156901 0.157552 0.158203 0.158854 0.159505 0.160156 0.160807 0.161458 0.162109 0.162760 0.163411 0.164062 0.164714 0.165365 0.166016 0.166667 0.167318 0.167969 0.168620 0.169271 0.169922 0.170573 0.171224 0.171875 0.172526 0.173177 0.173828 0.174479 0.175130 0.175781 0.176432 0.177083 0.177734 0.178385 0.179036 0.179688 0.180339 0.180990 0.181641 0.182292 0.182943 0.183594 0.184245 0.184896 0.185547 0.186198 0.186849 0.187500 0.188151 0.188802 0.189453 0.190104 0.190755 0.191406 0.192057 0.192708 0.193359 0.194010 0.194661 0.195312 0.195964 0.196615 0.197266 0.197917 0.198568 0.199219 0.199870 0.200521 0.201172 0.201823 0.202474 0.203125 0.203776 0.204427 0.205078 0.205729 0.206380 0.207031 0.207682 0.208333 0.208984 0.209635 0.210286 0.210938 0.211589 0.212240 0.212891 0.213542 0.214193 0.214844 0.215495 0.216146 0.216797 0.217448 0.218099 0.218750 0.219401 0.220052 0.220703 0.221354 0.222005 0.222656 0.223307 0.223958 0.224609 0.225260 0.225911 0.226562 0.227214 0.227865 0.228516 0.229167 0.229818 0.230469 0.231120 0.231771 0.232422 0.233073 0.233724 0.234375 0.235026 0.235677
       0.34371        0.34371        0.34371        0.34371        0.34371        0.34371        0.34371        0.34371        0.34371        0.34371        0.34371        0.34371        0.34371        0.34371        0.34371        0.34371        0.34371        0.34371        0.34371        0.34371        0.34371        0.34371        0.34371        0.34372        0.34371        0.34371        0.34371        0.34371        0.34371        0.34371        0.34371        0.34371        0.34371        0.34371        0.34371        0.34371        0.34371        0.34371        0.34371        0.34371        0.34371        0.34371        0.34371        0.34371        0.34371        0.34372        0.34372        0.34371        0.34371        0.34372        0.34372        0.69852        0.85855        0.53761        0.10543       -0.02931       -0.38810       -0.18039       -0.28804       -0.11465       -0.05503       -0.11168       -0.05328       -0.16828       -0.20639       -0.21554       -0.30778       -0.31926       -0.44552       -0.36248       -0.42748       -0.42209       -0.39555       -0.41090       -0.45147       -0.51034       -0.55978       -0.55383       -0.52768       -0.35873       -0.32915       -0.29311       -0.27310       -0.18612       -0.17161        0.05977        0.14011        0.17257        0.26427        0.38147        0.45789        0.52340        0.59920        0.59659        0.58311        0.69948        0.80443        0.70490        0.74361        0.62151        0.56898        0.48379        0.43191        0.51240        0.39701        0.26834        0.11553        0.10984        0.08967       -0.01661        0.04077        0.04990        0.00800        0.02686        0.02811        0.23753        0.27128        0.29620        0.43495        0.45362        0.41460        0.59734        0.62141        0.63967        0.72633        0.67738        0.64774        0.65942        0.56113        0.46270        0.41928        0.30364        0.26674        0.18245        0.13550        0.05265        0.06277        0.07161        0.09855        0.15729        0.24355        0.29557        0.41955        0.46495        0.48152        0.56787        0.60454        0.63768        0.61717        0.56031        0.46104        0.47364        0.37922        0.27479        0.21092        0.15721        0.17061        0.15246        0.15692        0.18555        0.32010        0.33398        0.40423        0.44475        0.42761        0.48329        0.56309        0.55492        0.50203        0.45741        0.41264        0.36986        0.33983        0.30706        0.26087        0.24609        0.25097        0.25499        0.22515        0.30890        0.36424        0.38537        0.43964        0.45649        0.46924        0.42680        0.41009        0.40244        0.36307        0.33313        0.27430        0.27783        0.26785        0.24275        0.29339        0.29037        0.35051        0.38167        0.43181        0.47676        0.40883        0.42362        0.43327        0.41139        0.34946        0.32707        0.29366        0.32435        0.27436        0.32084        0.31328        0.33097        0.33933        0.36333        0.31642        0.39101        0.41405        0.38088        0.35059        0.37062        0.31745        0.29439        0.30611        0.32046        0.30809        0.32012        0.34316        0.35465        0.34063        0.36553        0.36436        0.41942        0.38871        0.33883        0.34684        0.29943        0.29278        0.32576        0.31992        0.33025        0.34203        0.34083        0.38622        0.33091        0.33048        0.33807        0.34635        0.30468        0.31290        0.28131        0.30362        0.32999        0.30568        0.33035        0.35631        0.36621        0.29679        0.33911        0.29846        0.29707        0.27970        0.24679        0.30491        0.30531        0.34294        0.33881        0.34260        0.32680        0.34996        0.31455        0.34605        0.30991        0.32292        0.28910        0.33528        0.32597        0.36786        0.32794        0.33601        0.33964        0.29334        0.27562        0.31106        0.25046        0.22887        0.34163        0.32243        0.36521        0.34663        0.36174        0.33286        0.33571        0.34934        0.26516        0.26343        0.31687        0.30153        0.31167        0.31770        0.34035        0.33149        0.29246        0.29098        0.34497        0.32174        0.31752        0.29413        0.32248        0.34061        0.39529        0.35897        0.31790        0.28207        0.30369        0.28896        0.30285        0.27541        0.26658        0.31325        0.33102        0.34493        0.35488        0.33072        0.29231        0.30122        0.26904        0.27603        0.25558        0.30947        0.26524        0.24293        0.29705        0.29183        0.26412        0.29583        0.21675        0.21424        0.24423        0.19226        0.27036        0.34626        0.25196        0.23724        0.31715        0.30625        0.31466        0.31527        0.26756        0.24963        0.19046        0.21165        0.20039        0.26694        0.23499        0.28150        0.35739        0.35482        0.24833        0.16481        0.10111       -0.01264       -0.11474       -0.62952
2.780581 2.751091 2.721761 2.692592 2.663584 2.634736 2.606049 2.577523 2.549157 2.520951 2.492907 2.465022 2.437299 2.409736 2.382334 2.355092 2.328011 2.301091 2.274331 2.247732 2.221293 2.195015 2.168897 2.142940 2.117144 2.091509 2.066034 2.040719 2.015565 1.990572 1.965740 1.941068 1.916556 1.892205 1.868015 1.843986 1.820117 1.796408 1.772860 1.749473 1.726247 1.703181 1.680275 1.657531 1.634946 1.612523 1.590260 1.568157 1.546216 1.524435 1.502814 1.719747 2.142679 1.700960 1.185726 1.050061 0.451753 0.848353 0.561813 0.845520 0.812816 0.818117 0.757194 0.752272 0.595835 0.559023 0.500882 0.428504 0.248089 0.366442 0.200549 0.329861 0.220290 0.208294 0.182616 0.040817 0.006049 0.018257 -0.069166 0.132971 0.231857 0.188899 0.178122 0.326613 0.184630 0.519463 0.623556 0.630417 0.646933 0.876092 0.834404 0.942929 0.935417 1.032414 1.000239 1.084902 1.168333 1.044329 1.162294 0.909522 0.928765 0.795107 0.653008 0.806009 0.696134 0.492554 0.332952 0.250739 0.266839 0.148020 0.134228 0.164553 0.107854 0.122201 0.080526 0.250325 0.353109 0.341329 0.476129 0.545000 0.417469 0.591800 0.729292 0.652747 0.721173 0.709948 0.717909 0.647937 0.595988 0.494195 0.369563 0.276380 0.220275 0.089134 0.116440 -0.110586 -0.048851 -0.063282 -0.081483 -0.020120 0.130053 0.069312 0.241249 0.306367 0.335401 0.377000 0.497654 0.467966 0.479892 0.491960 0.305395 0.293559 0.286745 0.086944 0.045559 -0.078087 -0.013726 -0.062257 -0.094998 -0.075664 0.038918 0.092911 0.124015 0.221152 0.225540 0.223950 0.274006 0.445230 0.393147 0.256844 0.232886 0.223357 0.143256 0.144344 0.116785 -0.004283 0.016042 0.073345 -0.009244 0.047618 0.133739 0.136107 0.215739 0.233787 0.257191 0.167837 0.209917 0.127099 0.133494 0.110963 0.029284 -0.026048 -0.000026 -0.019824 -0.053690 0.053946 0.005697 0.106360 0.138630 0.190101 0.169324 0.118897 0.141420 0.161730 0.111580 0.037848 -0.023225 0.032407 0.025288 -0.040141 0.033568 0.022409 0.047452 0.038887 0.051967 0.035345 0.139626 0.124263 0.046883 0.040261 0.044745 0.006277 -0.030368 0.010194 0.007777 -0.001440 0.006513 0.053012 0.053832 0.041640 0.077659 0.059278 0.158626 0.062894 0.039031 0.041642 -0.033597 0.011191 0.046051 0.007467 0.034439 0.054477 0.080227 0.046209 0.042520 0.010498 0.078290 0.023788 0.022691 0.023231 -0.006269 0.035347 0.025935 0.022106 0.068016 0.081965 0.062291 0.040240 0.049569 0.027853 0.018840 -0.020625 -0.023193 0.035225 0.053295 0.082307 0.084782 0.051967 0.074396 0.103523 0.045973 0.095255 0.064367 0.041894 0.021176 0.102716 0.061298 0.115782 0.081684 0.052295 0.107565 0.037124 0.005584 0.086485 -0.035939 -0.022861 0.100333 0.046085 0.159354 0.094823 0.090818 0.053204 0.056782 0.092690 -0.024063 -0.026287 0.052174 0.040410 0.038247 0.027484 0.102685 0.042995 -0.006883 0.053547 0.047219 0.052580 0.059469 -0.010760 0.063677 0.058752 0.118982 0.054161 0.026018 -0.025263 -0.018107 -0.005080 0.004471 -0.052385 -0.025647 0.004171 0.023574 0.029169 0.051699 0.006014 -0.035780 -0.031463 -0.020920 -0.068814 -0.050064 -0.026569 -0.089688 -0.069122 -0.014720 -0.055930 -0.077829 -0.002641 -0.139044 -0.098874 -0.097495 -0.194249 -0.058297 0.062666 -0.070253 -0.157746 0.028879 0.010983 -0.062372 0.027184 -0.091356 0.274576 0.168002 0.217062 0.272390 0.329398 0.257970 0.323032 0.341198 0.412332 0.229219 0.299597 0.125102 -0.018280 -0.696325
0.072396 0.072899 0.074408 0.076922 0.080441 0.084964 0.090490 0.097016 0.104542 0.113064 0.122578 0.133081 0.144567 0.157030 0.170462 0.184853 0.200193 0.216469 0.233666 0.251766 0.270749 0.290593 0.311271 0.332755 0.355009 0.377999 0.401681 0.426011 0.450936 0.476402 0.502347 0.528703 0.555398 0.582352 0.609481 0.636692 0.663887 0.690961 0.717801 0.744288 0.770296 0.795694 0.820341 0.844093 0.866797 0.888297 0.908430 0.927029 0.943923 0.958938 0.971896 0.982621 0.990933 0.996655 0.999612 0.999633 0.996551 0.990207 0.980451 0.967142 0.950154 0.929373 0.904704 0.876070 0.843414 0.806705 0.765935 0.721125 0.672327 0.619622 0.563128 0.502997 0.439418 0.372620 0.302869 0.230473 0.155781 0.079180 0.001100 0.077992 0.157592 0.237160 0.316121 0.393876 0.469795 0.543232 0.613523 0.679994 0.741969 0.798777 0.849758 0.894272 0.931707 0.961491 0.983098 0.996059 0.999972 0.994510 0.979433 0.954592 0.919944 0.875552 0.821598 0.758384 0.686340 0.606022 0.518117 0.423437 0.322923 0.217632 0.108735 0.002495 0.114696 0.226431 0.336204 0.442481 0.543710 0.638347 0.724876 0.801840 0.867866 0.921693 0.962198 0.988427 0.999616 0.995218 0.974925 0.938687 0.886725 0.819543 0.737935 0.642984 0.536060 0.418804 0.293118 0.161129 0.025172 0.112255 0.248537 0.380979 0.506869 0.623531 0.728385 0.819009 0.893199 0.949031 0.984917 0.999658 0.992493 0.963133 0.911795 0.839220 0.746676 0.635955 0.509352 0.369629 0.219965 0.063896 0.094766 0.252018 0.403766 0.545934 0.674572 0.785978 0.876804 0.944176 0.985788 1.000000 0.985911 0.943419 0.873255 0.776998 0.657063 0.516655 0.359708 0.190785 0.014959 0.162330 0.335438 0.498699 0.646611 0.774028 0.876350 0.949705 0.991111 0.998614 0.971401 0.909869 0.815655 0.691633 0.541841 0.371382 0.186263 0.006790 0.200576 0.387676 0.560744 0.712788 0.837480 0.929426 0.984423 0.999675 0.973961 0.907737 0.803182 0.664158 0.496106 0.305860 0.101390 0.108504 0.314578 0.507528 0.678430 0.819158 0.922794 0.983988 0.999272 0.967282 0.888896 0.767261 0.607715 0.417593 0.205915 0.017004 0.240052 0.451852 0.641359 0.798445 0.914453 0.982717 0.998975 0.961675 0.872142 0.734599 0.556009 0.345779 0.115298 0.122659 0.354614 0.567151 0.747701 0.885306 0.971319 0.999990 0.968892 0.879173 0.735581 0.546278 0.322430 0.077590 0.173091 0.413787 0.628996 0.804553 0.928589 0.992380 0.991014 0.923820 0.794532 0.611160 0.385549 0.132681 0.130292 0.385188 0.614038 0.800379 0.930472 0.994354 0.986668 0.907176 0.760913 0.557942 0.312744 0.043234 0.230502 0.487690 0.708450 0.875353 0.974849 0.998425 0.943413 0.813344 0.617821 0.371894 0.094979 0.190638 0.461563 0.695205 0.871703 0.975644 0.997493 0.934551 0.791341 0.579401 0.316450 0.024962 0.269685 0.541402 0.765713 0.921996 0.995441 0.978540 0.871951 0.684622 0.433152 0.140415 0.166454 0.458544 0.707877 0.890128 0.987064 0.988450 0.893237 0.709875 0.455680 0.155316 0.161545 0.463075 0.718525 0.901363 0.992115 0.980543 0.866905 0.662161 0.387051 0.070096 0.255275 0.554222 0.794225 0.948682 0.999944 0.941449 0.778685 0.528829 0.219076 0.116234 0.439341 0.713336 0.906380 0.995513 0.969494 0.830354 0.593436 0.285846 0.056520 0.393100 0.683435 0.892078 0.992999 0.972960 0.833395 0.590536 0.273678 0.078219 0.421252 0.712013 0.913131 0.998180 0.955273 0.788899 0.519646 0.181833 0.180745
1.000000 1.000000 1.000000 1.000000 1.000000 1.000000 1.000000 1.000000 1.000000 1.000000 1.000000 1.000000 1.000000 1.000000 1.000000 1.000000 1.000000 1.000000 1.000000 1.000000 1.000000 1.000000 1.000000 1.000000 1.000000 1.000000 1.000000 1.000000 1.000000 1.000000 1.000000 1.000000 1.000000 1.000000 1.000000 1.000000 1.000000 1.000000 1.000000 1.000000 1.000000 1.000000 1.000000 1.000000 1.000000 1.000000 1.000000 1.000000 1.000000 1.000000 1.000000 1.000000 0.918833 0.918833 0.918833 0.912116 0.912116 0.912116 0.912116 0.912116 0.912116 0.912116 0.912116 0.912116 0.912116 0.912116 0.912116 0.912116 0.912116 0.912116 0.912116 0.912116 0.912116 0.912116 0.912116 0.912116 0.912116 0.912116 0.912116 0.912116 0.912116 0.912116 0.912116 0.912116 0.912116 0.912116 0.912116 0.912116 0.912116 0.912116 0.912116 0.912116 0.912116 0.912116 0.912116 0.912116 0.940915 0.942332 0.950620 0.950178 0.949589 0.947585 0.946358 0.946015 0.945924 0.946266 0.946986 0.947961 0.954184 0.955101 0.959520 0.962216 0.962400 0.964144 0.964862 0.964492 0.956078 0.955849 0.954438 0.953908 0.956434 0.955546 0.954810 0.955783 0.955689 0.956012 0.956007 0.955359 0.954327 0.953279 0.952377 0.951985 0.951794 0.952512 0.952922 0.954359 0.957602 0.958198 0.958336 0.956752 0.955526 0.956796 0.956033 0.955344 0.943600 0.943100 0.941768 0.941815 0.944915 0.944994 0.945584 0.946201 0.947976 0.948339 0.943335 0.943041 0.935647 0.932691 0.930557 0.924874 0.920089 0.921969 0.924000 0.924532 0.924741 0.919120 0.919070 0.916996 0.913027 0.915444 0.915692 0.917044 0.918432 0.914029 0.913409 0.912149 0.910522 0.902959 0.890924 0.889704 0.884849 0.889865 0.889791 0.888713 0.891717 0.881060 0.866110 0.834097 0.836538 0.839843 0.830191 0.825469 0.825499 0.826306 0.830728 0.824182 0.822515 0.817026 0.804915 0.799444 0.792262 0.778938 0.780633 0.772355 0.762172 0.757812 0.782072 0.775987 0.787048 0.791421 0.791128 0.788120 0.780360 0.770370 0.769284 0.763454 0.759981 0.738274 0.730258 0.730445 0.727268 0.716533 0.720453 0.707802 0.707954 0.696224 0.700777 0.705744 0.708813 0.704333 0.699102 0.691088 0.688237 0.700553 0.714617 0.710802 0.707754 0.710506 0.700526 0.690990 0.688527 0.692262 0.686768 0.665902 0.673289 0.699633 0.666131 0.655739 0.662517 0.667831 0.658301 0.660424 0.640555 0.633979 0.612207 0.629606 0.634927 0.651708 0.649557 0.649862 0.660475 0.666455 0.677366 0.678724 0.680374 0.640164 0.643131 0.663994 0.671086 0.657418 0.646098 0.648725 0.645893 0.681369 0.670674 0.626499 0.623000 0.619638 0.579646 0.557030 0.555869 0.560204 0.586496 0.581017 0.560484 0.538736 0.543182 0.547660 0.549497 0.547915 0.534666 0.541374 0.527672 0.504099 0.512608 0.518649 0.516154 0.501831 0.497909 0.508324 0.483712 0.518083 0.491486 0.467738 0.487546 0.484806 0.473001 0.398711 0.414285 0.401331 0.393621 0.348197 0.358169 0.366848 0.350924 0.275905 0.267605 0.268598 0.266338 0.248061 0.229580 0.218630 0.206224 0.185098 0.125055 0.085716 0.085940 0.088452 0.112830 0.072691 0.122020 0.186553 0.186856 0.186856 0.186856 0.186856 0.186856 0.186856 0.186856 0.186856 0.162210 0.162210 0.162210 0.162210 0.162210 0.162210 0.162210 0.162210 0.162210 0.186856 0.186856 0.186856 0.186856 0.186856 0.186856 0.186856 0.186856 0.186856 0.186856 0.186856 0.186856 0.186856 0.186856
0.000000 0.000000 0.000000 0.000000 0.000000 0.000000 0.000000 0.000000 0.000000 0.000000 0.000000 0.000000 0.000000 0.000000 0.000000 0.000000 0.000000 0.000000 0.000000 0.000000 0.000000 0.000000 0.000000 0.000000 0.000000 0.000000 0.000000 0.000000 0.000000 0.000000 0.000000 0.000000 0.000000 0.000000 0.000000 0.000000 0.000000 0.000000 0.000000 0.000000 0.000000 0.000000 0.000000 0.000000 0.000000 0.000000 0.000000 0.000000 0.000000 0.000000 0.000000 0.000000 0.180334 0.180334 0.180334 0.199007 0.199007 0.199007 0.199007 0.199007 0.199007 0.199007 0.199007 0.199007 0.199007 0.199007 0.199007 0.199007 0.199007 0.199007 0.199007 0.199007 0.199007 0.199007 0.199007 0.199007 0.199007 0.199007 0.199007 0.199007 0.199007 0.199007 0.199007 0.199007 0.199007 0.199007 0.199007 0.199007 0.199007 0.199007 0.199007 0.199007 0.199007 0.199007 0.199007 0.199007 0.225018 0.225018 0.225018 0.225018 0.225018 0.225018 0.225018 0.225018 0.225018 0.225018 0.225018 0.225018 0.225018 0.225018 0.225018 0.225018 0.225018 0.225018 0.225018 0.225018 0.225018 0.225018 0.225018 0.225018 0.225018 0.225018 0.225018 0.225018 0.225018 0.244339 0.244339 0.244339 0.244339 0.244339 0.244339 0.244339 0.244339 0.244339 0.244339 0.244339 0.244339 0.244339 0.244339 0.244339 0.244339 0.244339 0.244339 0.244339 0.244339 0.244339 0.244339 0.244339 0.251976 0.251976 0.251976 0.251976 0.251976 0.251976 0.251976 0.251976 0.251976 0.251976 0.251976 0.251976 0.251976 0.251976 0.251976 0.251976 0.251976 0.251976 0.251976 0.251976 0.264906 0.264906 0.264906 0.264906 0.264906 0.264906 0.264906 0.264906 0.264906 0.264906 0.264906 0.264906 0.264906 0.264906 0.264906 0.264906 0.264906 0.264906 0.264906 0.264906 0.264906 0.264906 0.264906 0.264906 0.264906 0.264906 0.264906 0.264906 0.264906 0.264906 0.264906 0.264906 0.264906 0.264906 0.264906 0.264906 0.264906 0.264906 0.264906 0.264906 0.264906 0.264906 0.264906 0.264906 0.264906 0.264906 0.264906 0.264906 0.264906 0.264906 0.264906 0.264906 0.264906 0.264906 0.264906 0.264906 0.264906 0.264906 0.264906 0.264906 0.264906 0.264906 0.264906 0.264906 0.264906 0.264906 0.264906 0.264906 0.264906 0.264906 0.264906 0.264906 0.264906 0.264906 0.264906 0.260378 0.260378 0.260378 0.260378 0.260378 0.260378 0.260378 0.260378 0.260378 0.260378 0.260378 0.260378 0.260378 0.264906 0.264906 0.264906 0.264906 0.264906 0.264906 0.264906 0.264906 0.264906 0.264906 0.264906 0.264906 0.269680 0.269680 0.269680 0.269680 0.269680 0.269680 0.269680 0.269680 0.269680 0.269680 0.269680 0.264906 0.264906 0.264906 0.264906 0.264906 0.264906 0.264906 0.264906 0.264906 0.264906 0.264906 0.256074 0.256074 0.256074 0.256074 0.256074 0.256074 0.256074 0.256074 0.256074 0.256074 0.256074 0.264906 0.264906 0.264906 0.264906 0.264906 0.264906 0.264906 0.264906 0.264906 0.264906 0.260378 0.260378 0.260378 0.260378 0.260378 0.260378 0.260378 0.260378 0.260378 0.260378 0.264906 0.264906 0.264906 0.264906 0.264906 0.264906 0.264906 0.264906 0.264906 0.251976 0.251976 0.251976 0.251976 0.251976 0.251976 0.251976 0.251976 0.251976 0.251976 0.256074 0.256074 0.256074 0.256074 0.256074 0.256074 0.256074 0.256074 0.256074 0.251976 0.251976 0.251976 0.251976 0.251976 0.251976 0.251976 0.251976 0.251976 0.251976 0.251976 0.251976 0.251976 0.251976
