# Output from CTFFind version 4.1.9, run on 2019-11-03 20:06:18
# Input file: stack11_bm3d_averaged_1_7.0_0_1000_half.mrc ; Number of micrographs: 1
# Pixel size: 3.000 Angstroms ; acceleration voltage: 300.0 keV ; spherical aberration: 0.00 mm ; amplitude contrast: 0.07
# Box size: 512 pixels ; min. res.: 30.0 Angstroms ; max. res.: 5.0 Angstroms ; min. def.: 5000.0 um; max. def. 50000.0 um; num. frames averaged: 1
# 6 lines per micrograph: #1 - spatial frequency (1/Angstroms); #2 - 1D rotational average of spectrum (assuming no astigmatism); #3 - 1D rotational average of spectrum; #4 - CTF fit; #5 - cross-correlation between spectrum and CTF fit; #6 - 2sigma of expected cross correlation of noise
0.000000 0.000651 0.001302 0.001953 0.002604 0.003255 0.003906 0.004557 0.005208 0.005859 0.006510 0.007161 0.007812 0.008464 0.009115 0.009766 0.010417 0.011068 0.011719 0.012370 0.013021 0.013672 0.014323 0.014974 0.015625 0.016276 0.016927 0.017578 0.018229 0.018880 0.019531 0.020182 0.020833 0.021484 0.022135 0.022786 0.023438 0.024089 0.024740 0.025391 0.026042 0.026693 0.027344 0.027995 0.028646 0.029297 0.029948 0.030599 0.031250 0.031901 0.032552 0.033203 0.033854 0.034505 0.035156 0.035807 0.036458 0.037109 0.037760 0.038411 0.039062 0.039714 0.040365 0.041016 0.041667 0.042318 0.042969 0.043620 0.044271 0.044922 0.045573 0.046224 0.046875 0.047526 0.048177 0.048828 0.049479 0.050130 0.050781 0.051432 0.052083 0.052734 0.053385 0.054036 0.054688 0.055339 0.055990 0.056641 0.057292 0.057943 0.058594 0.059245 0.059896 0.060547 0.061198 0.061849 0.062500 0.063151 0.063802 0.064453 0.065104 0.065755 0.066406 0.067057 0.067708 0.068359 0.069010 0.069661 0.070312 0.070964 0.071615 0.072266 0.072917 0.073568 0.074219 0.074870 0.075521 0.076172 0.076823 0.077474 0.078125 0.078776 0.079427 0.080078 0.080729 0.081380 0.082031 0.082682 0.083333 0.083984 0.084635 0.085286 0.085938 0.086589 0.087240 0.087891 0.088542 0.089193 0.089844 0.090495 0.091146 0.091797 0.092448 0.093099 0.093750 0.094401 0.095052 0.095703 0.096354 0.097005 0.097656 0.098307 0.098958 0.099609 0.100260 0.100911 0.101562 0.102214 0.102865 0.103516 0.104167 0.104818 0.105469 0.106120 0.106771 0.107422 0.108073 0.108724 0.109375 0.110026 0.110677 0.111328 0.111979 0.112630 0.113281 0.113932 0.114583 0.115234 0.115885 0.116536 0.117188 0.117839 0.118490 0.119141 0.119792 0.120443 0.121094 0.121745 0.122396 0.123047 0.123698 0.124349 0.125000 0.125651 0.126302 0.126953 0.127604 0.128255 0.128906 0.129557 0.130208 0.130859 0.131510 0.132161 0.132812 0.133464 0.134115 0.134766 0.135417 0.136068 0.136719 0.137370 0.138021 0.138672 0.139323 0.139974 0.140625 0.141276 0.141927 0.142578 0.143229 0.143880 0.144531 0.145182 0.145833 0.146484 0.147135 0.147786 0.148438 0.149089 0.149740 0.150391 0.151042 0.151693 0.152344 0.152995 0.153646 0.154297 0.154948 0.155599 0.156250 0.156901 0.157552 0.158203 0.158854 0.159505 0.160156 0.160807 0.161458 0.162109 0.162760 0.163411 0.164062 0.164714 0.165365 0.166016 0.166667 0.167318 0.167969 0.168620 0.169271 0.169922 0.170573 0.171224 0.171875 0.172526 0.173177 0.173828 0.174479 0.175130 0.175781 0.176432 0.177083 0.177734 0.178385 0.179036 0.179688 0.180339 0.180990 0.181641 0.182292 0.182943 0.183594 0.184245 0.184896 0.185547 0.186198 0.186849 0.187500 0.188151 0.188802 0.189453 0.190104 0.190755 0.191406 0.192057 0.192708 0.193359 0.194010 0.194661 0.195312 0.195964 0.196615 0.197266 0.197917 0.198568 0.199219 0.199870 0.200521 0.201172 0.201823 0.202474 0.203125 0.203776 0.204427 0.205078 0.205729 0.206380 0.207031 0.207682 0.208333 0.208984 0.209635 0.210286 0.210938 0.211589 0.212240 0.212891 0.213542 0.214193 0.214844 0.215495 0.216146 0.216797 0.217448 0.218099 0.218750 0.219401 0.220052 0.220703 0.221354 0.222005 0.222656 0.223307 0.223958 0.224609 0.225260 0.225911 0.226562 0.227214 0.227865 0.228516 0.229167 0.229818 0.230469 0.231120 0.231771 0.232422 0.233073 0.233724 0.234375 0.235026 0.235677
       0.34519        0.34519        0.34519        0.34519        0.34519        0.34519        0.34519        0.34519        0.34519        0.34519        0.34519        0.34519        0.34519        0.34519        0.34519        0.34519        0.34519        0.34519        0.34519        0.34519        0.34519        0.34519        0.34519        0.34519        0.34519        0.34519        0.34519        0.34519        0.34519        0.34519        0.34519        0.34519        0.34519        0.34519        0.34519        0.34519        0.34519        0.34519        0.34519        0.34519        0.34519        0.34519        0.34519        0.34519        0.34519        0.34519        0.34519        0.34519        0.34519        0.34519        0.34519        0.69910        0.85732        0.53807        0.10526       -0.02909       -0.38521       -0.17988       -0.28837       -0.11628       -0.05517       -0.11297       -0.05343       -0.16604       -0.20545       -0.21342       -0.30677       -0.31818       -0.44342       -0.36186       -0.42550       -0.42057       -0.39322       -0.40584       -0.44573       -0.50667       -0.55825       -0.54882       -0.52288       -0.35585       -0.32508       -0.29036       -0.27035       -0.18566       -0.16943        0.06189        0.14279        0.17629        0.26686        0.38146        0.45780        0.52317        0.60148        0.59853        0.58475        0.70044        0.80313        0.70254        0.74421        0.61898        0.56845        0.48355        0.43304        0.51240        0.39810        0.27260        0.11736        0.11430        0.09483       -0.01249        0.04616        0.05359        0.01287        0.02818        0.03196        0.23686        0.27164        0.29649        0.43568        0.45388        0.41498        0.60074        0.61810        0.63448        0.72352        0.67567        0.64726        0.65591        0.56008        0.46026        0.41897        0.30415        0.27121        0.18550        0.13695        0.05259        0.06707        0.07704        0.10045        0.16097        0.24627        0.29923        0.42348        0.46577        0.48153        0.56386        0.60176        0.63650        0.61486        0.55810        0.46249        0.47344        0.37887        0.27842        0.21282        0.15655        0.17364        0.15408        0.16234        0.19201        0.32431        0.33904        0.40869        0.44750        0.42558        0.47983        0.56342        0.55555        0.50357        0.45753        0.41431        0.37395        0.34296        0.31041        0.26588        0.24745        0.25620        0.25744        0.22692        0.31091        0.36531        0.38484        0.43920        0.45612        0.46754        0.42811        0.41316        0.40222        0.36366        0.33893        0.27517        0.28250        0.26961        0.24812        0.29685        0.29435        0.35296        0.38362        0.43604        0.47681        0.40693        0.42256        0.43279        0.41229        0.35096        0.32972        0.29319        0.32753        0.27673        0.32466        0.31660        0.33421        0.34241        0.36555        0.31368        0.38818        0.41202        0.38131        0.35261        0.36961        0.31963        0.29611        0.30896        0.32022        0.30863        0.32092        0.34598        0.35843        0.34129        0.36438        0.36284        0.42435        0.39113        0.34065        0.34986        0.30045        0.29520        0.32727        0.32063        0.33125        0.34408        0.34416        0.38846        0.33135        0.33037        0.33924        0.35002        0.30523        0.31342        0.28312        0.30355        0.33222        0.30469        0.33272        0.35955        0.37173        0.29999        0.34434        0.30041        0.29308        0.27972        0.24763        0.30854        0.30818        0.34342        0.34039        0.34564        0.32844        0.34999        0.31573        0.34651        0.30627        0.32660        0.29348        0.33772        0.33190        0.37380        0.33225        0.33724        0.33748        0.29363        0.27669        0.31334        0.25105        0.23008        0.34141        0.32414        0.36840        0.34807        0.36410        0.33660        0.33436        0.35234        0.26681        0.27032        0.31997        0.30191        0.31149        0.31462        0.33961        0.32942        0.28893        0.29149        0.34619        0.32262        0.32310        0.29982        0.32205        0.33810        0.39310        0.36415        0.32081        0.28346        0.30366        0.29027        0.30843        0.27938        0.27243        0.31324        0.32972        0.34592        0.35671        0.33260        0.29624        0.30187        0.27193        0.27906        0.25722        0.30657        0.26064        0.24957        0.28913        0.28435        0.26298        0.29418        0.22043        0.21669        0.23865        0.19455        0.27455        0.34962        0.25413        0.24528        0.31904        0.30154        0.30929        0.31432        0.27441        0.25227        0.19485        0.21145        0.20877        0.28408        0.23716        0.28445        0.36484        0.37197        0.25589        0.18008        0.12788       -0.01556       -0.13287       -0.62657
2.809716 2.779894 2.750234 2.720736 2.691401 2.662228 2.633218 2.604370 2.575684 2.547161 2.518800 2.490602 2.462566 2.434693 2.406982 2.379433 2.352047 2.324824 2.297762 2.270863 2.244127 2.217553 2.191142 2.164892 2.138806 2.112882 2.087120 2.061520 2.036083 2.010809 1.985697 1.960747 1.935960 1.911335 1.886872 1.862572 1.838435 1.814460 1.790647 1.766997 1.743509 1.720184 1.697021 1.674020 1.651182 1.628506 1.605993 1.583642 1.561454 1.539428 1.517564 1.736047 2.162954 1.717453 1.194776 1.057446 0.456108 0.853226 0.562912 0.848281 0.818448 0.821420 0.760090 0.758876 0.599220 0.563189 0.503330 0.428594 0.250324 0.365406 0.199436 0.331330 0.219111 0.211577 0.186083 0.041812 0.001389 0.018884 -0.070284 0.133711 0.234113 0.189295 0.180308 0.325018 0.184336 0.524224 0.627989 0.638054 0.655063 0.881210 0.839700 0.948361 0.945351 1.041973 1.012018 1.094429 1.177471 1.049468 1.172777 0.914359 0.934292 0.800433 0.657334 0.813325 0.698497 0.499884 0.335110 0.252681 0.271462 0.149872 0.138722 0.167182 0.109937 0.119418 0.083435 0.249286 0.351696 0.342702 0.479220 0.547354 0.418595 0.597542 0.735234 0.647805 0.722754 0.713048 0.722222 0.648554 0.598511 0.491856 0.368519 0.277891 0.220704 0.092550 0.116708 -0.117607 -0.049408 -0.063552 -0.084956 -0.017938 0.128833 0.071750 0.243434 0.308707 0.337614 0.374088 0.497462 0.466800 0.480551 0.491833 0.306121 0.294331 0.287697 0.086675 0.046069 -0.082549 -0.015856 -0.063087 -0.097371 -0.070496 0.040559 0.095542 0.127103 0.226698 0.223622 0.220677 0.316161 0.342586 0.447228 0.256931 0.232872 0.227766 0.144047 0.145797 0.119937 -0.004595 0.014933 0.077444 -0.010622 0.045079 0.134193 0.135768 0.213800 0.233893 0.258686 0.161419 0.212090 0.128899 0.126723 0.115037 0.027221 -0.026447 -0.001231 -0.020497 -0.052115 0.055763 0.004270 0.106801 0.138613 0.194545 0.164247 0.117985 0.140663 0.159904 0.110239 0.035837 -0.025886 0.028446 0.029099 -0.044158 0.038350 0.020200 0.048139 0.039595 0.055542 0.019751 0.139775 0.118738 0.046798 0.037225 0.042151 0.005318 -0.030766 0.008629 0.004178 -0.004332 0.002995 0.057549 0.053860 0.038799 0.073610 0.061290 0.164665 0.063985 0.041807 0.043544 -0.034885 0.012290 0.047550 0.007799 0.032734 0.056172 0.081348 0.050117 0.041647 0.007987 0.079797 0.027279 0.020628 0.024670 -0.006231 0.032253 0.026696 0.020631 0.069544 0.075936 0.078069 0.041987 0.053176 0.022735 0.015170 -0.024242 -0.024933 0.037051 0.052771 0.080745 0.081326 0.067117 0.070733 0.097484 0.042697 0.090303 0.056943 0.044882 0.018276 0.104454 0.062814 0.125430 0.065884 0.067497 0.096979 0.030588 0.002678 0.085514 -0.040238 -0.029185 0.093419 0.043224 0.159353 0.091858 0.088835 0.065664 0.031396 0.090417 -0.027219 -0.024597 0.047618 0.033085 0.032504 0.017641 0.101930 0.030505 -0.013768 0.049457 0.040721 0.053561 0.056233 -0.009564 0.056800 0.049746 0.116734 0.057296 0.027560 -0.029819 -0.028375 -0.004872 0.008438 -0.057542 -0.021303 0.000526 0.016563 0.035118 0.059408 0.004993 -0.032628 -0.029454 -0.018670 -0.067067 -0.046054 -0.035080 -0.131207 -0.095493 -0.060021 -0.095322 -0.106087 -0.027359 -0.153921 -0.104752 -0.115677 -0.189839 -0.069605 0.061234 -0.074670 -0.136209 0.051034 0.028132 -0.027829 0.072401 -0.023847 -0.004118 -0.084571 -0.039588 0.047672 0.130801 0.053641 0.138648 0.168688 0.437735 0.239645 0.325355 0.163347 -0.021258 -0.701804
0.072396 0.072899 0.074408 0.076923 0.080443 0.084966 0.090493 0.097021 0.104548 0.113071 0.122588 0.133093 0.144581 0.157046 0.170480 0.184874 0.200217 0.216495 0.233695 0.251799 0.270785 0.290633 0.311315 0.332802 0.355060 0.378053 0.401740 0.426073 0.451002 0.476472 0.502420 0.528780 0.555478 0.582436 0.609568 0.636781 0.663979 0.691054 0.717895 0.744384 0.770393 0.795790 0.820436 0.844186 0.866888 0.888385 0.908514 0.927107 0.943995 0.959002 0.971952 0.982666 0.990967 0.996676 0.999620 0.999625 0.996526 0.990164 0.980388 0.967059 0.950048 0.929244 0.904550 0.875889 0.843207 0.806469 0.765671 0.720832 0.672004 0.619270 0.562747 0.502587 0.438980 0.372154 0.302377 0.229958 0.155243 0.078624 0.000527 0.078579 0.158188 0.237760 0.316722 0.394472 0.470382 0.543804 0.614073 0.680516 0.742458 0.799226 0.850160 0.894620 0.931996 0.961714 0.983250 0.996134 0.999965 0.994417 0.979250 0.954317 0.919574 0.875087 0.821038 0.757732 0.685599 0.605196 0.517211 0.422460 0.321883 0.216540 0.107602 0.003656 0.115870 0.227603 0.337357 0.443598 0.544774 0.639339 0.725779 0.802637 0.868539 0.922227 0.962579 0.988642 0.999655 0.995073 0.974592 0.938163 0.886010 0.818644 0.736859 0.641744 0.534673 0.417291 0.291500 0.159435 0.023431 0.114012 0.250275 0.382662 0.508460 0.624994 0.729685 0.820113 0.894076 0.949653 0.985262 0.999709 0.992238 0.962568 0.910923 0.838050 0.745226 0.634251 0.507428 0.367525 0.217728 0.061579 0.097107 0.254322 0.405971 0.547978 0.676395 0.787523 0.878020 0.945017 0.986220 0.999998 0.985463 0.942523 0.871925 0.775262 0.654959 0.514239 0.357045 0.187952 0.012041 0.165241 0.338249 0.501314 0.648937 0.775978 0.877849 0.950688 0.991530 0.998440 0.970622 0.908496 0.813725 0.689199 0.538980 0.368189 0.182851 0.010298 0.204049 0.390976 0.563736 0.715347 0.839492 0.930796 0.985078 0.999571 0.973082 0.906102 0.800840 0.661192 0.492631 0.302015 0.097335 0.112595 0.318519 0.511138 0.681535 0.821602 0.924447 0.984755 0.999095 0.966148 0.886837 0.764356 0.604089 0.413407 0.201370 0.021689 0.244637 0.456101 0.645044 0.801358 0.916424 0.983620 0.998737 0.960284 0.869651 0.731120 0.551715 0.340894 0.110084 0.127908 0.359599 0.571574 0.751293 0.887837 0.972616 0.999949 0.967489 0.876464 0.731707 0.541454 0.316939 0.071766 0.178887 0.419184 0.633638 0.808120 0.930828 0.993117 0.990169 0.921420 0.790709 0.606145 0.379667 0.126318 0.136700 0.391192 0.619206 0.804327 0.932893 0.995044 0.985544 0.904287 0.756437 0.552186 0.306117 0.036220 0.237378 0.493898 0.713496 0.878825 0.976445 0.997987 0.940938 0.808994 0.611912 0.364879 0.087411 0.198144 0.468382 0.700764 0.875505 0.977339 0.996902 0.931681 0.786404 0.572791 0.308713 0.016766 0.277625 0.548369 0.771067 0.925223 0.996213 0.976746 0.867713 0.678293 0.425289 0.131734 0.175144 0.466415 0.714159 0.894191 0.988475 0.987028 0.889077 0.703343 0.447395 0.146073 0.170821 0.471446 0.725120 0.905473 0.993278 0.978592 0.861994 0.654763 0.377912 0.060165 0.264944 0.562576 0.800340 0.951857 0.999783 0.937920 0.772128 0.519936 0.208810 0.126726 0.448873 0.720791 0.910874 0.996479 0.966767 0.824199 0.584530 0.275205 0.067649 0.403384 0.691623 0.897145 0.994282 0.970245 0.826962 0.581131 0.262432 0.089919 0.431930 0.720298 0.917934 0.998832 0.951634 0.781377 0.509178 0.169748 0.192872
1.000000 1.000000 1.000000 1.000000 1.000000 1.000000 1.000000 1.000000 1.000000 1.000000 1.000000 1.000000 1.000000 1.000000 1.000000 1.000000 1.000000 1.000000 1.000000 1.000000 1.000000 1.000000 1.000000 1.000000 1.000000 1.000000 1.000000 1.000000 1.000000 1.000000 1.000000 1.000000 1.000000 1.000000 1.000000 1.000000 1.000000 1.000000 1.000000 1.000000 1.000000 1.000000 1.000000 1.000000 1.000000 1.000000 1.000000 1.000000 1.000000 1.000000 1.000000 1.000000 0.915610 0.915610 0.915610 0.911195 0.911195 0.911195 0.911195 0.911195 0.911195 0.911195 0.911195 0.911195 0.911195 0.911195 0.911195 0.911195 0.911195 0.911195 0.911195 0.911195 0.911195 0.911195 0.911195 0.911195 0.911195 0.911195 0.911195 0.911195 0.911195 0.911195 0.911195 0.911195 0.911195 0.911195 0.911195 0.911195 0.911195 0.911195 0.911195 0.911195 0.911195 0.911195 0.911195 0.911195 0.939656 0.941093 0.949437 0.948972 0.948427 0.946437 0.945176 0.944963 0.944875 0.945227 0.945963 0.946959 0.953182 0.954119 0.958532 0.961250 0.961221 0.962958 0.964923 0.964561 0.956243 0.955999 0.954568 0.953838 0.955949 0.954579 0.953341 0.953812 0.953429 0.955852 0.955411 0.954193 0.952542 0.950937 0.949635 0.949081 0.948848 0.949653 0.949731 0.951306 0.954334 0.954494 0.954230 0.951470 0.951086 0.952291 0.951729 0.953549 0.941382 0.940727 0.939259 0.939257 0.941857 0.941750 0.941651 0.942555 0.942256 0.942177 0.942323 0.935651 0.935402 0.927911 0.924259 0.922819 0.917379 0.913314 0.915961 0.918588 0.919799 0.920251 0.911022 0.908095 0.909051 0.907876 0.909343 0.909247 0.910357 0.910751 0.910677 0.905535 0.895834 0.894198 0.886138 0.888855 0.885467 0.882820 0.879869 0.871084 0.862608 0.874689 0.861778 0.820181 0.823870 0.828295 0.820363 0.816431 0.817319 0.818833 0.823816 0.817861 0.816538 0.810595 0.797362 0.792616 0.785106 0.771307 0.769049 0.760073 0.749668 0.743771 0.767587 0.761172 0.772921 0.777305 0.776885 0.773392 0.764291 0.753469 0.753726 0.749063 0.744753 0.721305 0.713623 0.713757 0.711129 0.698854 0.702020 0.690231 0.690369 0.677642 0.682393 0.688067 0.691306 0.687286 0.680816 0.672345 0.668545 0.681893 0.695964 0.687963 0.683941 0.690178 0.680620 0.675906 0.668479 0.672573 0.664866 0.656754 0.658932 0.692836 0.664960 0.654546 0.661733 0.663662 0.660205 0.660826 0.640415 0.634316 0.611384 0.628669 0.634015 0.650627 0.651624 0.654069 0.664904 0.670746 0.681487 0.686110 0.684778 0.644757 0.648911 0.667342 0.675015 0.663662 0.653573 0.653486 0.646963 0.683620 0.668240 0.626117 0.622077 0.621246 0.577065 0.556335 0.554618 0.556834 0.584041 0.580743 0.562773 0.536725 0.538507 0.539635 0.537676 0.536041 0.521202 0.528714 0.513412 0.489644 0.501751 0.509608 0.507975 0.491996 0.485527 0.499100 0.477731 0.505224 0.481518 0.463194 0.480032 0.478720 0.466614 0.394507 0.402823 0.392295 0.377980 0.333736 0.343217 0.353044 0.335007 0.259959 0.254173 0.254904 0.251384 0.231335 0.208156 0.194821 0.184389 0.161933 0.101437 0.052509 0.054189 0.057981 0.084628 0.044083 0.098377 0.166667 0.164529 0.164529 0.164529 0.164529 0.164529 0.164529 0.164529 0.164529 0.140455 0.140455 0.140455 0.140455 0.140455 0.140455 0.140455 0.140455 0.140455 0.164529 0.164529 0.164529 0.164529 0.164529 0.164529 0.164529 0.164529 0.164529 0.164529 0.164529 0.164529 0.164529 0.164529
0.000000 0.000000 0.000000 0.000000 0.000000 0.000000 0.000000 0.000000 0.000000 0.000000 0.000000 0.000000 0.000000 0.000000 0.000000 0.000000 0.000000 0.000000 0.000000 0.000000 0.000000 0.000000 0.000000 0.000000 0.000000 0.000000 0.000000 0.000000 0.000000 0.000000 0.000000 0.000000 0.000000 0.000000 0.000000 0.000000 0.000000 0.000000 0.000000 0.000000 0.000000 0.000000 0.000000 0.000000 0.000000 0.000000 0.000000 0.000000 0.000000 0.000000 0.000000 0.000000 0.180334 0.180334 0.180334 0.199007 0.199007 0.199007 0.199007 0.199007 0.199007 0.199007 0.199007 0.199007 0.199007 0.199007 0.199007 0.199007 0.199007 0.199007 0.199007 0.199007 0.199007 0.199007 0.199007 0.199007 0.199007 0.199007 0.199007 0.199007 0.199007 0.199007 0.199007 0.199007 0.199007 0.199007 0.199007 0.199007 0.199007 0.199007 0.199007 0.199007 0.199007 0.199007 0.199007 0.199007 0.225018 0.225018 0.225018 0.225018 0.225018 0.225018 0.225018 0.225018 0.225018 0.225018 0.225018 0.225018 0.225018 0.225018 0.225018 0.225018 0.225018 0.225018 0.225018 0.225018 0.225018 0.225018 0.225018 0.225018 0.225018 0.225018 0.225018 0.225018 0.225018 0.244339 0.244339 0.244339 0.244339 0.244339 0.244339 0.244339 0.244339 0.244339 0.244339 0.244339 0.244339 0.244339 0.244339 0.244339 0.244339 0.244339 0.244339 0.244339 0.244339 0.244339 0.244339 0.244339 0.256074 0.256074 0.256074 0.256074 0.256074 0.256074 0.256074 0.256074 0.256074 0.256074 0.256074 0.256074 0.256074 0.256074 0.256074 0.256074 0.256074 0.256074 0.256074 0.256074 0.256074 0.256074 0.256074 0.256074 0.256074 0.256074 0.256074 0.256074 0.256074 0.256074 0.256074 0.256074 0.256074 0.256074 0.256074 0.256074 0.256074 0.264906 0.264906 0.264906 0.264906 0.264906 0.264906 0.264906 0.264906 0.264906 0.264906 0.264906 0.264906 0.264906 0.264906 0.264906 0.264906 0.264906 0.264906 0.264906 0.264906 0.264906 0.264906 0.264906 0.264906 0.264906 0.264906 0.264906 0.264906 0.264906 0.264906 0.264906 0.264906 0.264906 0.264906 0.264906 0.264906 0.264906 0.264906 0.264906 0.264906 0.264906 0.264906 0.264906 0.264906 0.264906 0.264906 0.264906 0.264906 0.264906 0.264906 0.264906 0.264906 0.264906 0.264906 0.264906 0.264906 0.264906 0.264906 0.260378 0.260378 0.260378 0.260378 0.260378 0.260378 0.260378 0.260378 0.260378 0.260378 0.260378 0.260378 0.260378 0.264906 0.264906 0.264906 0.264906 0.264906 0.264906 0.264906 0.264906 0.264906 0.264906 0.264906 0.264906 0.269680 0.269680 0.269680 0.269680 0.269680 0.269680 0.269680 0.269680 0.269680 0.269680 0.269680 0.264906 0.264906 0.264906 0.264906 0.264906 0.264906 0.264906 0.264906 0.264906 0.264906 0.264906 0.256074 0.256074 0.256074 0.256074 0.256074 0.256074 0.256074 0.256074 0.256074 0.256074 0.256074 0.264906 0.264906 0.264906 0.264906 0.264906 0.264906 0.264906 0.264906 0.264906 0.264906 0.260378 0.260378 0.260378 0.260378 0.260378 0.260378 0.260378 0.260378 0.260378 0.260378 0.264906 0.264906 0.264906 0.264906 0.264906 0.264906 0.264906 0.264906 0.264906 0.251976 0.251976 0.251976 0.251976 0.251976 0.251976 0.251976 0.251976 0.251976 0.251976 0.256074 0.256074 0.256074 0.256074 0.256074 0.256074 0.256074 0.256074 0.256074 0.251976 0.251976 0.251976 0.251976 0.251976 0.251976 0.251976 0.251976 0.251976 0.251976 0.251976 0.251976 0.251976 0.251976
