# Output from CTFFind version 4.1.9, run on 2019-11-02 17:43:41
# Input file: stack16_bm3d_averaged_1_1.5_0_50_half.mrc ; Number of micrographs: 1
# Pixel size: 3.000 Angstroms ; acceleration voltage: 300.0 keV ; spherical aberration: 0.00 mm ; amplitude contrast: 0.07
# Box size: 512 pixels ; min. res.: 30.0 Angstroms ; max. res.: 5.0 Angstroms ; min. def.: 5000.0 um; max. def. 50000.0 um; num. frames averaged: 1
# 6 lines per micrograph: #1 - spatial frequency (1/Angstroms); #2 - 1D rotational average of spectrum (assuming no astigmatism); #3 - 1D rotational average of spectrum; #4 - CTF fit; #5 - cross-correlation between spectrum and CTF fit; #6 - 2sigma of expected cross correlation of noise
0.000000 0.000651 0.001302 0.001953 0.002604 0.003255 0.003906 0.004557 0.005208 0.005859 0.006510 0.007161 0.007812 0.008464 0.009115 0.009766 0.010417 0.011068 0.011719 0.012370 0.013021 0.013672 0.014323 0.014974 0.015625 0.016276 0.016927 0.017578 0.018229 0.018880 0.019531 0.020182 0.020833 0.021484 0.022135 0.022786 0.023438 0.024089 0.024740 0.025391 0.026042 0.026693 0.027344 0.027995 0.028646 0.029297 0.029948 0.030599 0.031250 0.031901 0.032552 0.033203 0.033854 0.034505 0.035156 0.035807 0.036458 0.037109 0.037760 0.038411 0.039062 0.039714 0.040365 0.041016 0.041667 0.042318 0.042969 0.043620 0.044271 0.044922 0.045573 0.046224 0.046875 0.047526 0.048177 0.048828 0.049479 0.050130 0.050781 0.051432 0.052083 0.052734 0.053385 0.054036 0.054688 0.055339 0.055990 0.056641 0.057292 0.057943 0.058594 0.059245 0.059896 0.060547 0.061198 0.061849 0.062500 0.063151 0.063802 0.064453 0.065104 0.065755 0.066406 0.067057 0.067708 0.068359 0.069010 0.069661 0.070312 0.070964 0.071615 0.072266 0.072917 0.073568 0.074219 0.074870 0.075521 0.076172 0.076823 0.077474 0.078125 0.078776 0.079427 0.080078 0.080729 0.081380 0.082031 0.082682 0.083333 0.083984 0.084635 0.085286 0.085938 0.086589 0.087240 0.087891 0.088542 0.089193 0.089844 0.090495 0.091146 0.091797 0.092448 0.093099 0.093750 0.094401 0.095052 0.095703 0.096354 0.097005 0.097656 0.098307 0.098958 0.099609 0.100260 0.100911 0.101562 0.102214 0.102865 0.103516 0.104167 0.104818 0.105469 0.106120 0.106771 0.107422 0.108073 0.108724 0.109375 0.110026 0.110677 0.111328 0.111979 0.112630 0.113281 0.113932 0.114583 0.115234 0.115885 0.116536 0.117188 0.117839 0.118490 0.119141 0.119792 0.120443 0.121094 0.121745 0.122396 0.123047 0.123698 0.124349 0.125000 0.125651 0.126302 0.126953 0.127604 0.128255 0.128906 0.129557 0.130208 0.130859 0.131510 0.132161 0.132812 0.133464 0.134115 0.134766 0.135417 0.136068 0.136719 0.137370 0.138021 0.138672 0.139323 0.139974 0.140625 0.141276 0.141927 0.142578 0.143229 0.143880 0.144531 0.145182 0.145833 0.146484 0.147135 0.147786 0.148438 0.149089 0.149740 0.150391 0.151042 0.151693 0.152344 0.152995 0.153646 0.154297 0.154948 0.155599 0.156250 0.156901 0.157552 0.158203 0.158854 0.159505 0.160156 0.160807 0.161458 0.162109 0.162760 0.163411 0.164062 0.164714 0.165365 0.166016 0.166667 0.167318 0.167969 0.168620 0.169271 0.169922 0.170573 0.171224 0.171875 0.172526 0.173177 0.173828 0.174479 0.175130 0.175781 0.176432 0.177083 0.177734 0.178385 0.179036 0.179688 0.180339 0.180990 0.181641 0.182292 0.182943 0.183594 0.184245 0.184896 0.185547 0.186198 0.186849 0.187500 0.188151 0.188802 0.189453 0.190104 0.190755 0.191406 0.192057 0.192708 0.193359 0.194010 0.194661 0.195312 0.195964 0.196615 0.197266 0.197917 0.198568 0.199219 0.199870 0.200521 0.201172 0.201823 0.202474 0.203125 0.203776 0.204427 0.205078 0.205729 0.206380 0.207031 0.207682 0.208333 0.208984 0.209635 0.210286 0.210938 0.211589 0.212240 0.212891 0.213542 0.214193 0.214844 0.215495 0.216146 0.216797 0.217448 0.218099 0.218750 0.219401 0.220052 0.220703 0.221354 0.222005 0.222656 0.223307 0.223958 0.224609 0.225260 0.225911 0.226562 0.227214 0.227865 0.228516 0.229167 0.229818 0.230469 0.231120 0.231771 0.232422 0.233073 0.233724 0.234375 0.235026 0.235677
       0.33910        0.33910        0.33910        0.33910        0.33910        0.33910        0.33910        0.33910        0.33910        0.33910        0.33910        0.33910        0.33910        0.33910        0.33910        0.33910        0.33910        0.33910        0.33910        0.33910        0.33910        0.33910        0.33910        0.33910        0.33910        0.33910        0.33910        0.33910        0.33910        0.33910        0.33910        0.33910        0.33910        0.33910        0.33910        0.33910        0.33910        0.33910        0.33910        0.33910        0.33910        0.33910        0.33910        0.33910        0.33910        0.33910        0.33910        0.33910        0.33910        0.33910        0.33910        0.48479        0.69528        0.45426       -0.11889       -0.41506       -0.57670       -0.66872       -0.74805       -0.76554       -0.87255       -0.92017       -0.76080       -0.92771       -0.87556       -1.02809       -1.10416       -0.99162       -0.96602       -0.88634       -0.85551       -0.75061       -0.64366       -0.50265       -0.42810       -0.22374       -0.11743       -0.02397        0.19900        0.23968        0.30398        0.37506        0.43112        0.50884        0.57308        0.59470        0.58512        0.49526        0.54025        0.48182        0.39202        0.31950        0.19814        0.16460        0.09259       -0.05798       -0.11113       -0.09343        0.01121       -0.01685        0.01921        0.02315        0.20082        0.21526        0.38870        0.45202        0.55654        0.69002        0.75526        0.73049        0.69484        0.68879        0.57503        0.52965        0.39438        0.27072        0.19133        0.14857        0.06695        0.02878        0.02105        0.06265        0.07766        0.27265        0.41297        0.50385        0.58747        0.63450        0.69442        0.65313        0.64844        0.66383        0.60076        0.47922        0.28415        0.23814        0.20499        0.12441        0.03752        0.08858        0.11274        0.24591        0.34383        0.41363        0.50013        0.53693        0.65164        0.59891        0.54831        0.51180        0.35683        0.20473        0.21147        0.15210        0.12073        0.12379        0.21325        0.24939        0.34893        0.43711        0.43264        0.54388        0.50202        0.45349        0.45749        0.37452        0.32168        0.26893        0.20836        0.22759        0.20955        0.19890        0.30835        0.45072        0.47856        0.48242        0.55334        0.49311        0.44868        0.39255        0.29698        0.22696        0.23092        0.23423        0.26081        0.27776        0.32620        0.43732        0.49798        0.48635        0.45751        0.40686        0.38424        0.35632        0.24760        0.21803        0.24490        0.29141        0.35692        0.35599        0.38629        0.41489        0.43716        0.37019        0.34544        0.31189        0.30778        0.26971        0.25621        0.29734        0.34459        0.40847        0.41312        0.38796        0.38880        0.39667        0.34327        0.28510        0.29580        0.28734        0.30297        0.35378        0.37377        0.41594        0.35135        0.36010        0.38221        0.34078        0.31247        0.28075        0.29030        0.33558        0.31857        0.31844        0.36094        0.38396        0.32672        0.34904        0.30154        0.30662        0.28045        0.27991        0.29678        0.32627        0.38154        0.36014        0.34114        0.31825        0.27968        0.27010        0.29220        0.27920        0.31375        0.36191        0.39217        0.33115        0.31834        0.30418        0.29947        0.29029        0.28243        0.30280        0.33435        0.33401        0.33622        0.31452        0.34659        0.31738        0.28903        0.31109        0.31728        0.33869        0.34724        0.31610        0.30739        0.29507        0.32048        0.30571        0.33271        0.38357        0.32119        0.35774        0.31189        0.30155        0.29040        0.30535        0.29195        0.30392        0.31009        0.33928        0.35175        0.30167        0.31750        0.31589        0.29481        0.28686        0.29793        0.31839        0.34769        0.34976        0.32445        0.30950        0.26731        0.24894        0.31445        0.34051        0.32286        0.29471        0.27214        0.28584        0.32499        0.31553        0.30692        0.33539        0.32932        0.29651        0.23692        0.28377        0.28374        0.28153        0.32831        0.32497        0.34315        0.34044        0.28680        0.27359        0.29332        0.27464        0.29967        0.26905        0.25623        0.25236        0.26246        0.28501        0.29664        0.28382        0.25473        0.31941        0.31653        0.30407        0.26453        0.26745        0.23166        0.24976        0.24394        0.30994        0.35585        0.23430        0.23725        0.26911        0.23329        0.22732        0.30217        0.23072        0.13629        0.17581        0.22220        0.27281        0.22310        0.10207        0.08585       -0.42135       -0.81598
3.069778 3.031546 2.993560 2.955820 2.918326 2.881079 2.844077 2.807322 2.770812 2.734549 2.698532 2.662760 2.627235 2.591956 2.556923 2.522136 2.487595 2.453300 2.419252 2.385449 2.351892 2.318582 2.285517 2.252699 2.220127 2.187800 2.155720 2.123886 2.092298 2.060956 2.029860 1.999010 1.968406 1.938049 1.907937 1.878071 1.848452 1.819078 1.789951 1.761070 1.732434 1.704045 1.675902 1.648005 1.620354 1.592949 1.565790 1.538877 1.512211 1.485790 1.459615 1.520364 1.699594 1.620796 0.963403 0.686356 0.477038 0.426641 0.324168 0.263034 0.201682 0.017285 0.199099 0.081648 -0.010584 -0.058297 -0.204129 -0.155578 -0.091121 -0.093110 -0.092543 0.011712 0.031584 0.233293 0.149469 0.362751 0.447582 0.481068 0.715160 0.700061 0.708929 0.834120 0.819285 0.849345 0.919732 0.897461 0.937465 0.750621 0.834709 0.838964 0.628565 0.605105 0.453812 0.434831 0.374068 0.214059 0.123876 0.098023 0.210161 0.144191 0.205862 0.113638 0.301576 0.287036 0.457914 0.412331 0.582768 0.638973 0.755499 0.703504 0.659927 0.657838 0.523884 0.500054 0.358800 0.294493 0.118493 0.148140 0.006095 -0.006208 -0.038747 -0.027458 -0.001903 0.033697 0.280072 0.326711 0.391963 0.395870 0.462481 0.513649 0.473872 0.503499 0.395178 0.391704 0.153964 0.076103 0.078135 -0.006487 -0.129243 -0.045278 -0.115414 0.014213 0.137757 0.161144 0.256949 0.258555 0.378710 0.462271 0.347520 0.398568 0.282860 0.124696 0.052117 0.053132 0.024013 0.008632 0.012712 0.111154 0.121650 0.265386 0.238012 0.299808 0.358792 0.244847 0.253051 0.222407 0.130122 0.086858 0.043156 0.028533 0.039328 -0.014351 0.020886 0.184290 0.226650 0.246791 0.291603 0.231317 0.243729 0.143179 0.114316 -0.016022 -0.013149 -0.006941 0.012952 0.014213 0.032208 0.104464 0.193671 0.200876 0.229595 0.130906 0.141930 0.078261 0.061906 -0.064347 -0.019154 0.000313 0.058286 0.067077 0.069675 0.150750 0.097940 0.162524 0.065997 0.051893 0.044326 0.031003 0.006837 0.001486 0.042504 0.087588 0.122778 0.134652 0.064842 0.120936 0.091055 0.009467 0.010777 0.009736 0.000556 0.045192 0.060026 0.104209 0.096981 0.054249 0.071944 0.074265 0.033498 0.015708 -0.015042 0.006840 0.059202 0.015874 0.033056 0.074571 0.078615 0.056871 0.034796 0.019402 0.015671 -0.009043 -0.006950 0.010138 0.055018 0.108631 0.058122 0.055324 0.032607 -0.013543 -0.006683 0.018328 0.012270 0.031707 0.103642 0.067229 0.015726 0.048781 0.001477 0.032169 -0.004963 0.005474 0.027045 0.057599 0.037631 0.042902 0.028440 0.054086 0.022548 -0.001948 0.028401 0.035498 0.050483 0.050368 0.023295 -0.007824 -0.015565 0.026260 0.002290 0.048730 0.070010 0.033034 0.033329 0.002774 -0.001010 -0.009260 0.012633 0.004862 0.008823 -0.006842 0.068527 0.043962 0.025242 0.041570 0.001291 0.012863 0.000725 0.004117 0.042859 0.067865 0.070511 0.040865 0.035897 -0.021561 -0.007937 0.031711 0.066955 0.037055 0.033191 -0.010931 0.006100 0.049446 0.054419 0.028080 0.063052 0.054119 0.031134 -0.032175 0.012105 0.038428 0.010492 0.042092 0.077013 0.074990 0.058813 0.019118 0.007920 0.011558 0.000060 0.034888 -0.029538 -0.009034 -0.034159 -0.037102 0.001999 0.002464 0.017129 -0.083535 0.016405 0.000311 -0.011829 -0.055638 -0.013271 -0.100438 -0.035966 -0.063367 0.009379 0.070540 -0.105693 -0.048869 0.025329 -0.015767 -0.065876 0.045229 0.011358 -0.045399 -0.048349 0.025301 0.239416 0.201754 0.031662 0.079057 -0.718861
0.072396 0.073046 0.074995 0.078242 0.082787 0.088628 0.095763 0.104189 0.113902 0.124897 0.137167 0.150704 0.165498 0.181536 0.198803 0.217280 0.236946 0.257774 0.279734 0.302791 0.326903 0.352024 0.378100 0.405071 0.432869 0.461417 0.490632 0.520417 0.550670 0.581277 0.612114 0.643044 0.673923 0.704592 0.734882 0.764612 0.793592 0.821618 0.848476 0.873944 0.897787 0.919766 0.939631 0.957129 0.971999 0.983982 0.992815 0.998238 0.999997 0.997842 0.991537 0.980856 0.965593 0.945562 0.920600 0.890576 0.855390 0.814980 0.769324 0.718447 0.662423 0.601380 0.535503 0.465038 0.390291 0.311637 0.229516 0.144436 0.056971 0.032236 0.122479 0.212993 0.302952 0.391484 0.477670 0.560560 0.639175 0.712526 0.779621 0.839483 0.891165 0.933762 0.966433 0.988417 0.999051 0.997788 0.984214 0.958069 0.919257 0.867865 0.804174 0.728671 0.642051 0.545227 0.439324 0.325678 0.205827 0.081496 0.045423 0.172894 0.298765 0.420805 0.536740 0.644301 0.741264 0.825505 0.895050 0.948128 0.983221 0.999114 0.994947 0.970251 0.924987 0.859573 0.774903 0.672358 0.553793 0.421532 0.278327 0.127321 0.028016 0.183957 0.336600 0.481969 0.616114 0.735226 0.835754 0.914517 0.968820 0.996561 0.996325 0.967468 0.910173 0.825494 0.715367 0.582597 0.430808 0.264370 0.088298 0.091898 0.270365 0.441095 0.598133 0.735783 0.848835 0.932775 0.983987 0.999932 0.979299 0.922109 0.829786 0.705160 0.552425 0.377033 0.185526 0.014679 0.215563 0.408820 0.586196 0.739854 0.862735 0.948908 0.993886 0.994896 0.951078 0.863613 0.735752 0.572749 0.381697 0.171257 0.048704 0.267555 0.474406 0.658653 0.810536 0.921688 0.985628 0.998188 0.957826 0.865819 0.726301 0.546155 0.334716 0.103354 0.135115 0.367111 0.579059 0.758202 0.893388 0.975814 0.999649 0.962509 0.865734 0.714439 0.517326 0.286263 0.035615 0.218604 0.459729 0.671553 0.839420 0.951302 0.998708 0.977406 0.887870 0.735407 0.529946 0.285476 0.019166 0.249798 0.501571 0.717118 0.879688 0.976171 0.998236 0.943132 0.814095 0.620287 0.376247 0.100905 0.183842 0.454818 0.689460 0.867733 0.973895 0.997985 0.936852 0.794648 0.582692 0.318685 0.025340 0.271507 0.545146 0.770401 0.926002 0.996672 0.974747 0.861120 0.665413 0.405316 0.105103 0.206534 0.499190 0.743708 0.915133 0.995355 0.975145 0.855349 0.647101 0.370941 0.054941 0.268071 0.563858 0.800431 0.951563 0.999819 0.938712 0.773724 0.522024 0.210847 0.125313 0.448446 0.721327 0.911825 0.996818 0.965144 0.819246 0.575235 0.261316 0.085319 0.422802 0.709613 0.909744 0.997329 0.960163 0.801596 0.540501 0.209241 0.150165 0.491290 0.769278 0.946804 0.999236 0.918254 0.713371 0.411084 0.051663 0.316060 0.641257 0.878160 0.992612 0.967197 0.804112 0.525331 0.169895 0.211350 0.562943 0.832846 0.980269 0.982020 0.836401 0.563969 0.204919 0.186622 0.550637 0.830409 0.981444 0.978781 0.821369 0.532781 0.157997 0.243398 0.606537 0.871782 0.994645 0.953484 0.753618 0.427028 0.027550 0.377777 0.719892 0.939512 0.997602 0.882603 0.613043 0.234923 0.185839 0.574753 0.861885 0.994613 0.947512 0.727571 0.373603 0.050278 0.466026 0.795956 0.977378 0.974729 0.786924 0.448242 0.022489 0.408783 0.761767 0.966764 0.982197 0.803408 0.464323 0.031434 0.408937 0.767755 0.971307 0.976654 0.781049 0.423314 0.023446 0.466475 0.812513 0.987562 0.952979 0.714463 0.321673 0.141699 0.575445
1.000000 1.000000 1.000000 1.000000 1.000000 1.000000 1.000000 1.000000 1.000000 1.000000 1.000000 1.000000 1.000000 1.000000 1.000000 1.000000 1.000000 1.000000 1.000000 1.000000 1.000000 1.000000 1.000000 1.000000 1.000000 1.000000 1.000000 1.000000 1.000000 1.000000 1.000000 1.000000 1.000000 1.000000 1.000000 1.000000 1.000000 1.000000 1.000000 1.000000 1.000000 1.000000 1.000000 1.000000 1.000000 1.000000 1.000000 1.000000 1.000000 1.000000 1.000000 1.000000 0.932602 0.932602 0.932602 0.932602 0.932602 0.932602 0.932602 0.932602 0.932602 0.932602 0.932602 0.932602 0.932602 0.932602 0.932602 0.932602 0.932602 0.932602 0.932602 0.932602 0.932602 0.932602 0.932602 0.932602 0.932602 0.932602 0.932602 0.932602 0.932602 0.932602 0.932602 0.932602 0.932602 0.923289 0.924758 0.927705 0.928768 0.928730 0.928278 0.927966 0.928182 0.929889 0.932196 0.948809 0.950903 0.951467 0.952749 0.951436 0.954258 0.952483 0.952265 0.962810 0.961609 0.962332 0.955370 0.956970 0.956047 0.955113 0.955594 0.955853 0.953905 0.951737 0.950032 0.949384 0.949005 0.950780 0.951263 0.951223 0.951821 0.951682 0.951403 0.948041 0.946625 0.948116 0.950206 0.949311 0.954977 0.954757 0.962721 0.963504 0.962093 0.962002 0.962211 0.962417 0.954757 0.950511 0.946289 0.934939 0.926857 0.923936 0.926640 0.928176 0.927008 0.921485 0.920487 0.918370 0.913614 0.912767 0.911486 0.912787 0.906594 0.902849 0.886290 0.885353 0.888490 0.888983 0.886889 0.878396 0.873923 0.874865 0.877758 0.875541 0.872040 0.888264 0.881752 0.886422 0.889421 0.892472 0.896441 0.892766 0.890628 0.886583 0.882963 0.876359 0.877385 0.871259 0.874002 0.868318 0.859137 0.852150 0.854805 0.862704 0.871030 0.879246 0.878334 0.879051 0.878226 0.867580 0.869301 0.855622 0.856120 0.860901 0.866409 0.864554 0.862450 0.866872 0.864874 0.862787 0.866310 0.864530 0.862433 0.853266 0.854286 0.854574 0.870747 0.871022 0.857500 0.844484 0.832473 0.839787 0.843716 0.843215 0.844006 0.834140 0.836227 0.828733 0.814287 0.817579 0.823308 0.816060 0.816211 0.815119 0.820262 0.824798 0.823386 0.820488 0.819527 0.822951 0.790720 0.798360 0.799646 0.792688 0.797745 0.792678 0.784917 0.780493 0.778191 0.775671 0.787509 0.783912 0.751147 0.751219 0.758874 0.742703 0.730956 0.730220 0.731005 0.723960 0.714966 0.683604 0.677082 0.658936 0.660624 0.662564 0.645971 0.635515 0.623230 0.593185 0.602688 0.608930 0.581139 0.581528 0.572825 0.567361 0.562153 0.557813 0.557929 0.564552 0.568381 0.536845 0.531314 0.543904 0.516988 0.514449 0.513898 0.505911 0.485901 0.492360 0.486722 0.514528 0.533794 0.491208 0.480680 0.501302 0.517612 0.528197 0.528646 0.514130 0.493408 0.508559 0.485250 0.470272 0.482501 0.483898 0.474048 0.486623 0.481892 0.511431 0.500377 0.468123 0.491150 0.479268 0.479593 0.497747 0.511843 0.512776 0.514940 0.510354 0.454933 0.471417 0.462405 0.419872 0.438196 0.458581 0.448043 0.446424 0.417896 0.416553 0.386102 0.361340 0.352180 0.344568 0.300986 0.266488 0.272724 0.272546 0.241256 0.207087 0.224674 0.180816 0.172760 0.191598 0.192763 0.174709 0.182876 0.207689 0.207689 0.207689 0.207689 0.207689 0.207689 0.207689 0.207689 0.207689 0.207689 0.207689 0.207689 0.207689 0.207689 0.231893 0.231893 0.231893 0.231893 0.231893 0.231893 0.231893 0.231893 0.231893 0.231893 0.231893 0.231893
0.000000 0.000000 0.000000 0.000000 0.000000 0.000000 0.000000 0.000000 0.000000 0.000000 0.000000 0.000000 0.000000 0.000000 0.000000 0.000000 0.000000 0.000000 0.000000 0.000000 0.000000 0.000000 0.000000 0.000000 0.000000 0.000000 0.000000 0.000000 0.000000 0.000000 0.000000 0.000000 0.000000 0.000000 0.000000 0.000000 0.000000 0.000000 0.000000 0.000000 0.000000 0.000000 0.000000 0.000000 0.000000 0.000000 0.000000 0.000000 0.000000 0.000000 0.000000 0.000000 0.209657 0.209657 0.209657 0.209657 0.209657 0.209657 0.209657 0.209657 0.209657 0.209657 0.209657 0.209657 0.209657 0.209657 0.209657 0.209657 0.209657 0.209657 0.209657 0.209657 0.209657 0.209657 0.209657 0.209657 0.209657 0.209657 0.209657 0.209657 0.209657 0.209657 0.209657 0.209657 0.209657 0.244339 0.244339 0.244339 0.244339 0.244339 0.244339 0.244339 0.244339 0.244339 0.244339 0.244339 0.244339 0.244339 0.244339 0.244339 0.244339 0.244339 0.244339 0.244339 0.244339 0.244339 0.244339 0.244339 0.244339 0.244339 0.260378 0.260378 0.260378 0.260378 0.260378 0.260378 0.260378 0.260378 0.260378 0.260378 0.260378 0.260378 0.260378 0.260378 0.260378 0.260378 0.260378 0.260378 0.260378 0.260378 0.269680 0.269680 0.269680 0.269680 0.269680 0.269680 0.269680 0.269680 0.269680 0.269680 0.269680 0.269680 0.269680 0.269680 0.269680 0.269680 0.269680 0.269680 0.269680 0.269680 0.269680 0.269680 0.269680 0.269680 0.269680 0.269680 0.269680 0.269680 0.269680 0.269680 0.269680 0.269680 0.269680 0.280056 0.280056 0.280056 0.280056 0.280056 0.280056 0.280056 0.280056 0.280056 0.280056 0.280056 0.280056 0.280056 0.280056 0.280056 0.280056 0.280056 0.280056 0.280056 0.280056 0.280056 0.280056 0.280056 0.280056 0.280056 0.280056 0.280056 0.274721 0.274721 0.274721 0.274721 0.274721 0.274721 0.274721 0.274721 0.274721 0.274721 0.274721 0.274721 0.274721 0.285714 0.285714 0.285714 0.285714 0.285714 0.285714 0.285714 0.285714 0.285714 0.285714 0.285714 0.280056 0.280056 0.280056 0.280056 0.280056 0.280056 0.280056 0.280056 0.280056 0.280056 0.280056 0.274721 0.274721 0.274721 0.274721 0.274721 0.274721 0.274721 0.274721 0.274721 0.274721 0.274721 0.280056 0.280056 0.280056 0.280056 0.280056 0.280056 0.280056 0.280056 0.280056 0.280056 0.285714 0.285714 0.285714 0.285714 0.285714 0.285714 0.285714 0.285714 0.285714 0.269680 0.269680 0.269680 0.269680 0.269680 0.269680 0.269680 0.269680 0.269680 0.269680 0.274721 0.274721 0.274721 0.274721 0.274721 0.274721 0.274721 0.274721 0.274721 0.285714 0.285714 0.285714 0.285714 0.285714 0.285714 0.285714 0.285714 0.264906 0.264906 0.264906 0.264906 0.264906 0.264906 0.264906 0.264906 0.264906 0.274721 0.274721 0.274721 0.274721 0.274721 0.274721 0.274721 0.274721 0.269680 0.269680 0.269680 0.269680 0.269680 0.269680 0.269680 0.269680 0.269680 0.269680 0.269680 0.269680 0.269680 0.269680 0.269680 0.269680 0.280056 0.280056 0.280056 0.280056 0.280056 0.280056 0.280056 0.260378 0.260378 0.260378 0.260378 0.260378 0.260378 0.260378 0.260378 0.269680 0.269680 0.269680 0.269680 0.269680 0.269680 0.269680 0.264906 0.264906 0.264906 0.264906 0.264906 0.264906 0.264906 0.264906 0.264906 0.264906 0.264906 0.264906 0.264906 0.264906 0.260378 0.260378 0.260378 0.260378 0.260378 0.260378 0.260378 0.260378 0.260378 0.260378 0.260378 0.260378
