# Output from CTFFind version 4.1.9, run on 2019-11-02 17:49:53
# Input file: stack1_bm3d_averaged_1_1.5_0_3000_half.mrc ; Number of micrographs: 1
# Pixel size: 3.000 Angstroms ; acceleration voltage: 300.0 keV ; spherical aberration: 0.00 mm ; amplitude contrast: 0.07
# Box size: 512 pixels ; min. res.: 30.0 Angstroms ; max. res.: 5.0 Angstroms ; min. def.: 5000.0 um; max. def. 50000.0 um; num. frames averaged: 1
# 6 lines per micrograph: #1 - spatial frequency (1/Angstroms); #2 - 1D rotational average of spectrum (assuming no astigmatism); #3 - 1D rotational average of spectrum; #4 - CTF fit; #5 - cross-correlation between spectrum and CTF fit; #6 - 2sigma of expected cross correlation of noise
0.000000 0.000651 0.001302 0.001953 0.002604 0.003255 0.003906 0.004557 0.005208 0.005859 0.006510 0.007161 0.007812 0.008464 0.009115 0.009766 0.010417 0.011068 0.011719 0.012370 0.013021 0.013672 0.014323 0.014974 0.015625 0.016276 0.016927 0.017578 0.018229 0.018880 0.019531 0.020182 0.020833 0.021484 0.022135 0.022786 0.023438 0.024089 0.024740 0.025391 0.026042 0.026693 0.027344 0.027995 0.028646 0.029297 0.029948 0.030599 0.031250 0.031901 0.032552 0.033203 0.033854 0.034505 0.035156 0.035807 0.036458 0.037109 0.037760 0.038411 0.039062 0.039714 0.040365 0.041016 0.041667 0.042318 0.042969 0.043620 0.044271 0.044922 0.045573 0.046224 0.046875 0.047526 0.048177 0.048828 0.049479 0.050130 0.050781 0.051432 0.052083 0.052734 0.053385 0.054036 0.054688 0.055339 0.055990 0.056641 0.057292 0.057943 0.058594 0.059245 0.059896 0.060547 0.061198 0.061849 0.062500 0.063151 0.063802 0.064453 0.065104 0.065755 0.066406 0.067057 0.067708 0.068359 0.069010 0.069661 0.070312 0.070964 0.071615 0.072266 0.072917 0.073568 0.074219 0.074870 0.075521 0.076172 0.076823 0.077474 0.078125 0.078776 0.079427 0.080078 0.080729 0.081380 0.082031 0.082682 0.083333 0.083984 0.084635 0.085286 0.085938 0.086589 0.087240 0.087891 0.088542 0.089193 0.089844 0.090495 0.091146 0.091797 0.092448 0.093099 0.093750 0.094401 0.095052 0.095703 0.096354 0.097005 0.097656 0.098307 0.098958 0.099609 0.100260 0.100911 0.101562 0.102214 0.102865 0.103516 0.104167 0.104818 0.105469 0.106120 0.106771 0.107422 0.108073 0.108724 0.109375 0.110026 0.110677 0.111328 0.111979 0.112630 0.113281 0.113932 0.114583 0.115234 0.115885 0.116536 0.117188 0.117839 0.118490 0.119141 0.119792 0.120443 0.121094 0.121745 0.122396 0.123047 0.123698 0.124349 0.125000 0.125651 0.126302 0.126953 0.127604 0.128255 0.128906 0.129557 0.130208 0.130859 0.131510 0.132161 0.132812 0.133464 0.134115 0.134766 0.135417 0.136068 0.136719 0.137370 0.138021 0.138672 0.139323 0.139974 0.140625 0.141276 0.141927 0.142578 0.143229 0.143880 0.144531 0.145182 0.145833 0.146484 0.147135 0.147786 0.148438 0.149089 0.149740 0.150391 0.151042 0.151693 0.152344 0.152995 0.153646 0.154297 0.154948 0.155599 0.156250 0.156901 0.157552 0.158203 0.158854 0.159505 0.160156 0.160807 0.161458 0.162109 0.162760 0.163411 0.164062 0.164714 0.165365 0.166016 0.166667 0.167318 0.167969 0.168620 0.169271 0.169922 0.170573 0.171224 0.171875 0.172526 0.173177 0.173828 0.174479 0.175130 0.175781 0.176432 0.177083 0.177734 0.178385 0.179036 0.179688 0.180339 0.180990 0.181641 0.182292 0.182943 0.183594 0.184245 0.184896 0.185547 0.186198 0.186849 0.187500 0.188151 0.188802 0.189453 0.190104 0.190755 0.191406 0.192057 0.192708 0.193359 0.194010 0.194661 0.195312 0.195964 0.196615 0.197266 0.197917 0.198568 0.199219 0.199870 0.200521 0.201172 0.201823 0.202474 0.203125 0.203776 0.204427 0.205078 0.205729 0.206380 0.207031 0.207682 0.208333 0.208984 0.209635 0.210286 0.210938 0.211589 0.212240 0.212891 0.213542 0.214193 0.214844 0.215495 0.216146 0.216797 0.217448 0.218099 0.218750 0.219401 0.220052 0.220703 0.221354 0.222005 0.222656 0.223307 0.223958 0.224609 0.225260 0.225911 0.226562 0.227214 0.227865 0.228516 0.229167 0.229818 0.230469 0.231120 0.231771 0.232422 0.233073 0.233724 0.234375 0.235026 0.235677
       0.33368        0.33368        0.33368        0.33368        0.33368        0.33368        0.33368        0.33368        0.33368        0.33368        0.33368        0.33368        0.33368        0.33368        0.33368        0.33368        0.33368        0.33368        0.33368        0.33368        0.33368        0.33368        0.33368        0.33369        0.33368        0.33368        0.33368        0.33368        0.33368        0.33368        0.33368        0.33368        0.33368        0.33368        0.33368        0.33368        0.33369        0.33368        0.33369        0.33368        0.33368        0.33368        0.33368        0.33369        0.33368        0.33368        0.33369        0.33369        0.33368        0.33368        0.33368        0.50015        0.71514        0.42705        0.19022       -0.08017       -0.26197       -0.06878       -0.12967       -0.05787       -0.00131       -0.14510       -0.09520       -0.04439        0.00243       -0.15041       -0.21877       -0.34082       -0.46304       -0.56336       -0.51767       -0.45315       -0.37118       -0.54937       -0.44812       -0.62093       -0.50096       -0.47257       -0.39250       -0.38032       -0.33873       -0.24382       -0.16096       -0.14093        0.03189       -0.01267        0.11909        0.17046        0.30625        0.41081        0.46422        0.49418        0.54001        0.54796        0.69528        0.64690        0.68104        0.58665        0.55388        0.65339        0.52721        0.43022        0.38944        0.31928        0.23166        0.26695        0.25357        0.10387        0.08544       -0.00020       -0.00709        0.03617       -0.00452        0.07491        0.09365        0.23262        0.28333        0.30812        0.38915        0.55998        0.53858        0.57913        0.67046        0.69169        0.62971        0.63814        0.63508        0.54439        0.57295        0.39231        0.34982        0.26700        0.18722        0.07386        0.14427        0.11859        0.09618        0.10881        0.20622        0.20406        0.31561        0.35632        0.41431        0.49569        0.57970        0.54508        0.55853        0.60755        0.54310        0.46868        0.48180        0.32581        0.25030        0.25540        0.24325        0.14290        0.14741        0.15447        0.22644        0.25315        0.33191        0.36893        0.39350        0.46566        0.44922        0.47857        0.44629        0.47250        0.44513        0.40356        0.37657        0.35855        0.31875        0.28959        0.20749        0.20681        0.22736        0.27022        0.26321        0.34320        0.37410        0.35514        0.41118        0.45839        0.44906        0.42393        0.43834        0.36197        0.33696        0.28307        0.26051        0.28905        0.26556        0.29584        0.30114        0.34920        0.33742        0.40581        0.40300        0.42674        0.40947        0.43316        0.40584        0.36887        0.28658        0.29310        0.30577        0.28168        0.25968        0.33461        0.37321        0.33661        0.35666        0.36668        0.35252        0.40459        0.40269        0.36269        0.34273        0.31199        0.31299        0.31852        0.31074        0.29697        0.28334        0.33952        0.35688        0.37681        0.33734        0.32883        0.33567        0.34653        0.30721        0.27857        0.30742        0.32107        0.33060        0.32296        0.33482        0.35540        0.33437        0.31993        0.33283        0.30163        0.26189        0.25235        0.26423        0.30369        0.32165        0.35315        0.30066        0.31103        0.33590        0.29657        0.32369        0.29568        0.28491        0.29026        0.29818        0.30842        0.34696        0.31936        0.32957        0.32929        0.32608        0.33773        0.31751        0.32300        0.31565        0.27709        0.29575        0.31192        0.29125        0.32819        0.33232        0.33367        0.31472        0.34602        0.32889        0.27518        0.24599        0.27251        0.33206        0.36544        0.35439        0.32054        0.29567        0.29668        0.31756        0.25235        0.29093        0.29913        0.31857        0.29574        0.30820        0.27265        0.33490        0.34398        0.34223        0.32584        0.29646        0.31210        0.39297        0.33371        0.31870        0.31064        0.30434        0.28469        0.29956        0.27945        0.30371        0.23417        0.27707        0.29666        0.31043        0.29701        0.28120        0.29335        0.24166        0.23317        0.27269        0.31588        0.30621        0.31688        0.28501        0.33464        0.25276        0.22326        0.30798        0.26384        0.26732        0.27315        0.37042        0.28571        0.28712        0.26450        0.23248        0.25901        0.24822        0.22777        0.15947        0.22778        0.22840        0.25050        0.31308        0.28539        0.33664        0.30119        0.28058        0.27014        0.23315        0.24377        0.26834        0.21394        0.11979        0.16597        0.24747        0.22203        0.33008        0.28657        0.06776       -0.41504       -0.97602
2.715298 2.686596 2.658048 2.629655 2.601417 2.573333 2.545404 2.517629 2.490009 2.462543 2.435231 2.408075 2.381072 2.354224 2.327531 2.300992 2.274608 2.248378 2.222302 2.196381 2.170615 2.145003 2.119546 2.094243 2.069094 2.044100 2.019261 1.994576 1.970045 1.945669 1.921448 1.897381 1.873469 1.849711 1.826107 1.802658 1.779364 1.756224 1.733238 1.710407 1.687731 1.665209 1.642841 1.620628 1.598570 1.576666 1.554916 1.533321 1.511881 1.490594 1.469463 1.537507 1.839067 1.532011 1.197714 0.945882 0.545042 0.918124 0.642493 0.873583 0.931253 0.597852 0.708705 0.792674 0.833212 0.630613 0.544443 0.353776 0.101917 0.072446 0.044475 0.069992 0.301631 -0.037135 0.079876 -0.137832 -0.016883 -0.015179 0.073600 0.069326 0.098620 0.182116 0.285148 0.248158 0.482023 0.400557 0.551128 0.532225 0.776649 0.795313 0.883714 0.929318 0.942723 0.954696 1.129213 0.946603 1.156745 0.951474 0.854117 1.024439 0.853358 0.767503 0.629699 0.598296 0.459310 0.426910 0.513337 0.265271 0.204573 0.159318 0.008988 0.207870 -0.004735 0.122236 0.178195 0.257399 0.337713 0.354721 0.441226 0.545041 0.672238 0.540733 0.749534 0.856314 0.641703 0.709574 0.676784 0.586002 0.545398 0.461229 0.306830 0.218494 0.121450 -0.040147 -0.014230 0.053726 -0.089604 -0.059496 0.053596 0.045056 0.113350 0.216185 0.243577 0.317398 0.448774 0.454268 0.444739 0.472341 0.462515 0.342838 0.337628 0.249481 0.051992 0.062475 0.016442 -0.042871 -0.095723 -0.093736 -0.011767 -0.040296 0.082463 0.127765 0.125695 0.266252 0.233025 0.245350 0.281171 0.240155 0.237928 0.212932 0.157842 0.113306 0.108556 0.025842 0.009297 -0.114781 -0.045513 0.005902 -0.006452 0.018227 0.092403 0.075963 0.123910 0.212508 0.267834 0.176787 0.188637 0.109383 0.141481 0.026337 -0.038820 0.024826 -0.023615 0.012434 -0.004231 0.040106 0.083427 0.059403 0.166376 0.109344 0.184372 0.078738 0.165697 0.103690 0.012660 -0.046136 -0.005257 -0.017912 -0.051406 -0.054084 0.082229 0.070332 -0.001373 0.099972 0.084739 0.072393 0.156081 0.086972 0.082694 0.069137 -0.004359 0.041429 0.011276 0.022768 0.009002 0.007733 0.061044 0.074707 0.085875 0.045809 0.055169 0.034473 0.076287 -0.003367 -0.007707 0.034398 0.033567 0.061271 0.050150 0.069637 0.067426 0.061223 0.028595 0.041720 0.002193 -0.042687 -0.029862 -0.017599 0.026462 0.040027 0.108282 0.001649 0.060416 0.057243 -0.000131 0.073441 0.022741 0.007375 0.035309 0.049024 0.036265 0.095345 0.040851 0.072857 0.076727 0.087757 0.071532 0.075876 0.094083 0.045556 -0.008652 0.062030 0.046407 0.045270 0.085861 0.085501 0.028049 0.060406 0.096355 0.023521 0.003960 -0.064853 -0.007629 0.116771 0.097135 0.079045 0.039512 -0.004186 0.062289 0.032688 -0.057508 0.047828 0.030700 0.056992 0.047690 0.001572 0.041703 0.013297 0.057031 0.032676 0.044288 -0.046327 0.069688 0.112133 0.013883 0.000753 0.011898 -0.001702 -0.043033 -0.018446 -0.041591 -0.029526 -0.100605 -0.030487 -0.035174 0.000487 -0.024611 -0.074965 0.021218 -0.066105 -0.043267 -0.072408 0.059164 0.015658 0.042366 -0.015331 0.076959 -0.057044 -0.065985 0.041111 -0.035483 0.007056 -0.020492 0.161832 -0.046907 0.015049 0.011053 -0.054700 -0.010860 -0.027834 -0.032389 -0.180295 -0.012507 -0.043197 -0.015197 0.039501 0.021427 0.123504 0.044208 0.041525 0.024677 0.017327 -0.027309 0.301968 0.261353 0.148540 0.213857 0.261712 0.301218 0.357794 0.324742 0.082182 -1.155628
0.072396 0.072910 0.074453 0.077024 0.080622 0.085247 0.090898 0.097571 0.105266 0.113980 0.123708 0.134446 0.146188 0.158929 0.172659 0.187368 0.203046 0.219678 0.237249 0.255739 0.275128 0.295391 0.316500 0.338425 0.361129 0.384573 0.408714 0.433501 0.458881 0.484794 0.511175 0.537953 0.565049 0.592381 0.619856 0.647379 0.674843 0.702137 0.729143 0.755734 0.781778 0.807133 0.831654 0.855186 0.877571 0.898643 0.918231 0.936161 0.952254 0.966327 0.978199 0.987683 0.994597 0.998758 0.999986 0.998108 0.992956 0.984370 0.972203 0.956316 0.936589 0.912916 0.885210 0.853408 0.817467 0.777374 0.733141 0.684812 0.632466 0.576213 0.516202 0.452622 0.385698 0.315700 0.242937 0.167762 0.090571 0.011799 0.068075 0.148534 0.229024 0.308957 0.387712 0.464643 0.539082 0.610342 0.677729 0.740544 0.798090 0.849687 0.894670 0.932411 0.962316 0.983842 0.996509 0.999904 0.993693 0.977635 0.951585 0.915507 0.869481 0.813708 0.748518 0.674372 0.591867 0.501733 0.404834 0.302164 0.194841 0.084099 0.028727 0.142208 0.254841 0.365068 0.471296 0.571921 0.665350 0.750032 0.824484 0.887320 0.937280 0.973259 0.994337 0.999803 0.989181 0.962255 0.919080 0.860004 0.785674 0.697039 0.595354 0.482160 0.359284 0.228806 0.093036 0.045525 0.184226 0.320312 0.450981 0.573442 0.684975 0.782998 0.865126 0.929245 0.973566 0.996688 0.997645 0.975956 0.931657 0.865324 0.778088 0.671627 0.548156 0.410391 0.261500 0.105043 0.055103 0.214845 0.369959 0.516217 0.649497 0.765906 0.861901 0.934408 0.980935 0.999664 0.989542 0.950341 0.882703 0.788156 0.669102 0.528778 0.371190 0.201009 0.023453 0.155872 0.331135 0.496474 0.646198 0.774979 0.878064 0.951463 0.992115 0.998044 0.968465 0.903863 0.806026 0.678020 0.524131 0.349739 0.161152 0.034600 0.230027 0.417447 0.589300 0.738460 0.858535 0.944167 0.991294 0.997361 0.961493 0.884587 0.769333 0.620167 0.443127 0.245639 0.036236 0.175804 0.380854 0.569379 0.732380 0.861848 0.951177 0.995527 0.992127 0.940470 0.842422 0.702199 0.526239 0.322934 0.102275 0.124624 0.346077 0.550409 0.726595 0.864866 0.957280 0.998215 0.984750 0.916913 0.797770 0.633347 0.432371 0.205858 0.033466 0.271851 0.495309 0.690440 0.845251 0.949927 0.997495 0.984335 0.910502 0.779835 0.599820 0.381225 0.137495 0.116025 0.363049 0.587382 0.773999 0.910080 0.985931 0.995728 0.938027 0.815983 0.637249 0.413589 0.160136 0.105568 0.364777 0.598839 0.790569 0.925540 0.993212 0.987826 0.908961 0.761705 0.556412 0.308063 0.035206 0.241349 0.500138 0.720685 0.885169 0.979899 0.996534 0.932889 0.793271 0.588290 0.334137 0.051383 0.236642 0.505754 0.732940 0.898368 0.987177 0.990880 0.908272 0.745710 0.516737 0.241042 0.057158 0.351199 0.614333 0.822198 0.955106 0.999987 0.951777 0.814070 0.598999 0.326252 0.021395 0.286505 0.567594 0.794156 0.943382 0.999758 0.956769 0.817768 0.595856 0.312768 0.003149 0.319719 0.604192 0.826634 0.963150 0.998537 0.928094 0.758354 0.506635 0.199396 0.130451 0.447013 0.715300 0.905143 0.994660 0.972900 0.841310 0.613840 0.315609 0.019751 0.353803 0.647687 0.866670 0.984318 0.985808 0.869943 0.649567 0.350323 0.007784 0.336669 0.640826 0.866825 0.985964 0.982464 0.855714 0.620656 0.306198 0.048198 0.397380 0.696233 0.905537 0.997218 0.958257 0.792710 0.521502 0.179957 0.186647 0.529046 0.800563 0.963564 0.994797
1.000000 1.000000 1.000000 1.000000 1.000000 1.000000 1.000000 1.000000 1.000000 1.000000 1.000000 1.000000 1.000000 1.000000 1.000000 1.000000 1.000000 1.000000 1.000000 1.000000 1.000000 1.000000 1.000000 1.000000 1.000000 1.000000 1.000000 1.000000 1.000000 1.000000 1.000000 1.000000 1.000000 1.000000 1.000000 1.000000 1.000000 1.000000 1.000000 1.000000 1.000000 1.000000 1.000000 1.000000 1.000000 1.000000 1.000000 1.000000 1.000000 1.000000 1.000000 1.000000 0.915787 0.915787 0.901688 0.901688 0.901688 0.901688 0.901688 0.901688 0.901688 0.901688 0.901688 0.901688 0.901688 0.901688 0.901688 0.901688 0.901688 0.901688 0.901688 0.901688 0.901688 0.901688 0.901688 0.901688 0.901688 0.901688 0.901688 0.901688 0.901688 0.901688 0.901688 0.901688 0.901688 0.901688 0.901688 0.901688 0.901688 0.901688 0.901688 0.901688 0.901688 0.901688 0.901688 0.899084 0.904190 0.906232 0.904840 0.908382 0.908433 0.906392 0.905821 0.905480 0.905844 0.907287 0.917778 0.928768 0.939736 0.941177 0.946402 0.950679 0.953127 0.953841 0.957572 0.967776 0.965090 0.964629 0.965331 0.966779 0.968873 0.967719 0.967136 0.970189 0.970839 0.969338 0.966925 0.966273 0.965639 0.965732 0.965380 0.965257 0.965119 0.965649 0.965886 0.965512 0.965664 0.965726 0.966731 0.967893 0.970442 0.971558 0.971466 0.970378 0.965227 0.968720 0.969636 0.969083 0.969092 0.968748 0.969033 0.953600 0.951087 0.950993 0.947259 0.946141 0.943233 0.941541 0.940692 0.941441 0.940063 0.940152 0.937650 0.924545 0.911263 0.899325 0.919024 0.907191 0.895011 0.871150 0.871681 0.865707 0.866119 0.857696 0.851319 0.847090 0.844609 0.846638 0.846017 0.850281 0.846897 0.830777 0.834558 0.829804 0.795483 0.781920 0.768728 0.764347 0.761305 0.762448 0.760985 0.755116 0.763996 0.757269 0.755166 0.744550 0.718474 0.682693 0.670832 0.681680 0.692250 0.692297 0.688319 0.672433 0.635480 0.650086 0.678182 0.672207 0.672306 0.668200 0.661776 0.669767 0.668228 0.666105 0.660065 0.659351 0.658898 0.669283 0.675243 0.668385 0.663320 0.651354 0.640984 0.627391 0.639395 0.644605 0.613268 0.606630 0.599826 0.594508 0.586848 0.565761 0.568035 0.546288 0.530876 0.532191 0.535376 0.538643 0.549030 0.548427 0.525060 0.547111 0.543184 0.574791 0.544299 0.541296 0.543208 0.554288 0.537099 0.523352 0.514876 0.515942 0.533580 0.565989 0.605938 0.597163 0.587180 0.580054 0.593257 0.575699 0.584386 0.605671 0.583941 0.514546 0.473277 0.470562 0.439542 0.428238 0.419847 0.396374 0.379184 0.378489 0.374417 0.360341 0.348694 0.288894 0.255497 0.238928 0.223610 0.237676 0.254949 0.254089 0.255981 0.294899 0.340117 0.338153 0.328845 0.310218 0.308921 0.309827 0.259939 0.259338 0.222311 0.211749 0.241621 0.190922 0.195442 0.133522 0.126491 0.141592 0.167229 0.180311 0.135895 0.124840 0.146250 0.165005 0.154963 0.146860 0.106343 0.079931 0.066649 0.078731 0.062813 0.031572 0.037734 0.046113 0.028346 0.010900 0.020067 0.006574 0.008594 -0.003032 -0.005215 0.029149 0.053565 0.043942 0.046908 0.064068 0.054239 0.038009 0.030645 0.015915 0.011966 -0.038963 -0.063323 -0.063323 -0.059355 -0.059355 -0.059355 -0.059355 -0.059355 -0.059355 -0.059355 -0.059355 -0.059355 -0.059724 -0.059724 -0.059724 -0.059724 -0.059724 -0.059724 -0.059724 -0.059724 -0.059724 -0.039245 -0.039245 -0.039245 -0.039245 -0.039245 -0.039245 -0.039245 -0.039245 -0.039245
0.000000 0.000000 0.000000 0.000000 0.000000 0.000000 0.000000 0.000000 0.000000 0.000000 0.000000 0.000000 0.000000 0.000000 0.000000 0.000000 0.000000 0.000000 0.000000 0.000000 0.000000 0.000000 0.000000 0.000000 0.000000 0.000000 0.000000 0.000000 0.000000 0.000000 0.000000 0.000000 0.000000 0.000000 0.000000 0.000000 0.000000 0.000000 0.000000 0.000000 0.000000 0.000000 0.000000 0.000000 0.000000 0.000000 0.000000 0.000000 0.000000 0.000000 0.000000 0.000000 0.181818 0.181818 0.199007 0.199007 0.199007 0.199007 0.199007 0.199007 0.199007 0.199007 0.199007 0.199007 0.199007 0.199007 0.199007 0.199007 0.199007 0.199007 0.199007 0.199007 0.199007 0.199007 0.199007 0.199007 0.199007 0.199007 0.199007 0.199007 0.199007 0.199007 0.199007 0.199007 0.199007 0.199007 0.199007 0.199007 0.199007 0.199007 0.199007 0.199007 0.199007 0.199007 0.199007 0.230940 0.230940 0.230940 0.230940 0.230940 0.230940 0.230940 0.230940 0.230940 0.230940 0.230940 0.230940 0.230940 0.230940 0.230940 0.230940 0.230940 0.230940 0.230940 0.230940 0.230940 0.230940 0.230940 0.230940 0.230940 0.230940 0.230940 0.230940 0.244339 0.244339 0.244339 0.244339 0.244339 0.244339 0.244339 0.244339 0.244339 0.244339 0.244339 0.244339 0.244339 0.244339 0.244339 0.244339 0.244339 0.244339 0.244339 0.244339 0.244339 0.244339 0.244339 0.251976 0.251976 0.251976 0.251976 0.251976 0.251976 0.251976 0.251976 0.251976 0.251976 0.251976 0.251976 0.251976 0.251976 0.251976 0.251976 0.251976 0.251976 0.251976 0.251976 0.264906 0.264906 0.264906 0.264906 0.264906 0.264906 0.264906 0.264906 0.264906 0.264906 0.264906 0.264906 0.264906 0.264906 0.264906 0.264906 0.264906 0.264906 0.264906 0.264906 0.264906 0.264906 0.264906 0.264906 0.264906 0.264906 0.264906 0.264906 0.264906 0.264906 0.264906 0.264906 0.264906 0.264906 0.264906 0.264906 0.264906 0.264906 0.264906 0.264906 0.264906 0.264906 0.264906 0.264906 0.264906 0.264906 0.264906 0.264906 0.264906 0.264906 0.264906 0.264906 0.264906 0.264906 0.264906 0.264906 0.264906 0.264906 0.264906 0.264906 0.264906 0.264906 0.264906 0.264906 0.264906 0.264906 0.264906 0.264906 0.264906 0.264906 0.264906 0.264906 0.264906 0.264906 0.264906 0.269680 0.269680 0.269680 0.269680 0.269680 0.269680 0.269680 0.269680 0.269680 0.269680 0.269680 0.269680 0.264906 0.264906 0.264906 0.264906 0.264906 0.264906 0.264906 0.264906 0.264906 0.264906 0.264906 0.264906 0.269680 0.269680 0.269680 0.269680 0.269680 0.269680 0.269680 0.269680 0.269680 0.269680 0.269680 0.264906 0.264906 0.264906 0.264906 0.264906 0.264906 0.264906 0.264906 0.264906 0.264906 0.264906 0.269680 0.269680 0.269680 0.269680 0.269680 0.269680 0.269680 0.269680 0.269680 0.269680 0.251976 0.251976 0.251976 0.251976 0.251976 0.251976 0.251976 0.251976 0.251976 0.251976 0.251976 0.269680 0.269680 0.269680 0.269680 0.269680 0.269680 0.269680 0.269680 0.269680 0.256074 0.256074 0.256074 0.256074 0.256074 0.256074 0.256074 0.256074 0.256074 0.256074 0.260378 0.260378 0.260378 0.260378 0.260378 0.260378 0.260378 0.260378 0.260378 0.256074 0.256074 0.256074 0.256074 0.256074 0.256074 0.256074 0.256074 0.256074 0.251976 0.251976 0.251976 0.251976 0.251976 0.251976 0.251976 0.251976 0.251976 0.264906 0.264906 0.264906 0.264906 0.264906 0.264906 0.264906 0.264906 0.264906
