# Output from CTFFind version 4.1.9, run on 2019-11-03 19:00:07
# Input file: stack1_bm3d_averaged_1_3.25_0_3000_half.mrc ; Number of micrographs: 1
# Pixel size: 3.000 Angstroms ; acceleration voltage: 300.0 keV ; spherical aberration: 0.00 mm ; amplitude contrast: 0.07
# Box size: 512 pixels ; min. res.: 30.0 Angstroms ; max. res.: 5.0 Angstroms ; min. def.: 5000.0 um; max. def. 50000.0 um; num. frames averaged: 1
# 6 lines per micrograph: #1 - spatial frequency (1/Angstroms); #2 - 1D rotational average of spectrum (assuming no astigmatism); #3 - 1D rotational average of spectrum; #4 - CTF fit; #5 - cross-correlation between spectrum and CTF fit; #6 - 2sigma of expected cross correlation of noise
0.000000 0.000651 0.001302 0.001953 0.002604 0.003255 0.003906 0.004557 0.005208 0.005859 0.006510 0.007161 0.007812 0.008464 0.009115 0.009766 0.010417 0.011068 0.011719 0.012370 0.013021 0.013672 0.014323 0.014974 0.015625 0.016276 0.016927 0.017578 0.018229 0.018880 0.019531 0.020182 0.020833 0.021484 0.022135 0.022786 0.023438 0.024089 0.024740 0.025391 0.026042 0.026693 0.027344 0.027995 0.028646 0.029297 0.029948 0.030599 0.031250 0.031901 0.032552 0.033203 0.033854 0.034505 0.035156 0.035807 0.036458 0.037109 0.037760 0.038411 0.039062 0.039714 0.040365 0.041016 0.041667 0.042318 0.042969 0.043620 0.044271 0.044922 0.045573 0.046224 0.046875 0.047526 0.048177 0.048828 0.049479 0.050130 0.050781 0.051432 0.052083 0.052734 0.053385 0.054036 0.054688 0.055339 0.055990 0.056641 0.057292 0.057943 0.058594 0.059245 0.059896 0.060547 0.061198 0.061849 0.062500 0.063151 0.063802 0.064453 0.065104 0.065755 0.066406 0.067057 0.067708 0.068359 0.069010 0.069661 0.070312 0.070964 0.071615 0.072266 0.072917 0.073568 0.074219 0.074870 0.075521 0.076172 0.076823 0.077474 0.078125 0.078776 0.079427 0.080078 0.080729 0.081380 0.082031 0.082682 0.083333 0.083984 0.084635 0.085286 0.085938 0.086589 0.087240 0.087891 0.088542 0.089193 0.089844 0.090495 0.091146 0.091797 0.092448 0.093099 0.093750 0.094401 0.095052 0.095703 0.096354 0.097005 0.097656 0.098307 0.098958 0.099609 0.100260 0.100911 0.101562 0.102214 0.102865 0.103516 0.104167 0.104818 0.105469 0.106120 0.106771 0.107422 0.108073 0.108724 0.109375 0.110026 0.110677 0.111328 0.111979 0.112630 0.113281 0.113932 0.114583 0.115234 0.115885 0.116536 0.117188 0.117839 0.118490 0.119141 0.119792 0.120443 0.121094 0.121745 0.122396 0.123047 0.123698 0.124349 0.125000 0.125651 0.126302 0.126953 0.127604 0.128255 0.128906 0.129557 0.130208 0.130859 0.131510 0.132161 0.132812 0.133464 0.134115 0.134766 0.135417 0.136068 0.136719 0.137370 0.138021 0.138672 0.139323 0.139974 0.140625 0.141276 0.141927 0.142578 0.143229 0.143880 0.144531 0.145182 0.145833 0.146484 0.147135 0.147786 0.148438 0.149089 0.149740 0.150391 0.151042 0.151693 0.152344 0.152995 0.153646 0.154297 0.154948 0.155599 0.156250 0.156901 0.157552 0.158203 0.158854 0.159505 0.160156 0.160807 0.161458 0.162109 0.162760 0.163411 0.164062 0.164714 0.165365 0.166016 0.166667 0.167318 0.167969 0.168620 0.169271 0.169922 0.170573 0.171224 0.171875 0.172526 0.173177 0.173828 0.174479 0.175130 0.175781 0.176432 0.177083 0.177734 0.178385 0.179036 0.179688 0.180339 0.180990 0.181641 0.182292 0.182943 0.183594 0.184245 0.184896 0.185547 0.186198 0.186849 0.187500 0.188151 0.188802 0.189453 0.190104 0.190755 0.191406 0.192057 0.192708 0.193359 0.194010 0.194661 0.195312 0.195964 0.196615 0.197266 0.197917 0.198568 0.199219 0.199870 0.200521 0.201172 0.201823 0.202474 0.203125 0.203776 0.204427 0.205078 0.205729 0.206380 0.207031 0.207682 0.208333 0.208984 0.209635 0.210286 0.210938 0.211589 0.212240 0.212891 0.213542 0.214193 0.214844 0.215495 0.216146 0.216797 0.217448 0.218099 0.218750 0.219401 0.220052 0.220703 0.221354 0.222005 0.222656 0.223307 0.223958 0.224609 0.225260 0.225911 0.226562 0.227214 0.227865 0.228516 0.229167 0.229818 0.230469 0.231120 0.231771 0.232422 0.233073 0.233724 0.234375 0.235026 0.235677
       0.35635        0.35635        0.35635        0.35635        0.35635        0.35635        0.35635        0.35635        0.35635        0.35635        0.35635        0.35635        0.35635        0.35635        0.35635        0.35635        0.35635        0.35635        0.35635        0.35635        0.35635        0.35635        0.35635        0.35635        0.35635        0.35635        0.35635        0.35635        0.35635        0.35635        0.35635        0.35635        0.35635        0.35635        0.35635        0.35635        0.35635        0.35635        0.35635        0.35635        0.35635        0.35635        0.35635        0.35635        0.35635        0.35635        0.35635        0.35635        0.35635        0.35635        0.35635        0.49600        0.70717        0.40453        0.21175       -0.03764       -0.22880       -0.04112       -0.11395       -0.07964        0.02391       -0.10137       -0.10027       -0.03116       -0.01254       -0.12463       -0.15493       -0.28768       -0.46056       -0.55863       -0.50719       -0.43927       -0.33913       -0.53394       -0.39436       -0.52949       -0.43450       -0.44883       -0.34112       -0.31681       -0.28645       -0.18906       -0.10257       -0.10193        0.04307        0.02412        0.17744        0.18703        0.33373        0.42400        0.52339        0.55758        0.56848        0.59506        0.73808        0.66709        0.67471        0.57686        0.54937        0.63684        0.51960        0.49130        0.43066        0.32345        0.29120        0.31209        0.25948        0.12756        0.11861       -0.00189        0.04691        0.05932        0.03097        0.10338        0.13793        0.22440        0.29090        0.30364        0.40466        0.54199        0.55804        0.56704        0.67472        0.64119        0.63159        0.67331        0.64915        0.53706        0.53465        0.41537        0.36657        0.28541        0.21174        0.15482        0.15851        0.14277        0.18112        0.17511        0.24493        0.25607        0.33008        0.37845        0.40191        0.51530        0.54984        0.57191        0.56449        0.60869        0.55269        0.49823        0.50766        0.37955        0.30519        0.28841        0.28120        0.21122        0.21057        0.21250        0.24298        0.27338        0.35566        0.39269        0.41861        0.45035        0.45328        0.47610        0.44667        0.49764        0.44348        0.39178        0.35846        0.38969        0.34164        0.32227        0.25831        0.29805        0.26280        0.27873        0.29170        0.37163        0.39435        0.40969        0.44336        0.46130        0.44710        0.44358        0.46616        0.36449        0.37259        0.32906        0.27463        0.33165        0.29664        0.33022        0.34846        0.34762        0.35506        0.43501        0.40312        0.44374        0.40505        0.42676        0.39796        0.39779        0.32175        0.30666        0.29761        0.28144        0.31204        0.36663        0.37947        0.37279        0.38755        0.38932        0.37140        0.43982        0.41629        0.38240        0.37271        0.32844        0.30931        0.34251        0.31808        0.36619        0.32805        0.35279        0.36226        0.39012        0.39513        0.36759        0.37452        0.36830        0.34436        0.32445        0.35915        0.34618        0.35482        0.33488        0.36053        0.38145        0.33863        0.34193        0.36974        0.32635        0.29800        0.31112        0.32170        0.31949        0.32018        0.36336        0.32912        0.32992        0.32958        0.32667        0.33985        0.32565        0.32965        0.31522        0.31375        0.31304        0.33233        0.32806        0.34559        0.33765        0.39517        0.38304        0.32454        0.37025        0.35271        0.26681        0.29550        0.34042        0.30748        0.31339        0.35097        0.33922        0.32934        0.36872        0.37029        0.31042        0.29037        0.31786        0.35103        0.37666        0.39072        0.33050        0.32371        0.30170        0.30275        0.28446        0.31436        0.30500        0.33082        0.34346        0.32962        0.29291        0.33826        0.34183        0.35587        0.30032        0.31892        0.34002        0.39080        0.38632        0.35293        0.34798        0.32977        0.31016        0.30914        0.31932        0.30952        0.25797        0.26752        0.31365        0.31503        0.32345        0.31977        0.27477        0.25528        0.27838        0.28707        0.35325        0.31159        0.32076        0.35478        0.38672        0.35372        0.26913        0.31231        0.26188        0.29969        0.34587        0.35912        0.30805        0.29952        0.29699        0.29188        0.32403        0.24921        0.21841        0.21963        0.28122        0.28815        0.23104        0.31163        0.26718        0.33165        0.29249        0.28400        0.24932        0.21411        0.29034        0.36953        0.33355        0.11763        0.17979        0.28428        0.17598        0.21210        0.02016        0.08295       -0.60793       -1.16938
2.785627 2.756205 2.726941 2.697835 2.668887 2.640097 2.611466 2.582992 2.554677 2.526520 2.498521 2.470680 2.442997 2.415473 2.388106 2.360898 2.333848 2.306956 2.280222 2.253647 2.227229 2.200970 2.174869 2.148926 2.123141 2.097514 2.072045 2.046735 2.021582 1.996588 1.971752 1.947074 1.922555 1.898193 1.873990 1.849944 1.826057 1.802328 1.778757 1.755345 1.732090 1.708994 1.686056 1.663275 1.640653 1.618190 1.595884 1.573736 1.551747 1.529916 1.508243 1.544206 1.888268 1.513363 1.245015 0.975065 0.542293 0.944170 0.647226 0.829257 0.915136 0.670989 0.653169 0.806261 0.790262 0.617772 0.600141 0.394952 0.075911 0.028677 0.017208 0.001895 0.321122 -0.059066 0.054549 -0.059073 0.004737 -0.021178 0.087364 0.097727 0.130770 0.194948 0.331952 0.286143 0.459486 0.393155 0.615840 0.549985 0.788636 0.805942 0.943811 1.032028 0.969129 1.011781 1.175142 1.005238 1.158124 0.917622 0.885874 0.995600 0.841123 0.822769 0.696257 0.566094 0.508269 0.499860 0.485267 0.252563 0.241763 0.127687 0.036979 0.181142 0.024095 0.108019 0.203872 0.231499 0.316335 0.346058 0.448999 0.531618 0.675531 0.521769 0.758149 0.761625 0.612515 0.762204 0.710416 0.594741 0.476527 0.457000 0.304336 0.235312 0.099695 0.040109 -0.013794 0.014942 -0.043116 0.014729 0.074221 0.078325 0.108474 0.216783 0.241528 0.326515 0.427088 0.421356 0.463473 0.432968 0.452042 0.338455 0.326121 0.279094 0.072695 0.064486 0.025942 -0.034114 -0.048812 -0.078526 -0.036269 -0.039000 0.057410 0.110568 0.154238 0.219947 0.188364 0.260367 0.239515 0.236466 0.220348 0.214380 0.096552 0.096533 0.105891 0.027773 0.004361 -0.044272 0.002108 -0.013160 -0.010948 0.019517 0.099292 0.101173 0.149788 0.182482 0.250168 0.122863 0.226627 0.108005 0.112928 0.043380 -0.042128 0.022373 -0.014967 0.005849 0.001865 0.067154 0.018786 0.072743 0.145574 0.127500 0.124889 0.092013 0.108774 0.085765 0.062540 -0.045792 -0.034727 -0.047141 -0.073511 0.002815 0.061054 0.067392 0.015814 0.067655 0.088003 0.056660 0.149715 0.057461 0.083234 0.059101 -0.055940 0.004234 0.004615 -0.019130 0.059609 0.002532 0.017724 0.034503 0.064523 0.054575 0.055950 -0.009139 0.047538 -0.026519 0.014361 0.019319 0.001429 0.042335 0.001496 0.034184 0.056078 -0.015478 0.022043 0.044377 -0.035459 -0.058166 -0.001981 -0.013953 -0.037660 -0.004456 0.057478 -0.008598 0.015595 0.055611 -0.013111 0.056742 0.041394 0.020689 0.012957 0.048159 0.006772 0.048001 0.021812 0.086055 0.064961 0.151081 0.113913 0.055639 0.121849 0.067905 -0.046966 0.058609 0.071221 0.027443 0.072234 0.090685 0.016318 0.034540 0.112675 0.069961 0.026354 -0.043596 0.050798 0.084187 0.111315 0.104608 0.040585 0.015200 0.021632 0.001167 -0.015421 0.017141 0.051316 0.025407 0.110127 0.012325 -0.017408 0.069470 0.025835 0.003125 0.000292 -0.032035 0.055599 0.099572 0.071683 0.016790 0.013947 -0.016173 -0.028539 -0.007770 -0.059243 -0.014476 -0.120688 -0.070808 -0.025134 0.001355 -0.035424 0.033272 -0.042524 -0.042207 -0.021927 -0.054533 0.078702 -0.001843 0.023699 0.072026 0.130258 0.008427 -0.035163 0.012250 -0.056021 0.015885 0.062742 0.079453 0.016992 0.007754 0.016625 0.024522 0.103774 -0.034852 -0.057091 -0.089910 0.067429 0.067756 0.008195 0.034152 0.020028 0.185174 0.033558 0.108075 0.024301 0.046802 0.079418 0.214558 0.419011 0.083832 0.228683 0.432765 0.139747 0.285049 -0.115999 0.109821 -1.453703
0.072396 0.072910 0.074451 0.077019 0.080613 0.085232 0.090876 0.097542 0.105228 0.113931 0.123648 0.134374 0.146103 0.158829 0.172543 0.187236 0.202896 0.219509 0.237060 0.255529 0.274897 0.295138 0.316225 0.338126 0.360806 0.384227 0.408343 0.433106 0.458462 0.484352 0.510710 0.537466 0.564542 0.591854 0.619311 0.646818 0.674268 0.701552 0.728549 0.755136 0.781178 0.806537 0.831065 0.854610 0.877013 0.898109 0.917727 0.935694 0.951830 0.965955 0.977886 0.987438 0.994427 0.998672 0.999994 0.998218 0.993177 0.984712 0.972674 0.956925 0.937344 0.913825 0.886282 0.854648 0.818881 0.778967 0.734917 0.686774 0.634614 0.578547 0.518720 0.455319 0.388569 0.318735 0.246126 0.171091 0.094025 0.015359 0.064429 0.144827 0.225281 0.305207 0.383987 0.460976 0.535508 0.606900 0.674457 0.737481 0.795280 0.847169 0.892487 0.930602 0.960921 0.982899 0.996052 0.999964 0.994298 0.978807 0.953342 0.917859 0.872432 0.817254 0.752647 0.679063 0.597090 0.507449 0.410995 0.308711 0.201707 0.091206 0.021462 0.134879 0.247549 0.357918 0.464398 0.565388 0.659296 0.744569 0.819724 0.883366 0.934230 0.971202 0.993347 0.999942 0.990494 0.964766 0.922795 0.864906 0.791723 0.704171 0.603477 0.491163 0.369030 0.239135 0.103767 0.034589 0.173297 0.309614 0.440744 0.563898 0.676353 0.775515 0.858989 0.924637 0.970646 0.995581 0.998441 0.978703 0.936356 0.871930 0.786504 0.681709 0.559708 0.423170 0.275220 0.119380 0.040506 0.200364 0.355990 0.503155 0.637731 0.755805 0.853802 0.928606 0.977668 0.999106 0.991793 0.955420 0.890541 0.798597 0.681899 0.543601 0.387627 0.218583 0.041625 0.137679 0.313526 0.480055 0.631560 0.762674 0.868587 0.945224 0.989426 0.999099 0.973330 0.912465 0.818148 0.693307 0.542090 0.369754 0.182510 0.012699 0.208427 0.397015 0.570890 0.722870 0.846478 0.936233 0.987919 0.998806 0.967818 0.895641 0.784756 0.639389 0.465391 0.270023 0.061689 0.150416 0.356704 0.547620 0.714092 0.847981 0.942500 0.992584 0.995195 0.949542 0.857186 0.722051 0.550290 0.350056 0.131144 0.095472 0.318160 0.525233 0.705564 0.849207 0.947962 0.995889 0.989701 0.929025 0.816521 0.657817 0.461286 0.237647 0.000588 0.239790 0.465979 0.665649 0.826587 0.938651 0.994452 0.989885 0.924479 0.801539 0.628040 0.414295 0.173394 0.079562 0.328391 0.556847 0.749692 0.893752 0.978840 0.998541 0.950748 0.837929 0.667081 0.449368 0.199456 0.065435 0.326688 0.565584 0.764662 0.909018 0.987475 0.993506 0.925849 0.788737 0.591726 0.349099 0.078913 0.198326 0.461183 0.688945 0.863299 0.969831 0.999296 0.948490 0.820666 0.625437 0.378129 0.098665 0.189990 0.463691 0.699140 0.875883 0.978148 0.996331 0.927977 0.778178 0.559300 0.290064 0.005984 0.302478 0.572567 0.791342 0.938202 0.998850 0.966777 0.844064 0.641381 0.377180 0.076094 0.233270 0.521050 0.758984 0.923248 0.996911 0.971777 0.849409 0.641187 0.367382 0.055284 0.263452 0.555979 0.791654 0.945300 0.999980 0.948981 0.796751 0.558664 0.259615 0.068503 0.390128 0.669854 0.876374 0.986053 0.985733 0.874455 0.663825 0.376946 0.046027 0.291158 0.595551 0.831329 0.970203 0.994917 0.901529 0.700163 0.414080 0.077131 0.270147 0.585364 0.829462 0.971620 0.993272 0.890674 0.675683 0.374565 0.024931 0.328857 0.641266 0.871491 0.988854 0.977041 0.836533 0.584871 0.254645 0.110556 0.461847 0.751549 0.939703 0.999727
1.000000 1.000000 1.000000 1.000000 1.000000 1.000000 1.000000 1.000000 1.000000 1.000000 1.000000 1.000000 1.000000 1.000000 1.000000 1.000000 1.000000 1.000000 1.000000 1.000000 1.000000 1.000000 1.000000 1.000000 1.000000 1.000000 1.000000 1.000000 1.000000 1.000000 1.000000 1.000000 1.000000 1.000000 1.000000 1.000000 1.000000 1.000000 1.000000 1.000000 1.000000 1.000000 1.000000 1.000000 1.000000 1.000000 1.000000 1.000000 1.000000 1.000000 1.000000 1.000000 0.910440 0.910440 0.900933 0.900933 0.900933 0.900933 0.900933 0.900933 0.900933 0.900933 0.900933 0.900933 0.900933 0.900933 0.900933 0.900933 0.900933 0.900933 0.900933 0.900933 0.900933 0.900933 0.900933 0.900933 0.900933 0.900933 0.900933 0.900933 0.900933 0.900933 0.900933 0.900933 0.900933 0.900933 0.900933 0.900933 0.900933 0.900933 0.900933 0.900933 0.900933 0.900933 0.900933 0.884758 0.891614 0.895018 0.896928 0.900689 0.901643 0.900913 0.900608 0.900180 0.901159 0.902633 0.910529 0.929132 0.939862 0.945794 0.950655 0.958238 0.961326 0.960496 0.966836 0.974834 0.973763 0.973435 0.974016 0.975259 0.977308 0.977482 0.978916 0.979186 0.979748 0.979934 0.979660 0.979262 0.978852 0.978708 0.978342 0.978478 0.979060 0.979210 0.979472 0.979680 0.979794 0.971518 0.974611 0.969692 0.970581 0.972266 0.972874 0.960354 0.957544 0.961271 0.961326 0.961021 0.960969 0.961236 0.961705 0.953929 0.949280 0.949250 0.938549 0.936388 0.935302 0.934233 0.933973 0.934271 0.931823 0.933308 0.931580 0.922023 0.915838 0.891060 0.908687 0.901937 0.875812 0.859969 0.862953 0.864739 0.865345 0.863407 0.860399 0.854603 0.846462 0.847956 0.849647 0.853965 0.850603 0.850060 0.850086 0.848634 0.829362 0.813343 0.804626 0.793696 0.792990 0.793079 0.789206 0.781248 0.789984 0.784852 0.781487 0.771728 0.766006 0.743844 0.723780 0.721891 0.730105 0.745584 0.739030 0.714069 0.688439 0.722898 0.704902 0.699134 0.701390 0.697294 0.673250 0.669086 0.674063 0.650363 0.656810 0.656028 0.650818 0.654184 0.639608 0.620329 0.622783 0.611061 0.602484 0.591579 0.594137 0.616760 0.574418 0.565982 0.553574 0.544606 0.546459 0.513106 0.524434 0.530105 0.510571 0.507076 0.494011 0.497162 0.503331 0.502220 0.488121 0.494734 0.482274 0.514947 0.496559 0.491953 0.492737 0.501566 0.482939 0.458170 0.445521 0.445563 0.441852 0.475716 0.474253 0.475617 0.477362 0.469797 0.448549 0.409564 0.395264 0.390045 0.362789 0.377389 0.362884 0.357879 0.379191 0.364523 0.330108 0.301347 0.301569 0.282726 0.270964 0.254690 0.276692 0.242401 0.185486 0.164392 0.154682 0.171489 0.194848 0.202901 0.190088 0.205359 0.243047 0.246834 0.238148 0.264496 0.231458 0.199519 0.217296 0.228580 0.174365 0.185245 0.168280 0.174800 0.174295 0.154213 0.170314 0.118005 0.104163 0.107215 0.130372 0.135882 0.116716 0.124513 0.117909 0.110066 0.122979 0.126823 0.131156 0.116922 0.153224 0.161327 0.164762 0.127803 0.113595 0.114819 0.136923 0.134125 0.135964 0.139646 0.154482 0.161338 0.155892 0.208808 0.219577 0.212356 0.184458 0.196418 0.192906 0.161645 0.154267 0.077433 0.046329 0.046329 0.046949 0.046949 0.046949 0.046949 0.046949 0.046949 0.046949 0.046949 0.046949 0.039620 0.039620 0.039620 0.039620 0.039620 0.039620 0.039620 0.039620 0.039620 0.084783 0.084783 0.084783 0.084783 0.084783 0.084783 0.084783 0.084783 0.084783
0.000000 0.000000 0.000000 0.000000 0.000000 0.000000 0.000000 0.000000 0.000000 0.000000 0.000000 0.000000 0.000000 0.000000 0.000000 0.000000 0.000000 0.000000 0.000000 0.000000 0.000000 0.000000 0.000000 0.000000 0.000000 0.000000 0.000000 0.000000 0.000000 0.000000 0.000000 0.000000 0.000000 0.000000 0.000000 0.000000 0.000000 0.000000 0.000000 0.000000 0.000000 0.000000 0.000000 0.000000 0.000000 0.000000 0.000000 0.000000 0.000000 0.000000 0.000000 0.000000 0.181818 0.181818 0.199007 0.199007 0.199007 0.199007 0.199007 0.199007 0.199007 0.199007 0.199007 0.199007 0.199007 0.199007 0.199007 0.199007 0.199007 0.199007 0.199007 0.199007 0.199007 0.199007 0.199007 0.199007 0.199007 0.199007 0.199007 0.199007 0.199007 0.199007 0.199007 0.199007 0.199007 0.199007 0.199007 0.199007 0.199007 0.199007 0.199007 0.199007 0.199007 0.199007 0.199007 0.230940 0.230940 0.230940 0.230940 0.230940 0.230940 0.230940 0.230940 0.230940 0.230940 0.230940 0.230940 0.230940 0.230940 0.230940 0.230940 0.230940 0.230940 0.230940 0.230940 0.230940 0.230940 0.230940 0.230940 0.230940 0.230940 0.230940 0.230940 0.244339 0.244339 0.244339 0.244339 0.244339 0.244339 0.244339 0.244339 0.244339 0.244339 0.244339 0.244339 0.244339 0.244339 0.244339 0.244339 0.244339 0.244339 0.244339 0.244339 0.244339 0.244339 0.244339 0.251976 0.251976 0.251976 0.251976 0.251976 0.251976 0.251976 0.251976 0.251976 0.251976 0.251976 0.251976 0.251976 0.251976 0.251976 0.251976 0.251976 0.251976 0.251976 0.251976 0.264906 0.264906 0.264906 0.264906 0.264906 0.264906 0.264906 0.264906 0.264906 0.264906 0.264906 0.264906 0.264906 0.264906 0.264906 0.264906 0.264906 0.264906 0.264906 0.264906 0.264906 0.264906 0.264906 0.264906 0.264906 0.264906 0.264906 0.264906 0.264906 0.264906 0.264906 0.264906 0.264906 0.264906 0.264906 0.264906 0.264906 0.264906 0.264906 0.264906 0.264906 0.264906 0.264906 0.264906 0.264906 0.264906 0.264906 0.264906 0.264906 0.264906 0.264906 0.264906 0.264906 0.264906 0.264906 0.264906 0.264906 0.264906 0.264906 0.264906 0.264906 0.264906 0.264906 0.264906 0.264906 0.264906 0.264906 0.264906 0.264906 0.264906 0.264906 0.264906 0.264906 0.264906 0.264906 0.269680 0.269680 0.269680 0.269680 0.269680 0.269680 0.269680 0.269680 0.269680 0.269680 0.269680 0.269680 0.264906 0.264906 0.264906 0.264906 0.264906 0.264906 0.264906 0.264906 0.264906 0.264906 0.264906 0.264906 0.269680 0.269680 0.269680 0.269680 0.269680 0.269680 0.269680 0.269680 0.269680 0.269680 0.269680 0.264906 0.264906 0.264906 0.264906 0.264906 0.264906 0.264906 0.264906 0.264906 0.264906 0.264906 0.256074 0.256074 0.256074 0.256074 0.256074 0.256074 0.256074 0.256074 0.256074 0.256074 0.256074 0.264906 0.264906 0.264906 0.264906 0.264906 0.264906 0.264906 0.264906 0.264906 0.264906 0.260378 0.260378 0.260378 0.260378 0.260378 0.260378 0.260378 0.260378 0.260378 0.260378 0.264906 0.264906 0.264906 0.264906 0.264906 0.264906 0.264906 0.264906 0.264906 0.260378 0.260378 0.260378 0.260378 0.260378 0.260378 0.260378 0.260378 0.260378 0.256074 0.256074 0.256074 0.256074 0.256074 0.256074 0.256074 0.256074 0.256074 0.251976 0.251976 0.251976 0.251976 0.251976 0.251976 0.251976 0.251976 0.251976 0.264906 0.264906 0.264906 0.264906 0.264906 0.264906 0.264906 0.264906 0.264906
