# Output from CTFFind version 4.1.9, run on 2019-11-03 20:08:48
# Input file: stack6_bm3d_averaged_1_5.5_0_2000_half.mrc ; Number of micrographs: 1
# Pixel size: 3.000 Angstroms ; acceleration voltage: 300.0 keV ; spherical aberration: 0.00 mm ; amplitude contrast: 0.07
# Box size: 512 pixels ; min. res.: 30.0 Angstroms ; max. res.: 5.0 Angstroms ; min. def.: 5000.0 um; max. def. 50000.0 um; num. frames averaged: 1
# 6 lines per micrograph: #1 - spatial frequency (1/Angstroms); #2 - 1D rotational average of spectrum (assuming no astigmatism); #3 - 1D rotational average of spectrum; #4 - CTF fit; #5 - cross-correlation between spectrum and CTF fit; #6 - 2sigma of expected cross correlation of noise
0.000000 0.000651 0.001302 0.001953 0.002604 0.003255 0.003906 0.004557 0.005208 0.005859 0.006510 0.007161 0.007812 0.008464 0.009115 0.009766 0.010417 0.011068 0.011719 0.012370 0.013021 0.013672 0.014323 0.014974 0.015625 0.016276 0.016927 0.017578 0.018229 0.018880 0.019531 0.020182 0.020833 0.021484 0.022135 0.022786 0.023438 0.024089 0.024740 0.025391 0.026042 0.026693 0.027344 0.027995 0.028646 0.029297 0.029948 0.030599 0.031250 0.031901 0.032552 0.033203 0.033854 0.034505 0.035156 0.035807 0.036458 0.037109 0.037760 0.038411 0.039062 0.039714 0.040365 0.041016 0.041667 0.042318 0.042969 0.043620 0.044271 0.044922 0.045573 0.046224 0.046875 0.047526 0.048177 0.048828 0.049479 0.050130 0.050781 0.051432 0.052083 0.052734 0.053385 0.054036 0.054688 0.055339 0.055990 0.056641 0.057292 0.057943 0.058594 0.059245 0.059896 0.060547 0.061198 0.061849 0.062500 0.063151 0.063802 0.064453 0.065104 0.065755 0.066406 0.067057 0.067708 0.068359 0.069010 0.069661 0.070312 0.070964 0.071615 0.072266 0.072917 0.073568 0.074219 0.074870 0.075521 0.076172 0.076823 0.077474 0.078125 0.078776 0.079427 0.080078 0.080729 0.081380 0.082031 0.082682 0.083333 0.083984 0.084635 0.085286 0.085938 0.086589 0.087240 0.087891 0.088542 0.089193 0.089844 0.090495 0.091146 0.091797 0.092448 0.093099 0.093750 0.094401 0.095052 0.095703 0.096354 0.097005 0.097656 0.098307 0.098958 0.099609 0.100260 0.100911 0.101562 0.102214 0.102865 0.103516 0.104167 0.104818 0.105469 0.106120 0.106771 0.107422 0.108073 0.108724 0.109375 0.110026 0.110677 0.111328 0.111979 0.112630 0.113281 0.113932 0.114583 0.115234 0.115885 0.116536 0.117188 0.117839 0.118490 0.119141 0.119792 0.120443 0.121094 0.121745 0.122396 0.123047 0.123698 0.124349 0.125000 0.125651 0.126302 0.126953 0.127604 0.128255 0.128906 0.129557 0.130208 0.130859 0.131510 0.132161 0.132812 0.133464 0.134115 0.134766 0.135417 0.136068 0.136719 0.137370 0.138021 0.138672 0.139323 0.139974 0.140625 0.141276 0.141927 0.142578 0.143229 0.143880 0.144531 0.145182 0.145833 0.146484 0.147135 0.147786 0.148438 0.149089 0.149740 0.150391 0.151042 0.151693 0.152344 0.152995 0.153646 0.154297 0.154948 0.155599 0.156250 0.156901 0.157552 0.158203 0.158854 0.159505 0.160156 0.160807 0.161458 0.162109 0.162760 0.163411 0.164062 0.164714 0.165365 0.166016 0.166667 0.167318 0.167969 0.168620 0.169271 0.169922 0.170573 0.171224 0.171875 0.172526 0.173177 0.173828 0.174479 0.175130 0.175781 0.176432 0.177083 0.177734 0.178385 0.179036 0.179688 0.180339 0.180990 0.181641 0.182292 0.182943 0.183594 0.184245 0.184896 0.185547 0.186198 0.186849 0.187500 0.188151 0.188802 0.189453 0.190104 0.190755 0.191406 0.192057 0.192708 0.193359 0.194010 0.194661 0.195312 0.195964 0.196615 0.197266 0.197917 0.198568 0.199219 0.199870 0.200521 0.201172 0.201823 0.202474 0.203125 0.203776 0.204427 0.205078 0.205729 0.206380 0.207031 0.207682 0.208333 0.208984 0.209635 0.210286 0.210938 0.211589 0.212240 0.212891 0.213542 0.214193 0.214844 0.215495 0.216146 0.216797 0.217448 0.218099 0.218750 0.219401 0.220052 0.220703 0.221354 0.222005 0.222656 0.223307 0.223958 0.224609 0.225260 0.225911 0.226562 0.227214 0.227865 0.228516 0.229167 0.229818 0.230469 0.231120 0.231771 0.232422 0.233073 0.233724 0.234375 0.235026 0.235677
       0.30839        0.30839        0.30839        0.30839        0.30839        0.30839        0.30839        0.30839        0.30839        0.30839        0.30839        0.30839        0.30839        0.30839        0.30839        0.30839        0.30839        0.30839        0.30839        0.30839        0.30839        0.30839        0.30839        0.30839        0.30839        0.30839        0.30839        0.30839        0.30839        0.30839        0.30839        0.30839        0.30839        0.30839        0.30839        0.30839        0.30839        0.30839        0.30839        0.30839        0.30839        0.30839        0.30839        0.30839        0.30839        0.30839        0.30839        0.30839        0.30839        0.30839        0.30839        0.59720        0.72195        0.35387        0.18226        0.12498       -0.15051        0.10574        0.02570        0.03044        0.08727        0.30473        0.32512        0.25088        0.14639       -0.04126       -0.01411        0.03909       -0.13238       -0.14120       -0.08750       -0.10592       -0.22659       -0.14837       -0.26700       -0.28009       -0.27860       -0.34356       -0.42147       -0.36195       -0.27045       -0.24110       -0.34044       -0.25296       -0.30960       -0.24910       -0.17315       -0.12150       -0.08532       -0.01474        0.01905        0.12043        0.16381        0.20980        0.33282        0.39807        0.35228        0.46110        0.54716        0.55517        0.63739        0.57557        0.60930        0.59618        0.60997        0.61231        0.55213        0.57075        0.54841        0.38890        0.32672        0.36020        0.34131        0.18898        0.15830        0.12840        0.07996        0.08691       -0.00083        0.05789        0.03623       -0.00882        0.09384        0.15867        0.25605        0.34927        0.33797        0.36710        0.45614        0.49032        0.41913        0.64627        0.53206        0.47831        0.56788        0.49752        0.52955        0.49102        0.36439        0.30338        0.26913        0.22095        0.20669        0.18854        0.16705        0.12163        0.19766        0.18373        0.22507        0.19757        0.26129        0.30553        0.32696        0.44102        0.42784        0.40885        0.42947        0.47172        0.44494        0.43393        0.38580        0.39872        0.33404        0.28251        0.23562        0.24510        0.23708        0.18581        0.15753        0.21326        0.21724        0.26222        0.33431        0.35163        0.40824        0.38931        0.43525        0.45688        0.44875        0.42180        0.38849        0.40755        0.36772        0.32697        0.32722        0.30595        0.25232        0.27029        0.26826        0.22586        0.28923        0.26809        0.27915        0.31382        0.36794        0.40478        0.39722        0.41831        0.37149        0.40549        0.38658        0.29949        0.28096        0.23961        0.25436        0.21750        0.19627        0.28155        0.33620        0.30869        0.27981        0.33693        0.26322        0.32477        0.37069        0.36548        0.36020        0.37998        0.32167        0.33574        0.31791        0.28007        0.27616        0.23939        0.28505        0.29774        0.30830        0.32712        0.37013        0.37188        0.36500        0.32895        0.34833        0.33163        0.31651        0.31374        0.28246        0.28239        0.25030        0.30965        0.32175        0.31247        0.28785        0.32221        0.32560        0.32772        0.33819        0.30973        0.27590        0.28442        0.28390        0.26323        0.24211        0.23107        0.24239        0.25739        0.24220        0.27717        0.27846        0.32051        0.31706        0.26850        0.30022        0.26227        0.20649        0.26110        0.24104        0.22748        0.27256        0.29883        0.29122        0.29461        0.29570        0.29257        0.30289        0.31759        0.27084        0.30486        0.30241        0.34689        0.27484        0.26353        0.25404        0.30478        0.30985        0.31698        0.33432        0.30854        0.22133        0.27821        0.25259        0.23966        0.24146        0.24381        0.28291        0.23695        0.29928        0.31034        0.34207        0.30758        0.28302        0.24440        0.25759        0.26313        0.23544        0.25944        0.27901        0.31150        0.32871        0.29210        0.28691        0.26134        0.29743        0.26669        0.23228        0.19579        0.27233        0.33379        0.31204        0.30140        0.28865        0.23681        0.22227        0.23561        0.22832        0.22735        0.26765        0.27469        0.25945        0.23126        0.21496        0.26645        0.24034        0.24437        0.25783        0.25761        0.17750        0.22224        0.24934        0.23494        0.28838        0.24375        0.23783        0.19364        0.24762        0.27886        0.19538        0.20240        0.12409        0.14576        0.30971        0.17130        0.18136        0.31354        0.19204        0.16521        0.11344        0.21671        0.12220        0.15815       -0.05786       -0.60932       -0.94538
2.333323 2.313035 2.292840 2.272739 2.252733 2.232820 2.213002 2.193277 2.173646 2.154110 2.134667 2.115319 2.096065 2.076904 2.057838 2.038865 2.019987 2.001203 1.982512 1.963916 1.945414 1.927006 1.908691 1.890471 1.872345 1.854313 1.836375 1.818531 1.800781 1.783125 1.765563 1.748095 1.730721 1.713441 1.696255 1.679163 1.662165 1.645261 1.628451 1.611735 1.595114 1.578586 1.562152 1.545813 1.529567 1.513415 1.497357 1.481394 1.465524 1.449749 1.434067 1.794297 2.123473 1.471873 1.343412 1.084806 0.539789 0.918843 0.813040 0.852465 0.714564 1.367528 1.219351 1.229580 0.986819 0.648949 0.502726 0.759698 0.569250 0.246787 0.315485 0.480942 0.227766 0.258374 0.112395 0.015319 -0.013374 -0.009297 -0.291587 -0.174903 -0.014707 -0.050237 -0.103592 -0.016053 -0.140160 -0.116250 0.060877 0.154044 0.219944 0.267039 0.340433 0.587833 0.538963 0.612343 0.823371 0.991489 0.800456 1.181014 1.153626 1.216059 1.319308 1.226501 1.183361 1.326494 1.197356 1.331283 1.153174 1.094984 1.179326 0.944883 0.653397 0.715984 0.769773 0.473405 0.394087 0.341977 0.189661 0.187720 0.039407 0.170275 0.137123 -0.000257 0.105975 0.226062 0.337159 0.597826 0.585588 0.552569 0.712267 0.872308 0.586771 1.018689 0.955471 0.774160 0.895060 0.748094 0.824819 0.847506 0.576748 0.407013 0.375081 0.317369 0.209197 0.160778 0.171402 -0.015735 0.165901 0.135243 0.218982 0.106965 0.274023 0.313202 0.276720 0.487934 0.584713 0.503446 0.401872 0.591261 0.586817 0.483542 0.485492 0.435302 0.314722 0.322794 0.120622 0.173007 0.055042 0.172853 -0.066278 0.041747 0.018913 0.222749 0.101296 0.353969 0.317025 0.369924 0.415803 0.411291 0.584112 0.374373 0.392640 0.445485 0.246573 0.335638 0.182485 0.270774 0.101687 0.144757 0.106719 0.101966 0.045654 0.165152 0.068653 0.155431 0.249808 0.281910 0.344798 0.292963 0.372752 0.268447 0.312420 0.207186 0.117600 0.071612 0.018358 0.035803 -0.055665 -0.027986 0.118089 0.215479 0.090262 0.124948 0.126706 0.067931 0.209951 0.257097 0.228406 0.278999 0.175372 0.169475 0.148057 0.136330 0.090223 -0.019559 0.022076 0.177696 0.029548 0.168864 0.135811 0.273274 0.186302 0.250543 0.209660 0.227382 0.133784 0.159542 0.160056 0.090477 0.036087 0.073737 0.149301 0.170388 0.141534 0.092056 0.178793 0.157524 0.122482 0.152325 0.053264 0.010065 0.062391 0.020045 0.011055 -0.050959 -0.060254 0.004087 -0.023443 -0.048022 0.030972 0.042825 0.113992 0.074538 -0.017138 0.067300 -0.053694 -0.092051 0.027478 -0.069860 -0.083734 0.053419 0.055789 0.025135 0.073889 -0.046787 0.071016 0.128787 -0.016883 0.003026 0.101829 0.038527 0.133620 -0.032888 -0.007097 -0.046895 0.128565 0.039609 0.070468 0.116224 0.035189 -0.099066 -0.002433 -0.032760 -0.057912 -0.058097 -0.047341 0.008938 -0.093455 0.094756 0.094246 0.151812 0.056928 -0.009766 -0.016426 -0.003435 0.025572 -0.052247 0.040205 0.030145 0.136086 0.106724 0.083236 0.072688 0.035487 0.140460 -0.009304 0.009845 -0.107296 0.106941 0.187624 0.062408 0.167181 0.022925 -0.016846 -0.044032 -0.034768 -0.021084 -0.022347 0.053035 0.089637 0.032905 -0.002326 -0.036986 0.095192 0.065430 0.057897 0.090221 0.052568 -0.016730 0.027730 0.120065 0.058594 0.213083 0.106046 0.070260 0.084163 0.151398 0.211168 0.100185 0.091734 -0.053197 -0.092654 0.487422 0.312209 0.324475 0.591172 0.276330 0.288918 0.124126 0.496613 0.218467 0.329873 -0.092878 -1.671139
0.072396 0.072837 0.074161 0.076366 0.079452 0.083420 0.088267 0.093993 0.100596 0.108074 0.116424 0.125644 0.135730 0.146676 0.158478 0.171129 0.184622 0.198947 0.214093 0.230049 0.246801 0.264332 0.282626 0.301660 0.321413 0.341859 0.362968 0.384709 0.407047 0.429943 0.453355 0.477235 0.501533 0.526194 0.551159 0.576363 0.601737 0.627207 0.652693 0.678112 0.703373 0.728382 0.753039 0.777237 0.800868 0.823814 0.845956 0.867169 0.887323 0.906285 0.923918 0.940082 0.954633 0.967428 0.978321 0.987164 0.993813 0.998121 0.999945 0.999148 0.995592 0.989150 0.979698 0.967123 0.951320 0.932197 0.909673 0.883682 0.854174 0.821117 0.784498 0.744325 0.700626 0.653457 0.602895 0.549046 0.492044 0.432050 0.369257 0.303886 0.236191 0.166456 0.094997 0.022160 0.051679 0.126113 0.200710 0.275009 0.348529 0.420764 0.491192 0.559277 0.624471 0.686219 0.743967 0.797163 0.845264 0.887745 0.924098 0.953849 0.976553 0.991809 0.999267 0.998628 0.989659 0.972193 0.946140 0.911488 0.868315 0.816785 0.757160 0.689795 0.615149 0.533775 0.446328 0.353558 0.256309 0.155513 0.052184 0.052592 0.157664 0.261831 0.363848 0.462452 0.556365 0.644322 0.725081 0.797448 0.860290 0.912563 0.953325 0.981759 0.997191 0.999108 0.987175 0.961247 0.921384 0.867860 0.801171 0.722031 0.631381 0.530379 0.420393 0.302986 0.179900 0.053037 0.075574 0.203801 0.329445 0.450279 0.564084 0.668697 0.762048 0.842210 0.907442 0.956227 0.987320 0.999780 0.993006 0.966762 0.921200 0.856875 0.774748 0.676183 0.562940 0.437148 0.301270 0.158075 0.010571 0.138040 0.284438 0.425254 0.557150 0.676899 0.781470 0.868109 0.934419 0.978437 0.998698 0.994294 0.964920 0.910905 0.833227 0.733516 0.614030 0.477626 0.327691 0.168081 0.003022 0.162992 0.325323 0.479309 0.620411 0.744343 0.847214 0.925658 0.976957 0.999149 0.991110 0.952628 0.884438 0.788231 0.666633 0.523160 0.362118 0.188505 0.007856 0.173921 0.350741 0.516536 0.665470 0.792152 0.891850 0.960667 0.995721 0.995279 0.958861 0.887297 0.782737 0.648619 0.489574 0.311290 0.120320 0.076136 0.270503 0.455118 0.622538 0.765836 0.878916 0.956778 0.995765 0.993754 0.950296 0.866685 0.745954 0.592798 0.413421 0.215303 0.006911 0.202649 0.404033 0.588067 0.746173 0.870790 0.955752 0.996615 0.990920 0.938371 0.840904 0.702660 0.529850 0.330501 0.114112 0.108784 0.327109 0.529805 0.706389 0.847513 0.945479 0.994693 0.992011 0.936977 0.831918 0.681895 0.494501 0.279512 0.048409 0.186223 0.411358 0.614265 0.783236 0.908272 0.981721 0.998772 0.957817 0.860619 0.712307 0.521145 0.298114 0.056330 0.189725 0.425047 0.635013 0.806331 0.927885 0.991506 0.992552 0.930304 0.808099 0.633226 0.416531 0.171797 0.085102 0.337207 0.567591 0.760502 0.902476 0.983296 0.996791 0.941351 0.820152 0.641043 0.416100 0.160864 0.106705 0.367452 0.602403 0.794166 0.928237 0.994147 0.986331 0.904670 0.754606 0.546868 0.296763 0.023093 0.253205 0.510670 0.728973 0.890555 0.982079 0.995594 0.929293 0.787791 0.581888 0.327824 0.046050 0.240375 0.507650 0.733219 0.897698 0.986595 0.991650 0.911678 0.752822 0.528171 0.256757 0.037990 0.330232 0.593969 0.805372 0.944970 0.999513 0.963298 0.838852 0.636869 0.375378 0.078214 0.227103 0.511890 0.748996 0.915438 0.994673 0.978332 0.867195 0.671295 0.409113 0.105929 0.208571 0.503151 0.748137 0.918451 0.996229
1.000000 1.000000 1.000000 1.000000 1.000000 1.000000 1.000000 1.000000 1.000000 1.000000 1.000000 1.000000 1.000000 1.000000 1.000000 1.000000 1.000000 1.000000 1.000000 1.000000 1.000000 1.000000 1.000000 1.000000 1.000000 1.000000 1.000000 1.000000 1.000000 1.000000 1.000000 1.000000 1.000000 1.000000 1.000000 1.000000 1.000000 1.000000 1.000000 1.000000 1.000000 1.000000 1.000000 1.000000 1.000000 1.000000 1.000000 1.000000 1.000000 1.000000 1.000000 1.000000 0.776945 0.776945 0.776945 0.776945 0.776945 0.776945 0.776945 0.761729 0.761729 0.761729 0.761729 0.761729 0.761729 0.761729 0.761729 0.761729 0.761729 0.761729 0.761729 0.761729 0.761729 0.761729 0.761729 0.761729 0.761729 0.761729 0.761729 0.761729 0.761729 0.761729 0.761729 0.761729 0.761729 0.761729 0.761729 0.761729 0.761729 0.761729 0.761729 0.761729 0.761729 0.761729 0.761729 0.761729 0.761729 0.761729 0.761729 0.761729 0.761729 0.761729 0.761729 0.908152 0.908456 0.911190 0.905425 0.907266 0.904905 0.899007 0.901929 0.901061 0.900925 0.901861 0.903124 0.905071 0.910276 0.916840 0.918800 0.926623 0.930083 0.931257 0.930998 0.928059 0.934687 0.932020 0.929851 0.918722 0.922226 0.921644 0.922306 0.920854 0.921277 0.922790 0.923201 0.920734 0.919095 0.916583 0.914816 0.915296 0.914807 0.914759 0.914921 0.914258 0.915309 0.915957 0.911750 0.914328 0.912908 0.909842 0.905841 0.905856 0.906981 0.900357 0.897888 0.887854 0.889928 0.889088 0.892736 0.890183 0.889544 0.890661 0.891458 0.892157 0.889307 0.889408 0.885278 0.885409 0.881206 0.876448 0.872225 0.871859 0.874590 0.881278 0.884812 0.884794 0.882292 0.876318 0.866905 0.864980 0.850065 0.825386 0.826084 0.828637 0.830932 0.831748 0.830659 0.829485 0.826399 0.820937 0.815360 0.820631 0.820831 0.812853 0.799481 0.799377 0.794950 0.802435 0.806575 0.798477 0.800337 0.799506 0.804947 0.805740 0.804541 0.803943 0.798303 0.800219 0.808715 0.809081 0.801165 0.794554 0.790105 0.771816 0.774400 0.779630 0.791758 0.794402 0.788441 0.773366 0.783646 0.779722 0.791061 0.804331 0.805114 0.803838 0.787342 0.747068 0.733307 0.726473 0.729639 0.730921 0.720964 0.719017 0.718401 0.721247 0.685141 0.677243 0.667295 0.664027 0.671771 0.673322 0.676194 0.626374 0.645131 0.642944 0.623893 0.619166 0.581339 0.565891 0.508634 0.513936 0.514166 0.488093 0.475655 0.464412 0.480921 0.492994 0.493110 0.486509 0.463986 0.447488 0.442476 0.446439 0.455176 0.455315 0.461521 0.422110 0.405919 0.403614 0.423740 0.428647 0.427137 0.441331 0.447359 0.449414 0.436183 0.417955 0.413954 0.427112 0.437911 0.446116 0.446706 0.434078 0.413712 0.390831 0.394824 0.435459 0.431919 0.426759 0.408910 0.416700 0.412295 0.389927 0.366195 0.346416 0.385039 0.393023 0.395204 0.356626 0.321433 0.334228 0.332111 0.328300 0.318254 0.354710 0.375518 0.372195 0.377648 0.368852 0.412807 0.491001 0.481022 0.475422 0.493508 0.483080 0.466812 0.447322 0.432123 0.429011 0.419295 0.410018 0.392114 0.385013 0.370226 0.368851 0.387227 0.389761 0.420510 0.399448 0.352270 0.205966 0.259989 0.259989 0.259989 0.259989 0.259989 0.259989 0.259989 0.259989 0.259989 0.259989 0.259989 0.201655 0.201655 0.201655 0.201655 0.201655 0.201655 0.201655 0.201655 0.201655 0.201655 0.201655 0.201655 0.201655 0.201655 0.201655 0.201655 0.201655 0.201655 0.201655 0.201655
0.000000 0.000000 0.000000 0.000000 0.000000 0.000000 0.000000 0.000000 0.000000 0.000000 0.000000 0.000000 0.000000 0.000000 0.000000 0.000000 0.000000 0.000000 0.000000 0.000000 0.000000 0.000000 0.000000 0.000000 0.000000 0.000000 0.000000 0.000000 0.000000 0.000000 0.000000 0.000000 0.000000 0.000000 0.000000 0.000000 0.000000 0.000000 0.000000 0.000000 0.000000 0.000000 0.000000 0.000000 0.000000 0.000000 0.000000 0.000000 0.000000 0.000000 0.000000 0.000000 0.173422 0.173422 0.173422 0.173422 0.173422 0.173422 0.173422 0.191565 0.191565 0.191565 0.191565 0.191565 0.191565 0.191565 0.191565 0.191565 0.191565 0.191565 0.191565 0.191565 0.191565 0.191565 0.191565 0.191565 0.191565 0.191565 0.191565 0.191565 0.191565 0.191565 0.191565 0.191565 0.191565 0.191565 0.191565 0.191565 0.191565 0.191565 0.191565 0.191565 0.191565 0.191565 0.191565 0.191565 0.191565 0.191565 0.191565 0.191565 0.191565 0.191565 0.191565 0.222222 0.222222 0.222222 0.222222 0.222222 0.222222 0.222222 0.222222 0.222222 0.222222 0.222222 0.222222 0.222222 0.222222 0.222222 0.222222 0.222222 0.222222 0.222222 0.222222 0.222222 0.222222 0.222222 0.222222 0.222222 0.222222 0.222222 0.222222 0.222222 0.222222 0.234082 0.234082 0.234082 0.234082 0.234082 0.234082 0.234082 0.234082 0.234082 0.234082 0.234082 0.234082 0.234082 0.234082 0.234082 0.234082 0.234082 0.234082 0.234082 0.234082 0.234082 0.234082 0.234082 0.234082 0.234082 0.244339 0.244339 0.244339 0.244339 0.244339 0.244339 0.244339 0.244339 0.244339 0.244339 0.244339 0.244339 0.244339 0.244339 0.244339 0.244339 0.244339 0.244339 0.244339 0.244339 0.244339 0.248069 0.248069 0.248069 0.248069 0.248069 0.248069 0.248069 0.248069 0.248069 0.248069 0.248069 0.248069 0.248069 0.248069 0.248069 0.248069 0.248069 0.248069 0.248069 0.256074 0.256074 0.256074 0.256074 0.256074 0.256074 0.256074 0.256074 0.256074 0.256074 0.256074 0.256074 0.256074 0.256074 0.256074 0.256074 0.256074 0.256074 0.256074 0.256074 0.256074 0.256074 0.256074 0.256074 0.256074 0.256074 0.256074 0.256074 0.256074 0.256074 0.256074 0.256074 0.256074 0.256074 0.256074 0.256074 0.256074 0.256074 0.256074 0.256074 0.256074 0.256074 0.256074 0.256074 0.256074 0.256074 0.256074 0.256074 0.256074 0.256074 0.256074 0.256074 0.256074 0.256074 0.256074 0.256074 0.256074 0.256074 0.256074 0.256074 0.256074 0.256074 0.260378 0.260378 0.260378 0.260378 0.260378 0.260378 0.260378 0.260378 0.260378 0.260378 0.260378 0.260378 0.260378 0.256074 0.256074 0.256074 0.256074 0.256074 0.256074 0.256074 0.256074 0.256074 0.256074 0.256074 0.256074 0.256074 0.260378 0.260378 0.260378 0.260378 0.260378 0.260378 0.260378 0.260378 0.260378 0.260378 0.260378 0.260378 0.251976 0.251976 0.251976 0.251976 0.251976 0.251976 0.251976 0.251976 0.251976 0.251976 0.251976 0.251976 0.256074 0.256074 0.256074 0.256074 0.256074 0.256074 0.256074 0.256074 0.256074 0.256074 0.256074 0.251976 0.251976 0.251976 0.251976 0.251976 0.251976 0.251976 0.251976 0.251976 0.251976 0.251976 0.248069 0.248069 0.248069 0.248069 0.248069 0.248069 0.248069 0.248069 0.248069 0.248069 0.248069 0.256074 0.256074 0.256074 0.256074 0.256074 0.256074 0.256074 0.256074 0.256074 0.256074 0.256074 0.256074 0.256074 0.256074 0.256074 0.256074 0.256074 0.256074 0.256074 0.256074
