# Output from CTFFind version 4.1.9, run on 2019-11-03 19:25:52
# Input file: stack6_bm3d_averaged_1_3.75_0_750_half.mrc ; Number of micrographs: 1
# Pixel size: 3.000 Angstroms ; acceleration voltage: 300.0 keV ; spherical aberration: 0.00 mm ; amplitude contrast: 0.07
# Box size: 512 pixels ; min. res.: 30.0 Angstroms ; max. res.: 5.0 Angstroms ; min. def.: 5000.0 um; max. def. 50000.0 um; num. frames averaged: 1
# 6 lines per micrograph: #1 - spatial frequency (1/Angstroms); #2 - 1D rotational average of spectrum (assuming no astigmatism); #3 - 1D rotational average of spectrum; #4 - CTF fit; #5 - cross-correlation between spectrum and CTF fit; #6 - 2sigma of expected cross correlation of noise
0.000000 0.000651 0.001302 0.001953 0.002604 0.003255 0.003906 0.004557 0.005208 0.005859 0.006510 0.007161 0.007812 0.008464 0.009115 0.009766 0.010417 0.011068 0.011719 0.012370 0.013021 0.013672 0.014323 0.014974 0.015625 0.016276 0.016927 0.017578 0.018229 0.018880 0.019531 0.020182 0.020833 0.021484 0.022135 0.022786 0.023438 0.024089 0.024740 0.025391 0.026042 0.026693 0.027344 0.027995 0.028646 0.029297 0.029948 0.030599 0.031250 0.031901 0.032552 0.033203 0.033854 0.034505 0.035156 0.035807 0.036458 0.037109 0.037760 0.038411 0.039062 0.039714 0.040365 0.041016 0.041667 0.042318 0.042969 0.043620 0.044271 0.044922 0.045573 0.046224 0.046875 0.047526 0.048177 0.048828 0.049479 0.050130 0.050781 0.051432 0.052083 0.052734 0.053385 0.054036 0.054688 0.055339 0.055990 0.056641 0.057292 0.057943 0.058594 0.059245 0.059896 0.060547 0.061198 0.061849 0.062500 0.063151 0.063802 0.064453 0.065104 0.065755 0.066406 0.067057 0.067708 0.068359 0.069010 0.069661 0.070312 0.070964 0.071615 0.072266 0.072917 0.073568 0.074219 0.074870 0.075521 0.076172 0.076823 0.077474 0.078125 0.078776 0.079427 0.080078 0.080729 0.081380 0.082031 0.082682 0.083333 0.083984 0.084635 0.085286 0.085938 0.086589 0.087240 0.087891 0.088542 0.089193 0.089844 0.090495 0.091146 0.091797 0.092448 0.093099 0.093750 0.094401 0.095052 0.095703 0.096354 0.097005 0.097656 0.098307 0.098958 0.099609 0.100260 0.100911 0.101562 0.102214 0.102865 0.103516 0.104167 0.104818 0.105469 0.106120 0.106771 0.107422 0.108073 0.108724 0.109375 0.110026 0.110677 0.111328 0.111979 0.112630 0.113281 0.113932 0.114583 0.115234 0.115885 0.116536 0.117188 0.117839 0.118490 0.119141 0.119792 0.120443 0.121094 0.121745 0.122396 0.123047 0.123698 0.124349 0.125000 0.125651 0.126302 0.126953 0.127604 0.128255 0.128906 0.129557 0.130208 0.130859 0.131510 0.132161 0.132812 0.133464 0.134115 0.134766 0.135417 0.136068 0.136719 0.137370 0.138021 0.138672 0.139323 0.139974 0.140625 0.141276 0.141927 0.142578 0.143229 0.143880 0.144531 0.145182 0.145833 0.146484 0.147135 0.147786 0.148438 0.149089 0.149740 0.150391 0.151042 0.151693 0.152344 0.152995 0.153646 0.154297 0.154948 0.155599 0.156250 0.156901 0.157552 0.158203 0.158854 0.159505 0.160156 0.160807 0.161458 0.162109 0.162760 0.163411 0.164062 0.164714 0.165365 0.166016 0.166667 0.167318 0.167969 0.168620 0.169271 0.169922 0.170573 0.171224 0.171875 0.172526 0.173177 0.173828 0.174479 0.175130 0.175781 0.176432 0.177083 0.177734 0.178385 0.179036 0.179688 0.180339 0.180990 0.181641 0.182292 0.182943 0.183594 0.184245 0.184896 0.185547 0.186198 0.186849 0.187500 0.188151 0.188802 0.189453 0.190104 0.190755 0.191406 0.192057 0.192708 0.193359 0.194010 0.194661 0.195312 0.195964 0.196615 0.197266 0.197917 0.198568 0.199219 0.199870 0.200521 0.201172 0.201823 0.202474 0.203125 0.203776 0.204427 0.205078 0.205729 0.206380 0.207031 0.207682 0.208333 0.208984 0.209635 0.210286 0.210938 0.211589 0.212240 0.212891 0.213542 0.214193 0.214844 0.215495 0.216146 0.216797 0.217448 0.218099 0.218750 0.219401 0.220052 0.220703 0.221354 0.222005 0.222656 0.223307 0.223958 0.224609 0.225260 0.225911 0.226562 0.227214 0.227865 0.228516 0.229167 0.229818 0.230469 0.231120 0.231771 0.232422 0.233073 0.233724 0.234375 0.235026 0.235677
       0.30140        0.30140        0.30140        0.30140        0.30140        0.30140        0.30140        0.30140        0.30140        0.30140        0.30140        0.30140        0.30140        0.30140        0.30140        0.30140        0.30140        0.30139        0.30139        0.30140        0.30140        0.30139        0.30139        0.30140        0.30139        0.30140        0.30139        0.30140        0.30140        0.30140        0.30139        0.30140        0.30139        0.30139        0.30140        0.30140        0.30140        0.30139        0.30140        0.30139        0.30140        0.30139        0.30140        0.30140        0.30139        0.30140        0.30139        0.30140        0.30140        0.30140        0.30139        0.60994        0.75370        0.36551        0.21866        0.13657       -0.14800        0.11578        0.02505        0.03678        0.09674        0.32483        0.36477        0.29959        0.17752       -0.02914        0.00587        0.04808       -0.15952       -0.17063       -0.09072       -0.11998       -0.26658       -0.16522       -0.29890       -0.29706       -0.30550       -0.37483       -0.45059       -0.41793       -0.33467       -0.29570       -0.39085       -0.29722       -0.35941       -0.29456       -0.22691       -0.17382       -0.13502       -0.05106       -0.02469        0.09097        0.13041        0.21755        0.32746        0.39153        0.36727        0.47306        0.56271        0.57694        0.66033        0.62178        0.67270        0.60906        0.63721        0.63685        0.57490        0.57352        0.57961        0.40294        0.33560        0.35834        0.34452        0.18095        0.12920        0.08480        0.07305        0.06683       -0.03566        0.02796       -0.01176       -0.05325        0.06922        0.15608        0.25706        0.33878        0.32736        0.37672        0.49233        0.52231        0.46041        0.65377        0.52627        0.50021        0.55939        0.51796        0.51550        0.46642        0.37445        0.33158        0.23905        0.19783        0.16371        0.15871        0.12832        0.07316        0.12116        0.15093        0.18913        0.17359        0.23827        0.27401        0.33254        0.45255        0.42259        0.42834        0.47873        0.52438        0.51687        0.47698        0.37774        0.40357        0.35489        0.27930        0.22623        0.23031        0.19514        0.17247        0.15955        0.18147        0.17072        0.22027        0.28313        0.33633        0.38926        0.39554        0.45532        0.47398        0.44888        0.43302        0.39978        0.40602        0.39440        0.34443        0.29724        0.28207        0.23196        0.25039        0.24176        0.20019        0.23868        0.23856        0.25184        0.31961        0.35587        0.38272        0.38961        0.40036        0.40722        0.40556        0.40385        0.29482        0.28622        0.25470        0.26886        0.22974        0.19412        0.25699        0.30729        0.29400        0.27842        0.32900        0.27559        0.36346        0.34641        0.35367        0.36298        0.36882        0.31136        0.30852        0.28926        0.27831        0.26078        0.24923        0.25687        0.28736        0.28550        0.30806        0.34941        0.36742        0.33926        0.33305        0.34697        0.31036        0.28906        0.28978        0.26678        0.27271        0.26454        0.29399        0.28999        0.27562        0.29780        0.30542        0.31978        0.32679        0.32943        0.27670        0.26122        0.28612        0.27578        0.26497        0.25599        0.22431        0.24488        0.25459        0.24717        0.26456        0.28009        0.31962        0.31979        0.30277        0.30498        0.23033        0.22345        0.27057        0.23690        0.20502        0.25944        0.31626        0.25289        0.29571        0.29407        0.29714        0.30775        0.27535        0.27110        0.28779        0.26662        0.27349        0.23244        0.25619        0.24941        0.29124        0.28946        0.31546        0.30685        0.32094        0.23407        0.28744        0.28029        0.22641        0.27901        0.26295        0.28957        0.28748        0.30541        0.29805        0.34428        0.29113        0.25423        0.24717        0.21878        0.23955        0.26778        0.29691        0.28195        0.28523        0.28522        0.27448        0.27029        0.27036        0.23680        0.28307        0.23957        0.23363        0.22211        0.29900        0.30185        0.27849        0.28295        0.22292        0.28216        0.24710        0.20082        0.22454        0.26712        0.27402        0.30968        0.21302        0.20313        0.25840        0.24140        0.25455        0.21349        0.21333        0.20219        0.24640        0.25814        0.21327        0.26152        0.23281        0.27414        0.20388        0.25857        0.28728        0.20656        0.14878        0.15698        0.12661        0.20506        0.14436        0.08615        0.30923        0.17274        0.08408        0.09648        0.10156        0.18240        0.22997       -0.00698       -0.74662       -1.06552
3.032961 3.002860 2.972914 2.943121 2.913484 2.884000 2.854671 2.825496 2.796476 2.767611 2.738899 2.710342 2.681940 2.653691 2.625598 2.597658 2.569874 2.542243 2.514767 2.487445 2.460278 2.433265 2.406407 2.379703 2.353153 2.326758 2.300517 2.274431 2.248499 2.222721 2.197098 2.171629 2.146315 2.121155 2.096150 2.071299 2.046602 2.022060 1.997672 1.973439 1.949360 1.925435 1.901665 1.878049 1.854588 1.831281 1.808128 1.785130 1.762286 1.739597 1.717062 2.064552 2.397711 1.756611 1.688789 1.385167 0.844100 1.242132 1.102092 1.135345 0.994581 1.602906 1.518036 1.516083 1.257907 0.925914 0.764547 1.007952 0.751637 0.427306 0.556246 0.663597 0.396161 0.452103 0.280588 0.216881 0.143840 0.147786 -0.116082 -0.049556 0.065567 0.043274 0.004836 0.097567 -0.054879 -0.011992 0.134955 0.207485 0.261966 0.330684 0.366064 0.637479 0.553805 0.678584 0.906889 0.979505 0.900116 1.192334 1.187381 1.270872 1.347408 1.215217 1.422707 1.211064 1.193784 1.360569 1.147817 1.084346 1.190292 0.949390 0.663306 0.701189 0.755534 0.448120 0.369598 0.262644 0.177943 0.160957 0.008414 0.125145 0.038701 -0.080932 0.067731 0.198375 0.311867 0.516344 0.519312 0.506724 0.707761 0.816030 0.578525 0.982374 0.904232 0.627579 0.788995 0.672287 0.738710 0.709626 0.440217 0.438181 0.251066 0.187158 0.129640 0.006242 0.050588 -0.106022 -0.031730 -0.029163 0.096650 -0.037106 0.203329 0.167594 0.185285 0.403107 0.478699 0.394500 0.374653 0.600837 0.582110 0.476804 0.354313 0.339694 0.308371 0.180945 0.059883 0.039218 0.008404 -0.017285 -0.097107 -0.052393 -0.117094 0.035511 0.010175 0.160230 0.231081 0.248846 0.358826 0.351877 0.395478 0.368394 0.422918 0.374212 0.267136 0.328001 0.143286 0.191259 0.060834 0.100613 0.039587 0.049138 -0.049795 0.073395 0.019712 0.121193 0.227265 0.231514 0.274239 0.281428 0.295328 0.306619 0.310543 0.199511 0.075215 0.106760 0.035894 0.032222 -0.050100 -0.045023 0.062941 0.127098 0.080505 0.089554 0.097532 0.144217 0.198786 0.168405 0.187977 0.228692 0.145828 0.100427 0.085801 0.064703 0.058161 -0.028614 0.025043 0.082180 0.009887 0.094068 0.111850 0.201144 0.207402 0.176975 0.149628 0.174152 0.085271 0.084641 0.096850 0.033148 0.024696 0.074971 0.075614 0.085089 0.050898 0.107679 0.102951 0.140871 0.145381 0.113821 0.052468 0.008707 0.074060 0.023885 0.060034 -0.019733 -0.051729 0.015778 -0.007581 -0.011670 0.048448 0.029940 0.129807 0.124819 0.051717 0.074813 -0.067521 -0.005453 0.037466 -0.062082 -0.071715 0.058214 0.088017 -0.023999 0.063762 0.054878 0.088771 0.071908 -0.009804 0.014947 0.106942 -0.057063 0.034818 -0.036132 0.009798 -0.039460 0.080333 0.031493 0.087243 0.051282 0.099019 -0.070982 0.052777 -0.010906 -0.062367 0.021154 -0.010659 0.019718 0.027912 0.108358 0.047486 0.075990 0.056763 -0.093105 -0.007809 -0.107142 -0.029359 0.017828 0.027661 0.024593 0.001421 0.036148 0.012426 -0.016706 0.004796 -0.072089 0.044835 -0.036210 -0.072472 -0.051424 0.057410 0.031853 0.031036 0.046609 -0.043342 0.052561 0.000496 -0.092818 -0.024092 0.029448 0.083110 0.101030 -0.048238 -0.038606 0.062853 0.027781 -0.018871 0.008500 -0.086034 0.023863 0.062481 0.070997 0.002929 0.116390 0.026590 0.181093 -0.003585 0.167929 0.199566 0.037729 -0.057942 0.000699 -0.151795 0.153629 -0.013826 -0.011634 0.509951 0.236860 0.129961 0.190592 0.205695 0.258923 0.330051 0.002479 -1.744567
0.072396 0.072835 0.074150 0.076341 0.079409 0.083352 0.088170 0.093861 0.100423 0.107855 0.116155 0.125319 0.135343 0.146223 0.157953 0.170528 0.183939 0.198178 0.213234 0.229096 0.245749 0.263178 0.281366 0.300292 0.319933 0.340264 0.361258 0.382883 0.405103 0.427882 0.451176 0.474942 0.499127 0.523679 0.548539 0.573644 0.598925 0.624309 0.649720 0.675073 0.700280 0.725249 0.749881 0.774071 0.797711 0.820687 0.842881 0.864169 0.884423 0.903512 0.921301 0.937652 0.952423 0.965471 0.976652 0.985820 0.992832 0.997541 0.999808 0.999493 0.996461 0.990583 0.981736 0.969806 0.954687 0.936285 0.914518 0.889318 0.860631 0.828422 0.792674 0.753390 0.710593 0.664334 0.614682 0.561739 0.505627 0.446503 0.384548 0.319975 0.253029 0.183983 0.113143 0.040843 0.032550 0.106642 0.181010 0.255206 0.328758 0.401170 0.471930 0.540510 0.606369 0.668961 0.727733 0.782140 0.831639 0.875704 0.913827 0.945526 0.970352 0.987895 0.997788 0.999722 0.993442 0.978763 0.955569 0.923825 0.883576 0.834957 0.778195 0.713611 0.641623 0.562748 0.477600 0.386891 0.291423 0.192090 0.089868 0.014191 0.118969 0.223292 0.325943 0.425674 0.521223 0.611329 0.694751 0.770285 0.836783 0.893174 0.938481 0.971844 0.992537 0.999983 0.993778 0.973699 0.939721 0.892026 0.831011 0.757294 0.671711 0.575319 0.469383 0.355372 0.234934 0.109890 0.017805 0.146079 0.272779 0.395705 0.512652 0.621444 0.719983 0.806289 0.878543 0.935132 0.974693 0.996142 0.998720 0.982013 0.945985 0.890986 0.817771 0.727495 0.621708 0.502336 0.371661 0.232275 0.087046 0.060945 0.208461 0.352180 0.488766 0.614957 0.727633 0.823912 0.901219 0.957367 0.990630 0.999801 0.984246 0.943939 0.879494 0.792167 0.683849 0.557041 0.414810 0.260721 0.098766 0.066746 0.231284 0.390227 0.538990 0.673162 0.788641 0.881766 0.949447 0.989277 0.999634 0.979752 0.929784 0.850826 0.744912 0.614989 0.464848 0.299027 0.122695 0.058509 0.238643 0.411660 0.571603 0.712828 0.830200 0.919296 0.976589 0.999602 0.987030 0.938832 0.856271 0.741907 0.599546 0.434134 0.251608 0.058694 0.137330 0.328897 0.508453 0.668744 0.803129 0.905865 0.972372 0.999457 0.985489 0.930519 0.836325 0.706386 0.545794 0.361070 0.159924 0.049048 0.256720 0.453837 0.631420 0.781197 0.895991 0.970093 0.999569 0.982499 0.919119 0.811881 0.665390 0.486244 0.282764 0.064641 0.157523 0.372710 0.570040 0.739320 0.871594 0.959637 0.998379 0.985231 0.920289 0.806399 0.649082 0.456306 0.238112 0.006125 0.227055 0.448520 0.645779 0.807473 0.924052 0.988367 0.996150 0.946331 0.841191 0.686301 0.490293 0.264394 0.021850 0.222866 0.454882 0.659838 0.824797 0.939088 0.995021 0.988462 0.919177 0.790941 0.611400 0.391657 0.145636 0.110772 0.360715 0.587486 0.775648 0.912115 0.987095 0.994843 0.934157 0.808559 0.626169 0.399238 0.143363 0.123529 0.382436 0.614611 0.802955 0.933287 0.995468 0.984245 0.899748 0.747608 0.538653 0.288194 0.014962 0.260262 0.516215 0.732808 0.892713 0.982809 0.995303 0.928483 0.786980 0.581531 0.328242 0.047376 0.238219 0.504963 0.730479 0.895514 0.985624 0.992500 0.914812 0.758469 0.536264 0.266889 0.026552 0.318505 0.583169 0.796802 0.939858 0.998874 0.967783 0.848634 0.651568 0.394036 0.099343 0.205409 0.491793 0.732710 0.904975 0.991618 0.983626 0.880975 0.692809 0.436724 0.137219 0.176594 0.473785 0.724648 0.903703
1.000000 1.000000 1.000000 1.000000 1.000000 1.000000 1.000000 1.000000 1.000000 1.000000 1.000000 1.000000 1.000000 1.000000 1.000000 1.000000 1.000000 1.000000 1.000000 1.000000 1.000000 1.000000 1.000000 1.000000 1.000000 1.000000 1.000000 1.000000 1.000000 1.000000 1.000000 1.000000 1.000000 1.000000 1.000000 1.000000 1.000000 1.000000 1.000000 1.000000 1.000000 1.000000 1.000000 1.000000 1.000000 1.000000 1.000000 1.000000 1.000000 1.000000 1.000000 1.000000 0.824986 0.824986 0.824986 0.824986 0.824986 0.824986 0.824986 0.799790 0.799790 0.799790 0.799790 0.799790 0.799790 0.799790 0.799790 0.799790 0.799790 0.799790 0.799790 0.799790 0.799790 0.799790 0.799790 0.799790 0.799790 0.799790 0.799790 0.799790 0.799790 0.799790 0.799790 0.799790 0.799790 0.799790 0.799790 0.799790 0.799790 0.799790 0.799790 0.799790 0.799790 0.799790 0.799790 0.799790 0.799790 0.799790 0.799790 0.799790 0.799790 0.799790 0.799790 0.947578 0.948396 0.948736 0.949355 0.947771 0.947465 0.943352 0.942434 0.944884 0.944657 0.944642 0.945606 0.945158 0.946365 0.947844 0.949770 0.950220 0.958370 0.962107 0.961527 0.960686 0.959653 0.973383 0.973249 0.973019 0.972983 0.973106 0.971545 0.970155 0.970057 0.970672 0.972629 0.973084 0.971259 0.969502 0.968794 0.968223 0.968036 0.967410 0.967754 0.968547 0.968630 0.969180 0.971874 0.970988 0.971623 0.970248 0.969514 0.968412 0.966530 0.966569 0.966389 0.965952 0.963817 0.961815 0.962598 0.960892 0.961340 0.961645 0.961914 0.962192 0.962092 0.961844 0.961860 0.962666 0.959909 0.946797 0.943862 0.940749 0.941924 0.944119 0.946663 0.946411 0.945318 0.943456 0.938865 0.934968 0.922246 0.916454 0.912945 0.916639 0.916684 0.917339 0.917093 0.915022 0.913548 0.913770 0.911891 0.914826 0.914247 0.911241 0.903675 0.901711 0.899073 0.900677 0.903002 0.904975 0.904317 0.900162 0.885655 0.877417 0.881093 0.880352 0.886771 0.879387 0.878757 0.878799 0.867800 0.864137 0.856625 0.855648 0.856829 0.858009 0.859014 0.860561 0.857927 0.836698 0.831482 0.828011 0.820287 0.824092 0.833540 0.834832 0.831433 0.817061 0.810676 0.795907 0.796516 0.799677 0.797581 0.804541 0.784458 0.784546 0.765969 0.766009 0.762037 0.751506 0.748123 0.734571 0.739075 0.743454 0.750697 0.751429 0.734800 0.728410 0.691404 0.698098 0.670041 0.677943 0.677324 0.665147 0.652090 0.642307 0.650660 0.651497 0.656609 0.629687 0.621313 0.601627 0.595512 0.601932 0.589839 0.593773 0.593804 0.588654 0.579779 0.591069 0.600914 0.607060 0.587317 0.586679 0.586851 0.558091 0.535411 0.518676 0.509331 0.520065 0.538668 0.534989 0.537326 0.529044 0.495250 0.477565 0.503288 0.512340 0.525775 0.515381 0.502572 0.493219 0.503439 0.480711 0.503083 0.498997 0.499798 0.476541 0.428267 0.383547 0.337008 0.356735 0.366174 0.370330 0.366331 0.365666 0.344085 0.298737 0.293948 0.295705 0.317435 0.306102 0.274962 0.289910 0.289457 0.291997 0.292179 0.284179 0.299589 0.292922 0.321935 0.324869 0.263753 0.240060 0.189040 0.183957 0.188078 0.214904 0.235777 0.226723 0.201464 0.093502 0.116822 0.145769 0.145769 0.145769 0.145769 0.145769 0.145769 0.145769 0.145769 0.145769 0.145769 0.145769 0.077648 0.077648 0.077648 0.077648 0.077648 0.077648 0.077648 0.077648 0.077648 0.077648 0.077648 0.077648 0.077648 0.077648 0.077648 0.077648 0.077648 0.077648 0.077648
0.000000 0.000000 0.000000 0.000000 0.000000 0.000000 0.000000 0.000000 0.000000 0.000000 0.000000 0.000000 0.000000 0.000000 0.000000 0.000000 0.000000 0.000000 0.000000 0.000000 0.000000 0.000000 0.000000 0.000000 0.000000 0.000000 0.000000 0.000000 0.000000 0.000000 0.000000 0.000000 0.000000 0.000000 0.000000 0.000000 0.000000 0.000000 0.000000 0.000000 0.000000 0.000000 0.000000 0.000000 0.000000 0.000000 0.000000 0.000000 0.000000 0.000000 0.000000 0.000000 0.173422 0.173422 0.173422 0.173422 0.173422 0.173422 0.173422 0.191565 0.191565 0.191565 0.191565 0.191565 0.191565 0.191565 0.191565 0.191565 0.191565 0.191565 0.191565 0.191565 0.191565 0.191565 0.191565 0.191565 0.191565 0.191565 0.191565 0.191565 0.191565 0.191565 0.191565 0.191565 0.191565 0.191565 0.191565 0.191565 0.191565 0.191565 0.191565 0.191565 0.191565 0.191565 0.191565 0.191565 0.191565 0.191565 0.191565 0.191565 0.191565 0.191565 0.191565 0.219529 0.219529 0.219529 0.219529 0.219529 0.219529 0.219529 0.219529 0.219529 0.219529 0.219529 0.219529 0.219529 0.219529 0.219529 0.219529 0.219529 0.219529 0.219529 0.219529 0.219529 0.219529 0.219529 0.219529 0.219529 0.219529 0.219529 0.219529 0.219529 0.219529 0.219529 0.237356 0.237356 0.237356 0.237356 0.237356 0.237356 0.237356 0.237356 0.237356 0.237356 0.237356 0.237356 0.237356 0.237356 0.237356 0.237356 0.237356 0.237356 0.237356 0.237356 0.237356 0.237356 0.237356 0.237356 0.244339 0.244339 0.244339 0.244339 0.244339 0.244339 0.244339 0.244339 0.244339 0.244339 0.244339 0.244339 0.244339 0.244339 0.244339 0.244339 0.244339 0.244339 0.244339 0.244339 0.244339 0.248069 0.248069 0.248069 0.248069 0.248069 0.248069 0.248069 0.248069 0.248069 0.248069 0.248069 0.248069 0.248069 0.248069 0.248069 0.248069 0.248069 0.248069 0.248069 0.248069 0.248069 0.248069 0.248069 0.248069 0.248069 0.248069 0.248069 0.248069 0.248069 0.248069 0.248069 0.248069 0.248069 0.248069 0.248069 0.248069 0.248069 0.256074 0.256074 0.256074 0.256074 0.256074 0.256074 0.256074 0.256074 0.256074 0.256074 0.256074 0.256074 0.256074 0.256074 0.256074 0.256074 0.256074 0.256074 0.256074 0.256074 0.256074 0.256074 0.256074 0.256074 0.256074 0.256074 0.256074 0.256074 0.256074 0.256074 0.256074 0.256074 0.256074 0.256074 0.256074 0.256074 0.256074 0.256074 0.256074 0.256074 0.256074 0.256074 0.256074 0.256074 0.256074 0.260378 0.260378 0.260378 0.260378 0.260378 0.260378 0.260378 0.260378 0.260378 0.260378 0.260378 0.260378 0.260378 0.256074 0.256074 0.256074 0.256074 0.256074 0.256074 0.256074 0.256074 0.256074 0.256074 0.256074 0.256074 0.256074 0.260378 0.260378 0.260378 0.260378 0.260378 0.260378 0.260378 0.260378 0.260378 0.260378 0.260378 0.260378 0.251976 0.251976 0.251976 0.251976 0.251976 0.251976 0.251976 0.251976 0.251976 0.251976 0.251976 0.251976 0.256074 0.256074 0.256074 0.256074 0.256074 0.256074 0.256074 0.256074 0.256074 0.256074 0.256074 0.251976 0.251976 0.251976 0.251976 0.251976 0.251976 0.251976 0.251976 0.251976 0.251976 0.251976 0.248069 0.248069 0.248069 0.248069 0.248069 0.248069 0.248069 0.248069 0.248069 0.248069 0.248069 0.256074 0.256074 0.256074 0.256074 0.256074 0.256074 0.256074 0.256074 0.256074 0.256074 0.256074 0.256074 0.256074 0.256074 0.256074 0.256074 0.256074 0.256074 0.256074
