# Output from CTFFind version 4.1.9, run on 2019-11-03 19:01:44
# Input file: stack11_bm3d_averaged_1_3.25_0_250_half.mrc ; Number of micrographs: 1
# Pixel size: 3.000 Angstroms ; acceleration voltage: 300.0 keV ; spherical aberration: 0.00 mm ; amplitude contrast: 0.07
# Box size: 512 pixels ; min. res.: 30.0 Angstroms ; max. res.: 5.0 Angstroms ; min. def.: 5000.0 um; max. def. 50000.0 um; num. frames averaged: 1
# 6 lines per micrograph: #1 - spatial frequency (1/Angstroms); #2 - 1D rotational average of spectrum (assuming no astigmatism); #3 - 1D rotational average of spectrum; #4 - CTF fit; #5 - cross-correlation between spectrum and CTF fit; #6 - 2sigma of expected cross correlation of noise
0.000000 0.000651 0.001302 0.001953 0.002604 0.003255 0.003906 0.004557 0.005208 0.005859 0.006510 0.007161 0.007812 0.008464 0.009115 0.009766 0.010417 0.011068 0.011719 0.012370 0.013021 0.013672 0.014323 0.014974 0.015625 0.016276 0.016927 0.017578 0.018229 0.018880 0.019531 0.020182 0.020833 0.021484 0.022135 0.022786 0.023438 0.024089 0.024740 0.025391 0.026042 0.026693 0.027344 0.027995 0.028646 0.029297 0.029948 0.030599 0.031250 0.031901 0.032552 0.033203 0.033854 0.034505 0.035156 0.035807 0.036458 0.037109 0.037760 0.038411 0.039062 0.039714 0.040365 0.041016 0.041667 0.042318 0.042969 0.043620 0.044271 0.044922 0.045573 0.046224 0.046875 0.047526 0.048177 0.048828 0.049479 0.050130 0.050781 0.051432 0.052083 0.052734 0.053385 0.054036 0.054688 0.055339 0.055990 0.056641 0.057292 0.057943 0.058594 0.059245 0.059896 0.060547 0.061198 0.061849 0.062500 0.063151 0.063802 0.064453 0.065104 0.065755 0.066406 0.067057 0.067708 0.068359 0.069010 0.069661 0.070312 0.070964 0.071615 0.072266 0.072917 0.073568 0.074219 0.074870 0.075521 0.076172 0.076823 0.077474 0.078125 0.078776 0.079427 0.080078 0.080729 0.081380 0.082031 0.082682 0.083333 0.083984 0.084635 0.085286 0.085938 0.086589 0.087240 0.087891 0.088542 0.089193 0.089844 0.090495 0.091146 0.091797 0.092448 0.093099 0.093750 0.094401 0.095052 0.095703 0.096354 0.097005 0.097656 0.098307 0.098958 0.099609 0.100260 0.100911 0.101562 0.102214 0.102865 0.103516 0.104167 0.104818 0.105469 0.106120 0.106771 0.107422 0.108073 0.108724 0.109375 0.110026 0.110677 0.111328 0.111979 0.112630 0.113281 0.113932 0.114583 0.115234 0.115885 0.116536 0.117188 0.117839 0.118490 0.119141 0.119792 0.120443 0.121094 0.121745 0.122396 0.123047 0.123698 0.124349 0.125000 0.125651 0.126302 0.126953 0.127604 0.128255 0.128906 0.129557 0.130208 0.130859 0.131510 0.132161 0.132812 0.133464 0.134115 0.134766 0.135417 0.136068 0.136719 0.137370 0.138021 0.138672 0.139323 0.139974 0.140625 0.141276 0.141927 0.142578 0.143229 0.143880 0.144531 0.145182 0.145833 0.146484 0.147135 0.147786 0.148438 0.149089 0.149740 0.150391 0.151042 0.151693 0.152344 0.152995 0.153646 0.154297 0.154948 0.155599 0.156250 0.156901 0.157552 0.158203 0.158854 0.159505 0.160156 0.160807 0.161458 0.162109 0.162760 0.163411 0.164062 0.164714 0.165365 0.166016 0.166667 0.167318 0.167969 0.168620 0.169271 0.169922 0.170573 0.171224 0.171875 0.172526 0.173177 0.173828 0.174479 0.175130 0.175781 0.176432 0.177083 0.177734 0.178385 0.179036 0.179688 0.180339 0.180990 0.181641 0.182292 0.182943 0.183594 0.184245 0.184896 0.185547 0.186198 0.186849 0.187500 0.188151 0.188802 0.189453 0.190104 0.190755 0.191406 0.192057 0.192708 0.193359 0.194010 0.194661 0.195312 0.195964 0.196615 0.197266 0.197917 0.198568 0.199219 0.199870 0.200521 0.201172 0.201823 0.202474 0.203125 0.203776 0.204427 0.205078 0.205729 0.206380 0.207031 0.207682 0.208333 0.208984 0.209635 0.210286 0.210938 0.211589 0.212240 0.212891 0.213542 0.214193 0.214844 0.215495 0.216146 0.216797 0.217448 0.218099 0.218750 0.219401 0.220052 0.220703 0.221354 0.222005 0.222656 0.223307 0.223958 0.224609 0.225260 0.225911 0.226562 0.227214 0.227865 0.228516 0.229167 0.229818 0.230469 0.231120 0.231771 0.232422 0.233073 0.233724 0.234375 0.235026 0.235677
       0.32998        0.32998        0.32998        0.32998        0.32998        0.32998        0.32998        0.32998        0.32998        0.32998        0.32998        0.32998        0.32998        0.32998        0.32998        0.32998        0.32998        0.32998        0.32998        0.32998        0.32998        0.32998        0.32998        0.32998        0.32998        0.32998        0.32998        0.32998        0.32998        0.32998        0.32998        0.32998        0.32998        0.32998        0.32998        0.32998        0.32998        0.32998        0.32998        0.32998        0.32998        0.32998        0.32998        0.32998        0.32998        0.32998        0.32998        0.32998        0.32998        0.32998        0.32998        0.68903        0.86173        0.53008        0.10074       -0.04139       -0.40559       -0.18907       -0.29099       -0.11263       -0.06061       -0.11235       -0.05782       -0.18529       -0.21584       -0.23268       -0.31812       -0.32885       -0.46140       -0.37043       -0.44183       -0.43486       -0.40701       -0.43758       -0.48811       -0.53245       -0.56913       -0.58581       -0.55204       -0.38212       -0.35555       -0.31156       -0.29038       -0.19745       -0.18929        0.04004        0.11425        0.14539        0.24677        0.37613        0.45135        0.51427        0.57818        0.57616        0.56985        0.69325        0.80596        0.71595        0.73562        0.63660        0.56697        0.48207        0.42066        0.50485        0.38907        0.23947        0.09557        0.07945        0.05591       -0.03993        0.00435        0.02222       -0.02787        0.00878        0.00286        0.23067        0.26127        0.28996        0.42653        0.44934        0.40750        0.57144        0.62518        0.66435        0.73906        0.68068        0.64929        0.67625        0.56832        0.47563        0.41803        0.29611        0.23171        0.16647        0.12235        0.05044        0.03451        0.03565        0.08458        0.13813        0.22307        0.27817        0.40003        0.44823        0.48617        0.58819        0.61617        0.63753        0.62161        0.56171        0.45506        0.46300        0.36945        0.24831        0.19206        0.15309        0.14658        0.13764        0.12108        0.14797        0.28241        0.29353        0.37630        0.40923        0.43334        0.50168        0.55013        0.55410        0.48701        0.45108        0.39989        0.35092        0.31793        0.28109        0.22669        0.22081        0.20747        0.22611        0.20552        0.29612        0.35403        0.38203        0.43868        0.45255        0.47432        0.42156        0.39682        0.40459        0.36041        0.29640        0.26595        0.24088        0.24157        0.21459        0.25964        0.26121        0.33484        0.36901        0.39787        0.47560        0.42312        0.42907        0.43302        0.40459        0.34413        0.31806        0.28773        0.29506        0.25941        0.29704        0.29194        0.31453        0.32309        0.34129        0.31982        0.40283        0.41866        0.38151        0.34644        0.37137        0.29991        0.28669        0.27822        0.30577        0.28771        0.30080        0.31404        0.32810        0.33954        0.36633        0.37012        0.38272        0.37014        0.31710        0.33075        0.28643        0.26297        0.31501        0.30725        0.31779        0.32149        0.32208        0.35811        0.32646        0.32392        0.30896        0.32207        0.29035        0.29813        0.26713        0.29555        0.30703        0.29149        0.31222        0.33373        0.34167        0.27683        0.31294        0.27970        0.29434        0.27346        0.23355        0.28967        0.29192        0.34087        0.32636        0.32404        0.31929        0.33197        0.29045        0.33013        0.32460        0.28898        0.27268        0.31544        0.30224        0.34876        0.32768        0.32904        0.33340        0.28931        0.27473        0.30257        0.24761        0.22116        0.31388        0.31846        0.32421        0.31678        0.33022        0.30131        0.33905        0.33562        0.25952        0.23696        0.30181        0.29936        0.29288        0.31598        0.33324        0.33854        0.30599        0.29171        0.33722        0.31651        0.28544        0.26792        0.31676        0.35228        0.39263        0.31198        0.28320        0.27364        0.30512        0.25781        0.28733        0.26441        0.24900        0.31384        0.32858        0.33847        0.33132        0.29180        0.26519        0.27207        0.25082        0.24128        0.24185        0.32096        0.29104        0.21850        0.32679        0.31699        0.25720        0.26801        0.20315        0.20531        0.25447        0.19022        0.24617        0.27603        0.22290        0.20458        0.29792        0.33989        0.33965        0.33576        0.25374        0.20642        0.17388        0.22035        0.20716        0.15983        0.18720        0.24053        0.24171        0.22790        0.18015        0.10284        0.10567        0.00634       -0.10590       -0.60340
2.664740 2.636802 2.609016 2.581381 2.553899 2.526568 2.499389 2.472361 2.445486 2.418762 2.392190 2.365770 2.339502 2.313385 2.287420 2.261607 2.235946 2.210436 2.185079 2.159873 2.134819 2.109916 2.085166 2.060567 2.036120 2.011825 1.987681 1.963689 1.939849 1.916161 1.892625 1.869240 1.846007 1.822926 1.799997 1.777220 1.754594 1.732120 1.709798 1.687627 1.665609 1.643742 1.622027 1.600464 1.579052 1.557793 1.536685 1.515729 1.494924 1.474271 1.453771 1.671286 2.090728 1.654344 1.157480 1.018948 0.428395 0.830336 0.555651 0.838855 0.793015 0.804876 0.751626 0.727874 0.580670 0.538667 0.489152 0.429367 0.229647 0.371134 0.201210 0.317370 0.226787 0.193164 0.158948 0.025488 0.024216 0.001864 -0.067495 0.121319 0.218145 0.187659 0.167706 0.332301 0.186026 0.504800 0.609596 0.600601 0.624407 0.877066 0.828410 0.941133 0.911316 1.008999 0.972137 1.084071 1.149474 1.050840 1.152848 0.926268 0.932935 0.792018 0.657886 0.794474 0.711020 0.480839 0.326468 0.251449 0.252905 0.150386 0.117054 0.154665 0.101340 0.137580 0.072062 0.263308 0.374525 0.352043 0.481498 0.559197 0.439291 0.584928 0.723944 0.711192 0.758952 0.716534 0.732029 0.683912 0.616904 0.536704 0.402380 0.287252 0.226830 0.087324 0.129843 -0.065535 -0.037013 -0.060114 -0.056610 -0.013081 0.150710 0.076145 0.261177 0.308776 0.351232 0.426514 0.519502 0.488290 0.522892 0.514741 0.332300 0.311174 0.295989 0.102525 0.054230 -0.042267 -0.002229 -0.044276 -0.075972 -0.083163 0.040373 0.081839 0.132946 0.206562 0.240780 0.281351 0.320569 0.429676 0.406291 0.296185 0.255303 0.231617 0.173167 0.144079 0.116836 0.012736 0.024126 0.058541 0.001993 0.079236 0.161451 0.154440 0.254512 0.257793 0.308839 0.189556 0.230462 0.157275 0.199254 0.118829 0.055502 0.005169 0.007225 -0.000624 -0.035427 0.054533 0.027521 0.139312 0.152328 0.190875 0.236089 0.183787 0.170654 0.186721 0.136506 0.066976 0.015532 0.057664 0.007334 -0.011573 0.027218 0.042737 0.058372 0.054560 0.061171 0.096136 0.133020 0.173088 0.068510 0.072850 0.063482 0.015931 -0.017069 0.012238 0.016917 0.010613 0.013650 0.035286 0.057743 0.067064 0.108730 0.060762 0.135655 0.062713 0.024705 0.046134 -0.033372 -0.002030 0.048123 0.002218 0.046873 0.049569 0.025130 0.103517 0.051363 0.018550 0.050028 0.016038 0.021736 0.009897 -0.014716 0.046548 0.004541 0.012670 0.059225 0.068192 0.032352 0.039462 0.031670 0.029405 0.021731 -0.015088 -0.023270 0.032640 0.053403 0.086999 0.077394 0.068820 0.070765 0.100112 0.038179 0.104660 0.092702 0.020640 0.032078 0.088726 0.071578 0.104617 0.084927 0.131029 0.093041 0.058874 0.018216 0.087868 -0.026399 -0.000925 0.097300 0.070193 0.105464 0.083158 0.074472 0.021733 0.109469 0.078353 -0.017138 -0.037334 0.054420 0.065661 0.034710 0.036826 0.082960 0.100374 0.012311 0.054770 0.078515 0.058839 0.035635 -0.015299 0.071860 0.105759 0.119427 0.019978 0.002274 -0.008378 0.047936 -0.037109 0.018962 -0.024354 -0.021723 0.030088 0.056786 0.025132 0.022122 -0.023956 -0.037484 -0.058159 -0.028508 -0.077378 -0.076498 0.041902 0.027667 -0.083672 0.053624 -0.002876 -0.058306 0.017431 -0.114734 -0.067976 -0.045316 -0.084027 -0.023525 0.022442 -0.018606 -0.117938 0.060147 0.152623 0.010918 0.144355 0.008210 0.222553 0.155498 0.236276 0.254271 0.166302 0.194860 0.280991 0.221673 0.261100 0.169517 0.151646 0.166674 0.003210 -0.648368
0.072396 0.072898 0.074405 0.076915 0.080429 0.084946 0.090463 0.096980 0.104495 0.113004 0.122505 0.132993 0.144462 0.156907 0.170319 0.184689 0.200007 0.216260 0.233433 0.251507 0.270464 0.290281 0.310931 0.332386 0.354611 0.377571 0.401223 0.425523 0.450419 0.475855 0.501771 0.528099 0.554768 0.581697 0.608803 0.635993 0.663170 0.690228 0.717057 0.743536 0.769541 0.794940 0.819594 0.843359 0.866082 0.887608 0.907775 0.926415 0.943359 0.958433 0.971459 0.982262 0.990662 0.996483 0.999550 0.999691 0.996741 0.990540 0.980937 0.967794 0.950981 0.930386 0.905912 0.877482 0.845038 0.808548 0.768003 0.723422 0.674855 0.622383 0.566120 0.506217 0.442860 0.376275 0.306727 0.234520 0.160000 0.083552 0.005601 0.073389 0.152915 0.232442 0.311398 0.389187 0.465181 0.538737 0.609193 0.675878 0.738117 0.795239 0.846584 0.891513 0.929414 0.959713 0.981880 0.995444 1.000000 0.995214 0.980842 0.956727 0.922818 0.879172 0.825961 0.763476 0.692137 0.612490 0.525208 0.431095 0.331077 0.226202 0.117629 0.006619 0.105473 0.217221 0.327134 0.433686 0.535329 0.630519 0.717742 0.795536 0.862525 0.917438 0.959141 0.986667 0.999236 0.996280 0.977472 0.942734 0.892263 0.826535 0.746314 0.652654 0.546895 0.430650 0.305791 0.174420 0.038848 0.098449 0.234867 0.367726 0.494318 0.611966 0.718084 0.810236 0.886197 0.944014 0.982066 0.999112 0.994344 0.967421 0.918504 0.848272 0.757935 0.649223 0.524371 0.386083 0.237490 0.082082 0.076367 0.233877 0.386369 0.529769 0.660115 0.773676 0.867064 0.937350 0.982159 0.999769 0.989188 0.950214 0.883471 0.790432 0.673402 0.535483 0.380514 0.212972 0.037864 0.139419 0.313268 0.478016 0.628144 0.758458 0.864286 0.941657 0.987469 0.999627 0.977159 0.920295 0.830501 0.710475 0.564090 0.396301 0.212984 0.020764 0.173226 0.361598 0.536991 0.692360 0.821281 0.918219 0.978790 0.999990 0.980360 0.920103 0.821138 0.687074 0.523113 0.335878 0.133173 0.076332 0.283449 0.478881 0.653635 0.799450 0.909214 0.977319 0.999993 0.975531 0.904449 0.789528 0.635754 0.450142 0.241446 0.019781 0.203861 0.418133 0.611920 0.774921 0.898218 0.974799 0.999981 0.971746 0.890926 0.761248 0.589212 0.383814 0.156114 0.081329 0.315135 0.531853 0.718736 0.864516 0.960110 0.999232 0.978849 0.899458 0.765159 0.583511 0.365149 0.123220 0.127386 0.370926 0.591797 0.775543 0.909826 0.985308 0.996332 0.941414 0.823457 0.649667 0.431188 0.182438 0.079801 0.337482 0.572545 0.768171 0.910031 0.987378 0.993918 0.928388 0.794779 0.602183 0.364234 0.098222 0.176132 0.438113 0.667577 0.846516 0.960522 0.999999 0.961049 0.845920 0.662982 0.426206 0.154170 0.131346 0.407074 0.650143 0.840014 0.960237 0.999963 0.954993 0.828303 0.629959 0.376414 0.089223 0.206749 0.485426 0.721839 0.894392 0.986890 0.990143 0.902975 0.732510 0.493712 0.208164 0.097809 0.395521 0.656608 0.855749 0.973183 0.996755 0.923269 0.759011 0.519335 0.227341 0.088273 0.395971 0.664536 0.866241 0.979786 0.992645 0.902551 0.717965 0.457416 0.147747 0.178552 0.486716 0.743404 0.920349 0.997552 0.965655 0.827200 0.596595 0.298757 0.033472 0.362877 0.652010 0.867484 0.983883 0.986886 0.875157 0.660769 0.368056 0.030984 0.310719 0.616190 0.848344 0.978449 0.989796 0.879990 0.661535 0.360566 0.013879 0.335489 0.643555 0.870959 0.988069 0.978978 0.843815 0.599044 0.275639 0.084703
1.000000 1.000000 1.000000 1.000000 1.000000 1.000000 1.000000 1.000000 1.000000 1.000000 1.000000 1.000000 1.000000 1.000000 1.000000 1.000000 1.000000 1.000000 1.000000 1.000000 1.000000 1.000000 1.000000 1.000000 1.000000 1.000000 1.000000 1.000000 1.000000 1.000000 1.000000 1.000000 1.000000 1.000000 1.000000 1.000000 1.000000 1.000000 1.000000 1.000000 1.000000 1.000000 1.000000 1.000000 1.000000 1.000000 1.000000 1.000000 1.000000 1.000000 1.000000 1.000000 0.923100 0.923100 0.923100 0.914581 0.914581 0.914581 0.914581 0.914581 0.914581 0.914581 0.914581 0.914581 0.914581 0.914581 0.914581 0.914581 0.914581 0.914581 0.914581 0.914581 0.914581 0.914581 0.914581 0.914581 0.914581 0.914581 0.914581 0.914581 0.914581 0.914581 0.914581 0.914581 0.914581 0.914581 0.914581 0.914581 0.914581 0.914581 0.914581 0.914581 0.914581 0.914581 0.914581 0.914581 0.941813 0.943313 0.951393 0.951224 0.950587 0.948331 0.947261 0.946763 0.946627 0.946930 0.947618 0.948570 0.957491 0.958683 0.961546 0.962478 0.963310 0.964080 0.964872 0.965768 0.961602 0.958755 0.955151 0.954993 0.957847 0.957449 0.957601 0.958690 0.958571 0.958269 0.958761 0.958507 0.957755 0.956877 0.956049 0.955664 0.955443 0.956145 0.956515 0.957972 0.961309 0.961819 0.961905 0.962059 0.962144 0.963461 0.961797 0.961572 0.957353 0.957837 0.957528 0.955168 0.961643 0.958596 0.959192 0.959728 0.961204 0.961480 0.951893 0.949263 0.938997 0.937225 0.931526 0.924326 0.919571 0.921460 0.923842 0.925394 0.926057 0.921344 0.921282 0.917888 0.913509 0.916658 0.915084 0.915132 0.916546 0.917628 0.917671 0.916387 0.914783 0.907310 0.896848 0.895765 0.898970 0.903790 0.905721 0.905908 0.903868 0.873354 0.873869 0.880464 0.874077 0.863404 0.858957 0.858250 0.863705 0.864199 0.866788 0.866320 0.857645 0.844793 0.831315 0.824211 0.825184 0.819474 0.820647 0.819227 0.815372 0.825414 0.822260 0.828137 0.834659 0.842964 0.843282 0.833200 0.829578 0.827860 0.820771 0.804365 0.807212 0.791486 0.792154 0.791694 0.789554 0.784611 0.789854 0.772316 0.766807 0.754700 0.756463 0.759502 0.755252 0.752715 0.754404 0.757112 0.762438 0.745157 0.735479 0.720436 0.725186 0.734190 0.737399 0.731323 0.705329 0.672195 0.632246 0.650301 0.674837 0.626222 0.649893 0.660070 0.638636 0.636732 0.627676 0.623961 0.626647 0.626455 0.629258 0.635044 0.638273 0.658227 0.640811 0.632432 0.641663 0.638726 0.643600 0.629341 0.632144 0.609166 0.604169 0.629820 0.601021 0.600129 0.597445 0.607844 0.635975 0.597967 0.602202 0.613099 0.601001 0.601438 0.599827 0.588161 0.587887 0.596332 0.583960 0.597924 0.612326 0.588093 0.558329 0.538064 0.516186 0.506651 0.556981 0.565135 0.555404 0.528261 0.533179 0.550353 0.549615 0.542009 0.514263 0.525553 0.525891 0.564325 0.552023 0.510609 0.529746 0.527377 0.526994 0.477962 0.472449 0.460466 0.450361 0.412519 0.416266 0.427310 0.414820 0.365653 0.342524 0.342826 0.344152 0.348008 0.336354 0.307580 0.299123 0.317322 0.324186 0.310495 0.278571 0.273468 0.257639 0.243426 0.243699 0.210662 0.247756 0.308094 0.309733 0.309733 0.309733 0.309733 0.309733 0.309733 0.312767 0.312767 0.312767 0.312767 0.312767 0.312767 0.312767 0.312767 0.312767 0.325200 0.325200 0.325200 0.325200 0.325200 0.325200 0.325200 0.325200 0.325200 0.325200 0.325200 0.325200 0.325200 0.325200
0.000000 0.000000 0.000000 0.000000 0.000000 0.000000 0.000000 0.000000 0.000000 0.000000 0.000000 0.000000 0.000000 0.000000 0.000000 0.000000 0.000000 0.000000 0.000000 0.000000 0.000000 0.000000 0.000000 0.000000 0.000000 0.000000 0.000000 0.000000 0.000000 0.000000 0.000000 0.000000 0.000000 0.000000 0.000000 0.000000 0.000000 0.000000 0.000000 0.000000 0.000000 0.000000 0.000000 0.000000 0.000000 0.000000 0.000000 0.000000 0.000000 0.000000 0.000000 0.000000 0.180334 0.180334 0.180334 0.199007 0.199007 0.199007 0.199007 0.199007 0.199007 0.199007 0.199007 0.199007 0.199007 0.199007 0.199007 0.199007 0.199007 0.199007 0.199007 0.199007 0.199007 0.199007 0.199007 0.199007 0.199007 0.199007 0.199007 0.199007 0.199007 0.199007 0.199007 0.199007 0.199007 0.199007 0.199007 0.199007 0.199007 0.199007 0.199007 0.199007 0.199007 0.199007 0.199007 0.199007 0.225018 0.225018 0.225018 0.225018 0.225018 0.225018 0.225018 0.225018 0.225018 0.225018 0.225018 0.225018 0.225018 0.225018 0.225018 0.225018 0.225018 0.225018 0.225018 0.225018 0.225018 0.225018 0.225018 0.225018 0.225018 0.225018 0.225018 0.225018 0.225018 0.244339 0.244339 0.244339 0.244339 0.244339 0.244339 0.244339 0.244339 0.244339 0.244339 0.244339 0.244339 0.244339 0.244339 0.244339 0.244339 0.244339 0.244339 0.244339 0.244339 0.244339 0.244339 0.244339 0.251976 0.251976 0.251976 0.251976 0.251976 0.251976 0.251976 0.251976 0.251976 0.251976 0.251976 0.251976 0.251976 0.251976 0.251976 0.251976 0.251976 0.251976 0.251976 0.251976 0.264906 0.264906 0.264906 0.264906 0.264906 0.264906 0.264906 0.264906 0.264906 0.264906 0.264906 0.264906 0.264906 0.264906 0.264906 0.264906 0.264906 0.256074 0.256074 0.256074 0.256074 0.256074 0.256074 0.256074 0.256074 0.256074 0.256074 0.256074 0.256074 0.256074 0.256074 0.256074 0.256074 0.256074 0.269680 0.269680 0.269680 0.269680 0.269680 0.269680 0.269680 0.269680 0.269680 0.269680 0.269680 0.269680 0.269680 0.269680 0.264906 0.264906 0.264906 0.264906 0.264906 0.264906 0.264906 0.264906 0.264906 0.264906 0.264906 0.264906 0.264906 0.264906 0.256074 0.256074 0.256074 0.256074 0.256074 0.256074 0.256074 0.256074 0.256074 0.256074 0.256074 0.256074 0.256074 0.256074 0.269680 0.269680 0.269680 0.269680 0.269680 0.269680 0.269680 0.269680 0.269680 0.269680 0.269680 0.269680 0.264906 0.264906 0.264906 0.264906 0.264906 0.264906 0.264906 0.264906 0.264906 0.264906 0.264906 0.264906 0.260378 0.260378 0.260378 0.260378 0.260378 0.260378 0.260378 0.260378 0.260378 0.260378 0.260378 0.260378 0.274721 0.274721 0.274721 0.274721 0.274721 0.274721 0.274721 0.274721 0.274721 0.274721 0.256074 0.256074 0.256074 0.256074 0.256074 0.256074 0.256074 0.256074 0.256074 0.256074 0.256074 0.264906 0.264906 0.264906 0.264906 0.264906 0.264906 0.264906 0.264906 0.264906 0.264906 0.260378 0.260378 0.260378 0.260378 0.260378 0.260378 0.260378 0.260378 0.260378 0.260378 0.256074 0.256074 0.256074 0.256074 0.256074 0.256074 0.256074 0.256074 0.256074 0.256074 0.260378 0.260378 0.260378 0.260378 0.260378 0.260378 0.260378 0.260378 0.260378 0.256074 0.256074 0.256074 0.256074 0.256074 0.256074 0.256074 0.256074 0.256074 0.251976 0.251976 0.251976 0.251976 0.251976 0.251976 0.251976 0.251976 0.251976 0.251976 0.251976 0.251976 0.251976 0.251976
