# Output from CTFFind version 4.1.9, run on 2019-11-03 19:02:22
# Input file: stack16_bm3d_averaged_1_2.25_0_1500_half.mrc ; Number of micrographs: 1
# Pixel size: 3.000 Angstroms ; acceleration voltage: 300.0 keV ; spherical aberration: 0.00 mm ; amplitude contrast: 0.07
# Box size: 512 pixels ; min. res.: 30.0 Angstroms ; max. res.: 5.0 Angstroms ; min. def.: 5000.0 um; max. def. 50000.0 um; num. frames averaged: 1
# 6 lines per micrograph: #1 - spatial frequency (1/Angstroms); #2 - 1D rotational average of spectrum (assuming no astigmatism); #3 - 1D rotational average of spectrum; #4 - CTF fit; #5 - cross-correlation between spectrum and CTF fit; #6 - 2sigma of expected cross correlation of noise
0.000000 0.000651 0.001302 0.001953 0.002604 0.003255 0.003906 0.004557 0.005208 0.005859 0.006510 0.007161 0.007812 0.008464 0.009115 0.009766 0.010417 0.011068 0.011719 0.012370 0.013021 0.013672 0.014323 0.014974 0.015625 0.016276 0.016927 0.017578 0.018229 0.018880 0.019531 0.020182 0.020833 0.021484 0.022135 0.022786 0.023438 0.024089 0.024740 0.025391 0.026042 0.026693 0.027344 0.027995 0.028646 0.029297 0.029948 0.030599 0.031250 0.031901 0.032552 0.033203 0.033854 0.034505 0.035156 0.035807 0.036458 0.037109 0.037760 0.038411 0.039062 0.039714 0.040365 0.041016 0.041667 0.042318 0.042969 0.043620 0.044271 0.044922 0.045573 0.046224 0.046875 0.047526 0.048177 0.048828 0.049479 0.050130 0.050781 0.051432 0.052083 0.052734 0.053385 0.054036 0.054688 0.055339 0.055990 0.056641 0.057292 0.057943 0.058594 0.059245 0.059896 0.060547 0.061198 0.061849 0.062500 0.063151 0.063802 0.064453 0.065104 0.065755 0.066406 0.067057 0.067708 0.068359 0.069010 0.069661 0.070312 0.070964 0.071615 0.072266 0.072917 0.073568 0.074219 0.074870 0.075521 0.076172 0.076823 0.077474 0.078125 0.078776 0.079427 0.080078 0.080729 0.081380 0.082031 0.082682 0.083333 0.083984 0.084635 0.085286 0.085938 0.086589 0.087240 0.087891 0.088542 0.089193 0.089844 0.090495 0.091146 0.091797 0.092448 0.093099 0.093750 0.094401 0.095052 0.095703 0.096354 0.097005 0.097656 0.098307 0.098958 0.099609 0.100260 0.100911 0.101562 0.102214 0.102865 0.103516 0.104167 0.104818 0.105469 0.106120 0.106771 0.107422 0.108073 0.108724 0.109375 0.110026 0.110677 0.111328 0.111979 0.112630 0.113281 0.113932 0.114583 0.115234 0.115885 0.116536 0.117188 0.117839 0.118490 0.119141 0.119792 0.120443 0.121094 0.121745 0.122396 0.123047 0.123698 0.124349 0.125000 0.125651 0.126302 0.126953 0.127604 0.128255 0.128906 0.129557 0.130208 0.130859 0.131510 0.132161 0.132812 0.133464 0.134115 0.134766 0.135417 0.136068 0.136719 0.137370 0.138021 0.138672 0.139323 0.139974 0.140625 0.141276 0.141927 0.142578 0.143229 0.143880 0.144531 0.145182 0.145833 0.146484 0.147135 0.147786 0.148438 0.149089 0.149740 0.150391 0.151042 0.151693 0.152344 0.152995 0.153646 0.154297 0.154948 0.155599 0.156250 0.156901 0.157552 0.158203 0.158854 0.159505 0.160156 0.160807 0.161458 0.162109 0.162760 0.163411 0.164062 0.164714 0.165365 0.166016 0.166667 0.167318 0.167969 0.168620 0.169271 0.169922 0.170573 0.171224 0.171875 0.172526 0.173177 0.173828 0.174479 0.175130 0.175781 0.176432 0.177083 0.177734 0.178385 0.179036 0.179688 0.180339 0.180990 0.181641 0.182292 0.182943 0.183594 0.184245 0.184896 0.185547 0.186198 0.186849 0.187500 0.188151 0.188802 0.189453 0.190104 0.190755 0.191406 0.192057 0.192708 0.193359 0.194010 0.194661 0.195312 0.195964 0.196615 0.197266 0.197917 0.198568 0.199219 0.199870 0.200521 0.201172 0.201823 0.202474 0.203125 0.203776 0.204427 0.205078 0.205729 0.206380 0.207031 0.207682 0.208333 0.208984 0.209635 0.210286 0.210938 0.211589 0.212240 0.212891 0.213542 0.214193 0.214844 0.215495 0.216146 0.216797 0.217448 0.218099 0.218750 0.219401 0.220052 0.220703 0.221354 0.222005 0.222656 0.223307 0.223958 0.224609 0.225260 0.225911 0.226562 0.227214 0.227865 0.228516 0.229167 0.229818 0.230469 0.231120 0.231771 0.232422 0.233073 0.233724 0.234375 0.235026 0.235677
       0.34862        0.34862        0.34862        0.34862        0.34862        0.34862        0.34862        0.34862        0.34862        0.34862        0.34862        0.34862        0.34862        0.34862        0.34862        0.34862        0.34862        0.34862        0.34862        0.34862        0.34862        0.34862        0.34862        0.34862        0.34862        0.34862        0.34862        0.34862        0.34862        0.34862        0.34862        0.34862        0.34862        0.34862        0.34862        0.34862        0.34862        0.34862        0.34862        0.34862        0.34862        0.34862        0.34862        0.34862        0.34862        0.34862        0.34862        0.34862        0.34862        0.34862        0.34862        0.48607        0.68693        0.45666       -0.10887       -0.40839       -0.56269       -0.65324       -0.73071       -0.74715       -0.87005       -0.91378       -0.74826       -0.92264       -0.86945       -1.02026       -1.08878       -0.97667       -0.94475       -0.86896       -0.82595       -0.72983       -0.62604       -0.49099       -0.41415       -0.21869       -0.10660       -0.01800        0.19648        0.24210        0.31350        0.38590        0.43114        0.50959        0.58286        0.60931        0.58580        0.50372        0.55787        0.49093        0.40451        0.33804        0.20529        0.17929        0.10154       -0.03883       -0.10649       -0.07237        0.02843       -0.01033        0.03451        0.03395        0.19910        0.21953        0.39538        0.46239        0.57354        0.70981        0.77735        0.74302        0.69751        0.68094        0.58906        0.52499        0.38847        0.29315        0.20198        0.17128        0.08358        0.04260        0.02406        0.06241        0.09394        0.28860        0.40726        0.50684        0.58464        0.63521        0.70601        0.65916        0.66272        0.66941        0.60225        0.49661        0.30201        0.25930        0.21870        0.12798        0.04849        0.10355        0.11391        0.26200        0.36400        0.42560        0.51314        0.56146        0.64917        0.59773        0.55266        0.51786        0.37167        0.20586        0.22829        0.17309        0.14767        0.13897        0.21973        0.26433        0.36178        0.44488        0.43347        0.54072        0.52171        0.47534        0.46951        0.38490        0.33074        0.25908        0.20907        0.22934        0.21278        0.22088        0.31286        0.45100        0.47600        0.48546        0.55272        0.50965        0.44794        0.40531        0.30819        0.24829        0.24481        0.24166        0.26478        0.29158        0.33735        0.43910        0.50495        0.50737        0.46375        0.39628        0.37158        0.35672        0.23724        0.23416        0.26350        0.30100        0.36400        0.36750        0.40769        0.44040        0.46154        0.38588        0.35811        0.32216        0.33182        0.28438        0.27015        0.30355        0.35201        0.41002        0.42735        0.40258        0.38853        0.41028        0.36231        0.30465        0.30589        0.30744        0.31282        0.37185        0.38456        0.41508        0.35032        0.36871        0.39210        0.35783        0.31563        0.28445        0.29207        0.33665        0.34793        0.34241        0.35501        0.39544        0.35275        0.36542        0.30382        0.30695        0.27705        0.28266        0.30609        0.33755        0.39393        0.36775        0.35964        0.31844        0.28536        0.27303        0.30794        0.29362        0.33205        0.36919        0.39861        0.34586        0.32998        0.30634        0.30789        0.30416        0.28095        0.32775        0.34719        0.33492        0.33236        0.30866        0.34881        0.33401        0.30566        0.32596        0.33063        0.35172        0.35759        0.32424        0.33723        0.30853        0.30984        0.30570        0.32920        0.40535        0.34033        0.36469        0.31362        0.32604        0.30620        0.30721        0.29179        0.31466        0.30835        0.34212        0.35866        0.30314        0.33313        0.32128        0.29631        0.31332        0.31574        0.32437        0.36442        0.36738        0.32878        0.31019        0.29222        0.25487        0.32206        0.34557        0.30789        0.31658        0.28527        0.29414        0.33165        0.32964        0.30981        0.34931        0.33986        0.31927        0.24923        0.29757        0.29944        0.31328        0.33671        0.31578        0.37054        0.37134        0.27576        0.29342        0.28944        0.28415        0.31265        0.27755        0.25494        0.25838        0.28729        0.29261        0.28101        0.28509        0.27628        0.33071        0.32184        0.30138        0.24864        0.25502        0.24785        0.23634        0.23953        0.31947        0.36008        0.25201        0.25366        0.31017        0.23290        0.24521        0.32742        0.28708        0.15970        0.18776        0.24767        0.30997        0.29145        0.13266       -0.02626       -0.49498       -0.71034
3.039034 3.001111 2.963433 2.926001 2.888812 2.851868 2.815169 2.778715 2.742505 2.706540 2.670820 2.635344 2.600113 2.565126 2.530385 2.495888 2.461635 2.427628 2.393864 2.360346 2.327072 2.294043 2.261259 2.228719 2.196424 2.164374 2.132568 2.101007 2.069691 2.038619 2.007792 1.977210 1.946872 1.916779 1.886931 1.857327 1.827968 1.798854 1.769984 1.741359 1.712979 1.684843 1.656952 1.629306 1.601905 1.574748 1.547835 1.521168 1.494745 1.468567 1.442633 1.501017 1.662678 1.597117 0.950854 0.666690 0.468146 0.415514 0.319227 0.259095 0.185766 0.001149 0.192551 0.066914 -0.028620 -0.071635 -0.211371 -0.160422 -0.089500 -0.095063 -0.086088 0.008719 0.034634 0.218570 0.145660 0.351963 0.435839 0.470508 0.689882 0.687037 0.697491 0.824867 0.804039 0.823614 0.920651 0.885373 0.920963 0.735546 0.834228 0.829201 0.624585 0.600180 0.448973 0.432520 0.359697 0.213200 0.118562 0.097123 0.215566 0.133513 0.207291 0.111334 0.287250 0.275591 0.445129 0.405427 0.584210 0.640309 0.750996 0.717612 0.649874 0.638801 0.515711 0.491970 0.329382 0.297790 0.122828 0.156237 0.008720 -0.004961 -0.042342 -0.043663 -0.005836 0.043938 0.266798 0.312349 0.385494 0.375509 0.465399 0.502596 0.473308 0.502263 0.376576 0.397309 0.155116 0.084375 0.082215 -0.014591 -0.131940 -0.041748 -0.115862 0.012745 0.137457 0.170422 0.251238 0.277542 0.370107 0.451976 0.348881 0.393545 0.289874 0.122713 0.055779 0.065532 0.037593 0.023685 0.017792 0.115237 0.126238 0.274771 0.230755 0.293977 0.351870 0.268599 0.255797 0.227130 0.132777 0.080298 0.024765 0.035142 0.024817 -0.003865 0.031717 0.174560 0.213985 0.248869 0.281864 0.235612 0.236423 0.144032 0.115777 -0.003612 -0.002021 -0.010337 0.011197 0.013552 0.035873 0.104257 0.187250 0.212415 0.209415 0.141500 0.107950 0.072574 0.049609 -0.075602 -0.008360 0.019106 0.048317 0.062709 0.082492 0.154651 0.110819 0.165877 0.059125 0.044322 0.045295 0.035643 0.003557 -0.001532 0.021145 0.076573 0.119340 0.132184 0.059831 0.109789 0.106065 0.006513 0.017569 0.011060 0.006753 0.039869 0.072242 0.094495 0.082545 0.051061 0.080049 0.073684 0.044150 0.005784 -0.013396 0.002306 0.060067 0.034289 0.045531 0.052158 0.090419 0.080645 0.039584 0.017685 0.007186 -0.015901 -0.003678 0.015091 0.057611 0.114741 0.061529 0.065893 0.015509 -0.015512 -0.000872 0.022185 0.019286 0.040041 0.096474 0.077550 0.015481 0.048611 -0.006783 0.037074 -0.008395 -0.012172 0.054968 0.051006 0.023637 0.030228 0.002606 0.054306 0.015897 0.004277 0.026078 0.031330 0.053758 0.034352 0.034683 0.019776 -0.010943 0.010594 0.003444 0.035897 0.091798 0.039275 0.014592 -0.001962 0.019784 -0.018927 0.006294 -0.013765 0.015008 -0.025004 0.058881 0.033588 0.012243 0.049460 -0.013939 0.002107 0.017462 -0.003833 0.040328 0.066201 0.062739 0.021115 0.016144 -0.017519 -0.012262 0.012058 0.044411 0.001846 0.045484 -0.021323 -0.018693 0.036015 0.039108 0.013350 0.043486 0.037600 0.036883 -0.063722 0.009135 0.024001 0.008624 0.029748 0.043041 0.079851 0.068406 -0.006725 0.015137 -0.006672 -0.000375 0.031633 -0.036004 -0.027200 -0.036230 -0.024602 -0.001311 -0.031776 0.001951 -0.088030 -0.001993 -0.012705 -0.039677 -0.101361 -0.048772 -0.102648 -0.063786 -0.082095 0.016528 0.062066 -0.091510 -0.045792 0.073138 -0.003941 -0.059357 0.069516 0.079686 -0.006065 0.000118 0.075146 0.276993 0.258969 0.070239 -0.018403 -0.624350
0.072396 0.073046 0.074996 0.078244 0.082791 0.088634 0.095771 0.104200 0.113916 0.124914 0.137188 0.150729 0.165528 0.181571 0.198843 0.217327 0.236998 0.257833 0.279800 0.302863 0.326982 0.352111 0.378194 0.405173 0.432978 0.461534 0.490756 0.520548 0.550808 0.581421 0.612264 0.643199 0.674082 0.704755 0.735047 0.764779 0.793758 0.821782 0.848637 0.874099 0.897936 0.919905 0.939758 0.957241 0.972095 0.984058 0.992868 0.998266 0.999995 0.997809 0.991468 0.980749 0.965445 0.945369 0.920360 0.890286 0.855048 0.814583 0.768871 0.717936 0.661854 0.600754 0.534819 0.464297 0.389497 0.310791 0.228623 0.143500 0.055999 0.033238 0.123504 0.214030 0.303993 0.392517 0.478684 0.561541 0.640110 0.713401 0.780423 0.840197 0.891776 0.934256 0.966796 0.988636 0.999115 0.997686 0.983938 0.957611 0.918613 0.867035 0.803159 0.727475 0.640684 0.543698 0.437651 0.323879 0.203927 0.079520 0.047445 0.174927 0.300775 0.422753 0.538589 0.646008 0.742791 0.826814 0.896103 0.948892 0.983666 0.999216 0.994688 0.969619 0.923979 0.858195 0.773170 0.670293 0.551430 0.418915 0.275508 0.124361 0.031050 0.186988 0.339551 0.484759 0.618662 0.737454 0.837586 0.915886 0.969669 0.996845 0.996014 0.966547 0.908646 0.823385 0.712719 0.579471 0.427288 0.260555 0.084301 0.095950 0.274339 0.444851 0.601531 0.738693 0.851136 0.934362 0.984777 0.999869 0.978354 0.920289 0.827131 0.701746 0.548361 0.372460 0.180614 0.019739 0.220567 0.413554 0.590449 0.743427 0.865450 0.950617 0.994482 0.994316 0.949312 0.860707 0.731808 0.567922 0.376196 0.165327 0.054784 0.273485 0.479882 0.663383 0.814255 0.924172 0.986710 0.997769 0.955887 0.862421 0.721594 0.540359 0.328133 0.096334 0.142178 0.373808 0.584987 0.762986 0.896709 0.977432 0.999418 0.960396 0.861821 0.708925 0.510524 0.278578 0.027525 0.226574 0.467048 0.677711 0.843970 0.953891 0.999108 0.975534 0.883802 0.729379 0.522343 0.276813 0.010053 0.258697 0.509587 0.723624 0.884151 0.978201 0.997616 0.939849 0.808348 0.612475 0.366953 0.090846 0.193856 0.463956 0.696944 0.872891 0.976240 0.997252 0.933036 0.788013 0.573757 0.308195 0.014199 0.282309 0.554616 0.777642 0.930295 0.997553 0.972059 0.855043 0.656458 0.394284 0.093028 0.218491 0.509844 0.751966 0.920118 0.996493 0.972240 0.848621 0.637167 0.358780 0.041788 0.280833 0.574856 0.808441 0.955654 0.999464 0.933863 0.764833 0.510013 0.197011 0.139428 0.461230 0.731267 0.917711 0.997881 0.961167 0.810606 0.562883 0.246679 0.100500 0.436669 0.720429 0.916104 0.998352 0.955624 0.791969 0.526929 0.193409 0.166241 0.505507 0.779726 0.952026 0.998440 0.911442 0.701359 0.395424 0.034445 0.332475 0.654568 0.886441 0.994606 0.962511 0.793305 0.509857 0.151925 0.229236 0.578103 0.842987 0.983796 0.978290 0.825859 0.548104 0.186076 0.205587 0.566785 0.841167 0.985036 0.974519 0.809806 0.515652 0.137972 0.263108 0.622713 0.881708 0.996578 0.946975 0.739622 0.407790 0.006252 0.397539 0.734699 0.946725 0.995853 0.872057 0.595427 0.213242 0.207793 0.593036 0.873158 0.996718 0.939926 0.711546 0.351962 0.073594 0.486686 0.810045 0.982131 0.969106 0.771844 0.426473 0.001862 0.431015 0.777499 0.972804 0.977208 0.788225 0.441839 0.006071 0.432090 0.783940 0.977120 0.970750 0.764486 0.399387 0.049833 0.489792 0.827788 0.991427 0.944451 0.695204 0.295701 0.168816 0.597798
1.000000 1.000000 1.000000 1.000000 1.000000 1.000000 1.000000 1.000000 1.000000 1.000000 1.000000 1.000000 1.000000 1.000000 1.000000 1.000000 1.000000 1.000000 1.000000 1.000000 1.000000 1.000000 1.000000 1.000000 1.000000 1.000000 1.000000 1.000000 1.000000 1.000000 1.000000 1.000000 1.000000 1.000000 1.000000 1.000000 1.000000 1.000000 1.000000 1.000000 1.000000 1.000000 1.000000 1.000000 1.000000 1.000000 1.000000 1.000000 1.000000 1.000000 1.000000 1.000000 0.938303 0.938303 0.938303 0.938303 0.938303 0.938303 0.938303 0.938303 0.938303 0.938303 0.938303 0.938303 0.938303 0.938303 0.938303 0.938303 0.938303 0.938303 0.938303 0.938303 0.938303 0.938303 0.938303 0.938303 0.938303 0.938303 0.938303 0.938303 0.938303 0.938303 0.938303 0.938303 0.938303 0.931864 0.933178 0.935797 0.936738 0.936716 0.936337 0.936088 0.936312 0.937457 0.939215 0.955725 0.957677 0.958131 0.959333 0.958111 0.961112 0.959657 0.959826 0.970531 0.969530 0.970077 0.963214 0.964578 0.963753 0.962877 0.963705 0.963902 0.962195 0.960281 0.958687 0.958139 0.957812 0.959481 0.959879 0.959579 0.960068 0.959919 0.959665 0.956400 0.954879 0.956254 0.958056 0.957343 0.963204 0.961639 0.963563 0.963468 0.962137 0.962022 0.962238 0.962443 0.958544 0.955001 0.951444 0.940150 0.930250 0.924399 0.927150 0.930268 0.929053 0.924147 0.923161 0.921023 0.916927 0.916296 0.916007 0.917242 0.911511 0.908049 0.894235 0.893735 0.897267 0.898231 0.895765 0.887243 0.882805 0.883680 0.886578 0.884773 0.882136 0.898736 0.895623 0.898642 0.902015 0.904646 0.908400 0.897924 0.891219 0.887073 0.883858 0.880254 0.881877 0.878982 0.881712 0.873344 0.862958 0.857110 0.858420 0.865252 0.872723 0.877603 0.876043 0.876410 0.875727 0.858936 0.860639 0.844668 0.845503 0.850851 0.856654 0.855955 0.853877 0.854983 0.853373 0.852648 0.854494 0.850060 0.844675 0.836470 0.834199 0.837180 0.851823 0.852311 0.834340 0.827707 0.823431 0.824878 0.829920 0.827507 0.828790 0.824059 0.825292 0.818916 0.809379 0.811591 0.817627 0.809739 0.816723 0.817887 0.823314 0.823409 0.822606 0.819283 0.818373 0.823401 0.796917 0.808184 0.811031 0.795307 0.800415 0.791984 0.785956 0.786397 0.783865 0.756653 0.764634 0.727545 0.698433 0.710745 0.716658 0.702957 0.689028 0.689258 0.690703 0.667047 0.654767 0.637865 0.635224 0.643181 0.645710 0.654211 0.650232 0.643164 0.631418 0.592051 0.608992 0.607080 0.569100 0.579162 0.571185 0.565907 0.560798 0.535302 0.537649 0.541968 0.547242 0.521006 0.511884 0.524729 0.495364 0.496357 0.496668 0.494869 0.492018 0.497096 0.479096 0.491576 0.527624 0.476983 0.456494 0.472490 0.488261 0.498967 0.506493 0.496040 0.450639 0.505494 0.468273 0.477742 0.493086 0.483392 0.456335 0.464502 0.456268 0.485730 0.469822 0.458796 0.483709 0.453866 0.445745 0.447307 0.440002 0.432748 0.415152 0.407111 0.383238 0.393931 0.374723 0.342744 0.365473 0.377296 0.366930 0.359695 0.331686 0.333425 0.296896 0.269323 0.251317 0.247970 0.210512 0.172917 0.179268 0.175441 0.151258 0.119804 0.113644 0.076337 0.070288 0.094732 0.099951 0.101711 0.097304 0.119261 0.119261 0.119261 0.119261 0.119261 0.119261 0.119261 0.119261 0.119261 0.119261 0.119261 0.119261 0.119261 0.119261 0.143395 0.143395 0.143395 0.143395 0.143395 0.143395 0.143395 0.143395 0.143395 0.143395 0.143395 0.143395
0.000000 0.000000 0.000000 0.000000 0.000000 0.000000 0.000000 0.000000 0.000000 0.000000 0.000000 0.000000 0.000000 0.000000 0.000000 0.000000 0.000000 0.000000 0.000000 0.000000 0.000000 0.000000 0.000000 0.000000 0.000000 7.000000 4.000000 0.000000 0.000000 0.000000 0.000000 0.000000 0.000000 0.000000 0.000000 0.000000 0.000000 0.000000 0.000000 0.000000 0.000000 0.000000 0.000000 0.000000 0.000000 0.000000 0.000000 0.000000 0.000000 0.000000 0.000000 0.000000 0.209657 0.209657 0.209657 0.209657 0.209657 0.209657 0.209657 0.209657 0.209657 0.209657 0.209657 0.209657 0.209657 0.209657 0.209657 0.209657 0.209657 0.209657 0.209657 0.209657 0.209657 0.209657 0.209657 0.209657 0.209657 0.209657 0.209657 0.209657 0.209657 0.209657 0.209657 0.209657 0.209657 0.244339 0.244339 0.244339 0.244339 0.244339 0.244339 0.244339 0.244339 0.244339 0.244339 0.244339 0.244339 0.244339 0.244339 0.244339 0.244339 0.244339 0.244339 0.244339 0.244339 0.244339 0.244339 0.244339 0.244339 0.244339 0.260378 0.260378 0.260378 0.260378 0.260378 0.260378 0.260378 0.260378 0.260378 0.260378 0.260378 0.260378 0.260378 0.260378 0.260378 0.260378 0.260378 0.260378 0.260378 0.260378 0.269680 0.269680 0.269680 0.269680 0.269680 0.269680 0.269680 0.269680 0.269680 0.269680 0.269680 0.269680 0.269680 0.269680 0.269680 0.269680 0.269680 0.269680 0.269680 0.269680 0.269680 0.269680 0.269680 0.269680 0.269680 0.269680 0.269680 0.269680 0.269680 0.269680 0.269680 0.269680 0.269680 0.280056 0.280056 0.280056 0.280056 0.280056 0.280056 0.280056 0.280056 0.280056 0.280056 0.280056 0.280056 0.280056 0.280056 0.280056 0.280056 0.280056 0.280056 0.280056 0.280056 0.280056 0.280056 0.280056 0.280056 0.280056 0.280056 0.280056 0.274721 0.274721 0.274721 0.274721 0.274721 0.274721 0.274721 0.274721 0.274721 0.274721 0.274721 0.274721 0.274721 0.285714 0.285714 0.285714 0.285714 0.285714 0.285714 0.285714 0.285714 0.285714 0.285714 0.285714 0.280056 0.280056 0.280056 0.280056 0.280056 0.280056 0.280056 0.280056 0.280056 0.280056 0.280056 0.274721 0.274721 0.274721 0.274721 0.274721 0.274721 0.274721 0.274721 0.274721 0.274721 0.274721 0.280056 0.280056 0.280056 0.280056 0.280056 0.280056 0.280056 0.280056 0.280056 0.280056 0.285714 0.285714 0.285714 0.285714 0.285714 0.285714 0.285714 0.285714 0.285714 0.269680 0.269680 0.269680 0.269680 0.269680 0.269680 0.269680 0.269680 0.269680 0.269680 0.274721 0.274721 0.274721 0.274721 0.274721 0.274721 0.274721 0.274721 0.274721 0.285714 0.285714 0.285714 0.285714 0.285714 0.285714 0.285714 0.285714 0.264906 0.264906 0.264906 0.264906 0.264906 0.264906 0.264906 0.264906 0.264906 0.274721 0.274721 0.274721 0.274721 0.274721 0.274721 0.274721 0.274721 0.269680 0.269680 0.269680 0.269680 0.269680 0.269680 0.269680 0.269680 0.269680 0.269680 0.269680 0.269680 0.269680 0.269680 0.269680 0.269680 0.280056 0.280056 0.280056 0.280056 0.280056 0.280056 0.280056 0.260378 0.260378 0.260378 0.260378 0.260378 0.260378 0.260378 0.260378 0.269680 0.269680 0.269680 0.269680 0.269680 0.269680 0.269680 0.264906 0.264906 0.264906 0.264906 0.264906 0.264906 0.264906 0.264906 0.264906 0.264906 0.264906 0.264906 0.264906 0.264906 0.260378 0.260378 0.260378 0.260378 0.260378 0.260378 0.260378 0.260378 0.260378 0.260378 0.260378 0.260378
