# Output from CTFFind version 4.1.9, run on 2019-11-02 17:44:44
# Input file: stack1_bm3d_averaged_1_0.5_0_750_half.mrc ; Number of micrographs: 1
# Pixel size: 3.000 Angstroms ; acceleration voltage: 300.0 keV ; spherical aberration: 0.00 mm ; amplitude contrast: 0.07
# Box size: 512 pixels ; min. res.: 30.0 Angstroms ; max. res.: 5.0 Angstroms ; min. def.: 5000.0 um; max. def. 50000.0 um; num. frames averaged: 1
# 6 lines per micrograph: #1 - spatial frequency (1/Angstroms); #2 - 1D rotational average of spectrum (assuming no astigmatism); #3 - 1D rotational average of spectrum; #4 - CTF fit; #5 - cross-correlation between spectrum and CTF fit; #6 - 2sigma of expected cross correlation of noise
0.000000 0.000651 0.001302 0.001953 0.002604 0.003255 0.003906 0.004557 0.005208 0.005859 0.006510 0.007161 0.007812 0.008464 0.009115 0.009766 0.010417 0.011068 0.011719 0.012370 0.013021 0.013672 0.014323 0.014974 0.015625 0.016276 0.016927 0.017578 0.018229 0.018880 0.019531 0.020182 0.020833 0.021484 0.022135 0.022786 0.023438 0.024089 0.024740 0.025391 0.026042 0.026693 0.027344 0.027995 0.028646 0.029297 0.029948 0.030599 0.031250 0.031901 0.032552 0.033203 0.033854 0.034505 0.035156 0.035807 0.036458 0.037109 0.037760 0.038411 0.039062 0.039714 0.040365 0.041016 0.041667 0.042318 0.042969 0.043620 0.044271 0.044922 0.045573 0.046224 0.046875 0.047526 0.048177 0.048828 0.049479 0.050130 0.050781 0.051432 0.052083 0.052734 0.053385 0.054036 0.054688 0.055339 0.055990 0.056641 0.057292 0.057943 0.058594 0.059245 0.059896 0.060547 0.061198 0.061849 0.062500 0.063151 0.063802 0.064453 0.065104 0.065755 0.066406 0.067057 0.067708 0.068359 0.069010 0.069661 0.070312 0.070964 0.071615 0.072266 0.072917 0.073568 0.074219 0.074870 0.075521 0.076172 0.076823 0.077474 0.078125 0.078776 0.079427 0.080078 0.080729 0.081380 0.082031 0.082682 0.083333 0.083984 0.084635 0.085286 0.085938 0.086589 0.087240 0.087891 0.088542 0.089193 0.089844 0.090495 0.091146 0.091797 0.092448 0.093099 0.093750 0.094401 0.095052 0.095703 0.096354 0.097005 0.097656 0.098307 0.098958 0.099609 0.100260 0.100911 0.101562 0.102214 0.102865 0.103516 0.104167 0.104818 0.105469 0.106120 0.106771 0.107422 0.108073 0.108724 0.109375 0.110026 0.110677 0.111328 0.111979 0.112630 0.113281 0.113932 0.114583 0.115234 0.115885 0.116536 0.117188 0.117839 0.118490 0.119141 0.119792 0.120443 0.121094 0.121745 0.122396 0.123047 0.123698 0.124349 0.125000 0.125651 0.126302 0.126953 0.127604 0.128255 0.128906 0.129557 0.130208 0.130859 0.131510 0.132161 0.132812 0.133464 0.134115 0.134766 0.135417 0.136068 0.136719 0.137370 0.138021 0.138672 0.139323 0.139974 0.140625 0.141276 0.141927 0.142578 0.143229 0.143880 0.144531 0.145182 0.145833 0.146484 0.147135 0.147786 0.148438 0.149089 0.149740 0.150391 0.151042 0.151693 0.152344 0.152995 0.153646 0.154297 0.154948 0.155599 0.156250 0.156901 0.157552 0.158203 0.158854 0.159505 0.160156 0.160807 0.161458 0.162109 0.162760 0.163411 0.164062 0.164714 0.165365 0.166016 0.166667 0.167318 0.167969 0.168620 0.169271 0.169922 0.170573 0.171224 0.171875 0.172526 0.173177 0.173828 0.174479 0.175130 0.175781 0.176432 0.177083 0.177734 0.178385 0.179036 0.179688 0.180339 0.180990 0.181641 0.182292 0.182943 0.183594 0.184245 0.184896 0.185547 0.186198 0.186849 0.187500 0.188151 0.188802 0.189453 0.190104 0.190755 0.191406 0.192057 0.192708 0.193359 0.194010 0.194661 0.195312 0.195964 0.196615 0.197266 0.197917 0.198568 0.199219 0.199870 0.200521 0.201172 0.201823 0.202474 0.203125 0.203776 0.204427 0.205078 0.205729 0.206380 0.207031 0.207682 0.208333 0.208984 0.209635 0.210286 0.210938 0.211589 0.212240 0.212891 0.213542 0.214193 0.214844 0.215495 0.216146 0.216797 0.217448 0.218099 0.218750 0.219401 0.220052 0.220703 0.221354 0.222005 0.222656 0.223307 0.223958 0.224609 0.225260 0.225911 0.226562 0.227214 0.227865 0.228516 0.229167 0.229818 0.230469 0.231120 0.231771 0.232422 0.233073 0.233724 0.234375 0.235026 0.235677
       0.33210        0.33210        0.33210        0.33210        0.33210        0.33210        0.33210        0.33210        0.33210        0.33210        0.33210        0.33210        0.33210        0.33210        0.33210        0.33210        0.33210        0.33210        0.33210        0.33210        0.33210        0.33210        0.33210        0.33210        0.33210        0.33210        0.33210        0.33210        0.33210        0.33210        0.33210        0.33210        0.33210        0.33210        0.33210        0.33210        0.33210        0.33210        0.33210        0.33210        0.33210        0.33210        0.33210        0.33210        0.33210        0.33210        0.33210        0.33210        0.33210        0.33210        0.33210        0.50253        0.71930        0.42852        0.18946       -0.08124       -0.26187       -0.06924       -0.13465       -0.05318       -0.00385       -0.14860       -0.09276       -0.05452       -0.00525       -0.15331       -0.22273       -0.34796       -0.46262       -0.55779       -0.51742       -0.44779       -0.37191       -0.54755       -0.45224       -0.62252       -0.50441       -0.47526       -0.39023       -0.38720       -0.34042       -0.25243       -0.16175       -0.13751        0.03193       -0.01310        0.11808        0.16641        0.30485        0.41029        0.46308        0.49940        0.54113        0.55004        0.68991        0.64458        0.67576        0.59090        0.55587        0.65378        0.52786        0.42600        0.38149        0.32008        0.22792        0.26088        0.24998        0.10669        0.08156       -0.00058       -0.00636        0.03716       -0.00548        0.07319        0.10054        0.23085        0.28412        0.29997        0.37897        0.56196        0.53477        0.57774        0.66849        0.70139        0.62916        0.63500        0.63173        0.55611        0.57479        0.39916        0.34382        0.26488        0.18320        0.07142        0.14311        0.11812        0.09067        0.10526        0.20873        0.21373        0.31644        0.35965        0.41189        0.49109        0.58263        0.54112        0.55451        0.60691        0.53660        0.45989        0.48043        0.32487        0.24839        0.25870        0.24071        0.14068        0.14185        0.15087        0.21784        0.24369        0.32955        0.36488        0.39090        0.46752        0.44579        0.47948        0.45332        0.46690        0.44597        0.40658        0.38387        0.35177        0.31075        0.28790        0.20481        0.19433        0.21918        0.26897        0.26712        0.34930        0.37387        0.35720        0.41066        0.45109        0.44404        0.42348        0.44003        0.37470        0.33304        0.28137        0.26137        0.29039        0.26816        0.29301        0.29997        0.34666        0.34236        0.39461        0.40269        0.42660        0.40890        0.43076        0.40261        0.36270        0.28166        0.29089        0.30614        0.27036        0.25350        0.32459        0.36855        0.34130        0.35288        0.35888        0.35479        0.40891        0.40228        0.36166        0.33738        0.30731        0.30951        0.31673        0.31764        0.30034        0.28429        0.33547        0.36002        0.37777        0.33284        0.32975        0.33441        0.34488        0.30616        0.28267        0.30542        0.31294        0.33691        0.31860        0.32846        0.35813        0.32786        0.31136        0.32612        0.30122        0.26390        0.25214        0.26606        0.30758        0.32118        0.35168        0.30166        0.31162        0.33241        0.29271        0.31376        0.28438        0.28150        0.29116        0.29640        0.30779        0.34287        0.32825        0.33038        0.33752        0.31166        0.33374        0.31902        0.31882        0.30819        0.28178        0.29086        0.30876        0.29070        0.32493        0.33554        0.33501        0.32232        0.34089        0.31842        0.27832        0.25105        0.26828        0.32969        0.35602        0.34198        0.31406        0.29211        0.29702        0.31243        0.24909        0.29920        0.30697        0.33416        0.29852        0.31329        0.28600        0.33616        0.33920        0.34150        0.31752        0.29111        0.31574        0.39875        0.32714        0.31172        0.31018        0.28689        0.28296        0.30014        0.26775        0.31530        0.23578        0.27274        0.29629        0.31367        0.29416        0.26807        0.29650        0.23605        0.22213        0.26221        0.29918        0.30549        0.27305        0.28295        0.33119        0.25827        0.21729        0.30670        0.27295        0.25686        0.28295        0.39175        0.29357        0.28610        0.24654        0.25138        0.26984        0.24709        0.23590        0.17574        0.25948        0.23142        0.24647        0.31627        0.26637        0.35308        0.29153        0.23409        0.22122        0.21079        0.23709        0.30974        0.23121        0.13112        0.16867        0.24020        0.24779        0.30516        0.26694        0.02576       -0.44221       -0.92482
2.688057 2.659665 2.631425 2.603338 2.575403 2.547620 2.519990 2.492512 2.465186 2.438013 2.410992 2.384123 2.357406 2.330842 2.304430 2.278171 2.252063 2.226109 2.200306 2.174655 2.149157 2.123811 2.098618 2.073577 2.048688 2.023951 1.999367 1.974935 1.950655 1.926528 1.902553 1.878730 1.855060 1.831542 1.808176 1.784962 1.761901 1.738992 1.716235 1.693631 1.671179 1.648879 1.626732 1.604736 1.582894 1.561203 1.539665 1.518279 1.497045 1.475964 1.455035 1.525498 1.827728 1.511341 1.191934 0.938640 0.544819 0.910165 0.631429 0.873938 0.924256 0.588361 0.709552 0.775750 0.815377 0.628431 0.534429 0.346478 0.103100 0.080561 0.044767 0.084580 0.301749 -0.035634 0.079952 -0.135150 -0.013565 -0.018015 0.084450 0.057567 0.102082 0.174709 0.281319 0.249556 0.481996 0.395862 0.547589 0.524755 0.766127 0.788342 0.878145 0.922094 0.939594 0.942864 1.108967 0.941329 1.137246 0.944234 0.850624 1.013864 0.847104 0.756573 0.614295 0.592991 0.456470 0.413521 0.507835 0.265427 0.195773 0.156414 0.013123 0.209094 -0.004411 0.117903 0.181725 0.258798 0.332254 0.344869 0.422335 0.540379 0.660094 0.539527 0.736224 0.864324 0.637613 0.694407 0.665329 0.594888 0.536219 0.466535 0.297104 0.213432 0.115323 -0.042364 -0.021753 0.057478 -0.098605 -0.058221 0.048963 0.054162 0.111053 0.221912 0.238032 0.307192 0.432820 0.441355 0.437206 0.479062 0.443836 0.323846 0.333890 0.242450 0.048589 0.062719 0.019090 -0.050691 -0.098426 -0.102049 -0.015662 -0.055504 0.070332 0.123465 0.120987 0.260400 0.228923 0.246959 0.288902 0.244079 0.241602 0.210615 0.174979 0.109261 0.101834 0.027721 0.010142 -0.119483 -0.054526 -0.000918 0.004442 0.018611 0.097982 0.084421 0.135690 0.181002 0.252188 0.172467 0.185070 0.110146 0.139690 0.017430 -0.031826 0.019923 -0.020851 -0.001085 -0.005626 0.034145 0.079095 0.054551 0.150846 0.101259 0.161904 0.063155 0.145624 0.091923 -0.011543 -0.061471 -0.015938 -0.036699 -0.076327 -0.067973 0.049346 0.058388 -0.008711 0.047092 0.062933 0.072592 0.144597 0.068085 0.062459 0.043917 -0.027159 0.024242 0.002973 0.011706 0.003013 -0.009945 0.040477 0.063421 0.068508 0.028655 0.044571 0.019341 0.058209 -0.012522 -0.018222 0.019568 0.007180 0.060728 0.032848 0.039905 0.054449 0.042121 0.016703 0.028007 -0.004136 -0.047159 -0.031805 -0.027662 0.023675 0.039281 0.095267 -0.004180 0.047846 0.065963 -0.009463 0.062513 0.010348 0.011343 0.038217 0.051463 0.037918 0.095087 0.058263 0.071897 0.090663 0.063554 0.067566 0.065183 0.083221 0.032501 -0.005366 0.044217 0.038351 0.049370 0.066209 0.086207 0.013117 0.063220 0.072654 0.006799 0.007953 -0.067887 -0.026602 0.106785 0.074740 0.042302 0.039175 -0.026493 0.045508 0.021298 -0.065149 0.048198 0.038450 0.068915 0.032295 0.006218 0.005174 0.057390 0.040267 0.015766 0.034355 -0.037216 0.063963 0.119094 0.005843 -0.008745 0.001230 -0.007260 -0.034383 -0.018832 -0.053674 0.003693 -0.095704 -0.021744 -0.032377 0.021518 -0.032960 -0.068248 0.030525 -0.078753 -0.059470 -0.075076 0.046737 0.011013 0.002775 -0.008812 0.078247 -0.029734 -0.066760 0.054042 -0.004538 0.016757 0.012252 0.197041 -0.015787 0.024914 0.004263 -0.003042 0.001420 -0.019290 -0.013546 -0.146803 0.025695 -0.035848 0.005260 0.028194 -0.005342 0.140104 0.014587 -0.023967 -0.049683 -0.029587 -0.063180 0.072260 0.276056 0.154289 0.214840 0.234959 0.333499 0.336015 0.318920 0.032588 -1.082084
0.072396 0.072910 0.074452 0.077021 0.080617 0.085239 0.090885 0.097554 0.105244 0.113952 0.123673 0.134404 0.146139 0.158871 0.172592 0.187292 0.202959 0.219580 0.237139 0.255618 0.274994 0.295245 0.316341 0.338252 0.360943 0.384373 0.408500 0.433273 0.458639 0.484539 0.510907 0.537672 0.564756 0.592076 0.619542 0.647055 0.674511 0.701799 0.728800 0.755389 0.781431 0.806789 0.831314 0.854854 0.877249 0.898335 0.917940 0.935891 0.952009 0.966113 0.978018 0.987542 0.994499 0.998708 0.999991 0.998172 0.993084 0.984568 0.972475 0.956668 0.937026 0.913442 0.885830 0.854125 0.818285 0.778295 0.734168 0.685946 0.633708 0.577562 0.517658 0.454181 0.387357 0.317453 0.244779 0.169686 0.092566 0.013856 0.065969 0.146393 0.226863 0.306791 0.385561 0.462526 0.537019 0.608355 0.675841 0.738777 0.796469 0.848234 0.893412 0.931369 0.961513 0.983301 0.996249 0.999942 0.994046 0.978316 0.952603 0.916869 0.871189 0.815760 0.750907 0.677085 0.594888 0.505038 0.408395 0.305948 0.198809 0.088205 0.024531 0.137975 0.250630 0.360941 0.467315 0.568151 0.661858 0.746883 0.821741 0.885044 0.935527 0.972080 0.993775 0.999893 0.989950 0.963716 0.921236 0.862846 0.789177 0.701168 0.600054 0.487367 0.364919 0.234776 0.099237 0.039208 0.177915 0.314137 0.445075 0.567939 0.680006 0.778688 0.861596 0.926600 0.971898 0.996068 0.998125 0.977563 0.934391 0.869159 0.782967 0.677467 0.554842 0.417783 0.269432 0.113329 0.046672 0.206485 0.361899 0.508686 0.642719 0.760093 0.857248 0.931086 0.979079 0.999374 0.990875 0.953308 0.887262 0.794216 0.676519 0.537361 0.380700 0.211169 0.033951 0.145368 0.320976 0.487011 0.637770 0.767906 0.872630 0.947903 0.990610 0.998703 0.971324 0.908879 0.813072 0.686888 0.534535 0.361321 0.173499 0.021950 0.217563 0.405670 0.578702 0.729500 0.851625 0.939647 0.989411 0.998264 0.965214 0.891036 0.778300 0.631319 0.456023 0.259746 0.050943 0.161151 0.366934 0.556857 0.721877 0.853912 0.946249 0.993917 0.993991 0.945799 0.851032 0.713736 0.540185 0.338637 0.118962 0.107796 0.329986 0.535924 0.714526 0.855916 0.952007 0.996988 0.987727 0.924022 0.808701 0.647563 0.449132 0.224250 0.014476 0.253365 0.478433 0.676214 0.834587 0.943549 0.995883 0.987687 0.918714 0.792494 0.616218 0.400391 0.158258 0.094977 0.343086 0.569839 0.760089 0.900806 0.982009 0.997533 0.945549 0.828813 0.654604 0.434339 0.182884 0.082402 0.342842 0.579747 0.775765 0.916189 0.990109 0.991322 0.918920 0.777494 0.576941 0.331843 0.060468 0.216548 0.477751 0.702522 0.872751 0.974328 0.998384 0.942145 0.809310 0.609910 0.359646 0.078717 0.209751 0.481591 0.713620 0.885638 0.982250 0.994326 0.919933 0.764700 0.541491 0.269445 0.027606 0.323159 0.590402 0.804642 0.945661 0.999672 0.960775 0.831689 0.623702 0.355799 0.053011 0.255851 0.540909 0.774134 0.932111 0.998504 0.965821 0.836380 0.622292 0.344457 0.030618 0.287340 0.576587 0.806777 0.953257 0.999815 0.940582 0.780890 0.536939 0.234291 0.094713 0.414351 0.689384 0.888961 0.990180 0.980806 0.860895 0.643045 0.351225 0.018256 0.317787 0.617906 0.846719 0.976706 0.991625 0.888692 0.679183 0.387376 0.047870 0.298420 0.609156 0.845757 0.978281 0.989324 0.876462 0.652857 0.345913 0.005961 0.358036 0.664928 0.886469 0.993064 0.969777 0.818593 0.558496 0.223257 0.142802 0.490591 0.772821 0.950493 0.998399
1.000000 1.000000 1.000000 1.000000 1.000000 1.000000 1.000000 1.000000 1.000000 1.000000 1.000000 1.000000 1.000000 1.000000 1.000000 1.000000 1.000000 1.000000 1.000000 1.000000 1.000000 1.000000 1.000000 1.000000 1.000000 1.000000 1.000000 1.000000 1.000000 1.000000 1.000000 1.000000 1.000000 1.000000 1.000000 1.000000 1.000000 1.000000 1.000000 1.000000 1.000000 1.000000 1.000000 1.000000 1.000000 1.000000 1.000000 1.000000 1.000000 1.000000 1.000000 1.000000 0.918590 0.918590 0.905093 0.905093 0.905093 0.905093 0.905093 0.905093 0.905093 0.905093 0.905093 0.905093 0.905093 0.905093 0.905093 0.905093 0.905093 0.905093 0.905093 0.905093 0.905093 0.905093 0.905093 0.905093 0.905093 0.905093 0.905093 0.905093 0.905093 0.905093 0.905093 0.905093 0.905093 0.905093 0.905093 0.905093 0.905093 0.905093 0.905093 0.905093 0.905093 0.905093 0.905093 0.900975 0.905807 0.907700 0.906132 0.909695 0.909765 0.909052 0.909375 0.909022 0.909342 0.910734 0.921253 0.932293 0.943560 0.944089 0.949224 0.953644 0.956033 0.956923 0.958457 0.968359 0.967052 0.966546 0.967234 0.968707 0.970854 0.969545 0.969169 0.972329 0.972999 0.971364 0.969170 0.968564 0.967963 0.968061 0.967683 0.967571 0.967448 0.967953 0.968170 0.967861 0.968005 0.968054 0.969073 0.970230 0.972588 0.973581 0.973421 0.972309 0.970370 0.974395 0.975255 0.974978 0.974915 0.974435 0.974709 0.962894 0.957617 0.957539 0.954277 0.953425 0.950846 0.949148 0.947024 0.947205 0.946087 0.946203 0.942345 0.929191 0.915608 0.904544 0.925264 0.910190 0.898847 0.875254 0.875907 0.872675 0.873205 0.866043 0.859861 0.855117 0.852367 0.853795 0.850401 0.854001 0.850960 0.838293 0.841222 0.838237 0.810265 0.792372 0.777051 0.777883 0.775157 0.776290 0.775824 0.772817 0.781169 0.773131 0.771468 0.763270 0.744027 0.710271 0.696555 0.706829 0.716334 0.714484 0.710733 0.695566 0.662479 0.675528 0.696016 0.693968 0.696601 0.687706 0.680817 0.681520 0.682705 0.678830 0.671471 0.670542 0.669739 0.679015 0.683073 0.678464 0.668680 0.654003 0.641718 0.628347 0.640830 0.650979 0.618171 0.612237 0.600679 0.593889 0.580145 0.550193 0.549917 0.526578 0.516683 0.520538 0.524032 0.517800 0.525462 0.526839 0.510995 0.532498 0.540481 0.566718 0.550503 0.549532 0.551177 0.557730 0.542901 0.526783 0.522197 0.523086 0.534875 0.563848 0.605000 0.591708 0.578701 0.565983 0.579048 0.546296 0.554379 0.576004 0.552707 0.484167 0.433073 0.431082 0.390778 0.388214 0.377324 0.368440 0.372273 0.363374 0.352129 0.338676 0.326572 0.269836 0.229494 0.212362 0.191454 0.197470 0.212396 0.205940 0.194885 0.217957 0.265878 0.265322 0.256793 0.230776 0.236734 0.207562 0.219505 0.247170 0.202638 0.194638 0.186466 0.159056 0.156788 0.121248 0.143304 0.062146 0.038549 0.036831 0.052612 0.064150 0.060933 0.063287 0.035194 0.055958 0.052578 0.025107 0.015015 0.032105 0.018269 -0.012899 -0.000281 0.015394 0.004796 -0.023496 -0.000957 0.019952 0.035618 0.027117 0.023886 0.079390 0.109688 0.097246 0.098762 0.091637 0.099012 0.077682 0.070701 0.056885 0.046643 -0.001339 -0.030176 -0.030176 -0.025468 -0.025468 -0.025468 -0.025468 -0.025468 -0.025468 -0.025468 -0.025468 -0.025468 -0.029029 -0.029029 -0.029029 -0.029029 -0.029029 -0.029029 -0.029029 -0.029029 -0.029029 -0.003375 -0.003375 -0.003375 -0.003375 -0.003375 -0.003375 -0.003375 -0.003375 -0.003375
0.000000 0.000000 0.000000 0.000000 0.000000 0.000000 0.000000 0.000000 0.000000 0.000000 0.000000 0.000000 0.000000 0.000000 0.000000 0.000000 0.000000 0.000000 0.000000 0.000000 0.000000 0.000000 0.000000 0.000000 0.000000 0.000000 0.000000 0.000000 0.000000 0.000000 0.000000 0.000000 0.000000 0.000000 0.000000 0.000000 0.000000 0.000000 0.000000 0.000000 0.000000 0.000000 0.000000 0.000000 0.000000 0.000000 0.000000 0.000000 0.000000 0.000000 0.000000 0.000000 0.181818 0.181818 0.199007 0.199007 0.199007 0.199007 0.199007 0.199007 0.199007 0.199007 0.199007 0.199007 0.199007 0.199007 0.199007 0.199007 0.199007 0.199007 0.199007 0.199007 0.199007 0.199007 0.199007 0.199007 0.199007 0.199007 0.199007 0.199007 0.199007 0.199007 0.199007 0.199007 0.199007 0.199007 0.199007 0.199007 0.199007 0.199007 0.199007 0.199007 0.199007 0.199007 0.199007 0.230940 0.230940 0.230940 0.230940 0.230940 0.230940 0.230940 0.230940 0.230940 0.230940 0.230940 0.230940 0.230940 0.230940 0.230940 0.230940 0.230940 0.230940 0.230940 0.230940 0.230940 0.230940 0.230940 0.230940 0.230940 0.230940 0.230940 0.230940 0.244339 0.244339 0.244339 0.244339 0.244339 0.244339 0.244339 0.244339 0.244339 0.244339 0.244339 0.244339 0.244339 0.244339 0.244339 0.244339 0.244339 0.244339 0.244339 0.244339 0.244339 0.244339 0.244339 0.251976 0.251976 0.251976 0.251976 0.251976 0.251976 0.251976 0.251976 0.251976 0.251976 0.251976 0.251976 0.251976 0.251976 0.251976 0.251976 0.251976 0.251976 0.251976 0.251976 0.264906 0.264906 0.264906 0.264906 0.264906 0.264906 0.264906 0.264906 0.264906 0.264906 0.264906 0.264906 0.264906 0.264906 0.264906 0.264906 0.264906 0.264906 0.264906 0.264906 0.264906 0.264906 0.264906 0.264906 0.264906 0.264906 0.264906 0.264906 0.264906 0.264906 0.264906 0.264906 0.264906 0.264906 0.264906 0.264906 0.264906 0.264906 0.264906 0.264906 0.264906 0.264906 0.264906 0.264906 0.264906 0.264906 0.264906 0.264906 0.264906 0.264906 0.264906 0.264906 0.264906 0.264906 0.264906 0.264906 0.264906 0.264906 0.264906 0.264906 0.264906 0.264906 0.264906 0.264906 0.264906 0.264906 0.264906 0.264906 0.264906 0.264906 0.264906 0.264906 0.264906 0.264906 0.264906 0.269680 0.269680 0.269680 0.269680 0.269680 0.269680 0.269680 0.269680 0.269680 0.269680 0.269680 0.269680 0.264906 0.264906 0.264906 0.264906 0.264906 0.264906 0.264906 0.264906 0.264906 0.264906 0.264906 0.264906 0.269680 0.269680 0.269680 0.269680 0.269680 0.269680 0.269680 0.269680 0.269680 0.269680 0.269680 0.264906 0.264906 0.264906 0.264906 0.264906 0.264906 0.264906 0.264906 0.264906 0.264906 0.264906 0.256074 0.256074 0.256074 0.256074 0.256074 0.256074 0.256074 0.256074 0.256074 0.256074 0.256074 0.264906 0.264906 0.264906 0.264906 0.264906 0.264906 0.264906 0.264906 0.264906 0.264906 0.269680 0.269680 0.269680 0.269680 0.269680 0.269680 0.269680 0.269680 0.269680 0.256074 0.256074 0.256074 0.256074 0.256074 0.256074 0.256074 0.256074 0.256074 0.256074 0.260378 0.260378 0.260378 0.260378 0.260378 0.260378 0.260378 0.260378 0.260378 0.256074 0.256074 0.256074 0.256074 0.256074 0.256074 0.256074 0.256074 0.256074 0.251976 0.251976 0.251976 0.251976 0.251976 0.251976 0.251976 0.251976 0.251976 0.264906 0.264906 0.264906 0.264906 0.264906 0.264906 0.264906 0.264906 0.264906
