# Output from CTFFind version 4.1.9, run on 2019-11-03 19:00:07
# Input file: stack1_bm3d_averaged_1_2.75_0_1500_half.mrc ; Number of micrographs: 1
# Pixel size: 3.000 Angstroms ; acceleration voltage: 300.0 keV ; spherical aberration: 0.00 mm ; amplitude contrast: 0.07
# Box size: 512 pixels ; min. res.: 30.0 Angstroms ; max. res.: 5.0 Angstroms ; min. def.: 5000.0 um; max. def. 50000.0 um; num. frames averaged: 1
# 6 lines per micrograph: #1 - spatial frequency (1/Angstroms); #2 - 1D rotational average of spectrum (assuming no astigmatism); #3 - 1D rotational average of spectrum; #4 - CTF fit; #5 - cross-correlation between spectrum and CTF fit; #6 - 2sigma of expected cross correlation of noise
0.000000 0.000651 0.001302 0.001953 0.002604 0.003255 0.003906 0.004557 0.005208 0.005859 0.006510 0.007161 0.007812 0.008464 0.009115 0.009766 0.010417 0.011068 0.011719 0.012370 0.013021 0.013672 0.014323 0.014974 0.015625 0.016276 0.016927 0.017578 0.018229 0.018880 0.019531 0.020182 0.020833 0.021484 0.022135 0.022786 0.023438 0.024089 0.024740 0.025391 0.026042 0.026693 0.027344 0.027995 0.028646 0.029297 0.029948 0.030599 0.031250 0.031901 0.032552 0.033203 0.033854 0.034505 0.035156 0.035807 0.036458 0.037109 0.037760 0.038411 0.039062 0.039714 0.040365 0.041016 0.041667 0.042318 0.042969 0.043620 0.044271 0.044922 0.045573 0.046224 0.046875 0.047526 0.048177 0.048828 0.049479 0.050130 0.050781 0.051432 0.052083 0.052734 0.053385 0.054036 0.054688 0.055339 0.055990 0.056641 0.057292 0.057943 0.058594 0.059245 0.059896 0.060547 0.061198 0.061849 0.062500 0.063151 0.063802 0.064453 0.065104 0.065755 0.066406 0.067057 0.067708 0.068359 0.069010 0.069661 0.070312 0.070964 0.071615 0.072266 0.072917 0.073568 0.074219 0.074870 0.075521 0.076172 0.076823 0.077474 0.078125 0.078776 0.079427 0.080078 0.080729 0.081380 0.082031 0.082682 0.083333 0.083984 0.084635 0.085286 0.085938 0.086589 0.087240 0.087891 0.088542 0.089193 0.089844 0.090495 0.091146 0.091797 0.092448 0.093099 0.093750 0.094401 0.095052 0.095703 0.096354 0.097005 0.097656 0.098307 0.098958 0.099609 0.100260 0.100911 0.101562 0.102214 0.102865 0.103516 0.104167 0.104818 0.105469 0.106120 0.106771 0.107422 0.108073 0.108724 0.109375 0.110026 0.110677 0.111328 0.111979 0.112630 0.113281 0.113932 0.114583 0.115234 0.115885 0.116536 0.117188 0.117839 0.118490 0.119141 0.119792 0.120443 0.121094 0.121745 0.122396 0.123047 0.123698 0.124349 0.125000 0.125651 0.126302 0.126953 0.127604 0.128255 0.128906 0.129557 0.130208 0.130859 0.131510 0.132161 0.132812 0.133464 0.134115 0.134766 0.135417 0.136068 0.136719 0.137370 0.138021 0.138672 0.139323 0.139974 0.140625 0.141276 0.141927 0.142578 0.143229 0.143880 0.144531 0.145182 0.145833 0.146484 0.147135 0.147786 0.148438 0.149089 0.149740 0.150391 0.151042 0.151693 0.152344 0.152995 0.153646 0.154297 0.154948 0.155599 0.156250 0.156901 0.157552 0.158203 0.158854 0.159505 0.160156 0.160807 0.161458 0.162109 0.162760 0.163411 0.164062 0.164714 0.165365 0.166016 0.166667 0.167318 0.167969 0.168620 0.169271 0.169922 0.170573 0.171224 0.171875 0.172526 0.173177 0.173828 0.174479 0.175130 0.175781 0.176432 0.177083 0.177734 0.178385 0.179036 0.179688 0.180339 0.180990 0.181641 0.182292 0.182943 0.183594 0.184245 0.184896 0.185547 0.186198 0.186849 0.187500 0.188151 0.188802 0.189453 0.190104 0.190755 0.191406 0.192057 0.192708 0.193359 0.194010 0.194661 0.195312 0.195964 0.196615 0.197266 0.197917 0.198568 0.199219 0.199870 0.200521 0.201172 0.201823 0.202474 0.203125 0.203776 0.204427 0.205078 0.205729 0.206380 0.207031 0.207682 0.208333 0.208984 0.209635 0.210286 0.210938 0.211589 0.212240 0.212891 0.213542 0.214193 0.214844 0.215495 0.216146 0.216797 0.217448 0.218099 0.218750 0.219401 0.220052 0.220703 0.221354 0.222005 0.222656 0.223307 0.223958 0.224609 0.225260 0.225911 0.226562 0.227214 0.227865 0.228516 0.229167 0.229818 0.230469 0.231120 0.231771 0.232422 0.233073 0.233724 0.234375 0.235026 0.235677
       0.34943        0.34943        0.34943        0.34943        0.34943        0.34943        0.34943        0.34943        0.34943        0.34943        0.34943        0.34943        0.34943        0.34943        0.34943        0.34943        0.34943        0.34943        0.34943        0.34943        0.34943        0.34943        0.34943        0.34943        0.34943        0.34943        0.34943        0.34943        0.34943        0.34943        0.34943        0.34943        0.34943        0.34943        0.34943        0.34943        0.34943        0.34943        0.34943        0.34943        0.34943        0.34943        0.34943        0.34943        0.34943        0.34943        0.34943        0.34943        0.34943        0.34943        0.34943        0.50276        0.71648        0.42627        0.21714       -0.04262       -0.22889       -0.04476       -0.10360       -0.06199        0.02020       -0.11710       -0.09224       -0.03271       -0.01310       -0.12606       -0.15808       -0.28976       -0.46024       -0.56685       -0.50127       -0.44766       -0.35426       -0.55374       -0.41418       -0.55717       -0.45788       -0.46709       -0.36508       -0.33836       -0.29942       -0.20982       -0.12133       -0.12173        0.02597        0.00651        0.15910        0.19242        0.33535        0.43309        0.51154        0.55918        0.56975        0.58983        0.70963        0.65823        0.68533        0.59182        0.55360        0.64187        0.51463        0.46678        0.42089        0.31550        0.27839        0.30383        0.26586        0.11425        0.09468       -0.00710        0.02082        0.05007        0.01271        0.10115        0.13931        0.22257        0.29405        0.30001        0.42720        0.57398        0.57073        0.57436        0.67155        0.65404        0.63230        0.68499        0.65279        0.55095        0.55439        0.42199        0.36216        0.27403        0.18859        0.11707        0.15403        0.12865        0.14343        0.13759        0.22982        0.23755        0.32376        0.36732        0.41933        0.51408        0.53747        0.56324        0.57164        0.60521        0.56050        0.49521        0.49279        0.35721        0.28416        0.27879        0.25981        0.18282        0.17447        0.19123        0.23725        0.27602        0.36396        0.40118        0.42309        0.45583        0.46137        0.48388        0.44751        0.49697        0.44903        0.39000        0.35967        0.36399        0.33106        0.30220        0.22960        0.24379        0.23625        0.28018        0.28667        0.37092        0.40995        0.38725        0.42984        0.45327        0.45235        0.44688        0.45589        0.37118        0.36535        0.30109        0.26001        0.30433        0.29478        0.32623        0.33911        0.36812        0.35633        0.43048        0.41693        0.45410        0.41089        0.44153        0.39499        0.37003        0.31872        0.30010        0.30077        0.28822        0.29760        0.35441        0.36549        0.36219        0.37353        0.36678        0.36841        0.43463        0.41435        0.37934        0.35689        0.31757        0.30550        0.35028        0.32262        0.34642        0.31037        0.33190        0.36312        0.39167        0.37031        0.34433        0.34592        0.35679        0.33342        0.31382        0.34263        0.32976        0.35038        0.34031        0.35164        0.38036        0.33354        0.32967        0.35044        0.31848        0.29236        0.28730        0.29534        0.32249        0.34241        0.36995        0.31530        0.31831        0.34333        0.31426        0.33654        0.30938        0.31658        0.30924        0.30417        0.30619        0.34013        0.33503        0.34637        0.33750        0.37355        0.36276        0.33042        0.34286        0.34288        0.26120        0.28336        0.34479        0.28620        0.30870        0.36746        0.33825        0.34116        0.37019        0.33897        0.28172        0.27530        0.31375        0.35212        0.37455        0.36375        0.32370        0.31038        0.30201        0.30948        0.27730        0.31590        0.30671        0.34358        0.33462        0.31704        0.29234        0.34684        0.34385        0.34248        0.29708        0.29605        0.35437        0.40339        0.36563        0.35984        0.34338        0.30855        0.31703        0.30973        0.31187        0.30901        0.21732        0.26699        0.33113        0.31367        0.31027        0.30203        0.26005        0.23263        0.24427        0.30483        0.32491        0.30274        0.28893        0.31456        0.39585        0.32149        0.24312        0.32619        0.29689        0.26645        0.29887        0.36555        0.32217        0.32557        0.30300        0.26678        0.29954        0.31449        0.24741        0.20150        0.26092        0.26279        0.21694        0.31489        0.26763        0.35780        0.30857        0.25184        0.24677        0.21673        0.29293        0.32319        0.25619        0.15627        0.18800        0.29084        0.25317        0.28531        0.13127        0.13198       -0.53193       -1.13460
2.703849 2.675488 2.647280 2.619223 2.591318 2.563566 2.535965 2.508516 2.481219 2.454074 2.427081 2.400239 2.373550 2.347013 2.320627 2.294394 2.268312 2.242382 2.216604 2.190979 2.165504 2.140183 2.115012 2.089994 2.065128 2.040414 2.015851 1.991441 1.967182 1.943075 1.919121 1.895318 1.871667 1.848168 1.824821 1.801626 1.778583 1.755691 1.732952 1.710364 1.687929 1.665645 1.643514 1.621534 1.599706 1.578030 1.556506 1.535134 1.513914 1.492846 1.471929 1.519833 1.843773 1.502100 1.250626 0.965475 0.560822 0.928266 0.668393 0.851117 0.916789 0.641736 0.680483 0.802170 0.794653 0.627733 0.602711 0.411561 0.103616 0.046156 0.048816 0.048208 0.315894 -0.044058 0.066999 -0.062551 0.018017 -0.020103 0.095168 0.093965 0.146809 0.193162 0.327498 0.273423 0.463306 0.382763 0.593267 0.562229 0.788735 0.813761 0.920492 1.011870 0.965252 0.991071 1.138359 0.963710 1.151920 0.931305 0.879734 0.983671 0.834363 0.787121 0.679834 0.559771 0.505635 0.485466 0.506078 0.267101 0.214770 0.148916 0.028654 0.200851 0.015235 0.131912 0.224409 0.255390 0.323151 0.351806 0.466650 0.572661 0.702497 0.535929 0.740539 0.797850 0.615914 0.756966 0.704450 0.611291 0.501313 0.486047 0.311603 0.233094 0.101652 0.010263 0.000730 0.029550 -0.046482 -0.024711 0.086771 0.062215 0.121455 0.215181 0.252884 0.357168 0.409247 0.421025 0.476407 0.428408 0.474627 0.344361 0.336046 0.253190 0.080562 0.067489 0.036516 -0.039818 -0.066010 -0.077907 -0.010857 -0.031073 0.101140 0.143596 0.169050 0.240094 0.230792 0.262179 0.277122 0.237883 0.253468 0.209906 0.125282 0.105591 0.097649 0.039618 0.012662 -0.088508 -0.016413 0.002477 0.022857 0.014540 0.133465 0.122896 0.144879 0.175816 0.267464 0.156051 0.230737 0.103588 0.147845 0.038832 -0.039884 0.015648 -0.003994 0.018054 0.021459 0.079438 0.064949 0.085466 0.169200 0.144348 0.136125 0.103012 0.153172 0.053480 0.051860 -0.023908 -0.033307 -0.026544 -0.052263 -0.015267 0.052169 0.066967 0.018269 0.046898 0.081884 0.060391 0.156274 0.067398 0.078141 0.042415 -0.044497 0.018017 0.030362 -0.013677 0.046609 -0.005335 0.016042 0.042758 0.061461 0.048762 0.023348 -0.016962 0.055319 -0.022864 0.005010 0.019885 -0.009835 0.055285 0.029338 0.032813 0.047113 0.013560 0.011439 0.025022 -0.013640 -0.051832 -0.024081 -0.017558 -0.007332 0.033168 0.076050 -0.018521 0.022835 0.085791 -0.022114 0.066317 0.034953 0.025777 0.021222 0.040171 0.032056 0.066239 0.039157 0.101601 0.076374 0.126818 0.103062 0.073184 0.113233 0.055686 -0.023233 0.039791 0.094204 0.012511 0.069158 0.112286 0.006594 0.081624 0.083416 0.030485 0.000828 -0.059219 0.050962 0.086233 0.099657 0.068600 0.051114 -0.011801 0.024458 0.028818 -0.042051 0.048384 0.036304 0.063865 0.093213 -0.005399 0.004320 0.086230 0.028823 0.014824 -0.012320 -0.026780 0.099126 0.111074 0.061397 0.039619 0.044998 -0.003756 0.003266 0.005297 -0.026317 0.012913 -0.146148 -0.018304 0.028008 0.030531 -0.012440 -0.028053 -0.038312 -0.068238 -0.019175 -0.009145 0.069835 0.016749 0.023490 0.036690 0.153232 0.047441 -0.021211 0.072324 0.039064 0.016517 0.036806 0.147979 0.077143 0.059385 0.068569 0.013818 0.041078 0.084730 -0.013848 -0.103472 0.020901 0.020112 -0.039574 0.086458 -0.019432 0.189414 0.034812 0.009437 -0.001595 -0.024656 0.026960 0.093040 0.307999 0.176114 0.235199 0.371373 0.291793 0.342833 0.042442 0.162210 -1.348682
0.072396 0.072910 0.074452 0.077021 0.080616 0.085238 0.090884 0.097552 0.105241 0.113948 0.123669 0.134399 0.146133 0.158864 0.172583 0.187282 0.202948 0.219568 0.237126 0.255602 0.274977 0.295226 0.316321 0.338230 0.360919 0.384348 0.408472 0.433244 0.458608 0.484506 0.510873 0.537636 0.564719 0.592038 0.619502 0.647014 0.674469 0.701756 0.728757 0.755345 0.781388 0.806745 0.831271 0.854812 0.877208 0.898295 0.917903 0.935857 0.951978 0.966086 0.977995 0.987524 0.994487 0.998702 0.999991 0.998180 0.993100 0.984593 0.972510 0.956713 0.937081 0.913508 0.885908 0.854215 0.818388 0.778411 0.734298 0.686090 0.633865 0.577733 0.517842 0.454378 0.387567 0.317675 0.245012 0.169929 0.092819 0.014116 0.065702 0.146121 0.226589 0.306517 0.385288 0.462257 0.536757 0.608103 0.675601 0.738552 0.796263 0.848050 0.893252 0.931236 0.961411 0.983232 0.996215 0.999946 0.994091 0.978401 0.952732 0.917041 0.871405 0.816019 0.751208 0.677428 0.595270 0.505456 0.408846 0.306427 0.199311 0.088725 0.023999 0.137439 0.250096 0.360417 0.466810 0.567673 0.661415 0.746483 0.821392 0.884754 0.935303 0.971929 0.993702 0.999903 0.990045 0.963899 0.921508 0.863204 0.789620 0.701689 0.600648 0.488026 0.365632 0.235531 0.100022 0.038407 0.177115 0.313354 0.444325 0.567239 0.679374 0.778140 0.861146 0.926262 0.971683 0.995986 0.998182 0.977763 0.934734 0.869641 0.783582 0.678203 0.555687 0.418718 0.270436 0.114378 0.045604 0.205425 0.360876 0.507729 0.641857 0.759353 0.856654 0.930659 0.978838 0.999331 0.991038 0.953677 0.887834 0.794978 0.677454 0.538444 0.381902 0.212455 0.035282 0.144037 0.319686 0.485807 0.636697 0.767003 0.871934 0.947444 0.990410 0.998777 0.971677 0.909506 0.813956 0.688004 0.535846 0.362784 0.175061 0.020346 0.215980 0.404172 0.577351 0.728356 0.850739 0.939061 0.989160 0.998365 0.965673 0.891841 0.779424 0.632722 0.457650 0.261528 0.052806 0.159293 0.365164 0.555260 0.720534 0.852893 0.945608 0.993695 0.994209 0.946457 0.852107 0.715184 0.541943 0.340619 0.121076 0.105663 0.327940 0.534078 0.712981 0.854764 0.951317 0.996810 0.988082 0.924900 0.810066 0.649349 0.451244 0.226575 0.012069 0.251015 0.476281 0.674392 0.833213 0.942714 0.995650 0.988083 0.919728 0.794074 0.618277 0.402809 0.160885 0.092308 0.340546 0.567598 0.758302 0.899600 0.981478 0.997727 0.946468 0.830409 0.656781 0.436955 0.185760 0.079463 0.340048 0.577305 0.773858 0.914966 0.989675 0.991723 0.920142 0.779459 0.579518 0.334843 0.063666 0.213396 0.474890 0.700189 0.871136 0.973574 0.998569 0.943270 0.811300 0.612618 0.362861 0.082177 0.206333 0.478503 0.711130 0.883974 0.981570 0.994704 0.921356 0.767060 0.544595 0.273025 0.023861 0.319587 0.587331 0.802365 0.944402 0.999566 0.961850 0.833865 0.626789 0.359519 0.057014 0.251948 0.537491 0.771539 0.930613 0.998268 0.966893 0.838672 0.625595 0.348447 0.034892 0.283212 0.573041 0.804193 0.951922 0.999890 0.942082 0.783675 0.540731 0.238691 0.090174 0.410174 0.686033 0.886826 0.989516 0.981712 0.863292 0.646680 0.355700 0.023069 0.313190 0.614066 0.844099 0.975635 0.992254 0.890969 0.682859 0.392027 0.052945 0.293538 0.605070 0.842987 0.977190 0.990073 0.878982 0.656859 0.350901 0.000605 0.353002 0.660872 0.883935 0.992405 0.971106 0.821762 0.563113 0.228720 0.137219 0.485644 0.769196 0.948697 0.998709
1.000000 1.000000 1.000000 1.000000 1.000000 1.000000 1.000000 1.000000 1.000000 1.000000 1.000000 1.000000 1.000000 1.000000 1.000000 1.000000 1.000000 1.000000 1.000000 1.000000 1.000000 1.000000 1.000000 1.000000 1.000000 1.000000 1.000000 1.000000 1.000000 1.000000 1.000000 1.000000 1.000000 1.000000 1.000000 1.000000 1.000000 1.000000 1.000000 1.000000 1.000000 1.000000 1.000000 1.000000 1.000000 1.000000 1.000000 1.000000 1.000000 1.000000 1.000000 1.000000 0.919959 0.919959 0.906411 0.906411 0.906411 0.906411 0.906411 0.906411 0.906411 0.906411 0.906411 0.906411 0.906411 0.906411 0.906411 0.906411 0.906411 0.906411 0.906411 0.906411 0.906411 0.906411 0.906411 0.906411 0.906411 0.906411 0.906411 0.906411 0.906411 0.906411 0.906411 0.906411 0.906411 0.906411 0.906411 0.906411 0.906411 0.906411 0.906411 0.906411 0.906411 0.906411 0.906411 0.898487 0.905128 0.908182 0.906584 0.910157 0.910559 0.908423 0.907944 0.907780 0.908097 0.909100 0.916868 0.931292 0.938707 0.942397 0.945869 0.952819 0.956077 0.955734 0.962051 0.969998 0.968731 0.968327 0.968986 0.970395 0.972512 0.971180 0.970819 0.974085 0.974726 0.973195 0.971026 0.970457 0.969890 0.969656 0.969272 0.969408 0.969678 0.970164 0.969863 0.969547 0.969687 0.969733 0.970753 0.971902 0.974202 0.975129 0.974954 0.973876 0.972012 0.973511 0.977036 0.974027 0.973926 0.973447 0.973732 0.963063 0.955435 0.955521 0.949252 0.947810 0.945495 0.943647 0.943354 0.943562 0.942607 0.943848 0.942380 0.934858 0.929081 0.913657 0.928250 0.924913 0.909433 0.893875 0.896209 0.897636 0.898001 0.895941 0.888917 0.885772 0.882654 0.884224 0.887925 0.891075 0.886287 0.880137 0.879041 0.876094 0.852469 0.830189 0.819609 0.814900 0.811983 0.812668 0.810338 0.807485 0.815392 0.807839 0.802449 0.792086 0.785478 0.758501 0.735072 0.737188 0.745096 0.748466 0.741928 0.713497 0.675844 0.689789 0.687186 0.686819 0.686502 0.677437 0.670079 0.669089 0.674036 0.663624 0.660455 0.661632 0.660805 0.668807 0.669893 0.657350 0.653547 0.638583 0.627495 0.605033 0.608012 0.625287 0.584876 0.576431 0.563937 0.553321 0.546812 0.529382 0.527708 0.524970 0.512686 0.502834 0.497056 0.500875 0.508431 0.509778 0.492851 0.514802 0.509697 0.543634 0.534836 0.520648 0.514659 0.517913 0.505477 0.485289 0.492387 0.493593 0.494470 0.528580 0.527164 0.530521 0.526711 0.518057 0.514193 0.479688 0.484133 0.502636 0.475413 0.450614 0.432298 0.430072 0.411313 0.402023 0.375819 0.361069 0.374942 0.356107 0.342624 0.322674 0.319591 0.244263 0.203358 0.189316 0.186223 0.194674 0.231144 0.238979 0.219415 0.243748 0.289839 0.279107 0.266845 0.254846 0.224443 0.186711 0.185576 0.187414 0.143417 0.146752 0.130532 0.123814 0.123675 0.098150 0.112992 0.041595 0.005247 0.013181 0.031011 0.070843 0.067027 0.075565 0.052575 0.059349 0.051692 0.018895 0.032508 0.045794 0.019254 0.019029 0.042136 0.066835 0.075004 -0.007717 0.023516 0.061217 0.077461 0.068027 0.063768 0.095004 0.120008 0.122601 0.128934 0.125826 0.103876 0.097093 0.091894 0.054224 0.066609 -0.001865 -0.027241 -0.027241 -0.036560 -0.036560 -0.036560 -0.036560 -0.036560 -0.036560 -0.036560 -0.036560 -0.036560 -0.041791 -0.041791 -0.041791 -0.041791 -0.041791 -0.041791 -0.041791 -0.041791 -0.041791 0.001079 0.001079 0.001079 0.001079 0.001079 0.001079 0.001079 0.001079 0.001079
0.000000 0.000000 0.000000 0.000000 0.000000 0.000000 0.000000 0.000000 0.000000 0.000000 0.000000 0.000000 0.000000 0.000000 0.000000 0.000000 0.000000 0.000000 0.000000 0.000000 0.000000 0.000000 0.000000 0.000000 0.000000 0.000000 0.000000 0.000000 0.000000 0.000000 0.000000 0.000000 0.000000 0.000000 0.000000 0.000000 0.000000 0.000000 0.000000 0.000000 0.000000 0.000000 0.000000 0.000000 0.000000 0.000000 0.000000 0.000000 0.000000 0.000000 0.000000 0.000000 0.181818 0.181818 0.199007 0.199007 0.199007 0.199007 0.199007 0.199007 0.199007 0.199007 0.199007 0.199007 0.199007 0.199007 0.199007 0.199007 0.199007 0.199007 0.199007 0.199007 0.199007 0.199007 0.199007 0.199007 0.199007 0.199007 0.199007 0.199007 0.199007 0.199007 0.199007 0.199007 0.199007 0.199007 0.199007 0.199007 0.199007 0.199007 0.199007 0.199007 0.199007 0.199007 0.199007 0.230940 0.230940 0.230940 0.230940 0.230940 0.230940 0.230940 0.230940 0.230940 0.230940 0.230940 0.230940 0.230940 0.230940 0.230940 0.230940 0.230940 0.230940 0.230940 0.230940 0.230940 0.230940 0.230940 0.230940 0.230940 0.230940 0.230940 0.230940 0.244339 0.244339 0.244339 0.244339 0.244339 0.244339 0.244339 0.244339 0.244339 0.244339 0.244339 0.244339 0.244339 0.244339 0.244339 0.244339 0.244339 0.244339 0.244339 0.244339 0.244339 0.244339 0.244339 0.251976 0.251976 0.251976 0.251976 0.251976 0.251976 0.251976 0.251976 0.251976 0.251976 0.251976 0.251976 0.251976 0.251976 0.251976 0.251976 0.251976 0.251976 0.251976 0.251976 0.264906 0.264906 0.264906 0.264906 0.264906 0.264906 0.264906 0.264906 0.264906 0.264906 0.264906 0.264906 0.264906 0.264906 0.264906 0.264906 0.264906 0.264906 0.264906 0.264906 0.264906 0.264906 0.264906 0.264906 0.264906 0.264906 0.264906 0.264906 0.264906 0.264906 0.264906 0.264906 0.264906 0.264906 0.264906 0.264906 0.264906 0.264906 0.264906 0.264906 0.264906 0.264906 0.264906 0.264906 0.264906 0.264906 0.264906 0.264906 0.264906 0.264906 0.264906 0.264906 0.264906 0.264906 0.264906 0.264906 0.264906 0.264906 0.264906 0.264906 0.264906 0.264906 0.264906 0.264906 0.264906 0.264906 0.264906 0.264906 0.264906 0.264906 0.264906 0.264906 0.264906 0.264906 0.264906 0.269680 0.269680 0.269680 0.269680 0.269680 0.269680 0.269680 0.269680 0.269680 0.269680 0.269680 0.269680 0.264906 0.264906 0.264906 0.264906 0.264906 0.264906 0.264906 0.264906 0.264906 0.264906 0.264906 0.264906 0.269680 0.269680 0.269680 0.269680 0.269680 0.269680 0.269680 0.269680 0.269680 0.269680 0.269680 0.264906 0.264906 0.264906 0.264906 0.264906 0.264906 0.264906 0.264906 0.264906 0.264906 0.264906 0.256074 0.256074 0.256074 0.256074 0.256074 0.256074 0.256074 0.256074 0.256074 0.256074 0.256074 0.264906 0.264906 0.264906 0.264906 0.264906 0.264906 0.264906 0.264906 0.264906 0.264906 0.269680 0.269680 0.269680 0.269680 0.269680 0.269680 0.269680 0.269680 0.269680 0.256074 0.256074 0.256074 0.256074 0.256074 0.256074 0.256074 0.256074 0.256074 0.256074 0.260378 0.260378 0.260378 0.260378 0.260378 0.260378 0.260378 0.260378 0.260378 0.256074 0.256074 0.256074 0.256074 0.256074 0.256074 0.256074 0.256074 0.256074 0.251976 0.251976 0.251976 0.251976 0.251976 0.251976 0.251976 0.251976 0.251976 0.264906 0.264906 0.264906 0.264906 0.264906 0.264906 0.264906 0.264906 0.264906
