# Output from CTFFind version 4.1.9, run on 2019-11-02 17:59:01
# Input file: stack11_bm3d_averaged_1_1.75_0_1250_half.mrc ; Number of micrographs: 1
# Pixel size: 3.000 Angstroms ; acceleration voltage: 300.0 keV ; spherical aberration: 0.00 mm ; amplitude contrast: 0.07
# Box size: 512 pixels ; min. res.: 30.0 Angstroms ; max. res.: 5.0 Angstroms ; min. def.: 5000.0 um; max. def. 50000.0 um; num. frames averaged: 1
# 6 lines per micrograph: #1 - spatial frequency (1/Angstroms); #2 - 1D rotational average of spectrum (assuming no astigmatism); #3 - 1D rotational average of spectrum; #4 - CTF fit; #5 - cross-correlation between spectrum and CTF fit; #6 - 2sigma of expected cross correlation of noise
0.000000 0.000651 0.001302 0.001953 0.002604 0.003255 0.003906 0.004557 0.005208 0.005859 0.006510 0.007161 0.007812 0.008464 0.009115 0.009766 0.010417 0.011068 0.011719 0.012370 0.013021 0.013672 0.014323 0.014974 0.015625 0.016276 0.016927 0.017578 0.018229 0.018880 0.019531 0.020182 0.020833 0.021484 0.022135 0.022786 0.023438 0.024089 0.024740 0.025391 0.026042 0.026693 0.027344 0.027995 0.028646 0.029297 0.029948 0.030599 0.031250 0.031901 0.032552 0.033203 0.033854 0.034505 0.035156 0.035807 0.036458 0.037109 0.037760 0.038411 0.039062 0.039714 0.040365 0.041016 0.041667 0.042318 0.042969 0.043620 0.044271 0.044922 0.045573 0.046224 0.046875 0.047526 0.048177 0.048828 0.049479 0.050130 0.050781 0.051432 0.052083 0.052734 0.053385 0.054036 0.054688 0.055339 0.055990 0.056641 0.057292 0.057943 0.058594 0.059245 0.059896 0.060547 0.061198 0.061849 0.062500 0.063151 0.063802 0.064453 0.065104 0.065755 0.066406 0.067057 0.067708 0.068359 0.069010 0.069661 0.070312 0.070964 0.071615 0.072266 0.072917 0.073568 0.074219 0.074870 0.075521 0.076172 0.076823 0.077474 0.078125 0.078776 0.079427 0.080078 0.080729 0.081380 0.082031 0.082682 0.083333 0.083984 0.084635 0.085286 0.085938 0.086589 0.087240 0.087891 0.088542 0.089193 0.089844 0.090495 0.091146 0.091797 0.092448 0.093099 0.093750 0.094401 0.095052 0.095703 0.096354 0.097005 0.097656 0.098307 0.098958 0.099609 0.100260 0.100911 0.101562 0.102214 0.102865 0.103516 0.104167 0.104818 0.105469 0.106120 0.106771 0.107422 0.108073 0.108724 0.109375 0.110026 0.110677 0.111328 0.111979 0.112630 0.113281 0.113932 0.114583 0.115234 0.115885 0.116536 0.117188 0.117839 0.118490 0.119141 0.119792 0.120443 0.121094 0.121745 0.122396 0.123047 0.123698 0.124349 0.125000 0.125651 0.126302 0.126953 0.127604 0.128255 0.128906 0.129557 0.130208 0.130859 0.131510 0.132161 0.132812 0.133464 0.134115 0.134766 0.135417 0.136068 0.136719 0.137370 0.138021 0.138672 0.139323 0.139974 0.140625 0.141276 0.141927 0.142578 0.143229 0.143880 0.144531 0.145182 0.145833 0.146484 0.147135 0.147786 0.148438 0.149089 0.149740 0.150391 0.151042 0.151693 0.152344 0.152995 0.153646 0.154297 0.154948 0.155599 0.156250 0.156901 0.157552 0.158203 0.158854 0.159505 0.160156 0.160807 0.161458 0.162109 0.162760 0.163411 0.164062 0.164714 0.165365 0.166016 0.166667 0.167318 0.167969 0.168620 0.169271 0.169922 0.170573 0.171224 0.171875 0.172526 0.173177 0.173828 0.174479 0.175130 0.175781 0.176432 0.177083 0.177734 0.178385 0.179036 0.179688 0.180339 0.180990 0.181641 0.182292 0.182943 0.183594 0.184245 0.184896 0.185547 0.186198 0.186849 0.187500 0.188151 0.188802 0.189453 0.190104 0.190755 0.191406 0.192057 0.192708 0.193359 0.194010 0.194661 0.195312 0.195964 0.196615 0.197266 0.197917 0.198568 0.199219 0.199870 0.200521 0.201172 0.201823 0.202474 0.203125 0.203776 0.204427 0.205078 0.205729 0.206380 0.207031 0.207682 0.208333 0.208984 0.209635 0.210286 0.210938 0.211589 0.212240 0.212891 0.213542 0.214193 0.214844 0.215495 0.216146 0.216797 0.217448 0.218099 0.218750 0.219401 0.220052 0.220703 0.221354 0.222005 0.222656 0.223307 0.223958 0.224609 0.225260 0.225911 0.226562 0.227214 0.227865 0.228516 0.229167 0.229818 0.230469 0.231120 0.231771 0.232422 0.233073 0.233724 0.234375 0.235026 0.235677
       0.31685        0.31685        0.31685        0.31685        0.31685        0.31685        0.31685        0.31685        0.31685        0.31685        0.31685        0.31685        0.31685        0.31685        0.31685        0.31685        0.31685        0.31685        0.31685        0.31685        0.31685        0.31685        0.31685        0.31685        0.31685        0.31685        0.31685        0.31685        0.31685        0.31685        0.31685        0.31685        0.31685        0.31685        0.31685        0.31685        0.31685        0.31685        0.31685        0.31685        0.31685        0.31685        0.31685        0.31685        0.31685        0.31685        0.31685        0.31685        0.31685        0.31685        0.31685        0.68261        0.86721        0.52253        0.08799       -0.06353       -0.42560       -0.20492       -0.29713       -0.11845       -0.07664       -0.11907       -0.06836       -0.20756       -0.23497       -0.25680       -0.33099       -0.33878       -0.48908       -0.38189       -0.46441       -0.44850       -0.42047       -0.46704       -0.53817       -0.56074       -0.58672       -0.62054       -0.57759       -0.41403       -0.37796       -0.33079       -0.31408       -0.21086       -0.19892        0.01983        0.07615        0.10766        0.22583        0.37056        0.44246        0.51426        0.55845        0.55449        0.56946        0.69578        0.81134        0.73850        0.73294        0.66606        0.57761        0.48218        0.40582        0.49421        0.37699        0.20457        0.07695        0.04618        0.01377       -0.06129       -0.03785       -0.01923       -0.06854       -0.00823       -0.01988        0.21302        0.25143        0.28902        0.42778        0.45817        0.40287        0.53649        0.62461        0.69490        0.76175        0.68749        0.65506        0.69569        0.58314        0.49929        0.41841        0.28967        0.19176        0.15604        0.10911        0.03728        0.01132        0.00208        0.07468        0.13150        0.20584        0.27950        0.39652        0.41833        0.50560        0.60050        0.63242        0.61784        0.62820        0.55460        0.44666        0.44951        0.35258        0.22778        0.18284        0.14630        0.11181        0.12278        0.07311        0.10412        0.23084        0.26410        0.34442        0.35622        0.44896        0.51266        0.53713        0.54807        0.46987        0.42974        0.38935        0.36478        0.30516        0.25131        0.20382        0.18822        0.16503        0.19461        0.17881        0.27134        0.33357        0.36732        0.42515        0.45970        0.47641        0.43925        0.39223        0.41224        0.37172        0.28409        0.26811        0.22398        0.21463        0.19393        0.21669        0.23010        0.32738        0.37227        0.37069        0.46151        0.43483        0.43691        0.42870        0.39450        0.34400        0.32606        0.27823        0.24303        0.23703        0.27072        0.27328        0.30153        0.30386        0.33583        0.32734        0.40731        0.41872        0.37730        0.34680        0.36489        0.28018        0.28042        0.26100        0.27852        0.26211        0.28047        0.29021        0.30998        0.34727        0.36025        0.36131        0.33752        0.35300        0.28810        0.32255        0.26759        0.24303        0.28556        0.28551        0.31028        0.31148        0.32723        0.32699        0.31464        0.31801        0.28573        0.28795        0.26125        0.28211        0.26415        0.30643        0.28345        0.26682        0.30715        0.31110        0.31667        0.28333        0.29980        0.28370        0.25135        0.24511        0.21776        0.28046        0.27691        0.32204        0.31168        0.32061        0.31804        0.30992        0.27524        0.28760        0.32904        0.26702        0.25810        0.29289        0.28878        0.34053        0.33488        0.35253        0.33122        0.30731        0.28260        0.26842        0.25775        0.22457        0.27219        0.30682        0.29694        0.27985        0.29653        0.26855        0.32333        0.32937        0.25038        0.22044        0.27421        0.33127        0.27579        0.30842        0.32605        0.32437        0.29984        0.32112        0.34201        0.30040        0.28771        0.25512        0.28528        0.35394        0.35897        0.26597        0.26611        0.25489        0.28553        0.21890        0.28867        0.22721        0.25063        0.33240        0.32174        0.34913        0.29764        0.23902        0.23539        0.24122        0.23102        0.19100        0.22603        0.26916        0.30271        0.26473        0.30975        0.30289        0.27118        0.27318        0.20750        0.16727        0.19630        0.22946        0.19531        0.20997        0.22837        0.19839        0.25280        0.35077        0.30579        0.31909        0.22798        0.23939        0.22119        0.28672        0.29648        0.14714        0.23519        0.23281        0.10799        0.21422        0.11192        0.14226        0.22456        0.12220       -0.12487       -0.60786
2.588859 2.561846 2.534980 2.508260 2.481687 2.455259 2.428978 2.402844 2.376856 2.351015 2.325320 2.299771 2.274369 2.249113 2.224004 2.199041 2.174225 2.149555 2.125031 2.100654 2.076424 2.052339 2.028401 2.004610 1.980965 1.957466 1.934114 1.910909 1.887849 1.864936 1.842170 1.819550 1.797077 1.774750 1.752569 1.730535 1.708647 1.686905 1.665310 1.643862 1.622560 1.601404 1.580395 1.559532 1.538816 1.518246 1.497822 1.477545 1.457414 1.437430 1.417592 1.638098 2.045138 1.618827 1.130646 0.990348 0.419691 0.814325 0.559631 0.834022 0.773161 0.788560 0.750854 0.711256 0.562765 0.515434 0.484366 0.441146 0.206931 0.379705 0.202046 0.308795 0.236462 0.182118 0.135628 0.007344 0.039583 -0.010985 -0.056787 0.105508 0.208317 0.192326 0.155052 0.332543 0.198386 0.496700 0.582300 0.554394 0.596157 0.876516 0.811734 0.944582 0.888705 0.977191 0.944496 1.079337 1.140914 1.072127 1.130741 0.948780 0.941921 0.784793 0.650678 0.772897 0.709404 0.463456 0.309249 0.250950 0.218346 0.148250 0.090608 0.130756 0.074467 0.150916 0.054312 0.262950 0.380188 0.358999 0.480426 0.577404 0.463423 0.550858 0.699286 0.740375 0.781354 0.730615 0.732547 0.712342 0.627705 0.566823 0.429068 0.287398 0.211162 0.080206 0.133531 -0.043733 -0.032383 -0.075291 -0.038883 0.001872 0.149952 0.088627 0.295677 0.280537 0.362636 0.454553 0.525019 0.506697 0.521049 0.507825 0.334974 0.311997 0.282675 0.098424 0.050522 -0.010653 -0.028629 -0.040588 -0.085690 -0.102159 -0.003457 0.058885 0.135048 0.148770 0.229057 0.329203 0.314248 0.409138 0.397820 0.285964 0.231584 0.244548 0.201126 0.104715 0.080156 0.019535 0.002459 0.013324 -0.014512 0.061089 0.150772 0.142897 0.235852 0.253605 0.307607 0.249866 0.221920 0.180433 0.213754 0.140124 0.042778 0.038308 -0.009066 -0.011278 -0.032775 0.018859 0.018233 0.166564 0.132451 0.182960 0.237639 0.199709 0.188889 0.195947 0.142136 0.101175 0.061537 0.052181 -0.031953 0.007822 0.023598 0.056610 0.055392 0.077844 0.094456 0.122166 0.139106 0.189491 0.082360 0.098712 0.074026 0.001784 0.005658 0.009184 -0.004336 0.019627 0.006767 0.028837 0.065976 0.079525 0.128042 0.053482 0.106489 0.058663 0.016799 0.062863 -0.035105 -0.014693 0.029715 0.005355 0.059256 0.053114 0.050732 0.060079 0.058244 0.045845 0.025241 0.001530 0.016845 0.014390 -0.009162 0.072474 -0.012661 0.016451 0.060582 0.051415 0.040040 0.046961 0.039830 0.020490 -0.011614 -0.032952 -0.015117 0.025177 0.035080 0.078498 0.061186 0.067007 0.086889 0.070691 0.025008 0.071394 0.088589 0.015874 0.019384 0.063429 0.054041 0.105058 0.110551 0.108109 0.119186 0.071233 0.044909 0.038851 0.002672 0.003339 0.056705 0.087061 0.049987 0.036320 0.034940 0.022059 0.098136 0.061672 -0.043828 -0.046535 0.033181 0.095182 0.006285 0.025611 0.066804 0.087917 0.029316 0.060975 0.082474 0.038602 0.035065 -0.041577 0.030583 0.114641 0.077917 -0.041243 -0.022522 -0.043455 0.033095 -0.109246 0.038611 -0.095393 -0.027924 0.055744 0.042413 0.032733 -0.035361 -0.065399 -0.080870 -0.084208 -0.067734 -0.117325 -0.085952 -0.025528 0.044815 -0.039898 0.051461 -0.013193 -0.048428 0.047418 -0.106521 -0.104591 -0.083394 -0.009313 -0.059981 -0.048822 0.003416 -0.004661 0.022972 0.201088 -0.012455 0.157254 0.022440 0.245706 0.239366 0.328484 0.276402 0.110191 0.238654 0.278665 0.032197 0.233302 0.114502 0.117783 0.314323 0.125423 -0.630729
0.072396 0.072899 0.074406 0.076917 0.080432 0.084950 0.090470 0.096990 0.104507 0.113020 0.122524 0.133016 0.144490 0.156939 0.170357 0.184733 0.200057 0.216316 0.233494 0.251576 0.270540 0.290364 0.311022 0.332484 0.354717 0.377685 0.401345 0.425653 0.450556 0.476001 0.501924 0.528260 0.554935 0.581871 0.608983 0.636179 0.663361 0.690423 0.717254 0.743736 0.769742 0.795141 0.819793 0.843554 0.866273 0.887792 0.907949 0.926579 0.943509 0.958567 0.971576 0.982358 0.990734 0.996529 0.999567 0.999676 0.996691 0.990452 0.980808 0.967621 0.950762 0.930117 0.905592 0.877107 0.844607 0.808059 0.767454 0.722812 0.674183 0.621649 0.565325 0.505361 0.441946 0.375304 0.305702 0.233445 0.158879 0.082390 0.004404 0.074613 0.154159 0.233697 0.312655 0.390434 0.466409 0.539934 0.610346 0.676974 0.739143 0.796182 0.847431 0.892250 0.930027 0.960189 0.982208 0.995612 0.999997 0.995032 0.980472 0.956164 0.922059 0.878215 0.824805 0.762127 0.690600 0.610774 0.523326 0.429062 0.328911 0.223925 0.115265 0.004196 0.107926 0.219671 0.329548 0.436029 0.537562 0.632607 0.719646 0.797221 0.863954 0.918579 0.959965 0.987147 0.999349 0.996011 0.976808 0.941671 0.890804 0.824688 0.744097 0.650093 0.544023 0.427509 0.302427 0.170890 0.035213 0.102121 0.238506 0.371256 0.497665 0.615053 0.720839 0.812586 0.888079 0.945370 0.982848 0.999282 0.993877 0.966306 0.916745 0.845889 0.754963 0.645714 0.520393 0.381721 0.232839 0.077249 0.081261 0.238708 0.391008 0.534086 0.663983 0.776976 0.869687 0.939201 0.983163 0.999872 0.988359 0.948448 0.880795 0.786897 0.669089 0.530502 0.375000 0.207084 0.031777 0.145518 0.319178 0.483542 0.633090 0.762641 0.867544 0.943853 0.988497 0.999420 0.975691 0.917583 0.826610 0.705514 0.558214 0.389703 0.205895 0.013439 0.180510 0.368559 0.543349 0.697848 0.825656 0.921275 0.980372 0.999994 0.978745 0.916898 0.816440 0.681046 0.515983 0.327929 0.124736 0.084894 0.291756 0.486548 0.660298 0.804778 0.912926 0.979204 0.999918 0.973453 0.900422 0.783704 0.628377 0.441544 0.232030 0.010001 0.213512 0.427157 0.619833 0.781286 0.902665 0.977047 0.999863 0.969216 0.886070 0.754281 0.580477 0.373763 0.145285 0.092333 0.325688 0.541333 0.726566 0.870199 0.963267 0.999620 0.976387 0.894236 0.757444 0.573725 0.353862 0.111110 0.139567 0.382404 0.601819 0.783428 0.915020 0.987412 0.995146 0.936955 0.815958 0.639583 0.419156 0.169249 0.093247 0.350256 0.583728 0.776941 0.915712 0.989501 0.992264 0.923007 0.785998 0.590587 0.350643 0.083623 0.190648 0.451435 0.678655 0.854452 0.964639 0.999904 0.956674 0.837536 0.651192 0.411905 0.138480 0.147162 0.421714 0.662367 0.848752 0.964693 0.999684 0.949920 0.818791 0.616758 0.360612 0.072162 0.223576 0.500520 0.733815 0.902117 0.989592 0.987490 0.895123 0.720098 0.477824 0.190236 0.116116 0.412477 0.670562 0.865312 0.977357 0.995043 0.915745 0.746325 0.502668 0.208297 0.107816 0.414041 0.679267 0.876065 0.983616 0.989988 0.893584 0.703534 0.438961 0.127170 0.199076 0.504978 0.757387 0.928464 0.998820 0.959832 0.814825 0.578952 0.277751 0.055517 0.383474 0.668780 0.878441 0.987673 0.982962 0.863864 0.643330 0.346447 0.007716 0.332884 0.634561 0.860643 0.983088 0.986099 0.868293 0.643171 0.337732 0.010626 0.358599 0.662325 0.882933 0.991618 0.973526 0.829944 0.578442 0.250917 0.110352
1.000000 1.000000 1.000000 1.000000 1.000000 1.000000 1.000000 1.000000 1.000000 1.000000 1.000000 1.000000 1.000000 1.000000 1.000000 1.000000 1.000000 1.000000 1.000000 1.000000 1.000000 1.000000 1.000000 1.000000 1.000000 1.000000 1.000000 1.000000 1.000000 1.000000 1.000000 1.000000 1.000000 1.000000 1.000000 1.000000 1.000000 1.000000 1.000000 1.000000 1.000000 1.000000 1.000000 1.000000 1.000000 1.000000 1.000000 1.000000 1.000000 1.000000 1.000000 1.000000 0.929108 0.929108 0.929108 0.919023 0.919023 0.919023 0.919023 0.919023 0.919023 0.919023 0.919023 0.919023 0.919023 0.919023 0.919023 0.919023 0.919023 0.919023 0.919023 0.919023 0.919023 0.919023 0.919023 0.919023 0.919023 0.919023 0.919023 0.919023 0.919023 0.919023 0.919023 0.919023 0.919023 0.919023 0.919023 0.919023 0.919023 0.919023 0.919023 0.919023 0.919023 0.919023 0.919023 0.919023 0.949319 0.950587 0.958499 0.958341 0.957838 0.955733 0.954808 0.953678 0.953222 0.953498 0.954110 0.954952 0.963682 0.964766 0.966354 0.967187 0.967903 0.968544 0.968361 0.969055 0.968244 0.967665 0.967139 0.963133 0.965905 0.965271 0.965379 0.966410 0.966287 0.968321 0.968499 0.967890 0.966997 0.966244 0.965519 0.965090 0.964807 0.965313 0.965608 0.966918 0.970102 0.969521 0.969229 0.969387 0.969487 0.969667 0.970101 0.971795 0.968037 0.968682 0.967018 0.964832 0.969043 0.966172 0.965956 0.967318 0.967699 0.968098 0.966160 0.962388 0.955763 0.954808 0.951517 0.942149 0.940443 0.941326 0.943691 0.944248 0.943160 0.936376 0.936932 0.931233 0.931596 0.934923 0.930442 0.930522 0.931667 0.930887 0.929350 0.928677 0.926021 0.922858 0.920898 0.920476 0.923533 0.924251 0.925498 0.925341 0.920093 0.911142 0.897453 0.895405 0.890070 0.893274 0.882942 0.882570 0.882532 0.877822 0.881440 0.882186 0.883238 0.879680 0.863102 0.843510 0.834384 0.837325 0.842669 0.838664 0.837522 0.830528 0.842841 0.825273 0.838216 0.850485 0.846269 0.847242 0.846826 0.844260 0.836828 0.837565 0.839956 0.841717 0.841007 0.839658 0.835519 0.820038 0.821481 0.756560 0.739970 0.735072 0.740464 0.746110 0.746032 0.745074 0.753879 0.759101 0.756257 0.741092 0.733124 0.723931 0.728958 0.732270 0.737560 0.727124 0.702610 0.694873 0.661846 0.678729 0.695756 0.654379 0.677107 0.687653 0.683879 0.683522 0.675893 0.671373 0.666124 0.669135 0.678391 0.693980 0.713062 0.738129 0.735123 0.724535 0.724541 0.705652 0.699074 0.690636 0.699274 0.679652 0.674227 0.692676 0.692161 0.679364 0.659609 0.646428 0.633593 0.631250 0.639174 0.631977 0.630328 0.617940 0.590180 0.584926 0.623077 0.639544 0.657849 0.633709 0.620938 0.613678 0.593588 0.607566 0.552833 0.552955 0.574093 0.580988 0.560069 0.540761 0.548570 0.559924 0.564757 0.556545 0.540096 0.529540 0.542867 0.572765 0.563871 0.539102 0.543097 0.542503 0.539437 0.466220 0.462713 0.432603 0.403321 0.340157 0.315907 0.309737 0.292806 0.278998 0.245491 0.241849 0.250759 0.261317 0.270178 0.270745 0.255713 0.259516 0.250384 0.236706 0.175446 0.163287 0.155589 0.144755 0.145696 0.122259 0.144243 0.208639 0.211171 0.211171 0.211171 0.211171 0.211171 0.211171 0.221584 0.221584 0.221584 0.221584 0.221584 0.221584 0.221584 0.221584 0.221584 0.230463 0.230463 0.230463 0.230463 0.230463 0.230463 0.230463 0.230463 0.230463 0.230463 0.230463 0.230463 0.230463 0.230463
0.000000 0.000000 0.000000 0.000000 0.000000 0.000000 0.000000 0.000000 0.000000 0.000000 0.000000 0.000000 0.000000 0.000000 0.000000 0.000000 0.000000 0.000000 0.000000 0.000000 0.000000 0.000000 0.000000 0.000000 0.000000 7.000000 4.000000 0.000000 0.000000 0.000000 0.000000 0.000000 0.000000 0.000000 0.000000 0.000000 0.000000 0.000000 0.000000 0.000000 0.000000 0.000000 0.000000 0.000000 0.000000 0.000000 0.000000 0.000000 0.000000 0.000000 0.000000 0.000000 0.180334 0.180334 0.180334 0.199007 0.199007 0.199007 0.199007 0.199007 0.199007 0.199007 0.199007 0.199007 0.199007 0.199007 0.199007 0.199007 0.199007 0.199007 0.199007 0.199007 0.199007 0.199007 0.199007 0.199007 0.199007 0.199007 0.199007 0.199007 0.199007 0.199007 0.199007 0.199007 0.199007 0.199007 0.199007 0.199007 0.199007 0.199007 0.199007 0.199007 0.199007 0.199007 0.199007 0.199007 0.225018 0.225018 0.225018 0.225018 0.225018 0.225018 0.225018 0.225018 0.225018 0.225018 0.225018 0.225018 0.225018 0.225018 0.225018 0.225018 0.225018 0.225018 0.225018 0.225018 0.225018 0.225018 0.225018 0.225018 0.225018 0.225018 0.225018 0.225018 0.225018 0.244339 0.244339 0.244339 0.244339 0.244339 0.244339 0.244339 0.244339 0.244339 0.244339 0.244339 0.244339 0.244339 0.244339 0.244339 0.244339 0.244339 0.244339 0.244339 0.244339 0.244339 0.244339 0.244339 0.251976 0.251976 0.251976 0.251976 0.251976 0.251976 0.251976 0.251976 0.251976 0.251976 0.251976 0.251976 0.251976 0.251976 0.251976 0.251976 0.251976 0.251976 0.251976 0.251976 0.264906 0.264906 0.264906 0.264906 0.264906 0.264906 0.264906 0.264906 0.264906 0.264906 0.264906 0.264906 0.264906 0.264906 0.264906 0.264906 0.264906 0.264906 0.264906 0.264906 0.264906 0.264906 0.264906 0.264906 0.264906 0.264906 0.264906 0.264906 0.264906 0.264906 0.264906 0.264906 0.264906 0.264906 0.264906 0.264906 0.264906 0.264906 0.264906 0.264906 0.264906 0.264906 0.264906 0.264906 0.264906 0.264906 0.264906 0.264906 0.264906 0.264906 0.264906 0.264906 0.264906 0.264906 0.264906 0.264906 0.264906 0.264906 0.264906 0.264906 0.264906 0.264906 0.256074 0.256074 0.256074 0.256074 0.256074 0.256074 0.256074 0.256074 0.256074 0.256074 0.256074 0.256074 0.256074 0.256074 0.269680 0.269680 0.269680 0.269680 0.269680 0.269680 0.269680 0.269680 0.269680 0.269680 0.269680 0.269680 0.264906 0.264906 0.264906 0.264906 0.264906 0.264906 0.264906 0.264906 0.264906 0.264906 0.264906 0.264906 0.269680 0.269680 0.269680 0.269680 0.269680 0.269680 0.269680 0.269680 0.269680 0.269680 0.269680 0.264906 0.264906 0.264906 0.264906 0.264906 0.264906 0.264906 0.264906 0.264906 0.264906 0.264906 0.256074 0.256074 0.256074 0.256074 0.256074 0.256074 0.256074 0.256074 0.256074 0.256074 0.256074 0.264906 0.264906 0.264906 0.264906 0.264906 0.264906 0.264906 0.264906 0.264906 0.264906 0.260378 0.260378 0.260378 0.260378 0.260378 0.260378 0.260378 0.260378 0.260378 0.260378 0.256074 0.256074 0.256074 0.256074 0.256074 0.256074 0.256074 0.256074 0.256074 0.256074 0.260378 0.260378 0.260378 0.260378 0.260378 0.260378 0.260378 0.260378 0.260378 0.256074 0.256074 0.256074 0.256074 0.256074 0.256074 0.256074 0.256074 0.256074 0.251976 0.251976 0.251976 0.251976 0.251976 0.251976 0.251976 0.251976 0.251976 0.251976 0.251976 0.251976 0.251976 0.251976
