# Output from CTFFind version 4.1.9, run on 2019-11-03 19:41:08
# Input file: stack16_bm3d_averaged_1_4.75_0_1250_half.mrc ; Number of micrographs: 1
# Pixel size: 3.000 Angstroms ; acceleration voltage: 300.0 keV ; spherical aberration: 0.00 mm ; amplitude contrast: 0.07
# Box size: 512 pixels ; min. res.: 30.0 Angstroms ; max. res.: 5.0 Angstroms ; min. def.: 5000.0 um; max. def. 50000.0 um; num. frames averaged: 1
# 6 lines per micrograph: #1 - spatial frequency (1/Angstroms); #2 - 1D rotational average of spectrum (assuming no astigmatism); #3 - 1D rotational average of spectrum; #4 - CTF fit; #5 - cross-correlation between spectrum and CTF fit; #6 - 2sigma of expected cross correlation of noise
0.000000 0.000651 0.001302 0.001953 0.002604 0.003255 0.003906 0.004557 0.005208 0.005859 0.006510 0.007161 0.007812 0.008464 0.009115 0.009766 0.010417 0.011068 0.011719 0.012370 0.013021 0.013672 0.014323 0.014974 0.015625 0.016276 0.016927 0.017578 0.018229 0.018880 0.019531 0.020182 0.020833 0.021484 0.022135 0.022786 0.023438 0.024089 0.024740 0.025391 0.026042 0.026693 0.027344 0.027995 0.028646 0.029297 0.029948 0.030599 0.031250 0.031901 0.032552 0.033203 0.033854 0.034505 0.035156 0.035807 0.036458 0.037109 0.037760 0.038411 0.039062 0.039714 0.040365 0.041016 0.041667 0.042318 0.042969 0.043620 0.044271 0.044922 0.045573 0.046224 0.046875 0.047526 0.048177 0.048828 0.049479 0.050130 0.050781 0.051432 0.052083 0.052734 0.053385 0.054036 0.054688 0.055339 0.055990 0.056641 0.057292 0.057943 0.058594 0.059245 0.059896 0.060547 0.061198 0.061849 0.062500 0.063151 0.063802 0.064453 0.065104 0.065755 0.066406 0.067057 0.067708 0.068359 0.069010 0.069661 0.070312 0.070964 0.071615 0.072266 0.072917 0.073568 0.074219 0.074870 0.075521 0.076172 0.076823 0.077474 0.078125 0.078776 0.079427 0.080078 0.080729 0.081380 0.082031 0.082682 0.083333 0.083984 0.084635 0.085286 0.085938 0.086589 0.087240 0.087891 0.088542 0.089193 0.089844 0.090495 0.091146 0.091797 0.092448 0.093099 0.093750 0.094401 0.095052 0.095703 0.096354 0.097005 0.097656 0.098307 0.098958 0.099609 0.100260 0.100911 0.101562 0.102214 0.102865 0.103516 0.104167 0.104818 0.105469 0.106120 0.106771 0.107422 0.108073 0.108724 0.109375 0.110026 0.110677 0.111328 0.111979 0.112630 0.113281 0.113932 0.114583 0.115234 0.115885 0.116536 0.117188 0.117839 0.118490 0.119141 0.119792 0.120443 0.121094 0.121745 0.122396 0.123047 0.123698 0.124349 0.125000 0.125651 0.126302 0.126953 0.127604 0.128255 0.128906 0.129557 0.130208 0.130859 0.131510 0.132161 0.132812 0.133464 0.134115 0.134766 0.135417 0.136068 0.136719 0.137370 0.138021 0.138672 0.139323 0.139974 0.140625 0.141276 0.141927 0.142578 0.143229 0.143880 0.144531 0.145182 0.145833 0.146484 0.147135 0.147786 0.148438 0.149089 0.149740 0.150391 0.151042 0.151693 0.152344 0.152995 0.153646 0.154297 0.154948 0.155599 0.156250 0.156901 0.157552 0.158203 0.158854 0.159505 0.160156 0.160807 0.161458 0.162109 0.162760 0.163411 0.164062 0.164714 0.165365 0.166016 0.166667 0.167318 0.167969 0.168620 0.169271 0.169922 0.170573 0.171224 0.171875 0.172526 0.173177 0.173828 0.174479 0.175130 0.175781 0.176432 0.177083 0.177734 0.178385 0.179036 0.179688 0.180339 0.180990 0.181641 0.182292 0.182943 0.183594 0.184245 0.184896 0.185547 0.186198 0.186849 0.187500 0.188151 0.188802 0.189453 0.190104 0.190755 0.191406 0.192057 0.192708 0.193359 0.194010 0.194661 0.195312 0.195964 0.196615 0.197266 0.197917 0.198568 0.199219 0.199870 0.200521 0.201172 0.201823 0.202474 0.203125 0.203776 0.204427 0.205078 0.205729 0.206380 0.207031 0.207682 0.208333 0.208984 0.209635 0.210286 0.210938 0.211589 0.212240 0.212891 0.213542 0.214193 0.214844 0.215495 0.216146 0.216797 0.217448 0.218099 0.218750 0.219401 0.220052 0.220703 0.221354 0.222005 0.222656 0.223307 0.223958 0.224609 0.225260 0.225911 0.226562 0.227214 0.227865 0.228516 0.229167 0.229818 0.230469 0.231120 0.231771 0.232422 0.233073 0.233724 0.234375 0.235026 0.235677
       0.33303        0.33303        0.33303        0.33303        0.33303        0.33303        0.33303        0.33303        0.33303        0.33303        0.33303        0.33303        0.33303        0.33303        0.33303        0.33303        0.33303        0.33303        0.33303        0.33303        0.33303        0.33303        0.33303        0.33303        0.33303        0.33303        0.33303        0.33303        0.33303        0.33303        0.33303        0.33303        0.33303        0.33303        0.33303        0.33303        0.33303        0.33303        0.33303        0.33303        0.33303        0.33303        0.33303        0.33303        0.33303        0.33303        0.33303        0.33303        0.33303        0.33303        0.33303        0.41847        0.55991        0.34642       -0.20114       -0.45791       -0.55790       -0.65544       -0.72802       -0.74409       -0.84781       -0.90968       -0.70722       -0.86762       -0.84330       -0.99259       -1.02809       -0.91170       -0.86962       -0.81684       -0.74298       -0.66939       -0.58273       -0.48764       -0.41884       -0.19201       -0.08534        0.00759        0.23573        0.24315        0.30069        0.36583        0.39175        0.49922        0.53387        0.56905        0.53121        0.47094        0.50795        0.50420        0.42528        0.31920        0.19330        0.16764        0.10042       -0.02274       -0.03676       -0.04314        0.03311       -0.00459        0.05198        0.02964        0.14369        0.18416        0.39872        0.45528        0.55052        0.65584        0.69185        0.71348        0.63444        0.61196        0.52699        0.43390        0.37681        0.25812        0.20322        0.19258        0.08103        0.07914        0.06333        0.06498        0.08167        0.29470        0.40451        0.50702        0.53419        0.57510        0.61151        0.58816        0.58032        0.58193        0.56109        0.46115        0.28653        0.24718        0.22554        0.12330        0.07204        0.13692        0.16427        0.26653        0.34540        0.40969        0.46669        0.52863        0.60061        0.54830        0.50769        0.48735        0.35143        0.24230        0.23354        0.15984        0.15322        0.19894        0.24714        0.26637        0.30823        0.41359        0.44058        0.50062        0.45341        0.44458        0.46974        0.37268        0.31680        0.27263        0.23625        0.21260        0.21804        0.22884        0.32355        0.42684        0.41778        0.48499        0.54603        0.43942        0.40987        0.35173        0.29406        0.24560        0.25640        0.26348        0.27801        0.31570        0.33047        0.41369        0.46460        0.43288        0.44569        0.35454        0.36772        0.34882        0.24550        0.22884        0.23022        0.29654        0.36086        0.36428        0.38513        0.42846        0.42912        0.35920        0.33273        0.30956        0.33523        0.29311        0.26531        0.26738        0.33093        0.35763        0.37046        0.39014        0.37219        0.40001        0.37868        0.29353        0.27463        0.30659        0.33366        0.35324        0.35182        0.40134        0.33311        0.36684        0.38242        0.32046        0.34057        0.29937        0.28586        0.33184        0.32465        0.31526        0.33094        0.35428        0.31574        0.33426        0.30044        0.30406        0.27535        0.29865        0.29336        0.32631        0.36267        0.35492        0.33538        0.29123        0.27770        0.27754        0.31654        0.29005        0.30310        0.35578        0.36080        0.33024        0.30191        0.29979        0.30247        0.26466        0.28442        0.29292        0.31423        0.34923        0.32391        0.28063        0.32057        0.30738        0.30303        0.34800        0.33462        0.30306        0.32654        0.28557        0.31765        0.27790        0.29949        0.29048        0.31079        0.36765        0.32468        0.34135        0.29645        0.30663        0.32055        0.31939        0.28946        0.28728        0.32053        0.31368        0.31138        0.30078        0.30616        0.28967        0.29613        0.31364        0.31873        0.32555        0.32928        0.32569        0.28814        0.27133        0.26604        0.25950        0.34983        0.30703        0.35128        0.29114        0.26056        0.28526        0.34895        0.29832        0.28042        0.26940        0.30423        0.27983        0.26531        0.30914        0.27039        0.26283        0.29782        0.30435        0.33107        0.32360        0.29204        0.26434        0.24811        0.25012        0.26108        0.27947        0.33416        0.27267        0.20299        0.29061        0.26550        0.29382        0.22819        0.30607        0.30117        0.30894        0.27374        0.25824        0.26619        0.22247        0.28223        0.33210        0.36196        0.23770        0.25922        0.21301        0.21562        0.19888        0.33194        0.23544        0.22949        0.14195        0.24180        0.24623        0.21864        0.14766        0.03787       -0.61623       -0.88006
3.059956 3.021613 2.983518 2.945670 2.908069 2.870715 2.833609 2.796751 2.760140 2.723776 2.687660 2.651791 2.616169 2.580795 2.545668 2.510789 2.476157 2.441773 2.407636 2.373746 2.340104 2.306709 2.273562 2.240662 2.208009 2.175604 2.143446 2.111536 2.079873 2.048458 2.017290 1.986369 1.955696 1.925270 1.895091 1.865160 1.835477 1.806041 1.776852 1.747910 1.719217 1.690770 1.662571 1.634619 1.606915 1.579458 1.552249 1.525287 1.498572 1.472105 1.445885 1.480311 1.577575 1.517647 0.846281 0.582040 0.440640 0.373193 0.281315 0.199871 0.157832 -0.059707 0.186925 0.051502 -0.044464 -0.125364 -0.244690 -0.156762 -0.072854 -0.094729 -0.087940 0.026811 0.020386 0.212564 0.099406 0.343363 0.453717 0.470927 0.748076 0.682714 0.680054 0.826595 0.793925 0.825636 0.917168 0.859373 0.892023 0.727568 0.805150 0.840726 0.669547 0.601035 0.439526 0.422039 0.355352 0.180046 0.176855 0.116853 0.212053 0.117811 0.212595 0.107210 0.228569 0.235472 0.458818 0.414931 0.592834 0.629868 0.674636 0.733679 0.624472 0.608239 0.472295 0.422338 0.308563 0.275456 0.108973 0.170568 -0.016483 0.036883 -0.035260 -0.036730 -0.032505 0.042376 0.291141 0.306820 0.387497 0.332722 0.413173 0.453837 0.428180 0.432447 0.372361 0.360812 0.143227 0.093520 0.068528 0.000046 -0.146858 -0.033034 -0.071719 0.046228 0.101293 0.173234 0.242762 0.251824 0.336852 0.436084 0.328915 0.378015 0.268144 0.143747 0.067874 0.057493 0.009458 0.039190 0.075401 0.111104 0.121543 0.199490 0.250888 0.301554 0.316001 0.238585 0.266453 0.234542 0.113979 0.090467 0.045292 0.040328 0.009162 0.007918 0.046826 0.176398 0.194674 0.200947 0.316472 0.197977 0.220333 0.096302 0.081948 -0.006975 -0.004701 0.007732 0.009378 0.041645 0.049136 0.091219 0.161701 0.158676 0.216104 0.118920 0.079653 0.105095 0.046576 -0.069498 -0.026617 0.010518 0.050367 0.072286 0.085709 0.148289 0.146468 0.148028 0.039010 0.056167 0.049958 0.046627 0.022455 -0.019384 0.033563 0.042190 0.085771 0.109823 0.099113 0.104138 0.124139 0.065130 0.004903 0.002582 0.032001 0.078711 0.059547 0.108724 0.095962 0.056029 0.111108 0.069698 0.038185 0.074710 -0.026201 0.024693 0.058467 0.034886 0.040365 0.040243 0.070812 0.049147 0.051878 0.010063 0.021031 -0.013211 0.029231 0.001669 0.054327 0.077961 0.062872 0.033064 -0.016407 -0.014684 -0.011739 0.025679 -0.005593 0.013476 0.067087 0.065490 -0.013969 0.011185 -0.010448 0.007031 -0.044231 -0.019901 -0.011551 0.034014 -0.004865 0.020820 -0.021349 0.004994 -0.010908 0.001109 0.041374 0.016125 0.015616 -0.054842 -0.003072 -0.001715 -0.050583 -0.012120 -0.021608 0.020354 0.068870 0.002239 0.009490 -0.001353 0.010960 0.009438 0.028096 -0.014962 -0.008085 0.008867 0.047930 0.014407 0.004575 0.052152 -0.017596 0.001104 0.029683 0.023054 0.053621 0.051976 0.018431 0.013957 -0.003986 -0.031429 -0.001193 0.072762 0.009633 0.059508 -0.011072 -0.022047 -0.015216 0.084033 -0.007644 0.003843 0.020381 0.021115 -0.003692 0.000743 0.029213 0.006208 -0.005246 0.029938 0.042556 0.093842 0.053500 0.029911 0.012616 -0.013560 -0.010302 0.002678 0.005181 0.096980 -0.026504 -0.087962 0.057291 -0.016338 0.015298 -0.043816 0.027827 0.010897 0.007216 -0.013865 -0.023551 -0.023479 -0.062418 0.016547 0.049274 0.080146 -0.106557 0.026389 -0.031037 -0.036460 -0.096689 0.135346 0.023780 0.068341 -0.042429 0.121961 0.249249 0.189575 0.090357 0.042708 -0.825232
0.072396 0.073047 0.074999 0.078253 0.082806 0.088658 0.095806 0.104247 0.113977 0.124992 0.137284 0.150845 0.165666 0.181732 0.199030 0.217540 0.237240 0.258104 0.280102 0.303197 0.327350 0.352512 0.378630 0.405643 0.433483 0.462073 0.491327 0.521152 0.551443 0.582086 0.612954 0.643914 0.674816 0.705504 0.735808 0.765545 0.794523 0.822539 0.849378 0.874816 0.898618 0.920544 0.940343 0.957759 0.972534 0.984406 0.993111 0.998390 0.999986 0.997652 0.991149 0.980253 0.964757 0.944476 0.919249 0.888945 0.853465 0.812749 0.766778 0.715579 0.659230 0.597861 0.531661 0.460880 0.385830 0.306889 0.224503 0.139184 0.051515 0.037859 0.128225 0.218810 0.308785 0.397271 0.483346 0.566052 0.644410 0.717425 0.784103 0.843468 0.894571 0.936509 0.968444 0.989620 0.999380 0.997184 0.982630 0.955468 0.915615 0.863176 0.798448 0.721934 0.634350 0.536630 0.429919 0.315575 0.195157 0.070408 0.056759 0.184291 0.310023 0.431710 0.547074 0.653839 0.749783 0.832788 0.900893 0.952343 0.985642 0.999607 0.993410 0.966623 0.919252 0.851764 0.765104 0.660707 0.540483 0.406807 0.262485 0.110704 0.045024 0.200937 0.353111 0.497557 0.630324 0.747617 0.845909 0.922062 0.973435 0.997998 0.994416 0.962138 0.901450 0.813515 0.700380 0.564956 0.410980 0.242915 0.065858 0.114610 0.292592 0.462059 0.617059 0.751933 0.861534 0.941442 0.988164 0.999308 0.973731 0.911641 0.814655 0.685800 0.529462 0.351268 0.157914 0.043060 0.243555 0.435228 0.609841 0.759621 0.877636 0.958128 0.996832 0.991238 0.940779 0.846948 0.713309 0.545424 0.350661 0.137910 0.082783 0.300686 0.504887 0.684849 0.830969 0.935122 0.991151 0.995277 0.946397 0.846256 0.699456 0.513321 0.297580 0.063916 0.174642 0.404424 0.611901 0.784494 0.911371 0.984170 0.997609 0.949923 0.843113 0.682953 0.478762 0.242930 0.009780 0.263113 0.500368 0.705482 0.864165 0.964930 0.999997 0.965957 0.864177 0.700859 0.486767 0.236598 0.031958 0.299429 0.545958 0.752779 0.903694 0.986398 0.993562 0.923573 0.780852 0.575698 0.323645 0.044380 0.239737 0.505438 0.730454 0.895428 0.985636 0.992406 0.914049 0.756229 0.531696 0.259365 0.037168 0.331623 0.597335 0.809693 0.948475 0.999867 0.957948 0.825498 0.613987 0.342724 0.037215 0.273156 0.557920 0.788512 0.941212 0.999675 0.956818 0.815807 0.590023 0.301962 0.018894 0.338992 0.624195 0.843443 0.972217 0.995405 0.909225 0.721968 0.453381 0.132771 0.204091 0.518875 0.775081 0.942306 0.999997 0.940126 0.768486 0.504360 0.178538 0.170109 0.499213 0.768020 0.942523 0.999888 0.931625 0.745032 0.462671 0.119831 0.239713 0.569227 0.825092 0.972672 0.991157 0.876717 0.643434 0.321818 0.044967 0.406775 0.713276 0.921028 0.999753 0.936977 0.740230 0.436446 0.068519 0.310584 0.645356 0.885922 0.995583 0.956635 0.773483 0.472486 0.098437 0.291911 0.638348 0.886525 0.996617 0.949938 0.752397 0.434101 0.045072 0.352438 0.693792 0.922539 0.999916 0.911666 0.670986 0.316886 0.091824 0.486130 0.798418 0.974161 0.981663 0.818084 0.510568 0.112079 0.307465 0.673304 0.919230 0.999710 0.898638 0.632902 0.249947 0.180357 0.578289 0.869022 0.996827 0.936070 0.696702 0.323077 0.113881 0.529956 0.843772 0.992868 0.946420 0.711989 0.334791 0.110637 0.534923 0.851727 0.995457 0.935151 0.681575 0.285790 0.170709 0.592567 0.890404 0.999974 0.896344 0.600034 0.173446 0.291881 0.694710
1.000000 1.000000 1.000000 1.000000 1.000000 1.000000 1.000000 1.000000 1.000000 1.000000 1.000000 1.000000 1.000000 1.000000 1.000000 1.000000 1.000000 1.000000 1.000000 1.000000 1.000000 1.000000 1.000000 1.000000 1.000000 1.000000 1.000000 1.000000 1.000000 1.000000 1.000000 1.000000 1.000000 1.000000 1.000000 1.000000 1.000000 1.000000 1.000000 1.000000 1.000000 1.000000 1.000000 1.000000 1.000000 1.000000 1.000000 1.000000 1.000000 1.000000 1.000000 1.000000 0.933156 0.933156 0.933156 0.933156 0.933156 0.933156 0.933156 0.933156 0.933156 0.933156 0.933156 0.933156 0.933156 0.933156 0.933156 0.933156 0.933156 0.933156 0.933156 0.933156 0.933156 0.933156 0.933156 0.933156 0.933156 0.933156 0.933156 0.933156 0.933156 0.933156 0.933156 0.933156 0.933156 0.920039 0.918184 0.921165 0.922208 0.922124 0.921642 0.921343 0.922372 0.923837 0.925703 0.947206 0.950556 0.951144 0.952343 0.953845 0.956552 0.954870 0.963040 0.969937 0.969193 0.969980 0.963998 0.964979 0.964491 0.963844 0.965834 0.965676 0.964305 0.962714 0.961494 0.961129 0.960889 0.962449 0.962895 0.963100 0.963485 0.963417 0.963283 0.963248 0.963508 0.965673 0.964792 0.964012 0.969799 0.968643 0.970787 0.970768 0.971484 0.972189 0.972362 0.972509 0.967962 0.967456 0.966565 0.953692 0.947056 0.944030 0.946260 0.949030 0.946096 0.941669 0.940540 0.943469 0.938460 0.938022 0.929532 0.927846 0.910045 0.901098 0.889945 0.890759 0.892385 0.893428 0.891269 0.882488 0.872273 0.868830 0.870897 0.865677 0.861205 0.877686 0.872426 0.873273 0.877135 0.879687 0.885076 0.879670 0.875606 0.871652 0.867882 0.864745 0.866985 0.871434 0.874683 0.863003 0.855786 0.858579 0.848520 0.841402 0.847843 0.849647 0.845886 0.845010 0.845889 0.846032 0.838111 0.833950 0.835706 0.845458 0.845681 0.836053 0.831460 0.825162 0.825326 0.822328 0.822999 0.821784 0.818782 0.812331 0.824443 0.793849 0.816266 0.812507 0.800654 0.786253 0.774488 0.777166 0.789636 0.792612 0.789659 0.772539 0.770573 0.770729 0.750880 0.756393 0.763536 0.760621 0.747931 0.725732 0.733675 0.743580 0.734629 0.725287 0.727987 0.727884 0.696703 0.709636 0.713188 0.698921 0.712654 0.712915 0.704627 0.700856 0.705255 0.665596 0.661506 0.625291 0.628023 0.637496 0.626081 0.573433 0.571941 0.573784 0.563192 0.492165 0.483426 0.468780 0.471104 0.469631 0.510054 0.511096 0.488026 0.494197 0.492175 0.490652 0.476571 0.379713 0.368636 0.350460 0.374231 0.377538 0.368365 0.342615 0.354098 0.363137 0.372744 0.360330 0.353876 0.368269 0.352663 0.359652 0.381708 0.364221 0.349365 0.339980 0.354938 0.349491 0.387770 0.329162 0.296337 0.308545 0.323762 0.331828 0.335711 0.320667 0.248593 0.327125 0.248684 0.270512 0.247672 0.230341 0.223865 0.255605 0.249030 0.260583 0.250248 0.281666 0.284042 0.284656 0.269322 0.269869 0.288553 0.227731 0.240743 0.271314 0.276689 0.354472 0.342493 0.313335 0.187254 0.251805 0.229253 0.236488 0.210067 0.127813 0.133606 0.142851 0.104948 0.111207 0.099804 0.067361 0.042049 0.004529 0.004435 -0.019624 -0.012907 0.007009 -0.006524 -0.006686 -0.006686 -0.006686 -0.006686 -0.039420 -0.039420 -0.039420 -0.039420 -0.039420 -0.039420 -0.039420 -0.039420 -0.039420 -0.039420 -0.039420 -0.039420 -0.039420 -0.039420 -0.017239 -0.017239 -0.017239 -0.017239 -0.017239 -0.017239 -0.017239 -0.017239 -0.017239 -0.017239 -0.017239 -0.017239
0.000000 0.000000 0.000000 0.000000 0.000000 0.000000 0.000000 0.000000 0.000000 0.000000 0.000000 0.000000 0.000000 0.000000 0.000000 0.000000 0.000000 0.000000 0.000000 0.000000 0.000000 0.000000 0.000000 0.000000 0.000000 7.000000 4.000000 0.000000 0.000000 0.000000 0.000000 0.000000 0.000000 0.000000 0.000000 0.000000 0.000000 0.000000 0.000000 0.000000 0.000000 0.000000 0.000000 0.000000 0.000000 0.000000 0.000000 0.000000 0.000000 0.000000 0.000000 0.000000 0.209657 0.209657 0.209657 0.209657 0.209657 0.209657 0.209657 0.209657 0.209657 0.209657 0.209657 0.209657 0.209657 0.209657 0.209657 0.209657 0.209657 0.209657 0.209657 0.209657 0.209657 0.209657 0.209657 0.209657 0.209657 0.209657 0.209657 0.209657 0.209657 0.209657 0.209657 0.209657 0.209657 0.244339 0.244339 0.244339 0.244339 0.244339 0.244339 0.244339 0.244339 0.244339 0.244339 0.244339 0.244339 0.244339 0.244339 0.244339 0.244339 0.244339 0.244339 0.244339 0.244339 0.244339 0.244339 0.244339 0.244339 0.244339 0.260378 0.260378 0.260378 0.260378 0.260378 0.260378 0.260378 0.260378 0.260378 0.260378 0.260378 0.260378 0.260378 0.260378 0.260378 0.260378 0.260378 0.260378 0.260378 0.260378 0.269680 0.269680 0.269680 0.269680 0.269680 0.269680 0.269680 0.269680 0.269680 0.269680 0.269680 0.269680 0.269680 0.269680 0.269680 0.269680 0.269680 0.269680 0.269680 0.269680 0.269680 0.269680 0.269680 0.269680 0.269680 0.269680 0.269680 0.269680 0.269680 0.269680 0.269680 0.269680 0.269680 0.280056 0.280056 0.280056 0.280056 0.280056 0.280056 0.280056 0.280056 0.280056 0.280056 0.280056 0.280056 0.280056 0.280056 0.280056 0.280056 0.280056 0.280056 0.280056 0.280056 0.280056 0.280056 0.280056 0.280056 0.280056 0.280056 0.280056 0.274721 0.274721 0.274721 0.274721 0.274721 0.274721 0.274721 0.274721 0.274721 0.274721 0.274721 0.274721 0.274721 0.285714 0.285714 0.285714 0.285714 0.285714 0.285714 0.285714 0.285714 0.285714 0.285714 0.285714 0.280056 0.280056 0.280056 0.280056 0.280056 0.280056 0.280056 0.280056 0.280056 0.280056 0.280056 0.274721 0.274721 0.274721 0.274721 0.274721 0.274721 0.274721 0.274721 0.274721 0.274721 0.274721 0.280056 0.280056 0.280056 0.280056 0.280056 0.280056 0.280056 0.280056 0.280056 0.280056 0.285714 0.285714 0.285714 0.285714 0.285714 0.285714 0.285714 0.285714 0.285714 0.280056 0.280056 0.280056 0.280056 0.280056 0.280056 0.280056 0.280056 0.280056 0.274721 0.274721 0.274721 0.274721 0.274721 0.274721 0.274721 0.274721 0.274721 0.269680 0.269680 0.269680 0.269680 0.269680 0.269680 0.269680 0.269680 0.269680 0.264906 0.264906 0.264906 0.264906 0.264906 0.264906 0.264906 0.264906 0.264906 0.274721 0.274721 0.274721 0.274721 0.274721 0.274721 0.274721 0.274721 0.269680 0.269680 0.269680 0.269680 0.269680 0.269680 0.269680 0.269680 0.285714 0.285714 0.285714 0.285714 0.285714 0.285714 0.285714 0.264906 0.264906 0.264906 0.264906 0.264906 0.264906 0.264906 0.264906 0.274721 0.274721 0.274721 0.274721 0.274721 0.274721 0.274721 0.256074 0.256074 0.256074 0.256074 0.256074 0.256074 0.256074 0.256074 0.264906 0.264906 0.264906 0.264906 0.264906 0.264906 0.264906 0.264906 0.264906 0.264906 0.264906 0.264906 0.264906 0.264906 0.260378 0.260378 0.260378 0.260378 0.260378 0.260378 0.260378 0.260378 0.260378 0.260378 0.260378 0.260378
