# Output from CTFFind version 4.1.9, run on 2019-11-03 19:02:25
# Input file: stack16_bm3d_averaged_1_3.25_0_750_half.mrc ; Number of micrographs: 1
# Pixel size: 3.000 Angstroms ; acceleration voltage: 300.0 keV ; spherical aberration: 0.00 mm ; amplitude contrast: 0.07
# Box size: 512 pixels ; min. res.: 30.0 Angstroms ; max. res.: 5.0 Angstroms ; min. def.: 5000.0 um; max. def. 50000.0 um; num. frames averaged: 1
# 6 lines per micrograph: #1 - spatial frequency (1/Angstroms); #2 - 1D rotational average of spectrum (assuming no astigmatism); #3 - 1D rotational average of spectrum; #4 - CTF fit; #5 - cross-correlation between spectrum and CTF fit; #6 - 2sigma of expected cross correlation of noise
0.000000 0.000651 0.001302 0.001953 0.002604 0.003255 0.003906 0.004557 0.005208 0.005859 0.006510 0.007161 0.007812 0.008464 0.009115 0.009766 0.010417 0.011068 0.011719 0.012370 0.013021 0.013672 0.014323 0.014974 0.015625 0.016276 0.016927 0.017578 0.018229 0.018880 0.019531 0.020182 0.020833 0.021484 0.022135 0.022786 0.023438 0.024089 0.024740 0.025391 0.026042 0.026693 0.027344 0.027995 0.028646 0.029297 0.029948 0.030599 0.031250 0.031901 0.032552 0.033203 0.033854 0.034505 0.035156 0.035807 0.036458 0.037109 0.037760 0.038411 0.039062 0.039714 0.040365 0.041016 0.041667 0.042318 0.042969 0.043620 0.044271 0.044922 0.045573 0.046224 0.046875 0.047526 0.048177 0.048828 0.049479 0.050130 0.050781 0.051432 0.052083 0.052734 0.053385 0.054036 0.054688 0.055339 0.055990 0.056641 0.057292 0.057943 0.058594 0.059245 0.059896 0.060547 0.061198 0.061849 0.062500 0.063151 0.063802 0.064453 0.065104 0.065755 0.066406 0.067057 0.067708 0.068359 0.069010 0.069661 0.070312 0.070964 0.071615 0.072266 0.072917 0.073568 0.074219 0.074870 0.075521 0.076172 0.076823 0.077474 0.078125 0.078776 0.079427 0.080078 0.080729 0.081380 0.082031 0.082682 0.083333 0.083984 0.084635 0.085286 0.085938 0.086589 0.087240 0.087891 0.088542 0.089193 0.089844 0.090495 0.091146 0.091797 0.092448 0.093099 0.093750 0.094401 0.095052 0.095703 0.096354 0.097005 0.097656 0.098307 0.098958 0.099609 0.100260 0.100911 0.101562 0.102214 0.102865 0.103516 0.104167 0.104818 0.105469 0.106120 0.106771 0.107422 0.108073 0.108724 0.109375 0.110026 0.110677 0.111328 0.111979 0.112630 0.113281 0.113932 0.114583 0.115234 0.115885 0.116536 0.117188 0.117839 0.118490 0.119141 0.119792 0.120443 0.121094 0.121745 0.122396 0.123047 0.123698 0.124349 0.125000 0.125651 0.126302 0.126953 0.127604 0.128255 0.128906 0.129557 0.130208 0.130859 0.131510 0.132161 0.132812 0.133464 0.134115 0.134766 0.135417 0.136068 0.136719 0.137370 0.138021 0.138672 0.139323 0.139974 0.140625 0.141276 0.141927 0.142578 0.143229 0.143880 0.144531 0.145182 0.145833 0.146484 0.147135 0.147786 0.148438 0.149089 0.149740 0.150391 0.151042 0.151693 0.152344 0.152995 0.153646 0.154297 0.154948 0.155599 0.156250 0.156901 0.157552 0.158203 0.158854 0.159505 0.160156 0.160807 0.161458 0.162109 0.162760 0.163411 0.164062 0.164714 0.165365 0.166016 0.166667 0.167318 0.167969 0.168620 0.169271 0.169922 0.170573 0.171224 0.171875 0.172526 0.173177 0.173828 0.174479 0.175130 0.175781 0.176432 0.177083 0.177734 0.178385 0.179036 0.179688 0.180339 0.180990 0.181641 0.182292 0.182943 0.183594 0.184245 0.184896 0.185547 0.186198 0.186849 0.187500 0.188151 0.188802 0.189453 0.190104 0.190755 0.191406 0.192057 0.192708 0.193359 0.194010 0.194661 0.195312 0.195964 0.196615 0.197266 0.197917 0.198568 0.199219 0.199870 0.200521 0.201172 0.201823 0.202474 0.203125 0.203776 0.204427 0.205078 0.205729 0.206380 0.207031 0.207682 0.208333 0.208984 0.209635 0.210286 0.210938 0.211589 0.212240 0.212891 0.213542 0.214193 0.214844 0.215495 0.216146 0.216797 0.217448 0.218099 0.218750 0.219401 0.220052 0.220703 0.221354 0.222005 0.222656 0.223307 0.223958 0.224609 0.225260 0.225911 0.226562 0.227214 0.227865 0.228516 0.229167 0.229818 0.230469 0.231120 0.231771 0.232422 0.233073 0.233724 0.234375 0.235026 0.235677
       0.33557        0.33557        0.33557        0.33557        0.33557        0.33557        0.33557        0.33557        0.33557        0.33557        0.33557        0.33557        0.33557        0.33557        0.33557        0.33557        0.33557        0.33557        0.33557        0.33557        0.33557        0.33557        0.33557        0.33557        0.33557        0.33557        0.33557        0.33557        0.33557        0.33557        0.33557        0.33557        0.33557        0.33557        0.33557        0.33557        0.33557        0.33557        0.33557        0.33557        0.33557        0.33557        0.33557        0.33557        0.33557        0.33557        0.33557        0.33557        0.33557        0.33557        0.33557        0.43392        0.59407        0.38362       -0.15799       -0.44438       -0.56575       -0.65931       -0.73311       -0.75889       -0.88301       -0.92583       -0.73150       -0.90640       -0.86313       -1.00917       -1.05815       -0.94527       -0.90314       -0.83211       -0.77606       -0.68407       -0.59935       -0.50715       -0.42856       -0.21673       -0.09754       -0.00802        0.21862        0.23362        0.30627        0.37021        0.39941        0.49437        0.55669        0.58561        0.55699        0.49151        0.53201        0.49646        0.41629        0.31888        0.18057        0.17385        0.11223       -0.05129       -0.06847       -0.06065        0.02445       -0.01247        0.03363        0.02946        0.14683        0.19234        0.40596        0.46762        0.56737        0.67224        0.73559        0.72773        0.66713        0.64104        0.54524        0.45705        0.37915        0.26861        0.20415        0.18574        0.07369        0.03315        0.01600        0.04720        0.08278        0.28326        0.41095        0.50743        0.56023        0.59930        0.65950        0.62346        0.63721        0.61697        0.57753        0.47654        0.27914        0.25171        0.20421        0.11504        0.05810        0.10082        0.11995        0.26342        0.35192        0.41000        0.48358        0.54626        0.62805        0.57866        0.52016        0.50379        0.36870        0.21224        0.21338        0.15384        0.12404        0.16574        0.22082        0.26092        0.32685        0.42630        0.43040        0.51949        0.46674        0.46265        0.47011        0.38144        0.32191        0.26941        0.21204        0.20184        0.21786        0.22723        0.31036        0.42980        0.43766        0.48681        0.54071        0.47600        0.43142        0.36497        0.29774        0.24353        0.22622        0.25240        0.26759        0.29360        0.32804        0.41955        0.47235        0.46070        0.45567        0.35905        0.36217        0.35186        0.21628        0.23259        0.25660        0.28734        0.34713        0.36427        0.40477        0.43804        0.43571        0.37698        0.35693        0.30797        0.32519        0.28203        0.27025        0.27745        0.32446        0.38091        0.39264        0.39975        0.37320        0.40296        0.36403        0.29238        0.28390        0.28953        0.31961        0.36362        0.34461        0.41860        0.34763        0.37642        0.37055        0.32165        0.32604        0.27672        0.29403        0.33705        0.32448        0.32905        0.33761        0.35835        0.32139        0.34985        0.29497        0.31080        0.27154        0.28307        0.29075        0.34532        0.38102        0.35948        0.34427        0.29488        0.26659        0.26943        0.29722        0.27062        0.30972        0.36149        0.37401        0.33447        0.30423        0.29301        0.29738        0.29617        0.28943        0.29081        0.33525        0.33744        0.31328        0.28427        0.33708        0.30544        0.29147        0.31799        0.31452        0.32065        0.34036        0.30873        0.32106        0.27359        0.30028        0.30134        0.32280        0.40162        0.32667        0.35331        0.30546        0.29721        0.30094        0.32596        0.29660        0.28585        0.29968        0.31835        0.33627        0.30529        0.30537        0.29268        0.29900        0.29760        0.32849        0.31806        0.33674        0.34475        0.30183        0.28649        0.29248        0.24895        0.32014        0.33110        0.31016        0.29344        0.26810        0.28924        0.32632        0.32911        0.29073        0.29828        0.30712        0.30184        0.22746        0.29794        0.29773        0.29148        0.31779        0.29498        0.35168        0.37972        0.28116        0.25299        0.23710        0.26345        0.27060        0.27121        0.27949        0.26163        0.25227        0.29324        0.30435        0.28530        0.24322        0.34890        0.30998        0.28092        0.24677        0.22386        0.26318        0.23252        0.24362        0.30836        0.34044        0.27953        0.24902        0.25956        0.25001        0.19695        0.31065        0.23812        0.18565        0.13701        0.22960        0.30803        0.24359        0.00162        0.18512       -0.36407       -0.59720
2.935671 2.899407 2.863375 2.827576 2.792009 2.756674 2.721572 2.686702 2.652064 2.617659 2.583486 2.549546 2.515838 2.482362 2.449119 2.416108 2.383330 2.350784 2.318470 2.286389 2.254540 2.222924 2.191539 2.160388 2.129469 2.098782 2.068327 2.038105 2.008116 1.978358 1.948833 1.919541 1.890481 1.861653 1.833058 1.804695 1.776564 1.748666 1.721000 1.693567 1.666366 1.639398 1.612661 1.586158 1.559886 1.533847 1.508041 1.482466 1.457125 1.432015 1.407138 1.445971 1.565256 1.510811 0.871557 0.584716 0.422687 0.359067 0.274216 0.189787 0.127770 -0.067767 0.166978 0.025480 -0.064341 -0.121840 -0.252309 -0.175974 -0.095915 -0.095821 -0.103872 0.020878 0.019438 0.194804 0.099620 0.326023 0.441258 0.454715 0.715735 0.679099 0.673431 0.821686 0.793134 0.811258 0.920158 0.869884 0.910304 0.736123 0.823783 0.841236 0.651973 0.588125 0.448933 0.414740 0.387910 0.175358 0.156383 0.116343 0.217912 0.128658 0.213235 0.102886 0.262958 0.248707 0.477025 0.425874 0.614448 0.636638 0.716608 0.740578 0.662549 0.644859 0.495781 0.450650 0.326286 0.304019 0.130579 0.190132 0.004436 0.005958 -0.043713 -0.044223 -0.008787 0.051964 0.296695 0.339839 0.410677 0.362652 0.468564 0.488359 0.489547 0.468475 0.394298 0.395512 0.148785 0.117770 0.069116 0.015299 -0.136809 -0.027301 -0.095795 0.036121 0.146345 0.178539 0.279388 0.259895 0.368037 0.480305 0.354480 0.407756 0.309568 0.147150 0.052564 0.075601 0.024664 0.030063 0.068767 0.113519 0.130966 0.253280 0.261980 0.296930 0.356105 0.253248 0.275611 0.244101 0.129329 0.100582 0.038731 0.027011 0.019357 0.016623 0.048885 0.174957 0.209856 0.208951 0.317606 0.223799 0.249089 0.116658 0.103296 -0.006532 -0.006939 -0.006058 0.016244 0.032746 0.029287 0.102297 0.178632 0.180852 0.215979 0.127481 0.082633 0.099502 0.033600 -0.084066 -0.004003 0.022501 0.034218 0.049278 0.106932 0.159145 0.134069 0.163357 0.062716 0.066180 0.035391 0.055256 0.000543 0.006614 0.011061 0.062840 0.102387 0.126474 0.085105 0.107852 0.114221 0.043595 -0.004793 0.009835 0.003469 0.062912 0.065357 0.080763 0.116910 0.064672 0.090102 0.056916 0.039190 0.034415 -0.023854 0.026839 0.059249 0.032842 0.039475 0.097287 0.032855 0.057552 0.031827 0.013444 0.022663 -0.035862 -0.004328 0.011255 0.055950 0.100970 0.068813 0.040563 -0.010244 -0.024905 -0.011459 0.003485 -0.008937 0.026751 0.073119 0.071019 0.006321 0.021934 -0.019564 0.007792 -0.000756 -0.020450 0.003175 0.043712 -0.002283 0.005962 -0.007772 0.022590 -0.015669 -0.001571 0.007666 0.010388 0.033488 -0.016210 0.009763 -0.004276 -0.060277 0.003867 -0.013859 0.034631 0.089902 -0.001740 0.034917 -0.003739 -0.002872 -0.026396 0.033709 -0.011118 -0.018007 -0.007750 0.039181 0.017791 0.009606 0.020483 -0.038666 0.003449 -0.014358 0.025068 0.034533 0.042449 0.024796 0.025537 0.008238 -0.019833 -0.026313 0.016026 0.050560 0.017279 0.012529 -0.023561 0.002071 0.033051 0.040900 0.019652 0.004648 0.003525 0.002902 -0.065456 0.002809 0.020074 0.001143 0.025028 0.023521 0.075503 0.084834 0.013161 -0.009584 -0.045024 -0.012185 0.014717 -0.038845 0.006208 -0.021914 -0.051104 0.022433 0.024788 -0.073983 -0.074150 0.040823 -0.020842 -0.057342 -0.073789 -0.061432 -0.029159 -0.066957 -0.048311 0.023061 0.080029 -0.002422 -0.009612 0.115675 0.028452 -0.047785 0.166588 0.113768 0.139317 0.069667 0.200910 0.288758 0.196715 -0.152200 0.174457 -0.544028
0.072396 0.073047 0.075001 0.078256 0.082812 0.088667 0.095818 0.104264 0.114000 0.125020 0.137319 0.150887 0.165715 0.181791 0.199097 0.217617 0.237327 0.258202 0.280210 0.303317 0.327482 0.352656 0.378786 0.405812 0.433664 0.462266 0.491533 0.521370 0.551672 0.582325 0.613203 0.644171 0.675080 0.705774 0.736081 0.765820 0.794798 0.822811 0.849644 0.875073 0.898864 0.920773 0.940552 0.957945 0.972691 0.984530 0.993197 0.998433 0.999982 0.997594 0.991032 0.980073 0.964508 0.944153 0.918847 0.888460 0.852893 0.812087 0.766023 0.714729 0.658284 0.596818 0.530524 0.459649 0.384509 0.305484 0.223019 0.137631 0.049901 0.039521 0.129922 0.220528 0.310507 0.398979 0.485020 0.567671 0.645951 0.718866 0.785421 0.844638 0.895568 0.937310 0.969027 0.989963 0.999463 0.996992 0.982147 0.954684 0.914524 0.861776 0.796741 0.719929 0.632062 0.534078 0.427130 0.312582 0.191998 0.067129 0.060108 0.187655 0.313342 0.434922 0.550113 0.656638 0.752278 0.834914 0.902590 0.953555 0.986322 0.999714 0.992917 0.965511 0.917518 0.849418 0.762173 0.657231 0.536522 0.402434 0.257788 0.105786 0.050048 0.205945 0.357971 0.502134 0.634485 0.751231 0.848854 0.924228 0.974730 0.998348 0.993776 0.960487 0.898799 0.809906 0.695888 0.559692 0.405080 0.236550 0.059219 0.121312 0.299132 0.468207 0.622586 0.756623 0.865189 0.943893 0.989279 0.998999 0.971960 0.908426 0.810071 0.679981 0.522598 0.343600 0.149728 0.051443 0.251792 0.442965 0.616729 0.765336 0.881888 0.960682 0.997520 0.989969 0.937553 0.841853 0.706529 0.537232 0.341411 0.128022 0.092840 0.310412 0.513782 0.692431 0.836806 0.938859 0.992529 0.994155 0.942764 0.840239 0.691322 0.503464 0.286513 0.052238 0.186275 0.415330 0.621415 0.792010 0.916383 0.986305 0.996658 0.945864 0.836119 0.673391 0.467178 0.230024 0.023198 0.276168 0.512178 0.715219 0.871112 0.968539 0.999932 0.962133 0.856771 0.690313 0.473765 0.222028 0.047060 0.313954 0.558800 0.762926 0.910306 0.988879 0.991622 0.917262 0.770567 0.562169 0.307891 0.027636 0.256116 0.520085 0.742105 0.903027 0.988445 0.990075 0.906666 0.744328 0.516227 0.241631 0.055627 0.349148 0.612308 0.820678 0.954363 0.999996 0.952184 0.814267 0.598250 0.323911 0.017100 0.292617 0.574780 0.801029 0.948034 0.999990 0.950459 0.803297 0.572542 0.281244 0.040716 0.359613 0.641370 0.855244 0.977246 0.992973 0.899458 0.705811 0.432534 0.109511 0.227148 0.539069 0.790008 0.950118 0.999638 0.931483 0.752436 0.482699 0.153798 0.194964 0.521115 0.784195 0.950843 0.999159 0.921773 0.727153 0.438918 0.093178 0.265832 0.591370 0.840256 0.978705 0.987089 0.862918 0.621610 0.294824 0.073491 0.432889 0.733283 0.931997 0.999974 0.926232 0.719878 0.409270 0.038366 0.339332 0.668431 0.899792 0.998016 0.947073 0.753176 0.444360 0.066683 0.322432 0.662861 0.901090 0.998771 0.939138 0.730159 0.403820 0.011514 0.383850 0.717875 0.935204 0.998875 0.896878 0.644714 0.283404 0.126934 0.516886 0.819443 0.981658 0.974116 0.796585 0.478698 0.075340 0.342572 0.700451 0.933374 0.998085 0.881304 0.602811 0.212488 0.218319 0.609635 0.887744 0.999190 0.921380 0.667526 0.284834 0.153897 0.563955 0.864989 0.996928 0.932267 0.682185 0.295099 0.152330 0.570177 0.873245 0.998619 0.919043 0.649270 0.243822 0.213667 0.627442 0.909680 0.999306 0.875604 0.563422 0.128697 0.335105 0.726897
1.000000 1.000000 1.000000 1.000000 1.000000 1.000000 1.000000 1.000000 1.000000 1.000000 1.000000 1.000000 1.000000 1.000000 1.000000 1.000000 1.000000 1.000000 1.000000 1.000000 1.000000 1.000000 1.000000 1.000000 1.000000 1.000000 1.000000 1.000000 1.000000 1.000000 1.000000 1.000000 1.000000 1.000000 1.000000 1.000000 1.000000 1.000000 1.000000 1.000000 1.000000 1.000000 1.000000 1.000000 1.000000 1.000000 1.000000 1.000000 1.000000 1.000000 1.000000 1.000000 0.932411 0.932411 0.932411 0.932411 0.932411 0.932411 0.932411 0.932411 0.932411 0.932411 0.932411 0.932411 0.932411 0.932411 0.932411 0.932411 0.932411 0.932411 0.932411 0.932411 0.932411 0.932411 0.932411 0.932411 0.932411 0.932411 0.932411 0.932411 0.932411 0.932411 0.932411 0.932411 0.932411 0.919623 0.917668 0.920596 0.921606 0.921503 0.921016 0.920723 0.921021 0.922515 0.924369 0.945748 0.948008 0.949130 0.950199 0.948982 0.951462 0.949242 0.953639 0.968657 0.967977 0.968875 0.963210 0.964061 0.963680 0.963106 0.964959 0.964676 0.963389 0.961865 0.960702 0.960411 0.960066 0.961636 0.961988 0.962265 0.962633 0.962598 0.962499 0.960073 0.957861 0.958057 0.957407 0.956261 0.961690 0.960246 0.963293 0.964458 0.965145 0.965945 0.966166 0.966344 0.959742 0.958014 0.955990 0.942891 0.935710 0.930977 0.933953 0.937280 0.934322 0.928571 0.926295 0.929101 0.921689 0.921327 0.917110 0.917789 0.905738 0.900808 0.891022 0.892185 0.894690 0.895201 0.892337 0.880422 0.872812 0.872126 0.875283 0.869684 0.867000 0.883681 0.880477 0.882761 0.886251 0.888538 0.895106 0.880069 0.872764 0.868997 0.864313 0.863685 0.865780 0.869276 0.871326 0.869197 0.861430 0.865917 0.858888 0.866760 0.872417 0.868019 0.865237 0.864555 0.864160 0.863005 0.858685 0.863597 0.856709 0.854143 0.852021 0.843895 0.844806 0.843500 0.843770 0.844066 0.846137 0.839731 0.845144 0.833007 0.838119 0.832770 0.838349 0.835483 0.839997 0.840766 0.825685 0.820148 0.817503 0.824993 0.829644 0.801265 0.799216 0.793226 0.785247 0.788502 0.794505 0.790319 0.794135 0.789758 0.796618 0.795812 0.797228 0.794550 0.778944 0.783380 0.790897 0.796498 0.779878 0.766709 0.759821 0.756920 0.750447 0.716524 0.710982 0.699563 0.683489 0.688269 0.685101 0.678074 0.681001 0.682259 0.658944 0.657402 0.653813 0.619316 0.612110 0.602237 0.604069 0.585199 0.593746 0.589323 0.562969 0.578302 0.575888 0.578523 0.590702 0.474785 0.478256 0.459472 0.478370 0.488537 0.490981 0.489439 0.499086 0.488261 0.490368 0.491040 0.488657 0.504261 0.479290 0.460032 0.472354 0.445325 0.429055 0.441239 0.445303 0.448748 0.427447 0.427673 0.429880 0.427640 0.399857 0.400468 0.422629 0.419961 0.390417 0.394884 0.406685 0.388150 0.418005 0.408217 0.421857 0.434822 0.391088 0.397297 0.381408 0.392601 0.413822 0.393367 0.383160 0.386905 0.402619 0.353815 0.373288 0.401098 0.374179 0.448850 0.402777 0.387816 0.309531 0.344513 0.310498 0.315700 0.312646 0.244977 0.238932 0.210044 0.207534 0.182126 0.196145 0.173460 0.147659 0.109457 0.110564 0.086564 0.111569 0.118498 0.102756 0.095336 0.095336 0.095336 0.095336 0.097383 0.097383 0.097383 0.097383 0.097383 0.097383 0.097383 0.097383 0.097383 0.097383 0.097383 0.097383 0.097383 0.097383 0.033563 0.033563 0.033563 0.033563 0.033563 0.033563 0.033563 0.033563 0.033563 0.033563 0.033563 0.033563
0.000000 0.000000 0.000000 0.000000 0.000000 0.000000 0.000000 0.000000 0.000000 0.000000 0.000000 0.000000 0.000000 0.000000 0.000000 0.000000 0.000000 0.000000 0.000000 0.000000 0.000000 0.000000 0.000000 0.000000 0.000000 0.000000 0.000000 0.000000 0.000000 0.000000 0.000000 0.000000 0.000000 0.000000 0.000000 0.000000 0.000000 0.000000 0.000000 0.000000 0.000000 0.000000 0.000000 0.000000 0.000000 0.000000 0.000000 0.000000 0.000000 0.000000 0.000000 0.000000 0.209657 0.209657 0.209657 0.209657 0.209657 0.209657 0.209657 0.209657 0.209657 0.209657 0.209657 0.209657 0.209657 0.209657 0.209657 0.209657 0.209657 0.209657 0.209657 0.209657 0.209657 0.209657 0.209657 0.209657 0.209657 0.209657 0.209657 0.209657 0.209657 0.209657 0.209657 0.209657 0.209657 0.244339 0.244339 0.244339 0.244339 0.244339 0.244339 0.244339 0.244339 0.244339 0.244339 0.244339 0.244339 0.244339 0.244339 0.244339 0.244339 0.244339 0.244339 0.244339 0.244339 0.244339 0.244339 0.244339 0.244339 0.244339 0.260378 0.260378 0.260378 0.260378 0.260378 0.260378 0.260378 0.260378 0.260378 0.260378 0.260378 0.260378 0.260378 0.260378 0.260378 0.260378 0.260378 0.260378 0.260378 0.260378 0.269680 0.269680 0.269680 0.269680 0.269680 0.269680 0.269680 0.269680 0.269680 0.269680 0.269680 0.269680 0.269680 0.269680 0.269680 0.269680 0.269680 0.269680 0.269680 0.269680 0.269680 0.269680 0.269680 0.269680 0.269680 0.269680 0.269680 0.269680 0.269680 0.269680 0.269680 0.269680 0.269680 0.280056 0.280056 0.280056 0.280056 0.280056 0.280056 0.280056 0.280056 0.280056 0.280056 0.280056 0.280056 0.280056 0.280056 0.280056 0.280056 0.280056 0.280056 0.280056 0.280056 0.280056 0.280056 0.280056 0.280056 0.280056 0.280056 0.280056 0.285714 0.285714 0.285714 0.285714 0.285714 0.285714 0.285714 0.285714 0.285714 0.285714 0.285714 0.285714 0.274721 0.274721 0.274721 0.274721 0.274721 0.274721 0.274721 0.274721 0.274721 0.274721 0.274721 0.274721 0.280056 0.280056 0.280056 0.280056 0.280056 0.280056 0.280056 0.280056 0.280056 0.280056 0.280056 0.285714 0.285714 0.285714 0.285714 0.285714 0.285714 0.285714 0.285714 0.285714 0.285714 0.269680 0.269680 0.269680 0.269680 0.269680 0.269680 0.269680 0.269680 0.269680 0.269680 0.269680 0.285714 0.285714 0.285714 0.285714 0.285714 0.285714 0.285714 0.285714 0.285714 0.280056 0.280056 0.280056 0.280056 0.280056 0.280056 0.280056 0.280056 0.280056 0.274721 0.274721 0.274721 0.274721 0.274721 0.274721 0.274721 0.274721 0.274721 0.269680 0.269680 0.269680 0.269680 0.269680 0.269680 0.269680 0.269680 0.269680 0.280056 0.280056 0.280056 0.280056 0.280056 0.280056 0.280056 0.280056 0.260378 0.260378 0.260378 0.260378 0.260378 0.260378 0.260378 0.260378 0.260378 0.269680 0.269680 0.269680 0.269680 0.269680 0.269680 0.269680 0.269680 0.285714 0.285714 0.285714 0.285714 0.285714 0.285714 0.285714 0.264906 0.264906 0.264906 0.264906 0.264906 0.264906 0.264906 0.264906 0.274721 0.274721 0.274721 0.274721 0.274721 0.274721 0.274721 0.256074 0.256074 0.256074 0.256074 0.256074 0.256074 0.256074 0.256074 0.264906 0.264906 0.264906 0.264906 0.264906 0.264906 0.264906 0.264906 0.264906 0.264906 0.264906 0.264906 0.264906 0.264906 0.280056 0.280056 0.280056 0.280056 0.280056 0.280056 0.280056 0.280056 0.280056 0.280056 0.280056 0.280056
