# Output from CTFFind version 4.1.9, run on 2019-11-03 19:00:55
# Input file: stack6_bm3d_averaged_1_3.25_0_250_half.mrc ; Number of micrographs: 1
# Pixel size: 3.000 Angstroms ; acceleration voltage: 300.0 keV ; spherical aberration: 0.00 mm ; amplitude contrast: 0.07
# Box size: 512 pixels ; min. res.: 30.0 Angstroms ; max. res.: 5.0 Angstroms ; min. def.: 5000.0 um; max. def. 50000.0 um; num. frames averaged: 1
# 6 lines per micrograph: #1 - spatial frequency (1/Angstroms); #2 - 1D rotational average of spectrum (assuming no astigmatism); #3 - 1D rotational average of spectrum; #4 - CTF fit; #5 - cross-correlation between spectrum and CTF fit; #6 - 2sigma of expected cross correlation of noise
0.000000 0.000651 0.001302 0.001953 0.002604 0.003255 0.003906 0.004557 0.005208 0.005859 0.006510 0.007161 0.007812 0.008464 0.009115 0.009766 0.010417 0.011068 0.011719 0.012370 0.013021 0.013672 0.014323 0.014974 0.015625 0.016276 0.016927 0.017578 0.018229 0.018880 0.019531 0.020182 0.020833 0.021484 0.022135 0.022786 0.023438 0.024089 0.024740 0.025391 0.026042 0.026693 0.027344 0.027995 0.028646 0.029297 0.029948 0.030599 0.031250 0.031901 0.032552 0.033203 0.033854 0.034505 0.035156 0.035807 0.036458 0.037109 0.037760 0.038411 0.039062 0.039714 0.040365 0.041016 0.041667 0.042318 0.042969 0.043620 0.044271 0.044922 0.045573 0.046224 0.046875 0.047526 0.048177 0.048828 0.049479 0.050130 0.050781 0.051432 0.052083 0.052734 0.053385 0.054036 0.054688 0.055339 0.055990 0.056641 0.057292 0.057943 0.058594 0.059245 0.059896 0.060547 0.061198 0.061849 0.062500 0.063151 0.063802 0.064453 0.065104 0.065755 0.066406 0.067057 0.067708 0.068359 0.069010 0.069661 0.070312 0.070964 0.071615 0.072266 0.072917 0.073568 0.074219 0.074870 0.075521 0.076172 0.076823 0.077474 0.078125 0.078776 0.079427 0.080078 0.080729 0.081380 0.082031 0.082682 0.083333 0.083984 0.084635 0.085286 0.085938 0.086589 0.087240 0.087891 0.088542 0.089193 0.089844 0.090495 0.091146 0.091797 0.092448 0.093099 0.093750 0.094401 0.095052 0.095703 0.096354 0.097005 0.097656 0.098307 0.098958 0.099609 0.100260 0.100911 0.101562 0.102214 0.102865 0.103516 0.104167 0.104818 0.105469 0.106120 0.106771 0.107422 0.108073 0.108724 0.109375 0.110026 0.110677 0.111328 0.111979 0.112630 0.113281 0.113932 0.114583 0.115234 0.115885 0.116536 0.117188 0.117839 0.118490 0.119141 0.119792 0.120443 0.121094 0.121745 0.122396 0.123047 0.123698 0.124349 0.125000 0.125651 0.126302 0.126953 0.127604 0.128255 0.128906 0.129557 0.130208 0.130859 0.131510 0.132161 0.132812 0.133464 0.134115 0.134766 0.135417 0.136068 0.136719 0.137370 0.138021 0.138672 0.139323 0.139974 0.140625 0.141276 0.141927 0.142578 0.143229 0.143880 0.144531 0.145182 0.145833 0.146484 0.147135 0.147786 0.148438 0.149089 0.149740 0.150391 0.151042 0.151693 0.152344 0.152995 0.153646 0.154297 0.154948 0.155599 0.156250 0.156901 0.157552 0.158203 0.158854 0.159505 0.160156 0.160807 0.161458 0.162109 0.162760 0.163411 0.164062 0.164714 0.165365 0.166016 0.166667 0.167318 0.167969 0.168620 0.169271 0.169922 0.170573 0.171224 0.171875 0.172526 0.173177 0.173828 0.174479 0.175130 0.175781 0.176432 0.177083 0.177734 0.178385 0.179036 0.179688 0.180339 0.180990 0.181641 0.182292 0.182943 0.183594 0.184245 0.184896 0.185547 0.186198 0.186849 0.187500 0.188151 0.188802 0.189453 0.190104 0.190755 0.191406 0.192057 0.192708 0.193359 0.194010 0.194661 0.195312 0.195964 0.196615 0.197266 0.197917 0.198568 0.199219 0.199870 0.200521 0.201172 0.201823 0.202474 0.203125 0.203776 0.204427 0.205078 0.205729 0.206380 0.207031 0.207682 0.208333 0.208984 0.209635 0.210286 0.210938 0.211589 0.212240 0.212891 0.213542 0.214193 0.214844 0.215495 0.216146 0.216797 0.217448 0.218099 0.218750 0.219401 0.220052 0.220703 0.221354 0.222005 0.222656 0.223307 0.223958 0.224609 0.225260 0.225911 0.226562 0.227214 0.227865 0.228516 0.229167 0.229818 0.230469 0.231120 0.231771 0.232422 0.233073 0.233724 0.234375 0.235026 0.235677
       0.30063        0.30063        0.30063        0.30063        0.30063        0.30063        0.30063        0.30063        0.30063        0.30063        0.30063        0.30063        0.30063        0.30063        0.30063        0.30063        0.30063        0.30063        0.30063        0.30063        0.30063        0.30063        0.30063        0.30063        0.30063        0.30063        0.30063        0.30063        0.30063        0.30063        0.30063        0.30063        0.30063        0.30063        0.30063        0.30063        0.30063        0.30063        0.30063        0.30063        0.30063        0.30063        0.30063        0.30063        0.30063        0.30063        0.30063        0.30063        0.30063        0.30063        0.30063        0.61335        0.76579        0.37522        0.23718        0.14531       -0.13970        0.11962        0.02567        0.03596        0.10268        0.33689        0.38064        0.32374        0.19245       -0.02420        0.01577        0.05496       -0.16645       -0.17796       -0.09109       -0.12198       -0.27576       -0.16743       -0.30175       -0.28900       -0.30886       -0.38266       -0.45344       -0.43658       -0.35979       -0.31228       -0.40476       -0.30438       -0.37313       -0.31154       -0.24926       -0.18976       -0.15363       -0.07076       -0.04095        0.07314        0.11101        0.21988        0.32007        0.38373        0.37585        0.48704        0.56354        0.58802        0.67026        0.64220        0.69921        0.61729        0.64629        0.64790        0.59120        0.58254        0.59416        0.40454        0.35120        0.35914        0.33659        0.17888        0.12162        0.06924        0.07680        0.04960       -0.05100        0.01473       -0.03129       -0.06676        0.05825        0.15417        0.25892        0.33293        0.32631        0.38768        0.50199        0.53431        0.48733        0.65839        0.53362        0.51080        0.55836        0.54597        0.51912        0.46769        0.38882        0.34368        0.22837        0.19094        0.14208        0.14844        0.11644        0.05555        0.09363        0.14948        0.17159        0.16621        0.22019        0.25928        0.33083        0.45514        0.42924        0.44068        0.48738        0.54436        0.54133        0.49488        0.38231        0.40119        0.36232        0.28282        0.22943        0.21682        0.17858        0.18040        0.17693        0.17363        0.15050        0.20463        0.25737        0.33904        0.37809        0.40437        0.45978        0.48210        0.43660        0.44050        0.40316        0.40241        0.39512        0.34031        0.27811        0.26997        0.21431        0.23859        0.22161        0.19331        0.22550        0.23286        0.25452        0.32402        0.36019        0.37432        0.38152        0.39713        0.42373        0.41815        0.41795        0.30764        0.28961        0.26555        0.28570        0.24658        0.20519        0.25594        0.29966        0.28848        0.28040        0.32431        0.28746        0.37430        0.34062        0.34742        0.36035        0.35529        0.31655        0.30419        0.27918        0.28553        0.25694        0.24709        0.24984        0.27407        0.28687        0.30802        0.34710        0.35804        0.32823        0.31640        0.34838        0.31413        0.26835        0.28320        0.26817        0.26116        0.26414        0.29361        0.27821        0.26690        0.29961        0.30546        0.31459        0.32520        0.32909        0.27574        0.27534        0.29366        0.27882        0.26441        0.25212        0.22724        0.24419        0.25531        0.25903        0.27210        0.26795        0.31372        0.33612        0.30736        0.31197        0.23655        0.23767        0.26772        0.23580        0.21205        0.25144        0.30675        0.25026        0.29763        0.29437        0.29783        0.31126        0.25859        0.27398        0.28905        0.27635        0.25437        0.22819        0.23344        0.25069        0.28883        0.28538        0.31111        0.29197        0.32258        0.26336        0.29810        0.27966        0.21814        0.29465        0.26764        0.27635        0.28101        0.31527        0.30936        0.33794        0.28235        0.23944        0.24347        0.23260        0.25082        0.29901        0.29684        0.25690        0.28323        0.27078        0.28248        0.26864        0.27928        0.24016        0.26595        0.24451        0.23760        0.24405        0.30192        0.30221        0.26683        0.26613        0.22464        0.27269        0.22554        0.20814        0.22464        0.27591        0.27299        0.32028        0.23268        0.22332        0.25223        0.21820        0.22938        0.20033        0.21894        0.19945        0.25367        0.26416        0.20507        0.26848        0.23815        0.29898        0.23784        0.22446        0.24549        0.21365        0.12611        0.18232        0.11935        0.16270        0.17391        0.08805        0.29279        0.09945        0.08046        0.14389        0.13193        0.20055        0.19970       -0.02061       -0.71601       -1.03832
2.858008 2.830081 2.802295 2.774651 2.747149 2.719788 2.692569 2.665492 2.638556 2.611762 2.585110 2.558600 2.532231 2.506004 2.479918 2.453975 2.428173 2.402513 2.376994 2.351617 2.326382 2.301288 2.276336 2.251526 2.226858 2.202331 2.177946 2.153703 2.129601 2.105641 2.081823 2.058146 2.034611 2.011218 1.987967 1.964857 1.941889 1.919063 1.896378 1.873835 1.851434 1.829174 1.807056 1.785080 1.763245 1.741553 1.720002 1.698592 1.677324 1.656198 1.635214 1.965740 2.292836 1.689344 1.644346 1.336705 0.834142 1.192730 1.060086 1.089949 0.968281 1.548133 1.482151 1.479924 1.233123 0.905931 0.752779 0.989086 0.714356 0.415716 0.551788 0.639428 0.385877 0.450834 0.283225 0.247538 0.149828 0.148230 -0.091876 -0.041488 0.041440 0.041476 0.006851 0.115759 -0.054625 -0.007127 0.120761 0.194142 0.245846 0.308322 0.337487 0.610582 0.503744 0.666870 0.878641 0.929378 0.888823 1.164038 1.149276 1.231271 1.314809 1.193280 1.409259 1.179254 1.163144 1.325616 1.135983 1.060680 1.176114 0.913539 0.679279 0.691003 0.733226 0.428336 0.376795 0.241524 0.206570 0.156094 0.008334 0.133313 0.019582 -0.072181 0.082460 0.206447 0.325570 0.496037 0.514509 0.521312 0.712503 0.800052 0.603866 0.984868 0.845885 0.667264 0.771771 0.708135 0.731550 0.702415 0.446828 0.475301 0.249973 0.190047 0.122315 0.003252 0.060364 -0.093569 -0.051800 -0.020211 0.100592 -0.036258 0.208317 0.145743 0.194425 0.409494 0.470871 0.423142 0.390097 0.593210 0.618626 0.506059 0.356095 0.338135 0.322714 0.182449 0.084847 0.035439 0.018817 -0.021711 -0.035470 -0.031888 -0.117719 0.007101 0.004652 0.140985 0.240354 0.239787 0.371794 0.351238 0.389271 0.352896 0.430555 0.354472 0.260797 0.326366 0.126886 0.180749 0.037245 0.080068 0.028004 0.034493 -0.048163 0.054102 0.050580 0.121875 0.233221 0.243263 0.242690 0.268048 0.317614 0.301508 0.321246 0.206596 0.089430 0.112934 0.056978 0.064728 -0.022872 -0.025375 0.067806 0.091401 0.081956 0.085039 0.092514 0.164711 0.200264 0.184926 0.163096 0.208858 0.144811 0.111251 0.080250 0.063589 0.083489 -0.034013 0.040782 0.050955 0.022563 0.097572 0.115225 0.194832 0.185844 0.144545 0.119463 0.188850 0.076927 0.056272 0.082415 0.025018 0.027474 0.060812 0.083119 0.057406 0.033717 0.116903 0.101643 0.112209 0.152852 0.112948 0.085612 0.038527 0.088573 0.051880 0.053012 -0.011561 -0.030942 0.017926 0.007010 0.026435 0.069259 0.006197 0.109475 0.154437 0.054763 0.090742 -0.038547 0.002295 0.016898 -0.045053 -0.068370 0.043906 0.066215 -0.030167 0.075537 0.044885 0.081838 0.039661 -0.020419 -0.007747 0.097417 -0.050333 0.001274 -0.059924 -0.036394 -0.048442 0.052576 0.024897 0.060451 -0.007892 0.104411 -0.041089 0.039637 -0.041309 -0.086205 0.038156 -0.054362 0.015743 -0.038293 0.112881 0.037756 0.039011 -0.004226 -0.136337 -0.026550 -0.111501 -0.021860 0.028600 0.000605 -0.045991 -0.027236 -0.031633 -0.006086 -0.044303 -0.029111 -0.108448 -0.049544 -0.071757 -0.090529 -0.037584 0.013472 -0.004872 -0.026691 -0.006488 -0.049819 0.022416 -0.057548 -0.079193 -0.053469 0.042039 0.060960 0.120170 -0.032965 -0.005095 0.055162 -0.039701 -0.049277 0.003501 -0.054973 -0.003756 0.078973 0.085025 -0.004586 0.127496 0.058376 0.209691 0.061022 0.101205 0.122964 0.090168 -0.116100 0.074826 -0.133346 0.134614 0.033968 -0.035209 0.454805 0.081228 0.129795 0.255102 0.178467 0.297045 0.279559 -0.020070 -1.600421
0.072396 0.072835 0.074150 0.076342 0.079411 0.083354 0.088173 0.093865 0.100429 0.107863 0.116164 0.125329 0.135355 0.146237 0.157970 0.170548 0.183961 0.198203 0.213262 0.229127 0.245783 0.263216 0.281407 0.300336 0.319981 0.340316 0.361314 0.382942 0.405166 0.427949 0.451247 0.475016 0.499206 0.523761 0.548624 0.573732 0.599016 0.624404 0.649817 0.675172 0.700381 0.725352 0.749984 0.774174 0.797814 0.820789 0.842981 0.864267 0.884518 0.903603 0.921387 0.937732 0.952495 0.965535 0.976707 0.985865 0.992865 0.997562 0.999814 0.999483 0.996434 0.990538 0.981671 0.969720 0.954579 0.936154 0.914362 0.889136 0.860423 0.828186 0.792410 0.753097 0.710271 0.663982 0.614301 0.561328 0.505187 0.446034 0.384052 0.319453 0.252482 0.183414 0.112553 0.040235 0.033173 0.107276 0.181652 0.255852 0.329404 0.401811 0.472561 0.541125 0.606963 0.669528 0.728268 0.782636 0.832090 0.876105 0.914171 0.945808 0.970565 0.988034 0.997849 0.999699 0.993333 0.978563 0.955277 0.923437 0.883093 0.834379 0.777524 0.712848 0.640773 0.561816 0.476592 0.385813 0.290286 0.190904 0.088644 0.015441 0.120231 0.224552 0.327185 0.426882 0.522381 0.612420 0.695759 0.771192 0.837574 0.893834 0.938995 0.972200 0.992723 0.999991 0.993601 0.973331 0.939162 0.891276 0.830075 0.756179 0.670428 0.573882 0.467810 0.353683 0.233155 0.108045 0.019686 0.147966 0.274639 0.397505 0.514357 0.623020 0.721397 0.807509 0.879541 0.935882 0.975171 0.996331 0.998606 0.981590 0.945249 0.889945 0.816435 0.725883 0.619845 0.500256 0.369400 0.229879 0.084563 0.063462 0.210956 0.354595 0.491043 0.617038 0.729464 0.825441 0.902400 0.958162 0.991008 0.999741 0.983736 0.942980 0.878098 0.790358 0.681664 0.554529 0.412028 0.257740 0.095660 0.069893 0.234384 0.393191 0.541729 0.675590 0.790679 0.883344 0.950506 0.989772 0.999534 0.979046 0.928478 0.848945 0.742503 0.612116 0.461591 0.295485 0.118976 0.062284 0.242350 0.415171 0.574794 0.715579 0.832405 0.920865 0.977451 0.999709 0.986360 0.937393 0.854096 0.739061 0.596119 0.430246 0.247395 0.054310 0.141715 0.333116 0.512332 0.672120 0.805855 0.907816 0.973452 0.999601 0.984672 0.928753 0.833664 0.702927 0.541667 0.356441 0.154985 0.054084 0.261631 0.458399 0.635421 0.784442 0.898313 0.971366 0.999712 0.981481 0.916966 0.808673 0.661261 0.481374 0.277383 0.059000 0.163145 0.378033 0.574785 0.743235 0.874460 0.961286 0.998701 0.984184 0.917900 0.802773 0.644389 0.450780 0.232039 0.000171 0.233225 0.454220 0.650679 0.811281 0.926530 0.989347 0.995547 0.944153 0.837533 0.681358 0.484333 0.257762 0.014928 0.229658 0.461125 0.665135 0.828803 0.941528 0.995715 0.987335 0.916268 0.786408 0.605506 0.384766 0.138182 0.118302 0.367823 0.593686 0.780508 0.915279 0.988320 0.994012 0.931292 0.803826 0.619871 0.391792 0.135283 0.131675 0.390060 0.621156 0.807920 0.936281 0.996239 0.982699 0.895964 0.741837 0.531298 0.279793 0.006147 0.268818 0.523843 0.738891 0.896753 0.984448 0.994375 0.925023 0.781227 0.573918 0.319364 0.037943 0.247434 0.513188 0.737010 0.899777 0.987221 0.991255 0.910790 0.751975 0.527821 0.257214 0.036633 0.328107 0.591431 0.802962 0.943335 0.999313 0.965099 0.843028 0.643513 0.384243 0.088698 0.215921 0.501180 0.740067 0.909575 0.992979 0.981571 0.875655 0.684697 0.426573 0.126003 0.187782 0.483832 0.732529 0.908597
1.000000 1.000000 1.000000 1.000000 1.000000 1.000000 1.000000 1.000000 1.000000 1.000000 1.000000 1.000000 1.000000 1.000000 1.000000 1.000000 1.000000 1.000000 1.000000 1.000000 1.000000 1.000000 1.000000 1.000000 1.000000 1.000000 1.000000 1.000000 1.000000 1.000000 1.000000 1.000000 1.000000 1.000000 1.000000 1.000000 1.000000 1.000000 1.000000 1.000000 1.000000 1.000000 1.000000 1.000000 1.000000 1.000000 1.000000 1.000000 1.000000 1.000000 1.000000 1.000000 0.827055 0.827055 0.827055 0.827055 0.827055 0.827055 0.827055 0.800116 0.800116 0.800116 0.800116 0.800116 0.800116 0.800116 0.800116 0.800116 0.800116 0.800116 0.800116 0.800116 0.800116 0.800116 0.800116 0.800116 0.800116 0.800116 0.800116 0.800116 0.800116 0.800116 0.800116 0.800116 0.800116 0.800116 0.800116 0.800116 0.800116 0.800116 0.800116 0.800116 0.800116 0.800116 0.800116 0.800116 0.800116 0.800116 0.800116 0.800116 0.800116 0.800116 0.800116 0.947962 0.948797 0.949150 0.948175 0.946672 0.943136 0.939010 0.938184 0.940608 0.940421 0.940471 0.941498 0.941095 0.942350 0.943925 0.945886 0.946365 0.954416 0.958045 0.957330 0.956988 0.955855 0.969578 0.969350 0.969189 0.969216 0.969351 0.969323 0.969218 0.969122 0.969740 0.968715 0.969208 0.969091 0.968635 0.967918 0.967345 0.967160 0.966547 0.966890 0.967688 0.967783 0.968341 0.971024 0.970163 0.970801 0.969465 0.968687 0.964095 0.962038 0.962290 0.958805 0.958161 0.955864 0.953589 0.954186 0.952461 0.952391 0.952360 0.952656 0.952973 0.950388 0.950411 0.950155 0.950891 0.947326 0.933011 0.928923 0.925890 0.927287 0.930220 0.933430 0.934139 0.934340 0.930966 0.923682 0.918551 0.905208 0.900769 0.897888 0.905687 0.905221 0.905990 0.906917 0.907024 0.905858 0.905776 0.897478 0.900853 0.896924 0.895506 0.891046 0.889968 0.889174 0.890499 0.893027 0.890360 0.880214 0.874854 0.854315 0.835382 0.833776 0.834814 0.843362 0.843509 0.842112 0.841290 0.824361 0.820046 0.810028 0.800840 0.802484 0.803173 0.804300 0.806403 0.810111 0.792647 0.794756 0.789563 0.789463 0.796175 0.806841 0.809464 0.806368 0.799134 0.795555 0.765696 0.765391 0.768716 0.765083 0.771661 0.761345 0.761165 0.753703 0.749924 0.745469 0.739407 0.736753 0.720744 0.727351 0.732792 0.738939 0.736510 0.714815 0.705869 0.662921 0.668693 0.653752 0.663736 0.665363 0.664723 0.653141 0.656404 0.659507 0.645702 0.650650 0.639227 0.632063 0.616361 0.619130 0.627549 0.598836 0.611354 0.610188 0.595405 0.587634 0.596458 0.610440 0.612650 0.593617 0.589574 0.561682 0.497499 0.477419 0.460187 0.452486 0.451611 0.470661 0.476093 0.483555 0.469651 0.449074 0.431251 0.450122 0.453112 0.441596 0.442055 0.434245 0.414962 0.417040 0.389519 0.399162 0.381490 0.377342 0.365492 0.314966 0.291442 0.252453 0.269907 0.252393 0.243012 0.234883 0.236631 0.225679 0.178428 0.170301 0.172011 0.197716 0.173332 0.141668 0.157397 0.164395 0.163839 0.162520 0.153306 0.197173 0.177102 0.192950 0.195287 0.149389 0.126914 0.072143 0.081485 0.078519 0.107102 0.130902 0.117327 0.082273 -0.015149 0.014557 0.058171 0.058171 0.058171 0.058171 0.058171 0.058171 0.058171 0.058171 0.058171 0.058171 0.058171 -0.029514 -0.029514 -0.029514 -0.029514 -0.029514 -0.029514 -0.029514 -0.029514 -0.029514 -0.029514 -0.029514 -0.029514 -0.029514 -0.029514 -0.029514 -0.029514 -0.029514 -0.029514 -0.029514
0.000000 0.000000 0.000000 0.000000 0.000000 0.000000 0.000000 0.000000 0.000000 0.000000 0.000000 0.000000 0.000000 0.000000 0.000000 0.000000 0.000000 0.000000 0.000000 0.000000 0.000000 0.000000 0.000000 0.000000 0.000000 0.000000 0.000000 0.000000 0.000000 0.000000 0.000000 0.000000 0.000000 0.000000 0.000000 0.000000 0.000000 0.000000 0.000000 0.000000 0.000000 0.000000 0.000000 0.000000 0.000000 0.000000 0.000000 0.000000 0.000000 0.000000 0.000000 0.000000 0.173422 0.173422 0.173422 0.173422 0.173422 0.173422 0.173422 0.191565 0.191565 0.191565 0.191565 0.191565 0.191565 0.191565 0.191565 0.191565 0.191565 0.191565 0.191565 0.191565 0.191565 0.191565 0.191565 0.191565 0.191565 0.191565 0.191565 0.191565 0.191565 0.191565 0.191565 0.191565 0.191565 0.191565 0.191565 0.191565 0.191565 0.191565 0.191565 0.191565 0.191565 0.191565 0.191565 0.191565 0.191565 0.191565 0.191565 0.191565 0.191565 0.191565 0.191565 0.219529 0.219529 0.219529 0.219529 0.219529 0.219529 0.219529 0.219529 0.219529 0.219529 0.219529 0.219529 0.219529 0.219529 0.219529 0.219529 0.219529 0.219529 0.219529 0.219529 0.219529 0.219529 0.219529 0.219529 0.219529 0.219529 0.219529 0.219529 0.219529 0.219529 0.219529 0.237356 0.237356 0.237356 0.237356 0.237356 0.237356 0.237356 0.237356 0.237356 0.237356 0.237356 0.237356 0.237356 0.237356 0.237356 0.237356 0.237356 0.237356 0.237356 0.237356 0.237356 0.237356 0.237356 0.237356 0.244339 0.244339 0.244339 0.244339 0.244339 0.244339 0.244339 0.244339 0.244339 0.244339 0.244339 0.244339 0.244339 0.244339 0.244339 0.244339 0.244339 0.244339 0.244339 0.244339 0.244339 0.248069 0.248069 0.248069 0.248069 0.248069 0.248069 0.248069 0.248069 0.248069 0.248069 0.248069 0.248069 0.248069 0.248069 0.248069 0.248069 0.248069 0.248069 0.248069 0.248069 0.248069 0.248069 0.248069 0.248069 0.248069 0.248069 0.248069 0.248069 0.248069 0.248069 0.248069 0.248069 0.248069 0.248069 0.248069 0.248069 0.248069 0.256074 0.256074 0.256074 0.256074 0.256074 0.256074 0.256074 0.256074 0.256074 0.256074 0.256074 0.256074 0.256074 0.256074 0.256074 0.256074 0.256074 0.256074 0.256074 0.256074 0.256074 0.256074 0.256074 0.256074 0.256074 0.256074 0.256074 0.256074 0.256074 0.256074 0.256074 0.256074 0.256074 0.256074 0.256074 0.256074 0.256074 0.256074 0.256074 0.256074 0.256074 0.256074 0.256074 0.256074 0.256074 0.260378 0.260378 0.260378 0.260378 0.260378 0.260378 0.260378 0.260378 0.260378 0.260378 0.260378 0.260378 0.260378 0.256074 0.256074 0.256074 0.256074 0.256074 0.256074 0.256074 0.256074 0.256074 0.256074 0.256074 0.256074 0.256074 0.260378 0.260378 0.260378 0.260378 0.260378 0.260378 0.260378 0.260378 0.260378 0.260378 0.260378 0.260378 0.251976 0.251976 0.251976 0.251976 0.251976 0.251976 0.251976 0.251976 0.251976 0.251976 0.251976 0.251976 0.256074 0.256074 0.256074 0.256074 0.256074 0.256074 0.256074 0.256074 0.256074 0.256074 0.256074 0.251976 0.251976 0.251976 0.251976 0.251976 0.251976 0.251976 0.251976 0.251976 0.251976 0.251976 0.248069 0.248069 0.248069 0.248069 0.248069 0.248069 0.248069 0.248069 0.248069 0.248069 0.248069 0.256074 0.256074 0.256074 0.256074 0.256074 0.256074 0.256074 0.256074 0.256074 0.256074 0.256074 0.256074 0.256074 0.256074 0.256074 0.256074 0.256074 0.256074 0.256074
