# Output from CTFFind version 4.1.9, run on 2019-11-03 20:09:14
# Input file: stack16_bm3d_averaged_1_5.5_0_2000_half.mrc ; Number of micrographs: 1
# Pixel size: 3.000 Angstroms ; acceleration voltage: 300.0 keV ; spherical aberration: 0.00 mm ; amplitude contrast: 0.07
# Box size: 512 pixels ; min. res.: 30.0 Angstroms ; max. res.: 5.0 Angstroms ; min. def.: 5000.0 um; max. def. 50000.0 um; num. frames averaged: 1
# 6 lines per micrograph: #1 - spatial frequency (1/Angstroms); #2 - 1D rotational average of spectrum (assuming no astigmatism); #3 - 1D rotational average of spectrum; #4 - CTF fit; #5 - cross-correlation between spectrum and CTF fit; #6 - 2sigma of expected cross correlation of noise
0.000000 0.000651 0.001302 0.001953 0.002604 0.003255 0.003906 0.004557 0.005208 0.005859 0.006510 0.007161 0.007812 0.008464 0.009115 0.009766 0.010417 0.011068 0.011719 0.012370 0.013021 0.013672 0.014323 0.014974 0.015625 0.016276 0.016927 0.017578 0.018229 0.018880 0.019531 0.020182 0.020833 0.021484 0.022135 0.022786 0.023438 0.024089 0.024740 0.025391 0.026042 0.026693 0.027344 0.027995 0.028646 0.029297 0.029948 0.030599 0.031250 0.031901 0.032552 0.033203 0.033854 0.034505 0.035156 0.035807 0.036458 0.037109 0.037760 0.038411 0.039062 0.039714 0.040365 0.041016 0.041667 0.042318 0.042969 0.043620 0.044271 0.044922 0.045573 0.046224 0.046875 0.047526 0.048177 0.048828 0.049479 0.050130 0.050781 0.051432 0.052083 0.052734 0.053385 0.054036 0.054688 0.055339 0.055990 0.056641 0.057292 0.057943 0.058594 0.059245 0.059896 0.060547 0.061198 0.061849 0.062500 0.063151 0.063802 0.064453 0.065104 0.065755 0.066406 0.067057 0.067708 0.068359 0.069010 0.069661 0.070312 0.070964 0.071615 0.072266 0.072917 0.073568 0.074219 0.074870 0.075521 0.076172 0.076823 0.077474 0.078125 0.078776 0.079427 0.080078 0.080729 0.081380 0.082031 0.082682 0.083333 0.083984 0.084635 0.085286 0.085938 0.086589 0.087240 0.087891 0.088542 0.089193 0.089844 0.090495 0.091146 0.091797 0.092448 0.093099 0.093750 0.094401 0.095052 0.095703 0.096354 0.097005 0.097656 0.098307 0.098958 0.099609 0.100260 0.100911 0.101562 0.102214 0.102865 0.103516 0.104167 0.104818 0.105469 0.106120 0.106771 0.107422 0.108073 0.108724 0.109375 0.110026 0.110677 0.111328 0.111979 0.112630 0.113281 0.113932 0.114583 0.115234 0.115885 0.116536 0.117188 0.117839 0.118490 0.119141 0.119792 0.120443 0.121094 0.121745 0.122396 0.123047 0.123698 0.124349 0.125000 0.125651 0.126302 0.126953 0.127604 0.128255 0.128906 0.129557 0.130208 0.130859 0.131510 0.132161 0.132812 0.133464 0.134115 0.134766 0.135417 0.136068 0.136719 0.137370 0.138021 0.138672 0.139323 0.139974 0.140625 0.141276 0.141927 0.142578 0.143229 0.143880 0.144531 0.145182 0.145833 0.146484 0.147135 0.147786 0.148438 0.149089 0.149740 0.150391 0.151042 0.151693 0.152344 0.152995 0.153646 0.154297 0.154948 0.155599 0.156250 0.156901 0.157552 0.158203 0.158854 0.159505 0.160156 0.160807 0.161458 0.162109 0.162760 0.163411 0.164062 0.164714 0.165365 0.166016 0.166667 0.167318 0.167969 0.168620 0.169271 0.169922 0.170573 0.171224 0.171875 0.172526 0.173177 0.173828 0.174479 0.175130 0.175781 0.176432 0.177083 0.177734 0.178385 0.179036 0.179688 0.180339 0.180990 0.181641 0.182292 0.182943 0.183594 0.184245 0.184896 0.185547 0.186198 0.186849 0.187500 0.188151 0.188802 0.189453 0.190104 0.190755 0.191406 0.192057 0.192708 0.193359 0.194010 0.194661 0.195312 0.195964 0.196615 0.197266 0.197917 0.198568 0.199219 0.199870 0.200521 0.201172 0.201823 0.202474 0.203125 0.203776 0.204427 0.205078 0.205729 0.206380 0.207031 0.207682 0.208333 0.208984 0.209635 0.210286 0.210938 0.211589 0.212240 0.212891 0.213542 0.214193 0.214844 0.215495 0.216146 0.216797 0.217448 0.218099 0.218750 0.219401 0.220052 0.220703 0.221354 0.222005 0.222656 0.223307 0.223958 0.224609 0.225260 0.225911 0.226562 0.227214 0.227865 0.228516 0.229167 0.229818 0.230469 0.231120 0.231771 0.232422 0.233073 0.233724 0.234375 0.235026 0.235677
       0.33854        0.33854        0.33854        0.33854        0.33854        0.33854        0.33854        0.33854        0.33854        0.33854        0.33854        0.33854        0.33854        0.33854        0.33854        0.33854        0.33854        0.33854        0.33854        0.33854        0.33854        0.33854        0.33854        0.33854        0.33854        0.33854        0.33854        0.33854        0.33854        0.33854        0.33854        0.33854        0.33854        0.33854        0.33854        0.33854        0.33854        0.33854        0.33854        0.33854        0.33854        0.33854        0.33854        0.33854        0.33854        0.33854        0.33854        0.33854        0.33854        0.33854        0.33854        0.42027        0.55505        0.34130       -0.21089       -0.45803       -0.55375       -0.65236       -0.72414       -0.73511       -0.83311       -0.90140       -0.69653       -0.85439       -0.83310       -0.98076       -1.01699       -0.89900       -0.85806       -0.81027       -0.72921       -0.65893       -0.57108       -0.47612       -0.40907       -0.18120       -0.07754        0.02043        0.24484        0.24900        0.30540        0.36702        0.39446        0.50737        0.53274        0.56900        0.52994        0.46846        0.50384        0.51457        0.43548        0.32396        0.20286        0.17171        0.10405       -0.00723       -0.02329       -0.03137        0.04291        0.00771        0.06156        0.03649        0.15159        0.18795        0.40145        0.45482        0.54684        0.65522        0.68805        0.71190        0.63221        0.60914        0.53031        0.43373        0.38122        0.26472        0.20829        0.20115        0.09028        0.09493        0.08499        0.07428        0.08770        0.29905        0.40795        0.51228        0.53103        0.57091        0.60718        0.58573        0.57438        0.57974        0.56099        0.46073        0.29489        0.25523        0.24011        0.13478        0.07972        0.15317        0.18605        0.27331        0.34720        0.41784        0.46787        0.52710        0.59851        0.54270        0.50504        0.49138        0.34968        0.25735        0.24659        0.16656        0.17474        0.21658        0.26137        0.27328        0.31338        0.41763        0.45052        0.49687        0.44948        0.44074        0.47734        0.38251        0.32257        0.27815        0.24662        0.22109        0.22275        0.23146        0.32788        0.43270        0.42329        0.48620        0.54881        0.43933        0.40753        0.35078        0.30192        0.25687        0.26975        0.26375        0.28103        0.33022        0.34175        0.42378        0.46846        0.43292        0.45069        0.36322        0.37168        0.35009        0.25813        0.23970        0.23777        0.31309        0.37000        0.36215        0.38542        0.42964        0.43233        0.36547        0.33392        0.31262        0.34262        0.30224        0.27084        0.27264        0.34284        0.36253        0.37705        0.38488        0.37902        0.40837        0.39149        0.30895        0.28149        0.31049        0.33783        0.36294        0.35395        0.39913        0.33552        0.36623        0.38601        0.32710        0.34704        0.30997        0.29173        0.33269        0.33229        0.32008        0.34034        0.35984        0.32035        0.33997        0.30990        0.30760        0.28340        0.31014        0.30396        0.32307        0.36063        0.36043        0.34214        0.30008        0.28766        0.27887        0.32095        0.29975        0.30768        0.36170        0.35538        0.33473        0.30575        0.29859        0.30632        0.26796        0.29906        0.31275        0.32322        0.36073        0.33748        0.29420        0.32588        0.32624        0.31621        0.35090        0.33860        0.30411        0.32794        0.28635        0.31740        0.28542        0.30411        0.28598        0.31437        0.35379        0.32734        0.34757        0.30153        0.31417        0.33740        0.32966        0.30377        0.30236        0.34047        0.32657        0.32082        0.31323        0.30780        0.29975        0.30472        0.31510        0.31623        0.33855        0.33773        0.33472        0.28612        0.27491        0.26260        0.26239        0.35600        0.30557        0.34839        0.29080        0.25674        0.27820        0.35507        0.30171        0.27706        0.28994        0.30842        0.28938        0.26614        0.30598        0.26747        0.27228        0.29962        0.31802        0.32844        0.31825        0.29480        0.26189        0.26050        0.25555        0.26288        0.28571        0.35172        0.28349        0.19676        0.29475        0.27077        0.30957        0.23687        0.30196        0.30624        0.32767        0.28590        0.27103        0.26278        0.23458        0.28984        0.34072        0.35140        0.23805        0.27205        0.21902        0.22104        0.20099        0.33101        0.24427        0.19718        0.13144        0.22248        0.30074        0.20307        0.17903        0.06864       -0.55103       -0.69003
3.134688 3.095185 3.055938 3.016947 2.978211 2.939730 2.901504 2.863535 2.825820 2.788362 2.751158 2.714210 2.677518 2.641081 2.604899 2.568973 2.533302 2.497887 2.462727 2.427823 2.393174 2.358781 2.324643 2.290760 2.257133 2.223762 2.190646 2.157785 2.125180 2.092830 2.060736 2.028897 1.997313 1.965986 1.934913 1.904096 1.873534 1.843228 1.813178 1.783382 1.753843 1.724558 1.695530 1.666756 1.638238 1.609976 1.581969 1.554217 1.526721 1.499480 1.472495 1.506799 1.594166 1.534003 0.846671 0.589840 0.450544 0.382391 0.287373 0.209872 0.173138 -0.053747 0.197808 0.062077 -0.035854 -0.118670 -0.242060 -0.149798 -0.064105 -0.094480 -0.080247 0.031370 0.026939 0.221395 0.104750 0.351517 0.459899 0.483694 0.761116 0.686120 0.689413 0.828831 0.797689 0.835235 0.919593 0.861297 0.893866 0.727818 0.798632 0.846425 0.680971 0.605462 0.439990 0.425523 0.346371 0.186115 0.182933 0.116349 0.210818 0.119868 0.211055 0.106836 0.222055 0.233385 0.450920 0.410485 0.584401 0.623427 0.659591 0.728350 0.616554 0.595709 0.466679 0.416557 0.300524 0.269140 0.101463 0.162025 -0.022072 0.039525 -0.033731 -0.038824 -0.043720 0.035567 0.281237 0.298885 0.374411 0.318793 0.399475 0.411247 0.437579 0.418376 0.364582 0.344935 0.133579 0.086244 0.067403 -0.009656 -0.151913 -0.040050 -0.067161 0.042190 0.088487 0.163519 0.231732 0.239151 0.328216 0.421734 0.305704 0.369564 0.249597 0.140839 0.068660 0.046523 0.004636 0.045633 0.073397 0.105561 0.119115 0.182548 0.243250 0.310113 0.287717 0.225622 0.261213 0.230862 0.113128 0.075831 0.048256 0.032444 0.007913 -0.005841 0.036706 0.172802 0.190492 0.197533 0.308129 0.193155 0.203312 0.083093 0.073247 0.000359 -0.006054 0.003753 -0.002750 0.041718 0.056733 0.094172 0.158795 0.145491 0.224169 0.130407 0.077929 0.102663 0.047846 -0.059075 -0.024953 0.019413 0.058255 0.075193 0.076565 0.154874 0.125426 0.152096 0.038286 0.055246 0.045707 0.050768 0.023927 -0.021738 0.037938 0.045400 0.087246 0.107535 0.091439 0.108497 0.126901 0.074868 0.012879 -0.001996 0.032805 0.080509 0.063744 0.099167 0.094955 0.051182 0.110920 0.068091 0.042085 0.080890 -0.019649 0.020817 0.061939 0.037807 0.044249 0.054031 0.070532 0.053112 0.061484 0.011544 0.019671 -0.002578 0.046064 0.002306 0.047128 0.068260 0.072151 0.038832 -0.010565 -0.007958 -0.017356 0.033148 -0.001193 0.014357 0.069980 0.057486 -0.007103 0.009276 -0.012203 0.010272 -0.044110 -0.005638 0.001414 0.030750 0.047244 0.018248 -0.018434 0.006268 0.007580 0.002508 0.043279 0.012643 -0.015644 0.041342 -0.043207 -0.018109 -0.050680 -0.013592 -0.043148 0.014333 0.038443 -0.000513 0.003299 -0.006926 0.004317 0.022078 0.024538 -0.011738 -0.001141 0.023229 0.043840 0.011904 0.011409 0.035900 -0.007578 -0.000412 0.021424 0.000117 0.074926 0.055494 0.033944 0.001280 -0.008286 -0.035658 -0.001587 0.078420 -0.003196 0.073179 -0.019022 -0.024131 -0.018940 0.094003 -0.004210 -0.015102 0.025089 0.043471 0.010164 0.006064 0.029256 0.004372 0.014928 0.028500 0.067260 0.076535 0.050830 0.032862 0.000557 -0.002543 -0.003906 -0.016830 0.003465 0.107354 -0.024986 -0.093328 0.054646 -0.015221 0.045623 -0.056388 0.013808 0.018272 0.022304 0.000493 -0.019517 -0.017956 -0.073852 0.024361 0.050603 0.068168 -0.125921 -0.003995 -0.037942 -0.016655 -0.124911 0.107114 0.012100 -0.003216 -0.074821 0.196389 0.251150 0.137045 0.141803 0.073173 -0.655136
0.072396 0.073047 0.074998 0.078250 0.082801 0.088649 0.095794 0.104230 0.113956 0.124965 0.137251 0.150805 0.165618 0.181676 0.198965 0.217466 0.237156 0.258010 0.279996 0.303081 0.327222 0.352372 0.378478 0.405479 0.433307 0.461885 0.491128 0.520942 0.551222 0.581854 0.612714 0.643665 0.674561 0.705243 0.735543 0.765278 0.794257 0.822275 0.849120 0.874566 0.898381 0.920321 0.940139 0.957579 0.972382 0.984285 0.993027 0.998347 0.999990 0.997707 0.991261 0.980426 0.964997 0.944788 0.919637 0.889413 0.854017 0.813389 0.767508 0.716401 0.660145 0.598870 0.532763 0.462072 0.387108 0.308249 0.225939 0.140689 0.053077 0.036249 0.126580 0.217145 0.307116 0.395616 0.481723 0.564482 0.642914 0.716025 0.782824 0.842332 0.893601 0.935728 0.967875 0.989282 0.999293 0.997364 0.983091 0.956220 0.916666 0.864526 0.800095 0.723870 0.636562 0.539098 0.432617 0.318472 0.198215 0.073584 0.053513 0.181030 0.306803 0.428594 0.544123 0.651118 0.747356 0.830717 0.899236 0.951154 0.984968 0.999486 0.993871 0.967683 0.920915 0.854020 0.767929 0.664060 0.544308 0.411035 0.267029 0.115465 0.040154 0.196080 0.348394 0.493109 0.626276 0.744095 0.843031 0.919935 0.972151 0.997626 0.995003 0.963705 0.903988 0.816982 0.704704 0.570035 0.416677 0.249072 0.072288 0.108112 0.286242 0.456081 0.611674 0.747352 0.857950 0.939019 0.987032 0.999553 0.975392 0.914703 0.819047 0.691395 0.536079 0.358674 0.165836 0.034935 0.235559 0.427703 0.603123 0.754030 0.873451 0.955579 0.996087 0.992385 0.943826 0.851811 0.719815 0.553311 0.359590 0.147478 0.073032 0.291233 0.496220 0.677434 0.825225 0.931399 0.989705 0.996250 0.949806 0.851983 0.707250 0.522804 0.308265 0.075222 0.163348 0.393803 0.602598 0.777100 0.906383 0.981956 0.998379 0.953709 0.849756 0.692108 0.489905 0.255393 0.003223 0.250419 0.488835 0.695921 0.857273 0.961251 0.999865 0.969471 0.871178 0.710932 0.499262 0.250662 0.017320 0.285293 0.533393 0.742775 0.897078 0.983758 0.995198 0.929458 0.790619 0.588654 0.338819 0.060589 0.223803 0.491106 0.718962 0.887809 0.982627 0.994367 0.920923 0.767525 0.546513 0.276466 0.019273 0.314533 0.582628 0.798776 0.942442 0.999387 0.963187 0.836079 0.629007 0.360821 0.056686 0.254199 0.541362 0.776064 0.934215 0.998952 0.962570 0.827572 0.606701 0.321895 0.002257 0.318859 0.607261 0.831608 0.966876 0.997271 0.918236 0.737251 0.473342 0.155236 0.181640 0.499030 0.760194 0.934213 0.999779 0.947960 0.783586 0.525042 0.202400 0.145931 0.477687 0.751866 0.933862 0.999947 0.940556 0.761857 0.485369 0.145567 0.214243 0.547372 0.809813 0.966120 0.994369 0.889432 0.664085 0.347720 0.017301 0.381153 0.693322 0.909651 0.998715 0.946604 0.759322 0.462398 0.097668 0.282457 0.622425 0.871682 0.992312 0.965010 0.792427 0.499284 0.129100 0.262057 0.613964 0.871522 0.993512 0.959419 0.773153 0.462981 0.077533 0.321621 0.669695 0.909240 0.999792 0.924950 0.695653 0.348949 0.057696 0.455752 0.777079 0.965694 0.987746 0.837876 0.540789 0.147518 0.273051 0.646114 0.904290 0.999921 0.914193 0.661168 0.285881 0.143325 0.547086 0.849604 0.993059 0.948898 0.723907 0.359632 0.074934 0.496182 0.821869 0.987335 0.958591 0.739690 0.372687 0.070058 0.499855 0.829411 0.990655 0.949104 0.711650 0.325940 0.128779 0.557678 0.870071 0.998731 0.914725 0.634345 0.216462 0.249425 0.662137
1.000000 1.000000 1.000000 1.000000 1.000000 1.000000 1.000000 1.000000 1.000000 1.000000 1.000000 1.000000 1.000000 1.000000 1.000000 1.000000 1.000000 1.000000 1.000000 1.000000 1.000000 1.000000 1.000000 1.000000 1.000000 1.000000 1.000000 1.000000 1.000000 1.000000 1.000000 1.000000 1.000000 1.000000 1.000000 1.000000 1.000000 1.000000 1.000000 1.000000 1.000000 1.000000 1.000000 1.000000 1.000000 1.000000 1.000000 1.000000 1.000000 1.000000 1.000000 1.000000 0.926249 0.926249 0.926249 0.926249 0.926249 0.926249 0.926249 0.926249 0.926249 0.926249 0.926249 0.926249 0.926249 0.926249 0.926249 0.926249 0.926249 0.926249 0.926249 0.926249 0.926249 0.926249 0.926249 0.926249 0.926249 0.926249 0.926249 0.926249 0.926249 0.926249 0.926249 0.926249 0.926249 0.913325 0.911417 0.912580 0.913767 0.913674 0.913118 0.912753 0.913788 0.915338 0.917353 0.938970 0.942001 0.943167 0.944461 0.945884 0.948319 0.946301 0.954022 0.960648 0.959667 0.960677 0.954497 0.955805 0.955175 0.954447 0.956021 0.956090 0.954472 0.952564 0.951081 0.950577 0.950285 0.953809 0.954354 0.954523 0.955073 0.955005 0.955724 0.956331 0.954427 0.956612 0.948742 0.947539 0.952938 0.951053 0.952597 0.952561 0.953257 0.954033 0.954319 0.954563 0.951405 0.951067 0.950339 0.940768 0.933902 0.932619 0.935132 0.938468 0.935967 0.932086 0.933402 0.935884 0.935224 0.934579 0.925228 0.921520 0.898689 0.887006 0.875647 0.876087 0.879145 0.881443 0.879052 0.871092 0.861315 0.857564 0.857818 0.853695 0.846618 0.862987 0.857319 0.855859 0.859890 0.862948 0.868422 0.865091 0.860680 0.856125 0.851714 0.845103 0.847001 0.851579 0.855594 0.840049 0.831393 0.848956 0.838211 0.829591 0.837113 0.839182 0.836211 0.835069 0.835881 0.833980 0.827138 0.821989 0.825092 0.834053 0.833079 0.821857 0.818122 0.813562 0.813376 0.806675 0.809935 0.809947 0.806181 0.799124 0.814449 0.780955 0.804493 0.803352 0.788841 0.773103 0.762123 0.771204 0.782591 0.785312 0.776648 0.772228 0.771517 0.765041 0.737801 0.740991 0.748348 0.746735 0.734443 0.714789 0.722012 0.728673 0.723767 0.719664 0.722622 0.724103 0.696104 0.709117 0.712966 0.698626 0.713710 0.715630 0.706459 0.707488 0.709856 0.712319 0.705442 0.664988 0.667689 0.663897 0.656192 0.606798 0.606220 0.605229 0.553723 0.557654 0.522615 0.505159 0.504691 0.499433 0.547307 0.511760 0.495391 0.526143 0.457474 0.368373 0.383601 0.381014 0.393748 0.402898 0.377331 0.376601 0.364384 0.343475 0.352377 0.373440 0.388796 0.356903 0.358417 0.352544 0.322732 0.296296 0.310344 0.313394 0.333363 0.335339 0.312262 0.341935 0.380110 0.323100 0.298929 0.281091 0.283874 0.298060 0.303783 0.293076 0.266320 0.258210 0.228228 0.253208 0.246181 0.248536 0.264122 0.296227 0.290378 0.303127 0.322646 0.273479 0.289228 0.291253 0.280896 0.286326 0.293855 0.292607 0.281259 0.299532 0.268735 0.281836 0.260085 0.242884 0.308600 0.289512 0.259400 0.259165 0.264593 0.270878 0.242527 0.194305 0.179999 0.183394 0.120353 0.094225 0.094654 0.094249 0.051204 0.024257 0.009172 -0.029190 -0.029120 -0.027792 0.008469 -0.022606 0.002776 0.012432 0.012432 0.012432 0.012432 0.012432 0.012432 0.012432 0.012432 0.012432 0.012432 0.012432 0.012432 0.012432 0.012432 0.035186 0.035186 0.035186 0.035186 0.035186 0.035186 0.035186 0.035186 0.035186 0.035186 0.035186 0.035186
0.000000 0.000000 0.000000 0.000000 0.000000 0.000000 0.000000 0.000000 0.000000 0.000000 0.000000 0.000000 0.000000 0.000000 0.000000 0.000000 0.000000 0.000000 0.000000 0.000000 0.000000 0.000000 0.000000 0.000000 0.000000 0.000000 0.000000 0.000000 0.000000 0.000000 0.000000 0.000000 0.000000 0.000000 0.000000 0.000000 0.000000 0.000000 0.000000 0.000000 0.000000 0.000000 0.000000 0.000000 0.000000 0.000000 0.000000 0.000000 0.000000 0.000000 0.000000 0.000000 0.209657 0.209657 0.209657 0.209657 0.209657 0.209657 0.209657 0.209657 0.209657 0.209657 0.209657 0.209657 0.209657 0.209657 0.209657 0.209657 0.209657 0.209657 0.209657 0.209657 0.209657 0.209657 0.209657 0.209657 0.209657 0.209657 0.209657 0.209657 0.209657 0.209657 0.209657 0.209657 0.209657 0.244339 0.244339 0.244339 0.244339 0.244339 0.244339 0.244339 0.244339 0.244339 0.244339 0.244339 0.244339 0.244339 0.244339 0.244339 0.244339 0.244339 0.244339 0.244339 0.244339 0.244339 0.244339 0.244339 0.244339 0.244339 0.260378 0.260378 0.260378 0.260378 0.260378 0.260378 0.260378 0.260378 0.260378 0.260378 0.260378 0.260378 0.260378 0.260378 0.260378 0.260378 0.260378 0.260378 0.260378 0.260378 0.269680 0.269680 0.269680 0.269680 0.269680 0.269680 0.269680 0.269680 0.269680 0.269680 0.269680 0.269680 0.269680 0.269680 0.269680 0.269680 0.269680 0.269680 0.269680 0.269680 0.269680 0.269680 0.269680 0.269680 0.269680 0.269680 0.269680 0.269680 0.269680 0.269680 0.269680 0.269680 0.269680 0.280056 0.280056 0.280056 0.280056 0.280056 0.280056 0.280056 0.280056 0.280056 0.280056 0.280056 0.280056 0.280056 0.280056 0.280056 0.280056 0.280056 0.280056 0.280056 0.280056 0.280056 0.280056 0.280056 0.280056 0.280056 0.280056 0.280056 0.274721 0.274721 0.274721 0.274721 0.274721 0.274721 0.274721 0.274721 0.274721 0.274721 0.274721 0.274721 0.274721 0.285714 0.285714 0.285714 0.285714 0.285714 0.285714 0.285714 0.285714 0.285714 0.285714 0.285714 0.280056 0.280056 0.280056 0.280056 0.280056 0.280056 0.280056 0.280056 0.280056 0.280056 0.280056 0.274721 0.274721 0.274721 0.274721 0.274721 0.274721 0.274721 0.274721 0.274721 0.274721 0.274721 0.280056 0.280056 0.280056 0.280056 0.280056 0.280056 0.280056 0.280056 0.280056 0.280056 0.285714 0.285714 0.285714 0.285714 0.285714 0.285714 0.285714 0.285714 0.285714 0.269680 0.269680 0.269680 0.269680 0.269680 0.269680 0.269680 0.269680 0.269680 0.269680 0.274721 0.274721 0.274721 0.274721 0.274721 0.274721 0.274721 0.274721 0.274721 0.285714 0.285714 0.285714 0.285714 0.285714 0.285714 0.285714 0.285714 0.264906 0.264906 0.264906 0.264906 0.264906 0.264906 0.264906 0.264906 0.264906 0.274721 0.274721 0.274721 0.274721 0.274721 0.274721 0.274721 0.274721 0.269680 0.269680 0.269680 0.269680 0.269680 0.269680 0.269680 0.269680 0.269680 0.269680 0.269680 0.269680 0.269680 0.269680 0.269680 0.269680 0.280056 0.280056 0.280056 0.280056 0.280056 0.280056 0.280056 0.260378 0.260378 0.260378 0.260378 0.260378 0.260378 0.260378 0.260378 0.269680 0.269680 0.269680 0.269680 0.269680 0.269680 0.269680 0.264906 0.264906 0.264906 0.264906 0.264906 0.264906 0.264906 0.264906 0.264906 0.264906 0.264906 0.264906 0.264906 0.264906 0.260378 0.260378 0.260378 0.260378 0.260378 0.260378 0.260378 0.260378 0.260378 0.260378 0.260378 0.260378
