# Output from CTFFind version 4.1.9, run on 2019-11-03 20:10:39
# Input file: stack11_bm3d_averaged_1_7.0_0_3000_half.mrc ; Number of micrographs: 1
# Pixel size: 3.000 Angstroms ; acceleration voltage: 300.0 keV ; spherical aberration: 0.00 mm ; amplitude contrast: 0.07
# Box size: 512 pixels ; min. res.: 30.0 Angstroms ; max. res.: 5.0 Angstroms ; min. def.: 5000.0 um; max. def. 50000.0 um; num. frames averaged: 1
# 6 lines per micrograph: #1 - spatial frequency (1/Angstroms); #2 - 1D rotational average of spectrum (assuming no astigmatism); #3 - 1D rotational average of spectrum; #4 - CTF fit; #5 - cross-correlation between spectrum and CTF fit; #6 - 2sigma of expected cross correlation of noise
0.000000 0.000651 0.001302 0.001953 0.002604 0.003255 0.003906 0.004557 0.005208 0.005859 0.006510 0.007161 0.007812 0.008464 0.009115 0.009766 0.010417 0.011068 0.011719 0.012370 0.013021 0.013672 0.014323 0.014974 0.015625 0.016276 0.016927 0.017578 0.018229 0.018880 0.019531 0.020182 0.020833 0.021484 0.022135 0.022786 0.023438 0.024089 0.024740 0.025391 0.026042 0.026693 0.027344 0.027995 0.028646 0.029297 0.029948 0.030599 0.031250 0.031901 0.032552 0.033203 0.033854 0.034505 0.035156 0.035807 0.036458 0.037109 0.037760 0.038411 0.039062 0.039714 0.040365 0.041016 0.041667 0.042318 0.042969 0.043620 0.044271 0.044922 0.045573 0.046224 0.046875 0.047526 0.048177 0.048828 0.049479 0.050130 0.050781 0.051432 0.052083 0.052734 0.053385 0.054036 0.054688 0.055339 0.055990 0.056641 0.057292 0.057943 0.058594 0.059245 0.059896 0.060547 0.061198 0.061849 0.062500 0.063151 0.063802 0.064453 0.065104 0.065755 0.066406 0.067057 0.067708 0.068359 0.069010 0.069661 0.070312 0.070964 0.071615 0.072266 0.072917 0.073568 0.074219 0.074870 0.075521 0.076172 0.076823 0.077474 0.078125 0.078776 0.079427 0.080078 0.080729 0.081380 0.082031 0.082682 0.083333 0.083984 0.084635 0.085286 0.085938 0.086589 0.087240 0.087891 0.088542 0.089193 0.089844 0.090495 0.091146 0.091797 0.092448 0.093099 0.093750 0.094401 0.095052 0.095703 0.096354 0.097005 0.097656 0.098307 0.098958 0.099609 0.100260 0.100911 0.101562 0.102214 0.102865 0.103516 0.104167 0.104818 0.105469 0.106120 0.106771 0.107422 0.108073 0.108724 0.109375 0.110026 0.110677 0.111328 0.111979 0.112630 0.113281 0.113932 0.114583 0.115234 0.115885 0.116536 0.117188 0.117839 0.118490 0.119141 0.119792 0.120443 0.121094 0.121745 0.122396 0.123047 0.123698 0.124349 0.125000 0.125651 0.126302 0.126953 0.127604 0.128255 0.128906 0.129557 0.130208 0.130859 0.131510 0.132161 0.132812 0.133464 0.134115 0.134766 0.135417 0.136068 0.136719 0.137370 0.138021 0.138672 0.139323 0.139974 0.140625 0.141276 0.141927 0.142578 0.143229 0.143880 0.144531 0.145182 0.145833 0.146484 0.147135 0.147786 0.148438 0.149089 0.149740 0.150391 0.151042 0.151693 0.152344 0.152995 0.153646 0.154297 0.154948 0.155599 0.156250 0.156901 0.157552 0.158203 0.158854 0.159505 0.160156 0.160807 0.161458 0.162109 0.162760 0.163411 0.164062 0.164714 0.165365 0.166016 0.166667 0.167318 0.167969 0.168620 0.169271 0.169922 0.170573 0.171224 0.171875 0.172526 0.173177 0.173828 0.174479 0.175130 0.175781 0.176432 0.177083 0.177734 0.178385 0.179036 0.179688 0.180339 0.180990 0.181641 0.182292 0.182943 0.183594 0.184245 0.184896 0.185547 0.186198 0.186849 0.187500 0.188151 0.188802 0.189453 0.190104 0.190755 0.191406 0.192057 0.192708 0.193359 0.194010 0.194661 0.195312 0.195964 0.196615 0.197266 0.197917 0.198568 0.199219 0.199870 0.200521 0.201172 0.201823 0.202474 0.203125 0.203776 0.204427 0.205078 0.205729 0.206380 0.207031 0.207682 0.208333 0.208984 0.209635 0.210286 0.210938 0.211589 0.212240 0.212891 0.213542 0.214193 0.214844 0.215495 0.216146 0.216797 0.217448 0.218099 0.218750 0.219401 0.220052 0.220703 0.221354 0.222005 0.222656 0.223307 0.223958 0.224609 0.225260 0.225911 0.226562 0.227214 0.227865 0.228516 0.229167 0.229818 0.230469 0.231120 0.231771 0.232422 0.233073 0.233724 0.234375 0.235026 0.235677
       0.34497        0.34497        0.34497        0.34497        0.34497        0.34497        0.34497        0.34497        0.34497        0.34497        0.34497        0.34497        0.34497        0.34497        0.34497        0.34497        0.34497        0.34497        0.34497        0.34497        0.34497        0.34497        0.34497        0.34497        0.34497        0.34497        0.34497        0.34497        0.34497        0.34497        0.34497        0.34497        0.34497        0.34497        0.34497        0.34497        0.34497        0.34497        0.34497        0.34497        0.34497        0.34497        0.34497        0.34497        0.34497        0.34497        0.34497        0.34497        0.34497        0.34497        0.34497        0.69901        0.85738        0.53793        0.10525       -0.02911       -0.38559       -0.18000       -0.28833       -0.11618       -0.05523       -0.11291       -0.05343       -0.16633       -0.20559       -0.21363       -0.30695       -0.31840       -0.44368       -0.36193       -0.42585       -0.42082       -0.39345       -0.40637       -0.44628       -0.50712       -0.55842       -0.54931       -0.52341       -0.35621       -0.32557       -0.29074       -0.27072       -0.18587       -0.16969        0.06165        0.14245        0.17587        0.26661        0.38148        0.45776        0.52311        0.60118        0.59823        0.58452        0.70035        0.80336        0.70270        0.74406        0.61923        0.56842        0.48349        0.43282        0.51236        0.39793        0.27203        0.11706        0.11383        0.09424       -0.01301        0.04545        0.05312        0.01229        0.02804        0.03145        0.23697        0.27157        0.29644        0.43553        0.45374        0.41484        0.60033        0.61839        0.63500        0.72383        0.67578        0.64723        0.65613        0.56011        0.46042        0.41898        0.30391        0.27058        0.18510        0.13680        0.05256        0.06657        0.07642        0.10024        0.16058        0.24593        0.29871        0.42279        0.46565        0.48152        0.56418        0.60186        0.63653        0.61523        0.55832        0.46239        0.47347        0.37885        0.27800        0.21252        0.15656        0.17329        0.15389        0.16170        0.19121        0.32382        0.33852        0.40820        0.44714        0.42579        0.48010        0.56331        0.55540        0.50330        0.45751        0.41411        0.37356        0.34256        0.31002        0.26527        0.24725        0.25549        0.25703        0.22668        0.31063        0.36505        0.38490        0.43918        0.45618        0.46770        0.42790        0.41289        0.40217        0.36350        0.33819        0.27508        0.28196        0.26925        0.24752        0.29641        0.29393        0.35266        0.38318        0.43551        0.47678        0.40703        0.42254        0.43274        0.41210        0.35081        0.32944        0.29317        0.32707        0.27638        0.32416        0.31623        0.33381        0.34201        0.36524        0.31397        0.38838        0.41214        0.38120        0.35244        0.36968        0.31941        0.29584        0.30858        0.32030        0.30855        0.32082        0.34555        0.35799        0.34112        0.36451        0.36300        0.42376        0.39074        0.34042        0.34956        0.30035        0.29486        0.32695        0.32043        0.33109        0.34383        0.34371        0.38812        0.33127        0.33024        0.33915        0.34958        0.30522        0.31337        0.28282        0.30352        0.33185        0.30466        0.33238        0.35916        0.37114        0.29973        0.34377        0.30013        0.29335        0.27972        0.24743        0.30813        0.30777        0.34337        0.34032        0.34527        0.32821        0.34999        0.31542        0.34639        0.30650        0.32622        0.29290        0.33737        0.33124        0.37314        0.33175        0.33715        0.33773        0.29358        0.27642        0.31303        0.25076        0.22974        0.34153        0.32387        0.36803        0.34787        0.36376        0.33608        0.33434        0.35193        0.26659        0.26964        0.31965        0.30197        0.31144        0.31497        0.33950        0.32952        0.28905        0.29120        0.34617        0.32238        0.32258        0.29913        0.32219        0.33829        0.39342        0.36345        0.32028        0.28317        0.30358        0.29000        0.30780        0.27900        0.27182        0.31328        0.33013        0.34582        0.35653        0.33220        0.29575        0.30164        0.27156        0.27850        0.25691        0.30668        0.26112        0.24898        0.28981        0.28510        0.26329        0.29424        0.21991        0.21610        0.23896        0.19411        0.27384        0.34918        0.25388        0.24432        0.31906        0.30208        0.30957        0.31444        0.27392        0.25143        0.19460        0.21163        0.20785        0.28211        0.23715        0.28448        0.36410        0.37060        0.25507        0.17799        0.12542       -0.01557       -0.13009       -0.62520
2.808079 2.778277 2.748636 2.719159 2.689843 2.660689 2.631698 2.602870 2.574203 2.545699 2.517357 2.489178 2.461161 2.433306 2.405613 2.378083 2.350715 2.323510 2.296467 2.269586 2.242867 2.216311 2.189917 2.163685 2.137616 2.111709 2.085964 2.060382 2.034962 2.009704 1.984609 1.959676 1.934905 1.910297 1.885851 1.861567 1.837445 1.813486 1.789689 1.766055 1.742583 1.719273 1.696126 1.673140 1.650317 1.627657 1.605159 1.582823 1.560649 1.538638 1.516789 1.735289 2.161966 1.716553 1.194465 1.057277 0.455758 0.853122 0.563099 0.848402 0.818200 0.821440 0.760224 0.758537 0.599105 0.563084 0.503279 0.428688 0.250182 0.365762 0.199429 0.331258 0.219406 0.211328 0.185890 0.041666 0.001811 0.018852 -0.070196 0.133626 0.233997 0.189215 0.180143 0.325193 0.184449 0.523998 0.627897 0.637521 0.654645 0.881241 0.839631 0.948298 0.944776 1.041514 1.011383 1.094083 1.177316 1.049543 1.172238 0.914403 0.934258 0.800235 0.657185 0.812995 0.698660 0.499395 0.334905 0.252695 0.271098 0.149757 0.138193 0.166964 0.109730 0.119836 0.083130 0.249537 0.352159 0.342822 0.479095 0.547356 0.418687 0.597297 0.734991 0.648818 0.722967 0.713215 0.722094 0.648842 0.598502 0.492406 0.368920 0.277792 0.220634 0.092121 0.116839 -0.116872 -0.049351 -0.063519 -0.084654 -0.018019 0.128980 0.071619 0.243044 0.308600 0.337647 0.374592 0.497793 0.467157 0.480810 0.492184 0.306331 0.294571 0.287814 0.086776 0.046080 -0.082249 -0.015549 -0.062995 -0.097145 -0.071151 0.040412 0.095379 0.126967 0.226302 0.223969 0.221289 0.316387 0.342738 0.446935 0.257213 0.232998 0.227657 0.144053 0.145760 0.119702 -0.004523 0.015027 0.076927 -0.010424 0.045321 0.134226 0.135861 0.214278 0.233956 0.259191 0.162011 0.212061 0.128886 0.127682 0.114510 0.027599 -0.026282 -0.001184 -0.020436 -0.052207 0.055662 0.004586 0.106711 0.138582 0.194218 0.164817 0.118586 0.140861 0.160181 0.110457 0.036209 -0.025583 0.028940 0.028674 -0.043772 0.037875 0.020508 0.048156 0.039617 0.055715 0.020692 0.140066 0.119378 0.046944 0.037681 0.042430 0.005570 -0.030816 0.008839 0.004684 -0.003980 0.003410 0.057048 0.053876 0.039047 0.074276 0.061191 0.164013 0.063918 0.041579 0.043445 -0.034692 0.012111 0.047260 0.007758 0.032872 0.056035 0.081064 0.049966 0.041609 0.008082 0.079666 0.026792 0.020933 0.024410 -0.006474 0.032525 0.026444 0.020579 0.069335 0.075549 0.077648 0.041952 0.052731 0.023087 0.015512 -0.023938 -0.024910 0.036819 0.052713 0.080923 0.081659 0.066774 0.070435 0.097451 0.042499 0.090487 0.057325 0.044375 0.018236 0.104052 0.062531 0.124763 0.069795 0.062372 0.098545 0.031657 0.003249 0.086180 -0.039678 -0.028123 0.094844 0.043967 0.160067 0.092861 0.089776 0.066677 0.033512 0.091657 -0.025807 -0.023734 0.049252 0.035008 0.034249 0.019853 0.103396 0.032749 -0.011967 0.050882 0.042755 0.051279 0.061492 -0.008556 0.058945 0.051878 0.118733 0.057617 0.028523 -0.028402 -0.026239 -0.003911 0.009020 -0.056093 -0.020675 0.001977 0.017601 0.035780 0.059357 0.005521 -0.032425 -0.029314 -0.018380 -0.067201 -0.046067 -0.033718 -0.131393 -0.095958 -0.058948 -0.094330 -0.105551 -0.027025 -0.154312 -0.105664 -0.115448 -0.189097 -0.069942 0.061184 -0.073935 -0.137040 0.051424 0.029823 -0.027313 0.073334 -0.023560 -0.004263 -0.084733 -0.038364 0.046951 0.128776 0.054323 0.139247 0.169488 0.435688 0.238504 0.322023 0.160464 -0.021309 -0.699761
0.072396 0.072899 0.074408 0.076923 0.080442 0.084966 0.090493 0.097020 0.104547 0.113071 0.122587 0.133091 0.144579 0.157044 0.170478 0.184872 0.200214 0.216493 0.233692 0.251795 0.270781 0.290628 0.311310 0.332796 0.355055 0.378047 0.401733 0.426066 0.450995 0.476464 0.502412 0.528771 0.555469 0.582427 0.609558 0.636772 0.663969 0.691044 0.717885 0.744373 0.770382 0.795779 0.820426 0.844176 0.866878 0.888375 0.908504 0.927099 0.943987 0.958995 0.971946 0.982661 0.990963 0.996674 0.999619 0.999626 0.996529 0.990169 0.980395 0.967068 0.950060 0.929258 0.904567 0.875909 0.843230 0.806495 0.765700 0.720864 0.672040 0.619309 0.562789 0.502632 0.439028 0.372205 0.302431 0.230014 0.155303 0.078685 0.000590 0.078514 0.158122 0.237694 0.316656 0.394407 0.470318 0.543741 0.614012 0.680459 0.742404 0.799177 0.850116 0.894582 0.931964 0.961690 0.983233 0.996126 0.999966 0.994427 0.979270 0.954347 0.919614 0.875138 0.821100 0.757804 0.685680 0.605287 0.517311 0.422567 0.321997 0.216660 0.107727 0.003528 0.115741 0.227473 0.337230 0.443475 0.544657 0.639230 0.725679 0.802549 0.868465 0.922168 0.962537 0.988618 0.999650 0.995089 0.974628 0.938220 0.886089 0.818742 0.736977 0.641881 0.534826 0.417457 0.291678 0.159621 0.023622 0.113819 0.250084 0.382477 0.508285 0.624833 0.729542 0.819992 0.893979 0.949585 0.985224 0.999704 0.992266 0.962630 0.911019 0.838179 0.745386 0.634439 0.507640 0.367756 0.217975 0.061834 0.096849 0.254068 0.405729 0.547753 0.676195 0.787353 0.877886 0.944925 0.986173 0.999999 0.985512 0.942622 0.872072 0.775452 0.655191 0.514505 0.357338 0.188263 0.012362 0.164921 0.337940 0.501027 0.648681 0.775764 0.877685 0.950581 0.991485 0.998459 0.970708 0.908648 0.813938 0.689467 0.539296 0.368540 0.183226 0.009912 0.203666 0.390614 0.563406 0.715066 0.839271 0.930646 0.985007 0.999583 0.973179 0.906282 0.801098 0.661520 0.493014 0.302436 0.097781 0.112146 0.318085 0.510741 0.681193 0.821334 0.924266 0.984672 0.999115 0.966273 0.887064 0.764676 0.604488 0.413869 0.201870 0.021173 0.244132 0.455634 0.644639 0.801039 0.916208 0.983522 0.998765 0.960438 0.869926 0.731503 0.552187 0.341432 0.110658 0.127331 0.359051 0.571089 0.750899 0.887559 0.972475 0.999955 0.967645 0.876763 0.732134 0.541986 0.317544 0.072407 0.178249 0.418590 0.633127 0.807729 0.930582 0.993037 0.990264 0.921685 0.791131 0.606697 0.380312 0.127018 0.135997 0.390532 0.618640 0.803896 0.932629 0.994970 0.985670 0.904608 0.756931 0.552822 0.306847 0.036990 0.236622 0.493215 0.712943 0.878445 0.976272 0.998038 0.941213 0.809474 0.612564 0.365654 0.088247 0.197318 0.467634 0.700154 0.875090 0.977156 0.996970 0.932001 0.786950 0.573522 0.309566 0.017666 0.276749 0.547603 0.770481 0.924871 0.996132 0.976947 0.868183 0.678991 0.426156 0.132691 0.174190 0.465551 0.713472 0.893748 0.988324 0.987188 0.889537 0.704066 0.448306 0.147092 0.169798 0.470528 0.724397 0.905024 0.993155 0.978811 0.862538 0.655581 0.378918 0.061257 0.263880 0.561661 0.799672 0.951513 0.999806 0.938313 0.772855 0.520916 0.209940 0.125572 0.447826 0.719976 0.910384 0.996378 0.967072 0.824881 0.585514 0.276379 0.066424 0.402256 0.690727 0.896593 0.994147 0.970550 0.827676 0.582171 0.263673 0.088631 0.430756 0.719390 0.917412 0.998767 0.952041 0.782210 0.510333 0.171079 0.191539
1.000000 1.000000 1.000000 1.000000 1.000000 1.000000 1.000000 1.000000 1.000000 1.000000 1.000000 1.000000 1.000000 1.000000 1.000000 1.000000 1.000000 1.000000 1.000000 1.000000 1.000000 1.000000 1.000000 1.000000 1.000000 1.000000 1.000000 1.000000 1.000000 1.000000 1.000000 1.000000 1.000000 1.000000 1.000000 1.000000 1.000000 1.000000 1.000000 1.000000 1.000000 1.000000 1.000000 1.000000 1.000000 1.000000 1.000000 1.000000 1.000000 1.000000 1.000000 1.000000 0.915558 0.915558 0.915558 0.911164 0.911164 0.911164 0.911164 0.911164 0.911164 0.911164 0.911164 0.911164 0.911164 0.911164 0.911164 0.911164 0.911164 0.911164 0.911164 0.911164 0.911164 0.911164 0.911164 0.911164 0.911164 0.911164 0.911164 0.911164 0.911164 0.911164 0.911164 0.911164 0.911164 0.911164 0.911164 0.911164 0.911164 0.911164 0.911164 0.911164 0.911164 0.911164 0.911164 0.911164 0.939631 0.941070 0.949410 0.948948 0.948403 0.946409 0.945150 0.944935 0.944847 0.945199 0.945935 0.946931 0.953156 0.954094 0.958509 0.961225 0.961196 0.962931 0.964893 0.964530 0.956201 0.955959 0.954529 0.953797 0.955907 0.954533 0.953291 0.953760 0.953375 0.955813 0.955369 0.954147 0.952492 0.950884 0.949577 0.949022 0.948788 0.949593 0.949672 0.951248 0.954278 0.954436 0.954170 0.951404 0.951023 0.952228 0.951658 0.953487 0.941300 0.940655 0.939194 0.939190 0.941779 0.941681 0.941579 0.942479 0.942179 0.942100 0.942246 0.935600 0.935330 0.927765 0.924177 0.922683 0.917272 0.913221 0.915871 0.918492 0.919721 0.920178 0.911012 0.908063 0.909001 0.907829 0.909299 0.909231 0.910318 0.910736 0.910658 0.905491 0.895735 0.894097 0.886303 0.889023 0.885755 0.883112 0.880124 0.871256 0.862729 0.874884 0.861936 0.820993 0.824693 0.829168 0.821268 0.817444 0.818361 0.819884 0.824840 0.818774 0.817391 0.811537 0.798460 0.793628 0.786121 0.772413 0.770439 0.761490 0.751096 0.745238 0.769122 0.762719 0.774403 0.778823 0.778451 0.775018 0.766062 0.755364 0.755511 0.750962 0.746833 0.723620 0.715729 0.715880 0.713081 0.700812 0.704003 0.692081 0.692177 0.679555 0.684293 0.689900 0.693080 0.689172 0.682761 0.674312 0.670347 0.683514 0.697595 0.689733 0.685598 0.691073 0.681391 0.676474 0.669165 0.673327 0.665734 0.657004 0.659658 0.693235 0.665297 0.654854 0.662145 0.665013 0.659661 0.660407 0.640039 0.633865 0.611148 0.628437 0.633821 0.650518 0.651376 0.653614 0.664551 0.670316 0.681068 0.685636 0.684385 0.644545 0.648509 0.667228 0.674902 0.663463 0.653314 0.653278 0.647099 0.683574 0.668431 0.626099 0.622209 0.621196 0.580874 0.556686 0.555067 0.557438 0.584503 0.580648 0.562358 0.536182 0.537906 0.539411 0.537966 0.536520 0.521650 0.529403 0.514344 0.490604 0.502554 0.510280 0.508547 0.492640 0.486105 0.499646 0.477905 0.506077 0.481991 0.463376 0.480301 0.478818 0.466466 0.393424 0.403760 0.392898 0.378795 0.334285 0.343833 0.353606 0.335965 0.260988 0.255060 0.255775 0.252354 0.232828 0.210206 0.196902 0.186288 0.163921 0.102980 0.054282 0.055680 0.059470 0.086271 0.045860 0.099617 0.167479 0.165607 0.165607 0.165607 0.165607 0.165607 0.165607 0.165607 0.165607 0.141477 0.141477 0.141477 0.141477 0.141477 0.141477 0.141477 0.141477 0.141477 0.165607 0.165607 0.165607 0.165607 0.165607 0.165607 0.165607 0.165607 0.165607 0.165607 0.165607 0.165607 0.165607 0.165607
0.000000 0.000000 0.000000 0.000000 0.000000 0.000000 0.000000 0.000000 0.000000 0.000000 0.000000 0.000000 0.000000 0.000000 0.000000 0.000000 0.000000 0.000000 0.000000 0.000000 0.000000 0.000000 0.000000 0.000000 0.000000 0.000000 0.000000 0.000000 0.000000 0.000000 0.000000 0.000000 0.000000 0.000000 0.000000 0.000000 0.000000 0.000000 0.000000 0.000000 0.000000 0.000000 0.000000 0.000000 0.000000 0.000000 0.000000 0.000000 0.000000 0.000000 0.000000 0.000000 0.180334 0.180334 0.180334 0.199007 0.199007 0.199007 0.199007 0.199007 0.199007 0.199007 0.199007 0.199007 0.199007 0.199007 0.199007 0.199007 0.199007 0.199007 0.199007 0.199007 0.199007 0.199007 0.199007 0.199007 0.199007 0.199007 0.199007 0.199007 0.199007 0.199007 0.199007 0.199007 0.199007 0.199007 0.199007 0.199007 0.199007 0.199007 0.199007 0.199007 0.199007 0.199007 0.199007 0.199007 0.225018 0.225018 0.225018 0.225018 0.225018 0.225018 0.225018 0.225018 0.225018 0.225018 0.225018 0.225018 0.225018 0.225018 0.225018 0.225018 0.225018 0.225018 0.225018 0.225018 0.225018 0.225018 0.225018 0.225018 0.225018 0.225018 0.225018 0.225018 0.225018 0.244339 0.244339 0.244339 0.244339 0.244339 0.244339 0.244339 0.244339 0.244339 0.244339 0.244339 0.244339 0.244339 0.244339 0.244339 0.244339 0.244339 0.244339 0.244339 0.244339 0.244339 0.244339 0.244339 0.256074 0.256074 0.256074 0.256074 0.256074 0.256074 0.256074 0.256074 0.256074 0.256074 0.256074 0.256074 0.256074 0.256074 0.256074 0.256074 0.256074 0.256074 0.256074 0.256074 0.256074 0.256074 0.256074 0.256074 0.256074 0.256074 0.256074 0.256074 0.256074 0.256074 0.256074 0.256074 0.256074 0.256074 0.256074 0.256074 0.256074 0.264906 0.264906 0.264906 0.264906 0.264906 0.264906 0.264906 0.264906 0.264906 0.264906 0.264906 0.264906 0.264906 0.264906 0.264906 0.264906 0.264906 0.264906 0.264906 0.264906 0.264906 0.264906 0.264906 0.264906 0.264906 0.264906 0.264906 0.264906 0.264906 0.264906 0.264906 0.264906 0.264906 0.264906 0.264906 0.264906 0.264906 0.264906 0.264906 0.264906 0.264906 0.264906 0.264906 0.264906 0.264906 0.264906 0.264906 0.264906 0.264906 0.264906 0.264906 0.264906 0.264906 0.264906 0.264906 0.264906 0.264906 0.264906 0.260378 0.260378 0.260378 0.260378 0.260378 0.260378 0.260378 0.260378 0.260378 0.260378 0.260378 0.260378 0.260378 0.264906 0.264906 0.264906 0.264906 0.264906 0.264906 0.264906 0.264906 0.264906 0.264906 0.264906 0.264906 0.269680 0.269680 0.269680 0.269680 0.269680 0.269680 0.269680 0.269680 0.269680 0.269680 0.269680 0.264906 0.264906 0.264906 0.264906 0.264906 0.264906 0.264906 0.264906 0.264906 0.264906 0.264906 0.256074 0.256074 0.256074 0.256074 0.256074 0.256074 0.256074 0.256074 0.256074 0.256074 0.256074 0.264906 0.264906 0.264906 0.264906 0.264906 0.264906 0.264906 0.264906 0.264906 0.264906 0.260378 0.260378 0.260378 0.260378 0.260378 0.260378 0.260378 0.260378 0.260378 0.260378 0.264906 0.264906 0.264906 0.264906 0.264906 0.264906 0.264906 0.264906 0.264906 0.251976 0.251976 0.251976 0.251976 0.251976 0.251976 0.251976 0.251976 0.251976 0.251976 0.256074 0.256074 0.256074 0.256074 0.256074 0.256074 0.256074 0.256074 0.256074 0.251976 0.251976 0.251976 0.251976 0.251976 0.251976 0.251976 0.251976 0.251976 0.251976 0.251976 0.251976 0.251976 0.251976
