# Output from CTFFind version 4.1.9, run on 2019-11-02 17:45:23
# Input file: stack16_bm3d_averaged_1_1.0_0_750_half.mrc ; Number of micrographs: 1
# Pixel size: 3.000 Angstroms ; acceleration voltage: 300.0 keV ; spherical aberration: 0.00 mm ; amplitude contrast: 0.07
# Box size: 512 pixels ; min. res.: 30.0 Angstroms ; max. res.: 5.0 Angstroms ; min. def.: 5000.0 um; max. def. 50000.0 um; num. frames averaged: 1
# 6 lines per micrograph: #1 - spatial frequency (1/Angstroms); #2 - 1D rotational average of spectrum (assuming no astigmatism); #3 - 1D rotational average of spectrum; #4 - CTF fit; #5 - cross-correlation between spectrum and CTF fit; #6 - 2sigma of expected cross correlation of noise
0.000000 0.000651 0.001302 0.001953 0.002604 0.003255 0.003906 0.004557 0.005208 0.005859 0.006510 0.007161 0.007812 0.008464 0.009115 0.009766 0.010417 0.011068 0.011719 0.012370 0.013021 0.013672 0.014323 0.014974 0.015625 0.016276 0.016927 0.017578 0.018229 0.018880 0.019531 0.020182 0.020833 0.021484 0.022135 0.022786 0.023438 0.024089 0.024740 0.025391 0.026042 0.026693 0.027344 0.027995 0.028646 0.029297 0.029948 0.030599 0.031250 0.031901 0.032552 0.033203 0.033854 0.034505 0.035156 0.035807 0.036458 0.037109 0.037760 0.038411 0.039062 0.039714 0.040365 0.041016 0.041667 0.042318 0.042969 0.043620 0.044271 0.044922 0.045573 0.046224 0.046875 0.047526 0.048177 0.048828 0.049479 0.050130 0.050781 0.051432 0.052083 0.052734 0.053385 0.054036 0.054688 0.055339 0.055990 0.056641 0.057292 0.057943 0.058594 0.059245 0.059896 0.060547 0.061198 0.061849 0.062500 0.063151 0.063802 0.064453 0.065104 0.065755 0.066406 0.067057 0.067708 0.068359 0.069010 0.069661 0.070312 0.070964 0.071615 0.072266 0.072917 0.073568 0.074219 0.074870 0.075521 0.076172 0.076823 0.077474 0.078125 0.078776 0.079427 0.080078 0.080729 0.081380 0.082031 0.082682 0.083333 0.083984 0.084635 0.085286 0.085938 0.086589 0.087240 0.087891 0.088542 0.089193 0.089844 0.090495 0.091146 0.091797 0.092448 0.093099 0.093750 0.094401 0.095052 0.095703 0.096354 0.097005 0.097656 0.098307 0.098958 0.099609 0.100260 0.100911 0.101562 0.102214 0.102865 0.103516 0.104167 0.104818 0.105469 0.106120 0.106771 0.107422 0.108073 0.108724 0.109375 0.110026 0.110677 0.111328 0.111979 0.112630 0.113281 0.113932 0.114583 0.115234 0.115885 0.116536 0.117188 0.117839 0.118490 0.119141 0.119792 0.120443 0.121094 0.121745 0.122396 0.123047 0.123698 0.124349 0.125000 0.125651 0.126302 0.126953 0.127604 0.128255 0.128906 0.129557 0.130208 0.130859 0.131510 0.132161 0.132812 0.133464 0.134115 0.134766 0.135417 0.136068 0.136719 0.137370 0.138021 0.138672 0.139323 0.139974 0.140625 0.141276 0.141927 0.142578 0.143229 0.143880 0.144531 0.145182 0.145833 0.146484 0.147135 0.147786 0.148438 0.149089 0.149740 0.150391 0.151042 0.151693 0.152344 0.152995 0.153646 0.154297 0.154948 0.155599 0.156250 0.156901 0.157552 0.158203 0.158854 0.159505 0.160156 0.160807 0.161458 0.162109 0.162760 0.163411 0.164062 0.164714 0.165365 0.166016 0.166667 0.167318 0.167969 0.168620 0.169271 0.169922 0.170573 0.171224 0.171875 0.172526 0.173177 0.173828 0.174479 0.175130 0.175781 0.176432 0.177083 0.177734 0.178385 0.179036 0.179688 0.180339 0.180990 0.181641 0.182292 0.182943 0.183594 0.184245 0.184896 0.185547 0.186198 0.186849 0.187500 0.188151 0.188802 0.189453 0.190104 0.190755 0.191406 0.192057 0.192708 0.193359 0.194010 0.194661 0.195312 0.195964 0.196615 0.197266 0.197917 0.198568 0.199219 0.199870 0.200521 0.201172 0.201823 0.202474 0.203125 0.203776 0.204427 0.205078 0.205729 0.206380 0.207031 0.207682 0.208333 0.208984 0.209635 0.210286 0.210938 0.211589 0.212240 0.212891 0.213542 0.214193 0.214844 0.215495 0.216146 0.216797 0.217448 0.218099 0.218750 0.219401 0.220052 0.220703 0.221354 0.222005 0.222656 0.223307 0.223958 0.224609 0.225260 0.225911 0.226562 0.227214 0.227865 0.228516 0.229167 0.229818 0.230469 0.231120 0.231771 0.232422 0.233073 0.233724 0.234375 0.235026 0.235677
       0.34202        0.34202        0.34202        0.34202        0.34202        0.34202        0.34202        0.34202        0.34202        0.34202        0.34202        0.34202        0.34202        0.34202        0.34202        0.34202        0.34202        0.34202        0.34202        0.34202        0.34202        0.34202        0.34202        0.34202        0.34202        0.34202        0.34202        0.34202        0.34202        0.34202        0.34202        0.34202        0.34202        0.34202        0.34202        0.34202        0.34202        0.34202        0.34202        0.34202        0.34202        0.34202        0.34202        0.34202        0.34202        0.34202        0.34202        0.34202        0.34202        0.34202        0.34202        0.48825        0.70102        0.45528       -0.11231       -0.41320       -0.57250       -0.66269       -0.74565       -0.76307       -0.86963       -0.91529       -0.75979       -0.92566       -0.87241       -1.02506       -1.09798       -0.98926       -0.96303       -0.88444       -0.86005       -0.75042       -0.64159       -0.50107       -0.42475       -0.21994       -0.11761       -0.02281        0.20253        0.24283        0.30772        0.38318        0.43705        0.51459        0.57876        0.59500        0.58955        0.50004        0.54507        0.48534        0.39196        0.32340        0.20498        0.17049        0.10047       -0.06042       -0.11137       -0.09236        0.01043       -0.01757        0.01314        0.02714        0.20763        0.21812        0.39022        0.45563        0.55954        0.69787        0.75972        0.73050        0.70405        0.69985        0.58216        0.54074        0.39888        0.27238        0.19352        0.14513        0.06657        0.02508        0.02240        0.06173        0.07748        0.27137        0.41730        0.50548        0.58841        0.63779        0.70254        0.65891        0.65094        0.67003        0.60788        0.48037        0.28426        0.23569        0.20518        0.12886        0.04341        0.09122        0.11923        0.24982        0.34063        0.41421        0.50062        0.53830        0.66019        0.60803        0.55370        0.50958        0.36301        0.20800        0.21126        0.15217        0.11552        0.12121        0.21481        0.25195        0.35737        0.44118        0.43771        0.56117        0.50910        0.44959        0.45496        0.38117        0.32283        0.27501        0.21516        0.23490        0.21072        0.20782        0.32089        0.45028        0.48517        0.48101        0.55120        0.49548        0.45451        0.39515        0.29472        0.22477        0.23185        0.24324        0.26515        0.27388        0.32480        0.44188        0.49934        0.48637        0.45914        0.41598        0.38798        0.36156        0.24925        0.22383        0.24596        0.29263        0.35448        0.36121        0.38993        0.41020        0.44176        0.37088        0.34749        0.31349        0.30585        0.26706        0.25738        0.30674        0.34544        0.41414        0.41579        0.39500        0.39267        0.40480        0.34712        0.28657        0.29219        0.27914        0.30898        0.35802        0.36834        0.41559        0.35781        0.36546        0.38822        0.34509        0.31519        0.28058        0.29347        0.33878        0.32775        0.32362        0.37324        0.39312        0.33211        0.35089        0.29743        0.30774        0.28645        0.28143        0.30041        0.33053        0.38348        0.36448        0.34619        0.32612        0.28374        0.27584        0.29616        0.28248        0.31335        0.36758        0.39407        0.33614        0.31693        0.30878        0.29855        0.28461        0.27907        0.29964        0.33940        0.33555        0.34198        0.31666        0.34838        0.32151        0.28697        0.31457        0.32127        0.33458        0.33955        0.31842        0.31295        0.30306        0.32780        0.31240        0.33730        0.38763        0.33279        0.36131        0.31823        0.31005        0.28987        0.30945        0.29044        0.30876        0.31601        0.34989        0.35916        0.31238        0.32128        0.31537        0.29392        0.28987        0.28971        0.32933        0.34337        0.35460        0.33344        0.32149        0.26100        0.26332        0.31374        0.34751        0.32057        0.29714        0.28077        0.28667        0.32629        0.30895        0.30820        0.33339        0.34048        0.30907        0.24091        0.28806        0.28542        0.28532        0.32186        0.32286        0.34464        0.34149        0.28122        0.26868        0.29506        0.27005        0.29161        0.27496        0.24810        0.26164        0.25240        0.27989        0.28467        0.27792        0.26478        0.31864        0.32417        0.31159        0.28092        0.29685        0.24128        0.26720        0.25631        0.33089        0.34834        0.22866        0.25135        0.27226        0.24277        0.24549        0.30140        0.23089        0.14140        0.17522        0.23801        0.26953        0.22419        0.13234        0.04498       -0.42271       -0.77299
3.062025 3.023951 2.986122 2.948538 2.911199 2.874104 2.837255 2.800649 2.764289 2.728173 2.692302 2.656675 2.621293 2.586156 2.551264 2.516616 2.482213 2.448055 2.414141 2.380473 2.347048 2.313869 2.280934 2.248244 2.215798 2.183598 2.151642 2.119930 2.088464 2.057242 2.026265 1.995532 1.965044 1.934801 1.904803 1.875049 1.845540 1.816275 1.787256 1.758481 1.729951 1.701665 1.673624 1.645828 1.618276 1.590970 1.563907 1.537090 1.510517 1.484189 1.458106 1.516319 1.702710 1.616700 0.967461 0.685251 0.477972 0.431527 0.323281 0.265356 0.201404 0.021075 0.198754 0.081977 -0.006797 -0.057753 -0.199158 -0.151481 -0.090737 -0.091964 -0.095751 0.011488 0.032365 0.234196 0.150116 0.365096 0.446954 0.479588 0.716928 0.701091 0.710018 0.838983 0.822512 0.854014 0.923177 0.894320 0.939778 0.752471 0.837552 0.841207 0.624544 0.608279 0.457543 0.436635 0.384539 0.211554 0.121646 0.100507 0.207509 0.145702 0.197433 0.111949 0.310713 0.288239 0.458873 0.414920 0.581202 0.642924 0.763853 0.697166 0.663150 0.666733 0.530896 0.505615 0.367706 0.293812 0.118516 0.147050 0.002680 -0.010860 -0.038029 -0.028188 -0.001686 0.032674 0.276900 0.331696 0.389075 0.396754 0.467631 0.520111 0.471089 0.506223 0.400480 0.391001 0.154878 0.070229 0.074850 -0.002773 -0.124958 -0.043473 -0.111548 0.017158 0.136961 0.157050 0.254688 0.257472 0.382459 0.463820 0.353424 0.392352 0.283201 0.126191 0.050396 0.051830 0.015896 0.003967 0.008513 0.109009 0.126952 0.264297 0.237281 0.304926 0.367309 0.242376 0.246283 0.220157 0.131519 0.083177 0.050395 0.026732 0.039877 -0.013589 0.027167 0.186319 0.224621 0.248241 0.283948 0.230993 0.241402 0.147115 0.108744 -0.020397 -0.016737 -0.005118 0.016031 0.010126 0.028728 0.104696 0.191190 0.202494 0.221275 0.136948 0.146447 0.080119 0.059192 -0.060428 -0.016551 -0.005091 0.055567 0.066455 0.075655 0.154521 0.091615 0.162772 0.068899 0.053712 0.046683 0.029134 0.003589 0.007077 0.052782 0.085545 0.130526 0.140083 0.069905 0.129616 0.098793 0.015798 0.009554 0.007406 -0.002799 0.056325 0.060993 0.101506 0.099095 0.066910 0.071195 0.080351 0.035092 0.014899 -0.013247 0.010809 0.059867 0.023488 0.038888 0.079697 0.084916 0.054473 0.033755 0.011074 0.015286 -0.006684 -0.010730 0.014089 0.054606 0.106197 0.060109 0.057858 0.038874 -0.013671 -0.001525 0.016069 0.012690 0.028618 0.105516 0.063034 0.022517 0.044079 0.002513 0.028234 -0.009774 -0.000917 0.023541 0.063392 0.034374 0.045395 0.030839 0.055297 0.025439 -0.005170 0.030676 0.041975 0.043521 0.041164 0.025427 0.000627 -0.008706 0.030087 0.008829 0.049473 0.075184 0.043543 0.027818 0.013380 0.001450 -0.004679 0.010320 0.004269 0.013645 -0.003772 0.080744 0.052605 0.033705 0.044667 0.001756 0.011280 0.006681 -0.003260 0.052434 0.063503 0.083333 0.048089 0.049165 -0.023772 0.010418 0.036871 0.073494 0.036865 0.032480 0.002391 0.005646 0.052067 0.049072 0.036182 0.059066 0.068817 0.050533 -0.025732 0.017133 0.042845 0.019539 0.042375 0.074749 0.076145 0.066400 0.015995 0.006161 0.015926 -0.000972 0.023594 -0.019244 -0.024629 -0.017074 -0.045069 0.000043 -0.004148 0.009762 -0.075275 0.007920 0.009609 -0.003617 -0.042669 0.018949 -0.095742 -0.023326 -0.044131 0.029760 0.068623 -0.111522 -0.026053 0.033007 0.006149 -0.043163 0.044304 0.026427 -0.012823 -0.045077 0.061514 0.235093 0.197293 0.085272 0.042834 -0.679616
0.072396 0.073046 0.074995 0.078242 0.082788 0.088629 0.095764 0.104191 0.113904 0.124899 0.137170 0.150708 0.165502 0.181541 0.198809 0.217287 0.236953 0.257782 0.279743 0.302801 0.326914 0.352036 0.378113 0.405085 0.432884 0.461434 0.490649 0.520435 0.550689 0.581297 0.612134 0.643066 0.673945 0.704614 0.734905 0.764635 0.793615 0.821640 0.848498 0.873965 0.897808 0.919785 0.939649 0.957144 0.972012 0.983992 0.992822 0.998242 0.999997 0.997838 0.991527 0.980841 0.965572 0.945535 0.920567 0.890536 0.855343 0.814925 0.769261 0.718376 0.662344 0.601294 0.535409 0.464935 0.390182 0.311520 0.229393 0.144307 0.056837 0.032374 0.122621 0.213136 0.303096 0.391627 0.477811 0.560695 0.639304 0.712646 0.779732 0.839582 0.891249 0.933830 0.966483 0.988448 0.999060 0.997774 0.984176 0.958006 0.919168 0.867750 0.804034 0.728506 0.641863 0.545016 0.439093 0.325430 0.205565 0.081223 0.045702 0.173175 0.299043 0.421074 0.536996 0.644537 0.741475 0.825686 0.895196 0.948234 0.983282 0.999129 0.994912 0.970164 0.924848 0.859383 0.774665 0.672073 0.553467 0.421170 0.277938 0.126912 0.028436 0.184376 0.337008 0.482354 0.616466 0.735534 0.836008 0.914707 0.968938 0.996601 0.996283 0.967341 0.909963 0.825204 0.715002 0.582165 0.430321 0.263844 0.087746 0.092458 0.270914 0.441615 0.598603 0.736186 0.849153 0.932995 0.984097 0.999924 0.979169 0.921859 0.829421 0.704690 0.551865 0.376402 0.184848 0.015378 0.216255 0.409474 0.586784 0.740348 0.863112 0.949146 0.993970 0.994818 0.950837 0.863214 0.735208 0.572083 0.380939 0.170440 0.049542 0.268375 0.475163 0.659307 0.811052 0.922033 0.985780 0.998133 0.957561 0.865351 0.725653 0.545356 0.333808 0.102385 0.136090 0.368037 0.579880 0.758866 0.893850 0.976041 0.999620 0.962220 0.865196 0.713679 0.516389 0.285203 0.034498 0.219705 0.460742 0.672406 0.840051 0.951663 0.998767 0.977152 0.887312 0.734578 0.528899 0.284282 0.017907 0.251028 0.502681 0.718020 0.880309 0.976457 0.998156 0.942684 0.813306 0.619210 0.374966 0.099516 0.185226 0.456083 0.690498 0.868450 0.974226 0.997891 0.936332 0.793737 0.581461 0.317238 0.023803 0.273001 0.546457 0.771407 0.926601 0.996802 0.974384 0.860288 0.664181 0.403795 0.103437 0.208187 0.500666 0.744855 0.915830 0.995522 0.974753 0.854429 0.645736 0.369265 0.053124 0.269835 0.565382 0.801546 0.952138 0.999781 0.938052 0.772504 0.520370 0.208938 0.127262 0.450218 0.722710 0.912650 0.996978 0.964608 0.818063 0.573537 0.259297 0.087417 0.424723 0.711116 0.910635 0.997485 0.959550 0.800279 0.538635 0.207058 0.152386 0.493262 0.770733 0.947540 0.999143 0.917328 0.711723 0.408926 0.049286 0.318332 0.643108 0.879319 0.992907 0.966568 0.802634 0.523203 0.167417 0.213825 0.565047 0.834265 0.980777 0.981526 0.834963 0.561791 0.202324 0.189245 0.552880 0.831913 0.981963 0.978216 0.819791 0.530429 0.155235 0.246128 0.608785 0.873175 0.994938 0.952609 0.751705 0.424384 0.024614 0.380516 0.721954 0.940535 0.997389 0.881171 0.610629 0.231941 0.188881 0.577291 0.863468 0.994935 0.946493 0.725380 0.370628 0.053501 0.468892 0.797928 0.978067 0.973986 0.784867 0.445252 0.019126 0.411872 0.763967 0.967634 0.981543 0.801341 0.461233 0.027934 0.412151 0.770018 0.972148 0.975878 0.778795 0.420028 0.027091 0.469717 0.814660 0.988138 0.951842 0.711837 0.318094 0.145452 0.578560
1.000000 1.000000 1.000000 1.000000 1.000000 1.000000 1.000000 1.000000 1.000000 1.000000 1.000000 1.000000 1.000000 1.000000 1.000000 1.000000 1.000000 1.000000 1.000000 1.000000 1.000000 1.000000 1.000000 1.000000 1.000000 1.000000 1.000000 1.000000 1.000000 1.000000 1.000000 1.000000 1.000000 1.000000 1.000000 1.000000 1.000000 1.000000 1.000000 1.000000 1.000000 1.000000 1.000000 1.000000 1.000000 1.000000 1.000000 1.000000 1.000000 1.000000 1.000000 1.000000 0.933729 0.933729 0.933729 0.933729 0.933729 0.933729 0.933729 0.933729 0.933729 0.933729 0.933729 0.933729 0.933729 0.933729 0.933729 0.933729 0.933729 0.933729 0.933729 0.933729 0.933729 0.933729 0.933729 0.933729 0.933729 0.933729 0.933729 0.933729 0.933729 0.933729 0.933729 0.933729 0.933729 0.923343 0.924812 0.927753 0.928813 0.928775 0.928325 0.928015 0.928233 0.929940 0.932245 0.948851 0.951011 0.951568 0.952852 0.953101 0.955651 0.953941 0.953789 0.964372 0.963207 0.963891 0.956937 0.958494 0.957586 0.956660 0.957216 0.957445 0.955532 0.953411 0.951744 0.951118 0.950749 0.952506 0.952972 0.952939 0.953515 0.953372 0.953097 0.949745 0.948315 0.949783 0.951818 0.950965 0.956674 0.956505 0.964546 0.965339 0.963934 0.963836 0.964034 0.964230 0.955256 0.949475 0.944398 0.932752 0.923803 0.921514 0.924331 0.926059 0.924943 0.920166 0.919141 0.916781 0.911692 0.910846 0.910315 0.911835 0.907437 0.903807 0.887358 0.886526 0.889141 0.888936 0.886775 0.878269 0.873240 0.873933 0.877049 0.874567 0.871183 0.887248 0.882172 0.887198 0.890329 0.893378 0.897257 0.893526 0.892237 0.888405 0.884865 0.879366 0.880791 0.871617 0.874414 0.869414 0.860418 0.853516 0.856529 0.865641 0.873661 0.881713 0.880781 0.880905 0.880117 0.871724 0.872789 0.863491 0.864383 0.869396 0.875168 0.871678 0.869136 0.873678 0.871862 0.873266 0.876050 0.872711 0.870821 0.862007 0.862463 0.863876 0.880456 0.880576 0.868747 0.859683 0.849930 0.857302 0.860779 0.859888 0.861641 0.852956 0.854676 0.844392 0.831991 0.833922 0.838868 0.833019 0.834196 0.832491 0.836485 0.838942 0.837403 0.832774 0.831471 0.835812 0.811283 0.817927 0.820406 0.814747 0.818986 0.811654 0.804935 0.799632 0.798942 0.795130 0.805947 0.804204 0.771175 0.763490 0.771275 0.752755 0.743324 0.740078 0.741396 0.722574 0.705268 0.675342 0.669942 0.654320 0.655631 0.654426 0.645415 0.631716 0.618310 0.606894 0.621327 0.624940 0.592186 0.592517 0.585766 0.581188 0.576404 0.572275 0.571496 0.579061 0.583974 0.548529 0.543821 0.551735 0.526071 0.523952 0.521833 0.513199 0.485309 0.491753 0.488015 0.508304 0.536867 0.497778 0.491721 0.504661 0.519666 0.531470 0.531470 0.517226 0.495915 0.510102 0.483665 0.465648 0.480917 0.488327 0.478603 0.494541 0.485946 0.516698 0.508446 0.485231 0.510315 0.520756 0.519509 0.522703 0.536758 0.527702 0.530831 0.523028 0.475551 0.485715 0.467335 0.410437 0.410227 0.428976 0.416766 0.416838 0.390599 0.392925 0.366544 0.333876 0.341143 0.336497 0.298510 0.260696 0.264252 0.266164 0.233953 0.204847 0.226545 0.176882 0.169263 0.189190 0.197517 0.186370 0.186653 0.208523 0.208523 0.208523 0.208523 0.208523 0.208523 0.208523 0.208523 0.208523 0.208523 0.208523 0.208523 0.208523 0.208523 0.233927 0.233927 0.233927 0.233927 0.233927 0.233927 0.233927 0.233927 0.233927 0.233927 0.233927 0.233927
0.000000 0.000000 0.000000 0.000000 0.000000 0.000000 0.000000 0.000000 0.000000 0.000000 0.000000 0.000000 0.000000 0.000000 0.000000 0.000000 0.000000 0.000000 0.000000 0.000000 0.000000 0.000000 0.000000 0.000000 0.000000 0.000000 0.000000 0.000000 0.000000 0.000000 0.000000 0.000000 0.000000 0.000000 0.000000 0.000000 0.000000 0.000000 0.000000 0.000000 0.000000 0.000000 0.000000 0.000000 0.000000 0.000000 0.000000 0.000000 0.000000 0.000000 0.000000 0.000000 0.209657 0.209657 0.209657 0.209657 0.209657 0.209657 0.209657 0.209657 0.209657 0.209657 0.209657 0.209657 0.209657 0.209657 0.209657 0.209657 0.209657 0.209657 0.209657 0.209657 0.209657 0.209657 0.209657 0.209657 0.209657 0.209657 0.209657 0.209657 0.209657 0.209657 0.209657 0.209657 0.209657 0.244339 0.244339 0.244339 0.244339 0.244339 0.244339 0.244339 0.244339 0.244339 0.244339 0.244339 0.244339 0.244339 0.244339 0.244339 0.244339 0.244339 0.244339 0.244339 0.244339 0.244339 0.244339 0.244339 0.244339 0.244339 0.260378 0.260378 0.260378 0.260378 0.260378 0.260378 0.260378 0.260378 0.260378 0.260378 0.260378 0.260378 0.260378 0.260378 0.260378 0.260378 0.260378 0.260378 0.260378 0.260378 0.269680 0.269680 0.269680 0.269680 0.269680 0.269680 0.269680 0.269680 0.269680 0.269680 0.269680 0.269680 0.269680 0.269680 0.269680 0.269680 0.269680 0.269680 0.269680 0.269680 0.269680 0.269680 0.269680 0.269680 0.269680 0.269680 0.269680 0.269680 0.269680 0.269680 0.269680 0.269680 0.269680 0.280056 0.280056 0.280056 0.280056 0.280056 0.280056 0.280056 0.280056 0.280056 0.280056 0.280056 0.280056 0.280056 0.280056 0.280056 0.280056 0.280056 0.280056 0.280056 0.280056 0.280056 0.280056 0.280056 0.280056 0.280056 0.280056 0.280056 0.274721 0.274721 0.274721 0.274721 0.274721 0.274721 0.274721 0.274721 0.274721 0.274721 0.274721 0.274721 0.274721 0.285714 0.285714 0.285714 0.285714 0.285714 0.285714 0.285714 0.285714 0.285714 0.285714 0.285714 0.280056 0.280056 0.280056 0.280056 0.280056 0.280056 0.280056 0.280056 0.280056 0.280056 0.280056 0.274721 0.274721 0.274721 0.274721 0.274721 0.274721 0.274721 0.274721 0.274721 0.274721 0.274721 0.280056 0.280056 0.280056 0.280056 0.280056 0.280056 0.280056 0.280056 0.280056 0.280056 0.285714 0.285714 0.285714 0.285714 0.285714 0.285714 0.285714 0.285714 0.285714 0.269680 0.269680 0.269680 0.269680 0.269680 0.269680 0.269680 0.269680 0.269680 0.269680 0.274721 0.274721 0.274721 0.274721 0.274721 0.274721 0.274721 0.274721 0.274721 0.285714 0.285714 0.285714 0.285714 0.285714 0.285714 0.285714 0.285714 0.264906 0.264906 0.264906 0.264906 0.264906 0.264906 0.264906 0.264906 0.264906 0.274721 0.274721 0.274721 0.274721 0.274721 0.274721 0.274721 0.274721 0.269680 0.269680 0.269680 0.269680 0.269680 0.269680 0.269680 0.269680 0.269680 0.269680 0.269680 0.269680 0.269680 0.269680 0.269680 0.269680 0.280056 0.280056 0.280056 0.280056 0.280056 0.280056 0.280056 0.260378 0.260378 0.260378 0.260378 0.260378 0.260378 0.260378 0.260378 0.269680 0.269680 0.269680 0.269680 0.269680 0.269680 0.269680 0.264906 0.264906 0.264906 0.264906 0.264906 0.264906 0.264906 0.264906 0.264906 0.264906 0.264906 0.264906 0.264906 0.264906 0.260378 0.260378 0.260378 0.260378 0.260378 0.260378 0.260378 0.260378 0.260378 0.260378 0.260378 0.260378
