# Output from CTFFind version 4.1.9, run on 2019-11-03 20:03:09
# Input file: stack16_bm3d_averaged_1_10_0_50_half.mrc ; Number of micrographs: 1
# Pixel size: 3.000 Angstroms ; acceleration voltage: 300.0 keV ; spherical aberration: 0.00 mm ; amplitude contrast: 0.07
# Box size: 512 pixels ; min. res.: 30.0 Angstroms ; max. res.: 5.0 Angstroms ; min. def.: 5000.0 um; max. def. 50000.0 um; num. frames averaged: 1
# 6 lines per micrograph: #1 - spatial frequency (1/Angstroms); #2 - 1D rotational average of spectrum (assuming no astigmatism); #3 - 1D rotational average of spectrum; #4 - CTF fit; #5 - cross-correlation between spectrum and CTF fit; #6 - 2sigma of expected cross correlation of noise
0.000000 0.000651 0.001302 0.001953 0.002604 0.003255 0.003906 0.004557 0.005208 0.005859 0.006510 0.007161 0.007812 0.008464 0.009115 0.009766 0.010417 0.011068 0.011719 0.012370 0.013021 0.013672 0.014323 0.014974 0.015625 0.016276 0.016927 0.017578 0.018229 0.018880 0.019531 0.020182 0.020833 0.021484 0.022135 0.022786 0.023438 0.024089 0.024740 0.025391 0.026042 0.026693 0.027344 0.027995 0.028646 0.029297 0.029948 0.030599 0.031250 0.031901 0.032552 0.033203 0.033854 0.034505 0.035156 0.035807 0.036458 0.037109 0.037760 0.038411 0.039062 0.039714 0.040365 0.041016 0.041667 0.042318 0.042969 0.043620 0.044271 0.044922 0.045573 0.046224 0.046875 0.047526 0.048177 0.048828 0.049479 0.050130 0.050781 0.051432 0.052083 0.052734 0.053385 0.054036 0.054688 0.055339 0.055990 0.056641 0.057292 0.057943 0.058594 0.059245 0.059896 0.060547 0.061198 0.061849 0.062500 0.063151 0.063802 0.064453 0.065104 0.065755 0.066406 0.067057 0.067708 0.068359 0.069010 0.069661 0.070312 0.070964 0.071615 0.072266 0.072917 0.073568 0.074219 0.074870 0.075521 0.076172 0.076823 0.077474 0.078125 0.078776 0.079427 0.080078 0.080729 0.081380 0.082031 0.082682 0.083333 0.083984 0.084635 0.085286 0.085938 0.086589 0.087240 0.087891 0.088542 0.089193 0.089844 0.090495 0.091146 0.091797 0.092448 0.093099 0.093750 0.094401 0.095052 0.095703 0.096354 0.097005 0.097656 0.098307 0.098958 0.099609 0.100260 0.100911 0.101562 0.102214 0.102865 0.103516 0.104167 0.104818 0.105469 0.106120 0.106771 0.107422 0.108073 0.108724 0.109375 0.110026 0.110677 0.111328 0.111979 0.112630 0.113281 0.113932 0.114583 0.115234 0.115885 0.116536 0.117188 0.117839 0.118490 0.119141 0.119792 0.120443 0.121094 0.121745 0.122396 0.123047 0.123698 0.124349 0.125000 0.125651 0.126302 0.126953 0.127604 0.128255 0.128906 0.129557 0.130208 0.130859 0.131510 0.132161 0.132812 0.133464 0.134115 0.134766 0.135417 0.136068 0.136719 0.137370 0.138021 0.138672 0.139323 0.139974 0.140625 0.141276 0.141927 0.142578 0.143229 0.143880 0.144531 0.145182 0.145833 0.146484 0.147135 0.147786 0.148438 0.149089 0.149740 0.150391 0.151042 0.151693 0.152344 0.152995 0.153646 0.154297 0.154948 0.155599 0.156250 0.156901 0.157552 0.158203 0.158854 0.159505 0.160156 0.160807 0.161458 0.162109 0.162760 0.163411 0.164062 0.164714 0.165365 0.166016 0.166667 0.167318 0.167969 0.168620 0.169271 0.169922 0.170573 0.171224 0.171875 0.172526 0.173177 0.173828 0.174479 0.175130 0.175781 0.176432 0.177083 0.177734 0.178385 0.179036 0.179688 0.180339 0.180990 0.181641 0.182292 0.182943 0.183594 0.184245 0.184896 0.185547 0.186198 0.186849 0.187500 0.188151 0.188802 0.189453 0.190104 0.190755 0.191406 0.192057 0.192708 0.193359 0.194010 0.194661 0.195312 0.195964 0.196615 0.197266 0.197917 0.198568 0.199219 0.199870 0.200521 0.201172 0.201823 0.202474 0.203125 0.203776 0.204427 0.205078 0.205729 0.206380 0.207031 0.207682 0.208333 0.208984 0.209635 0.210286 0.210938 0.211589 0.212240 0.212891 0.213542 0.214193 0.214844 0.215495 0.216146 0.216797 0.217448 0.218099 0.218750 0.219401 0.220052 0.220703 0.221354 0.222005 0.222656 0.223307 0.223958 0.224609 0.225260 0.225911 0.226562 0.227214 0.227865 0.228516 0.229167 0.229818 0.230469 0.231120 0.231771 0.232422 0.233073 0.233724 0.234375 0.235026 0.235677
       0.37332        0.37332        0.37332        0.37332        0.37332        0.37332        0.37332        0.37332        0.37332        0.37332        0.37332        0.37332        0.37332        0.37332        0.37332        0.37332        0.37332        0.37332        0.37332        0.37332        0.37332        0.37332        0.37332        0.37332        0.37332        0.37332        0.37332        0.37332        0.37332        0.37332        0.37332        0.37332        0.37332        0.37332        0.37332        0.37332        0.37332        0.37332        0.37332        0.37332        0.37332        0.37332        0.37332        0.37332        0.37332        0.37332        0.37332        0.37332        0.37332        0.37332        0.37332        0.44772        0.56358        0.34994       -0.21563       -0.43378       -0.52055       -0.62879       -0.69258       -0.69298       -0.78132       -0.86325       -0.64967       -0.79760       -0.78814       -0.91960       -0.96401       -0.84564       -0.80676       -0.77089       -0.67206       -0.60482       -0.51332       -0.42335       -0.36174       -0.13620       -0.03609        0.07688        0.28994        0.27719        0.33988        0.38315        0.42127        0.55466        0.55553        0.58851        0.54427        0.49099        0.51911        0.55642        0.48195        0.35079        0.24533        0.20862        0.13226        0.05337        0.03463        0.02386        0.09337        0.06143        0.11116        0.08388        0.20280        0.22213        0.42546        0.47517        0.55369        0.66022        0.68431        0.71591        0.65544        0.61901        0.57270        0.46520        0.40572        0.31059        0.24430        0.24506        0.13374        0.15166        0.16401        0.12017        0.12077        0.32124        0.44047        0.54683        0.54447        0.56666        0.61006        0.59592        0.57372        0.59761        0.58109        0.49053        0.33632        0.28970        0.29147        0.19803        0.12156        0.20222        0.25756        0.31662        0.37215        0.44754        0.49398        0.54746        0.61306        0.56286        0.51163        0.53379        0.37782        0.32108        0.29065        0.20579        0.24901        0.27711        0.31198        0.30825        0.36280        0.45207        0.48424        0.51048        0.46855        0.45970        0.50748        0.42000        0.34336        0.30862        0.29068        0.26017        0.24296        0.25987        0.36389        0.47328        0.45756        0.49484        0.56020        0.48047        0.43749        0.37831        0.35276        0.30649        0.30688        0.29190        0.31553        0.39590        0.40362        0.46763        0.48479        0.46349        0.49008        0.40648        0.39695        0.36608        0.30065        0.28021        0.28490        0.37313        0.39665        0.37887        0.40184        0.44521        0.46414        0.41387        0.35622        0.34746        0.37797        0.34550        0.31384        0.32504        0.38640        0.40134        0.42109        0.40833        0.42091        0.44269        0.42812        0.35032        0.31398        0.32476        0.35921        0.41971        0.39290        0.42194        0.37522        0.38872        0.40871        0.36615        0.36922        0.34101        0.33075        0.35983        0.37397        0.35604        0.39567        0.40569        0.35166        0.37001        0.35085        0.33789        0.33290        0.34503        0.35885        0.34724        0.38859        0.40058        0.38861        0.32864        0.32720        0.30989        0.35323        0.34302        0.33787        0.39071        0.37680        0.35866        0.34012        0.33051        0.31838        0.30029        0.34500        0.36199        0.38404        0.38786        0.37736        0.35052        0.36696        0.39152        0.36460        0.36868        0.36659        0.34209        0.35196        0.31573        0.33688        0.33306        0.33833        0.30452        0.34914        0.37586        0.34384        0.38351        0.34324        0.36215        0.37305        0.35681        0.33936        0.36248        0.39931        0.36724        0.39745        0.35683        0.33585        0.35418        0.33886        0.35611        0.35416        0.39263        0.33703        0.34204        0.32309        0.32618        0.29600        0.31385        0.38904        0.34258        0.33037        0.30625        0.28819        0.29608        0.37705        0.32365        0.30983        0.35326        0.33368        0.29926        0.26733        0.30975        0.30337        0.33244        0.33592        0.36910        0.36164        0.34989        0.34116        0.28628        0.31997        0.32543        0.32175        0.33274        0.36463        0.32554        0.24669        0.32092        0.33831        0.35864        0.31142        0.31672        0.26623        0.31740        0.28754        0.27055        0.29939        0.25854        0.32055        0.32226        0.31282        0.29345        0.36043        0.30506        0.25935        0.26412        0.33105        0.25020        0.15407        0.11739        0.19166        0.36299        0.34396        0.21550        0.19908       -0.30403       -0.57716
3.350339 3.307235 3.264413 3.221874 3.179617 3.137641 3.095948 3.054537 3.013408 2.972561 2.931996 2.891713 2.851713 2.811994 2.772557 2.733403 2.694530 2.655940 2.617632 2.579606 2.541862 2.504400 2.467220 2.430322 2.393706 2.357373 2.321321 2.285552 2.250064 2.214859 2.179936 2.145295 2.110936 2.076859 2.043064 2.009551 1.976320 1.943371 1.910705 1.878320 1.846218 1.814398 1.782860 1.751603 1.720629 1.689937 1.659527 1.629400 1.599554 1.569990 1.540709 1.579103 1.632266 1.571184 0.847848 0.616069 0.476969 0.403429 0.304903 0.236870 0.208706 -0.043322 0.226105 0.094515 -0.017308 -0.087806 -0.230346 -0.134163 -0.038156 -0.093788 -0.060606 0.047512 0.051913 0.245327 0.114774 0.366374 0.469039 0.516552 0.788627 0.680806 0.710778 0.819276 0.795501 0.860942 0.921061 0.857343 0.881976 0.728472 0.777202 0.846542 0.701323 0.603330 0.429287 0.431422 0.312053 0.200207 0.191708 0.107659 0.207283 0.119826 0.203841 0.103623 0.213074 0.222189 0.421092 0.387696 0.550139 0.585355 0.592074 0.702424 0.591805 0.546046 0.450240 0.406360 0.267885 0.250136 0.076811 0.135214 -0.040629 0.027956 -0.030090 -0.054841 -0.079434 0.007871 0.236989 0.277456 0.330983 0.264774 0.353479 0.357136 0.378835 0.358528 0.339932 0.304756 0.102107 0.049995 0.053518 -0.037270 -0.153333 -0.081055 -0.066693 0.022834 0.058416 0.126979 0.186003 0.204837 0.297599 0.388838 0.251044 0.352539 0.206790 0.147180 0.055794 0.023329 -0.001107 0.055628 0.064942 0.080760 0.115006 0.161079 0.228175 0.288737 0.253246 0.197066 0.245419 0.216987 0.102752 0.035894 0.058778 0.014742 0.003308 -0.047010 0.027773 0.159971 0.201562 0.175312 0.281417 0.184906 0.196875 0.072541 0.063383 0.030645 -0.002410 -0.014991 -0.009111 0.049115 0.099452 0.111388 0.160491 0.138166 0.226724 0.147724 0.078276 0.097964 0.031490 -0.040722 -0.010125 0.036271 0.080858 0.066257 0.059559 0.145984 0.105804 0.153808 0.042923 0.039871 0.048704 0.045966 0.027197 -0.009987 0.041655 0.061460 0.092673 0.098769 0.080196 0.116758 0.114996 0.077531 0.006441 -0.016305 0.004804 0.069293 0.090515 0.085996 0.081505 0.053356 0.089641 0.062756 0.038689 0.057480 -0.004164 0.006571 0.071058 0.039880 0.041274 0.087666 0.088022 0.044376 0.067883 0.025271 0.017429 0.021987 0.055869 0.031843 0.033122 0.078085 0.083887 0.049741 -0.002033 0.001842 -0.019583 0.051840 0.005334 0.014659 0.074824 0.041941 0.009038 0.020995 -0.016049 -0.002405 -0.029775 0.015094 0.038365 0.063934 0.037768 0.038994 0.016258 0.011854 0.063716 0.018061 0.027814 0.019210 -0.005634 0.018818 -0.038132 -0.035372 -0.037144 -0.011077 -0.070688 0.017620 0.021211 -0.010362 -0.008894 0.002224 -0.006155 0.025265 -0.001366 -0.012513 0.019652 0.036938 0.012561 0.052068 -0.006364 0.007734 0.017010 -0.007951 0.019001 0.000710 0.095489 0.020062 0.010250 0.004860 -0.005278 -0.022222 0.013800 0.069345 0.023100 0.028979 -0.028096 -0.020749 -0.018918 0.078630 0.006076 -0.025057 0.070777 0.045552 -0.009819 -0.007732 -0.002945 0.027225 0.043206 0.041060 0.117032 0.040647 0.067864 0.046417 -0.005763 0.040137 0.025816 0.000568 0.040158 0.066044 0.010354 -0.056057 0.021949 0.045088 0.056979 -0.011447 0.007998 -0.036403 -0.006344 -0.010778 -0.043623 0.013776 -0.067876 0.053125 0.013811 0.049356 -0.076336 0.080227 0.048002 0.007703 -0.023528 0.110176 0.018355 -0.054969 -0.155934 0.166435 0.337586 0.335827 0.135171 0.199052 -0.563199
0.072396 0.073047 0.074998 0.078250 0.082801 0.088650 0.095794 0.104232 0.113957 0.124967 0.137253 0.150808 0.165621 0.181680 0.198969 0.217471 0.237162 0.258016 0.280004 0.303089 0.327230 0.352381 0.378488 0.405490 0.433319 0.461898 0.491142 0.520956 0.551237 0.581870 0.612730 0.643682 0.674578 0.705261 0.735561 0.765296 0.794275 0.822293 0.849138 0.874583 0.898397 0.920337 0.940153 0.957591 0.972392 0.984293 0.993033 0.998350 0.999990 0.997703 0.991253 0.980415 0.964981 0.944767 0.919610 0.889381 0.853979 0.813345 0.767458 0.716345 0.660083 0.598801 0.532687 0.461990 0.387021 0.308156 0.225841 0.140585 0.052970 0.036359 0.126693 0.217259 0.307230 0.395729 0.481834 0.564590 0.643016 0.716121 0.782912 0.842410 0.893667 0.935782 0.967914 0.989306 0.999299 0.997352 0.983060 0.956169 0.916594 0.864434 0.799982 0.723738 0.636411 0.538929 0.432432 0.318273 0.198005 0.073367 0.053736 0.181253 0.307024 0.428807 0.544326 0.651304 0.747522 0.830859 0.899350 0.951235 0.985014 0.999495 0.993840 0.967611 0.920802 0.853866 0.767736 0.663830 0.544047 0.410745 0.266717 0.115140 0.040488 0.196413 0.348717 0.493414 0.626553 0.744336 0.843229 0.920082 0.972240 0.997652 0.994964 0.963599 0.903815 0.816746 0.704408 0.569688 0.416288 0.248650 0.071848 0.108557 0.286678 0.456492 0.612044 0.747667 0.858197 0.939187 0.987111 0.999538 0.975280 0.914495 0.818747 0.691013 0.535627 0.358168 0.165293 0.035492 0.236108 0.428219 0.603585 0.754415 0.873740 0.955756 0.996140 0.992309 0.943620 0.851480 0.719371 0.552773 0.358979 0.146823 0.073700 0.291882 0.496816 0.677944 0.825621 0.931657 0.989807 0.996187 0.949576 0.851593 0.706719 0.522155 0.307533 0.074448 0.164123 0.394532 0.603239 0.777610 0.906728 0.982112 0.998331 0.953454 0.849306 0.691484 0.489145 0.254541 0.002332 0.251291 0.489629 0.696580 0.857751 0.961509 0.999880 0.969236 0.870704 0.710248 0.498409 0.249700 0.018323 0.286264 0.534258 0.743467 0.897538 0.983946 0.995094 0.929062 0.789957 0.587770 0.337782 0.059479 0.224896 0.492092 0.719757 0.888340 0.982842 0.994242 0.920461 0.766759 0.545503 0.275296 0.020498 0.315706 0.583641 0.799532 0.942865 0.999431 0.962838 0.835363 0.627983 0.359586 0.055353 0.255501 0.542503 0.776927 0.934706 0.999014 0.962189 0.826779 0.605566 0.320537 0.000807 0.320240 0.608430 0.832431 0.967256 0.997159 0.917632 0.736216 0.471984 0.153698 0.183182 0.500401 0.761227 0.934783 0.999812 0.947440 0.782566 0.523636 0.200771 0.147588 0.479171 0.752989 0.934474 0.999964 0.939964 0.760722 0.483824 0.143808 0.215991 0.548881 0.810877 0.966591 0.994172 0.888581 0.662687 0.345952 0.019197 0.382920 0.694709 0.910453 0.998812 0.945969 0.758032 0.460635 0.095675 0.284392 0.624015 0.872682 0.992565 0.964463 0.791153 0.497462 0.127004 0.264111 0.615652 0.872577 0.993757 0.958801 0.771755 0.461018 0.075312 0.323744 0.671367 0.910184 0.999836 0.924072 0.693991 0.346767 0.060042 0.457849 0.778570 0.966313 0.987368 0.836553 0.538741 0.145095 0.275421 0.648004 0.905352 0.999950 0.913167 0.659260 0.283431 0.145869 0.549249 0.850974 0.993363 0.948064 0.722078 0.357147 0.077612 0.498518 0.823413 0.987765 0.957807 0.737829 0.370109 0.072843 0.502285 0.830984 0.991039 0.948201 0.709632 0.323205 0.131661 0.560101 0.871515 0.998875 0.913522 0.632030 0.213526 0.252350 0.664410
1.000000 1.000000 1.000000 1.000000 1.000000 1.000000 1.000000 1.000000 1.000000 1.000000 1.000000 1.000000 1.000000 1.000000 1.000000 1.000000 1.000000 1.000000 1.000000 1.000000 1.000000 1.000000 1.000000 1.000000 1.000000 1.000000 1.000000 1.000000 1.000000 1.000000 1.000000 1.000000 1.000000 1.000000 1.000000 1.000000 1.000000 1.000000 1.000000 1.000000 1.000000 1.000000 1.000000 1.000000 1.000000 1.000000 1.000000 1.000000 1.000000 1.000000 1.000000 1.000000 0.923645 0.923645 0.923645 0.923645 0.923645 0.923645 0.923645 0.923645 0.923645 0.923645 0.923645 0.923645 0.923645 0.923645 0.923645 0.923645 0.923645 0.923645 0.923645 0.923645 0.923645 0.923645 0.923645 0.923645 0.923645 0.923645 0.923645 0.923645 0.923645 0.923645 0.923645 0.923645 0.923645 0.913420 0.911504 0.912668 0.911235 0.909757 0.909170 0.908780 0.909822 0.911430 0.913499 0.935118 0.936949 0.938225 0.939550 0.941125 0.943361 0.941176 0.945130 0.951140 0.950015 0.951332 0.951581 0.952151 0.951517 0.950792 0.953055 0.952255 0.950585 0.948595 0.946924 0.946371 0.946146 0.949786 0.950270 0.950439 0.951027 0.950976 0.951694 0.949589 0.947957 0.950250 0.931731 0.929965 0.934826 0.932210 0.933114 0.933083 0.933745 0.934655 0.935071 0.935352 0.931942 0.931380 0.930229 0.924495 0.917022 0.917337 0.919426 0.921618 0.918997 0.917920 0.919160 0.919971 0.917621 0.920568 0.913288 0.910773 0.886339 0.873521 0.867877 0.868636 0.873715 0.877705 0.875486 0.871625 0.865164 0.862784 0.861091 0.862626 0.852602 0.854270 0.853583 0.847250 0.850019 0.852796 0.858234 0.857659 0.853980 0.848845 0.842087 0.827650 0.827687 0.827930 0.831671 0.812150 0.795810 0.828736 0.823073 0.819561 0.826932 0.828717 0.826550 0.824970 0.825337 0.823318 0.815364 0.806329 0.810035 0.819177 0.823639 0.815974 0.811399 0.813202 0.813030 0.808881 0.813806 0.816326 0.813062 0.803887 0.819276 0.800803 0.815787 0.816269 0.793967 0.779494 0.766621 0.773309 0.780161 0.768181 0.768979 0.781067 0.780907 0.777324 0.767824 0.740875 0.748234 0.746283 0.738539 0.729835 0.736186 0.728337 0.727548 0.727558 0.732085 0.731622 0.709432 0.723497 0.729991 0.730506 0.741326 0.742092 0.734055 0.737328 0.742416 0.729399 0.724375 0.705684 0.708198 0.641580 0.635080 0.613939 0.609671 0.605282 0.549700 0.550799 0.534536 0.518866 0.517582 0.484749 0.526315 0.426995 0.420835 0.437360 0.377134 0.372066 0.392046 0.393045 0.408860 0.381025 0.379751 0.386958 0.363205 0.334870 0.311196 0.334826 0.343000 0.335345 0.337291 0.307369 0.300310 0.249787 0.267947 0.272293 0.298437 0.296288 0.281951 0.300321 0.353636 0.287939 0.274571 0.252452 0.278799 0.282167 0.267291 0.257923 0.284908 0.229149 0.247795 0.252390 0.253938 0.311022 0.336131 0.337330 0.333041 0.341265 0.370703 0.337998 0.344631 0.358364 0.350153 0.367402 0.370306 0.383351 0.386059 0.430908 0.454346 0.460666 0.471356 0.487221 0.487363 0.464907 0.471842 0.427625 0.452994 0.430300 0.439094 0.400229 0.385957 0.383848 0.348615 0.305548 0.306430 0.301918 0.256780 0.256600 0.245890 0.212379 0.211931 0.224358 0.234590 0.204205 0.210988 0.223314 0.223314 0.223314 0.223314 0.223314 0.223314 0.223314 0.223314 0.223314 0.223314 0.223314 0.223314 0.223314 0.223314 0.243496 0.243496 0.243496 0.243496 0.243496 0.243496 0.243496 0.243496 0.243496 0.243496 0.243496 0.243496
0.000000 0.000000 0.000000 0.000000 0.000000 0.000000 0.000000 0.000000 0.000000 0.000000 0.000000 0.000000 0.000000 0.000000 0.000000 0.000000 0.000000 0.000000 2.000000 0.000000 0.000000 0.000000 0.000000 0.000000 0.000000 0.000000 0.000000 0.000000 0.000000 0.000000 0.000000 0.000000 0.000000 0.000000 0.000000 0.000000 0.000000 0.000000 0.000000 0.000000 0.000000 0.000000 0.000000 0.000000 0.000000 0.000000 0.000000 0.000000 0.000000 0.000000 0.000000 0.000000 0.209657 0.209657 0.209657 0.209657 0.209657 0.209657 0.209657 0.209657 0.209657 0.209657 0.209657 0.209657 0.209657 0.209657 0.209657 0.209657 0.209657 0.209657 0.209657 0.209657 0.209657 0.209657 0.209657 0.209657 0.209657 0.209657 0.209657 0.209657 0.209657 0.209657 0.209657 0.209657 0.209657 0.244339 0.244339 0.244339 0.244339 0.244339 0.244339 0.244339 0.244339 0.244339 0.244339 0.244339 0.244339 0.244339 0.244339 0.244339 0.244339 0.244339 0.244339 0.244339 0.244339 0.244339 0.244339 0.244339 0.244339 0.244339 0.260378 0.260378 0.260378 0.260378 0.260378 0.260378 0.260378 0.260378 0.260378 0.260378 0.260378 0.260378 0.260378 0.260378 0.260378 0.260378 0.260378 0.260378 0.260378 0.260378 0.269680 0.269680 0.269680 0.269680 0.269680 0.269680 0.269680 0.269680 0.269680 0.269680 0.269680 0.269680 0.269680 0.269680 0.269680 0.269680 0.269680 0.269680 0.269680 0.269680 0.269680 0.269680 0.269680 0.269680 0.269680 0.269680 0.269680 0.269680 0.269680 0.269680 0.269680 0.269680 0.269680 0.280056 0.280056 0.280056 0.280056 0.280056 0.280056 0.280056 0.280056 0.280056 0.280056 0.280056 0.280056 0.280056 0.280056 0.280056 0.280056 0.280056 0.280056 0.280056 0.280056 0.280056 0.280056 0.280056 0.280056 0.280056 0.280056 0.280056 0.274721 0.274721 0.274721 0.274721 0.274721 0.274721 0.274721 0.274721 0.274721 0.274721 0.274721 0.274721 0.274721 0.285714 0.285714 0.285714 0.285714 0.285714 0.285714 0.285714 0.285714 0.285714 0.285714 0.285714 0.280056 0.280056 0.280056 0.280056 0.280056 0.280056 0.280056 0.280056 0.280056 0.280056 0.280056 0.274721 0.274721 0.274721 0.274721 0.274721 0.274721 0.274721 0.274721 0.274721 0.274721 0.274721 0.280056 0.280056 0.280056 0.280056 0.280056 0.280056 0.280056 0.280056 0.280056 0.280056 0.285714 0.285714 0.285714 0.285714 0.285714 0.285714 0.285714 0.285714 0.285714 0.269680 0.269680 0.269680 0.269680 0.269680 0.269680 0.269680 0.269680 0.269680 0.269680 0.274721 0.274721 0.274721 0.274721 0.274721 0.274721 0.274721 0.274721 0.274721 0.285714 0.285714 0.285714 0.285714 0.285714 0.285714 0.285714 0.285714 0.264906 0.264906 0.264906 0.264906 0.264906 0.264906 0.264906 0.264906 0.264906 0.274721 0.274721 0.274721 0.274721 0.274721 0.274721 0.274721 0.274721 0.269680 0.269680 0.269680 0.269680 0.269680 0.269680 0.269680 0.269680 0.269680 0.269680 0.269680 0.269680 0.269680 0.269680 0.269680 0.269680 0.280056 0.280056 0.280056 0.280056 0.280056 0.280056 0.280056 0.260378 0.260378 0.260378 0.260378 0.260378 0.260378 0.260378 0.260378 0.269680 0.269680 0.269680 0.269680 0.269680 0.269680 0.269680 0.264906 0.264906 0.264906 0.264906 0.264906 0.264906 0.264906 0.264906 0.264906 0.264906 0.264906 0.264906 0.264906 0.264906 0.260378 0.260378 0.260378 0.260378 0.260378 0.260378 0.260378 0.260378 0.260378 0.260378 0.260378 0.260378
