# Output from CTFFind version 4.1.9, run on 2019-11-03 19:02:22
# Input file: stack16_bm3d_averaged_1_3.25_0_2500_half.mrc ; Number of micrographs: 1
# Pixel size: 3.000 Angstroms ; acceleration voltage: 300.0 keV ; spherical aberration: 0.00 mm ; amplitude contrast: 0.07
# Box size: 512 pixels ; min. res.: 30.0 Angstroms ; max. res.: 5.0 Angstroms ; min. def.: 5000.0 um; max. def. 50000.0 um; num. frames averaged: 1
# 6 lines per micrograph: #1 - spatial frequency (1/Angstroms); #2 - 1D rotational average of spectrum (assuming no astigmatism); #3 - 1D rotational average of spectrum; #4 - CTF fit; #5 - cross-correlation between spectrum and CTF fit; #6 - 2sigma of expected cross correlation of noise
0.000000 0.000651 0.001302 0.001953 0.002604 0.003255 0.003906 0.004557 0.005208 0.005859 0.006510 0.007161 0.007812 0.008464 0.009115 0.009766 0.010417 0.011068 0.011719 0.012370 0.013021 0.013672 0.014323 0.014974 0.015625 0.016276 0.016927 0.017578 0.018229 0.018880 0.019531 0.020182 0.020833 0.021484 0.022135 0.022786 0.023438 0.024089 0.024740 0.025391 0.026042 0.026693 0.027344 0.027995 0.028646 0.029297 0.029948 0.030599 0.031250 0.031901 0.032552 0.033203 0.033854 0.034505 0.035156 0.035807 0.036458 0.037109 0.037760 0.038411 0.039062 0.039714 0.040365 0.041016 0.041667 0.042318 0.042969 0.043620 0.044271 0.044922 0.045573 0.046224 0.046875 0.047526 0.048177 0.048828 0.049479 0.050130 0.050781 0.051432 0.052083 0.052734 0.053385 0.054036 0.054688 0.055339 0.055990 0.056641 0.057292 0.057943 0.058594 0.059245 0.059896 0.060547 0.061198 0.061849 0.062500 0.063151 0.063802 0.064453 0.065104 0.065755 0.066406 0.067057 0.067708 0.068359 0.069010 0.069661 0.070312 0.070964 0.071615 0.072266 0.072917 0.073568 0.074219 0.074870 0.075521 0.076172 0.076823 0.077474 0.078125 0.078776 0.079427 0.080078 0.080729 0.081380 0.082031 0.082682 0.083333 0.083984 0.084635 0.085286 0.085938 0.086589 0.087240 0.087891 0.088542 0.089193 0.089844 0.090495 0.091146 0.091797 0.092448 0.093099 0.093750 0.094401 0.095052 0.095703 0.096354 0.097005 0.097656 0.098307 0.098958 0.099609 0.100260 0.100911 0.101562 0.102214 0.102865 0.103516 0.104167 0.104818 0.105469 0.106120 0.106771 0.107422 0.108073 0.108724 0.109375 0.110026 0.110677 0.111328 0.111979 0.112630 0.113281 0.113932 0.114583 0.115234 0.115885 0.116536 0.117188 0.117839 0.118490 0.119141 0.119792 0.120443 0.121094 0.121745 0.122396 0.123047 0.123698 0.124349 0.125000 0.125651 0.126302 0.126953 0.127604 0.128255 0.128906 0.129557 0.130208 0.130859 0.131510 0.132161 0.132812 0.133464 0.134115 0.134766 0.135417 0.136068 0.136719 0.137370 0.138021 0.138672 0.139323 0.139974 0.140625 0.141276 0.141927 0.142578 0.143229 0.143880 0.144531 0.145182 0.145833 0.146484 0.147135 0.147786 0.148438 0.149089 0.149740 0.150391 0.151042 0.151693 0.152344 0.152995 0.153646 0.154297 0.154948 0.155599 0.156250 0.156901 0.157552 0.158203 0.158854 0.159505 0.160156 0.160807 0.161458 0.162109 0.162760 0.163411 0.164062 0.164714 0.165365 0.166016 0.166667 0.167318 0.167969 0.168620 0.169271 0.169922 0.170573 0.171224 0.171875 0.172526 0.173177 0.173828 0.174479 0.175130 0.175781 0.176432 0.177083 0.177734 0.178385 0.179036 0.179688 0.180339 0.180990 0.181641 0.182292 0.182943 0.183594 0.184245 0.184896 0.185547 0.186198 0.186849 0.187500 0.188151 0.188802 0.189453 0.190104 0.190755 0.191406 0.192057 0.192708 0.193359 0.194010 0.194661 0.195312 0.195964 0.196615 0.197266 0.197917 0.198568 0.199219 0.199870 0.200521 0.201172 0.201823 0.202474 0.203125 0.203776 0.204427 0.205078 0.205729 0.206380 0.207031 0.207682 0.208333 0.208984 0.209635 0.210286 0.210938 0.211589 0.212240 0.212891 0.213542 0.214193 0.214844 0.215495 0.216146 0.216797 0.217448 0.218099 0.218750 0.219401 0.220052 0.220703 0.221354 0.222005 0.222656 0.223307 0.223958 0.224609 0.225260 0.225911 0.226562 0.227214 0.227865 0.228516 0.229167 0.229818 0.230469 0.231120 0.231771 0.232422 0.233073 0.233724 0.234375 0.235026 0.235677
       0.33416        0.33416        0.33416        0.33416        0.33416        0.33416        0.33416        0.33416        0.33416        0.33416        0.33416        0.33416        0.33416        0.33416        0.33416        0.33416        0.33416        0.33416        0.33416        0.33416        0.33416        0.33416        0.33416        0.33416        0.33416        0.33416        0.33416        0.33416        0.33416        0.33416        0.33416        0.33416        0.33416        0.33416        0.33416        0.33416        0.33416        0.33416        0.33416        0.33416        0.33416        0.33416        0.33416        0.33416        0.33416        0.33416        0.33416        0.33416        0.33416        0.33416        0.33416        0.43828        0.60583        0.39475       -0.14448       -0.44192       -0.56995       -0.66052       -0.73658       -0.76030       -0.89351       -0.92980       -0.74250       -0.92133       -0.87098       -1.01792       -1.07002       -0.95704       -0.91632       -0.84079       -0.78843       -0.69252       -0.60701       -0.50971       -0.42936       -0.22698       -0.10559       -0.01796        0.20369        0.22554        0.30438        0.36791        0.39842        0.48818        0.56051        0.58946        0.56397        0.49229        0.53762        0.49103        0.40584        0.31715        0.18076        0.17472        0.11409       -0.06102       -0.08320       -0.06876        0.01998       -0.01362        0.02368        0.02720        0.15254        0.19298        0.39831        0.46737        0.56855        0.68045        0.75539        0.72328        0.67284        0.64559        0.55313        0.46360        0.37324        0.27229        0.19769        0.18101        0.07752        0.01881       -0.00037        0.03302        0.07926        0.27189        0.40224        0.49928        0.55640        0.59949        0.67517        0.63801        0.64713        0.62747        0.58035        0.47508        0.27509        0.24961        0.19927        0.11343        0.05388        0.09419        0.11783        0.25874        0.34380        0.41059        0.47654        0.54179        0.63793        0.58470        0.52388        0.49898        0.37241        0.20728        0.21080        0.15498        0.12003        0.15231        0.21969        0.25753        0.33627        0.42422        0.42832        0.52498        0.47099        0.45526        0.45692        0.37540        0.31606        0.26661        0.20764        0.20518        0.21507        0.21863        0.30365        0.42713        0.45453        0.48295        0.53613        0.47488        0.43720        0.37373        0.29796        0.23393        0.22202        0.23989        0.25794        0.28255        0.32164        0.42707        0.48350        0.47200        0.45574        0.37159        0.36999        0.35766        0.21793        0.23383        0.26243        0.29174        0.34715        0.35732        0.40661        0.43073        0.43263        0.37486        0.35087        0.30634        0.32237        0.26821        0.25651        0.28091        0.32961        0.38815        0.40260        0.39614        0.37307        0.39757        0.35398        0.28628        0.28541        0.28215        0.30651        0.36071        0.34525        0.41048        0.34737        0.37295        0.37347        0.32540        0.30719        0.26882        0.28911        0.33054        0.33033        0.32568        0.33447        0.36777        0.32979        0.35735        0.29196        0.30623        0.25847        0.27810        0.28858        0.33976        0.38535        0.36169        0.34196        0.30100        0.26168        0.26053        0.29125        0.27186        0.31775        0.35862        0.37227        0.33463        0.30921        0.28807        0.29447        0.29694        0.28499        0.29949        0.34168        0.33852        0.31113        0.28829        0.33305        0.30275        0.29118        0.31075        0.30926        0.31098        0.34461        0.31140        0.31227        0.28165        0.29471        0.29971        0.31849        0.40092        0.32454        0.36055        0.30444        0.30484        0.29267        0.30430        0.29117        0.28176        0.28607        0.33181        0.33732        0.29723        0.30183        0.28491        0.29079        0.30408        0.31631        0.31461        0.34496        0.35606        0.30872        0.29987        0.28799        0.24631        0.31675        0.33375        0.30721        0.29045        0.26409        0.28185        0.32211        0.32665        0.30128        0.29481        0.31531        0.30497        0.22954        0.28787        0.29964        0.27634        0.32230        0.28708        0.34014        0.37456        0.28530        0.26334        0.25229        0.27493        0.28935        0.28008        0.27217        0.24265        0.25275        0.29698        0.30673        0.28248        0.24318        0.33767        0.31814        0.27337        0.23674        0.20706        0.23833        0.22533        0.23189        0.27456        0.35792        0.25238        0.22804        0.26056        0.25019        0.19026        0.28612        0.23868        0.20232        0.16529        0.24666        0.31624        0.27728        0.07157        0.12202       -0.38386       -0.72949
2.894575 2.858930 2.823514 2.788325 2.753363 2.718630 2.684124 2.649846 2.615796 2.581974 2.548379 2.515012 2.481873 2.448962 2.416278 2.383822 2.351594 2.319594 2.287822 2.256277 2.224960 2.193871 2.163010 2.132376 2.101971 2.071793 2.041842 2.012120 1.982625 1.953358 1.924319 1.895508 1.866924 1.838569 1.810441 1.782541 1.754868 1.727423 1.700207 1.673218 1.646456 1.619923 1.593617 1.567539 1.541689 1.516066 1.490672 1.465505 1.440566 1.415854 1.391371 1.431570 1.558783 1.505059 0.881242 0.587000 0.420968 0.360824 0.275274 0.197071 0.125041 -0.060391 0.163499 0.023058 -0.065070 -0.115295 -0.246852 -0.175012 -0.098635 -0.094754 -0.099598 0.018324 0.024240 0.192400 0.108632 0.321472 0.433550 0.448263 0.693783 0.672070 0.669435 0.812884 0.784550 0.803413 0.920371 0.860207 0.909609 0.730668 0.822388 0.835862 0.635935 0.580138 0.451599 0.413261 0.390591 0.177758 0.146255 0.113294 0.216784 0.135337 0.206772 0.101978 0.273937 0.254272 0.465007 0.423691 0.611796 0.633116 0.754435 0.748344 0.636331 0.642917 0.503597 0.455178 0.324937 0.305564 0.134391 0.185759 0.015458 -0.003924 -0.046034 -0.052413 -0.009416 0.050020 0.281361 0.338946 0.402502 0.356357 0.480994 0.498211 0.494261 0.475803 0.391822 0.397091 0.144708 0.117070 0.068703 0.015580 -0.133322 -0.024051 -0.093176 0.030467 0.149022 0.170767 0.273274 0.251215 0.377091 0.473561 0.364092 0.394089 0.310282 0.145100 0.050880 0.075828 0.027546 0.024196 0.064093 0.111894 0.134937 0.256293 0.255717 0.293284 0.357186 0.241854 0.262694 0.224938 0.128375 0.087685 0.039326 0.015899 0.028022 0.004218 0.039361 0.171403 0.208207 0.225618 0.295055 0.222152 0.242059 0.125798 0.107279 -0.009612 -0.015912 -0.010183 0.005740 0.027787 0.015976 0.103563 0.190205 0.184378 0.217751 0.137392 0.092866 0.104875 0.038979 -0.074085 0.000133 0.025373 0.039228 0.049727 0.108196 0.144623 0.160765 0.153608 0.063748 0.063066 0.039358 0.055595 -0.007953 0.007446 0.020731 0.074744 0.114373 0.135505 0.078049 0.120546 0.108593 0.030356 0.000517 0.013226 0.000637 0.054009 0.072372 0.081709 0.106154 0.070043 0.097417 0.064340 0.042622 0.020955 -0.018254 0.026090 0.059412 0.042090 0.047115 0.026148 0.072723 0.069636 0.041935 0.008408 0.017766 -0.044978 -0.003692 0.008360 0.049794 0.105576 0.068316 0.044249 -0.008219 -0.031758 -0.015387 -0.002298 -0.007259 0.033318 0.064022 0.068447 0.002267 0.022376 -0.034476 0.009006 -0.007083 -0.031500 0.014567 0.044338 -0.023093 0.007810 -0.018341 0.026249 -0.023853 -0.006465 -0.001320 0.008850 0.022609 -0.003638 0.013903 -0.007123 -0.048197 0.006458 -0.009345 0.027324 0.094824 0.006673 0.048769 -0.004088 0.009792 -0.026557 0.017177 -0.005581 -0.014174 -0.027543 0.044950 0.030979 0.010509 0.020231 -0.038359 0.003225 0.004139 0.016776 0.039237 0.051922 0.046394 0.032271 0.027227 -0.018875 -0.022411 0.015733 0.053999 0.012262 0.011346 -0.029594 -0.009069 0.031055 0.040025 0.017275 0.009759 0.029409 0.010564 -0.056083 -0.002998 0.037712 -0.013888 0.030542 0.030888 0.083329 0.098357 0.028336 0.015465 -0.015407 0.003757 0.073367 -0.047892 0.017425 -0.029815 -0.037782 0.027933 0.034319 -0.007357 -0.065843 0.046672 0.003077 -0.047330 -0.069530 -0.076182 -0.050082 -0.062700 -0.071691 -0.018280 0.089611 -0.059381 -0.025717 0.035120 0.018230 -0.072930 0.079422 0.064289 0.103115 -0.026477 0.224749 0.259093 0.224649 -0.029961 0.113243 -0.652902
0.072396 0.073047 0.075000 0.078253 0.082807 0.088659 0.095808 0.104250 0.113981 0.124996 0.137290 0.150852 0.165674 0.181742 0.199041 0.217552 0.237254 0.258120 0.280119 0.303216 0.327371 0.352535 0.378654 0.405670 0.433511 0.462104 0.491360 0.521187 0.551480 0.582124 0.612994 0.643955 0.674859 0.705547 0.735851 0.765588 0.794567 0.822582 0.849420 0.874857 0.898657 0.920580 0.940376 0.957789 0.972559 0.984425 0.993125 0.998397 0.999986 0.997643 0.991130 0.980224 0.964717 0.944425 0.919185 0.888867 0.853374 0.812643 0.766658 0.715444 0.659079 0.597695 0.531480 0.460684 0.385620 0.306665 0.224267 0.138937 0.051258 0.038124 0.128495 0.219083 0.309059 0.397543 0.483613 0.566310 0.644655 0.717654 0.784313 0.843655 0.894730 0.936637 0.968537 0.989675 0.999393 0.997154 0.982554 0.955343 0.915442 0.862954 0.798177 0.721615 0.633987 0.536224 0.429475 0.315099 0.194654 0.069886 0.057292 0.184826 0.310551 0.432222 0.547558 0.654285 0.750180 0.833127 0.901164 0.952537 0.985751 0.999625 0.993333 0.966447 0.918977 0.851392 0.764639 0.660155 0.539853 0.406111 0.261737 0.109922 0.045823 0.201734 0.353885 0.498286 0.630987 0.748193 0.846380 0.922408 0.973644 0.998056 0.994316 0.961878 0.901031 0.812943 0.699667 0.564121 0.410041 0.241903 0.064802 0.115677 0.293633 0.463038 0.617940 0.752681 0.862118 0.941836 0.988345 0.999263 0.973453 0.911133 0.813928 0.684877 0.528372 0.350049 0.156613 0.044394 0.244867 0.436462 0.610939 0.760535 0.878317 0.958540 0.996947 0.991042 0.940271 0.846142 0.712235 0.544125 0.349190 0.136339 0.084384 0.302236 0.506307 0.686060 0.831904 0.935723 0.991378 0.995106 0.945827 0.845305 0.698168 0.511757 0.295823 0.062058 0.176494 0.406164 0.613421 0.785698 0.912178 0.984520 0.997468 0.949288 0.842010 0.681440 0.476924 0.240880 0.011914 0.265195 0.502253 0.707040 0.865282 0.965517 1.000000 0.965362 0.863010 0.699191 0.484704 0.234285 0.034362 0.301745 0.548010 0.754407 0.904761 0.986810 0.993270 0.922585 0.779230 0.573555 0.321142 0.041716 0.242347 0.507778 0.732324 0.896656 0.986103 0.992056 0.912893 0.754351 0.529245 0.256549 0.040107 0.334417 0.599731 0.811460 0.949436 0.999912 0.957055 0.823733 0.611500 0.339741 0.034017 0.276263 0.560617 0.790526 0.942324 0.999755 0.955835 0.813841 0.587260 0.298673 0.022369 0.342285 0.626948 0.845349 0.973051 0.995052 0.907703 0.719421 0.450080 0.129073 0.207768 0.522110 0.777486 0.943586 0.999979 0.938789 0.765964 0.500934 0.174611 0.174074 0.502719 0.770628 0.943889 0.999817 0.930100 0.742221 0.458913 0.115596 0.243881 0.572778 0.827548 0.973681 0.990561 0.874567 0.639993 0.317539 0.049509 0.410953 0.716501 0.922826 0.999846 0.935322 0.737036 0.432147 0.063723 0.315178 0.649069 0.888185 0.996034 0.955176 0.770303 0.468043 0.093391 0.296789 0.642292 0.888905 0.997031 0.948289 0.748914 0.429315 0.039736 0.357463 0.697678 0.924627 0.999829 0.909385 0.666858 0.311584 0.097422 0.491070 0.801832 0.975439 0.980548 0.814735 0.505541 0.106239 0.313079 0.677692 0.921568 0.999547 0.895967 0.628171 0.244010 0.186417 0.583338 0.872089 0.997306 0.933832 0.692129 0.317027 0.120268 0.535424 0.847243 0.993626 0.944276 0.707328 0.328515 0.117285 0.540596 0.855258 0.996082 0.932704 0.676518 0.279144 0.177569 0.598194 0.893590 1.000000 0.893162 0.594287 0.166349 0.298805 0.699933
1.000000 1.000000 1.000000 1.000000 1.000000 1.000000 1.000000 1.000000 1.000000 1.000000 1.000000 1.000000 1.000000 1.000000 1.000000 1.000000 1.000000 1.000000 1.000000 1.000000 1.000000 1.000000 1.000000 1.000000 1.000000 1.000000 1.000000 1.000000 1.000000 1.000000 1.000000 1.000000 1.000000 1.000000 1.000000 1.000000 1.000000 1.000000 1.000000 1.000000 1.000000 1.000000 1.000000 1.000000 1.000000 1.000000 1.000000 1.000000 1.000000 1.000000 1.000000 1.000000 0.930982 0.930982 0.930982 0.930982 0.930982 0.930982 0.930982 0.930982 0.930982 0.930982 0.930982 0.930982 0.930982 0.930982 0.930982 0.930982 0.930982 0.930982 0.930982 0.930982 0.930982 0.930982 0.930982 0.930982 0.930982 0.930982 0.930982 0.930982 0.930982 0.930982 0.930982 0.930982 0.930982 0.914569 0.916219 0.919255 0.920316 0.920224 0.919726 0.919417 0.919704 0.921188 0.923086 0.944551 0.946817 0.947974 0.949071 0.947823 0.950353 0.948065 0.952287 0.967277 0.966505 0.967391 0.961485 0.962493 0.962015 0.961378 0.962316 0.962174 0.960765 0.959107 0.957725 0.957331 0.956971 0.958575 0.958952 0.958843 0.959272 0.959224 0.959097 0.956510 0.954465 0.955737 0.957163 0.956110 0.961639 0.961589 0.969846 0.970953 0.971667 0.972379 0.972552 0.972697 0.965003 0.962526 0.959338 0.947763 0.939715 0.936099 0.938680 0.941490 0.938563 0.932951 0.931996 0.930022 0.924853 0.924405 0.922145 0.923239 0.914972 0.911525 0.900900 0.901165 0.903549 0.904299 0.901878 0.889260 0.883751 0.884930 0.887683 0.882251 0.879491 0.895707 0.892691 0.894783 0.898358 0.900970 0.907049 0.892845 0.886517 0.883293 0.878543 0.877534 0.879185 0.883048 0.885365 0.884521 0.882575 0.878074 0.869161 0.876763 0.882242 0.881451 0.881290 0.881810 0.881386 0.876272 0.874883 0.870555 0.871655 0.873733 0.878201 0.876176 0.872042 0.869752 0.869248 0.870669 0.871806 0.871205 0.868625 0.861305 0.864454 0.863721 0.879302 0.876616 0.868154 0.859775 0.851568 0.856089 0.860439 0.852904 0.842693 0.805879 0.804250 0.801713 0.799427 0.803991 0.809413 0.804945 0.806771 0.801234 0.806283 0.814360 0.808791 0.804416 0.805845 0.805654 0.785613 0.793796 0.791823 0.776813 0.780973 0.763103 0.759541 0.759159 0.760511 0.692469 0.689956 0.662195 0.644918 0.660860 0.655239 0.644060 0.630207 0.628702 0.620618 0.584007 0.570722 0.554243 0.555114 0.547215 0.549199 0.550709 0.523791 0.539006 0.532824 0.533009 0.546619 0.510515 0.497435 0.481634 0.462969 0.481104 0.488103 0.504285 0.512327 0.503510 0.503542 0.496147 0.492227 0.506891 0.484254 0.447017 0.461522 0.437229 0.418102 0.430187 0.429902 0.430359 0.447714 0.416993 0.396571 0.415851 0.424595 0.430679 0.436179 0.446105 0.423677 0.477117 0.458938 0.454637 0.461342 0.438601 0.414185 0.416213 0.393724 0.407147 0.397695 0.401000 0.428453 0.398489 0.392285 0.405676 0.416876 0.353842 0.384468 0.406377 0.388836 0.415192 0.390704 0.375863 0.322978 0.316662 0.291854 0.290745 0.326056 0.245749 0.234312 0.215580 0.204523 0.187697 0.208453 0.203215 0.175247 0.127792 0.106484 0.081441 0.092171 0.098959 0.084864 0.078337 0.078337 0.078337 0.078337 0.089520 0.089520 0.089520 0.089520 0.089520 0.089520 0.089520 0.089520 0.089520 0.089520 0.089520 0.089520 0.089520 0.089520 0.105697 0.105697 0.105697 0.105697 0.105697 0.105697 0.105697 0.105697 0.105697 0.105697 0.105697 0.105697
0.000000 0.000000 0.000000 0.000000 0.000000 0.000000 0.000000 0.000000 0.000000 0.000000 0.000000 0.000000 0.000000 0.000000 0.000000 0.000000 0.000000 0.000000 0.000000 0.000000 0.000000 0.000000 0.000000 0.000000 0.000000 7.000000 4.000000 0.000000 0.000000 0.000000 0.000000 0.000000 0.000000 0.000000 0.000000 0.000000 0.000000 0.000000 0.000000 0.000000 0.000000 0.000000 0.000000 0.000000 0.000000 0.000000 0.000000 0.000000 0.000000 0.000000 0.000000 0.000000 0.209657 0.209657 0.209657 0.209657 0.209657 0.209657 0.209657 0.209657 0.209657 0.209657 0.209657 0.209657 0.209657 0.209657 0.209657 0.209657 0.209657 0.209657 0.209657 0.209657 0.209657 0.209657 0.209657 0.209657 0.209657 0.209657 0.209657 0.209657 0.209657 0.209657 0.209657 0.209657 0.209657 0.244339 0.244339 0.244339 0.244339 0.244339 0.244339 0.244339 0.244339 0.244339 0.244339 0.244339 0.244339 0.244339 0.244339 0.244339 0.244339 0.244339 0.244339 0.244339 0.244339 0.244339 0.244339 0.244339 0.244339 0.244339 0.260378 0.260378 0.260378 0.260378 0.260378 0.260378 0.260378 0.260378 0.260378 0.260378 0.260378 0.260378 0.260378 0.260378 0.260378 0.260378 0.260378 0.260378 0.260378 0.260378 0.269680 0.269680 0.269680 0.269680 0.269680 0.269680 0.269680 0.269680 0.269680 0.269680 0.269680 0.269680 0.269680 0.269680 0.269680 0.269680 0.269680 0.269680 0.269680 0.269680 0.269680 0.269680 0.269680 0.269680 0.269680 0.269680 0.269680 0.269680 0.269680 0.269680 0.269680 0.269680 0.269680 0.280056 0.280056 0.280056 0.280056 0.280056 0.280056 0.280056 0.280056 0.280056 0.280056 0.280056 0.280056 0.280056 0.280056 0.280056 0.280056 0.280056 0.280056 0.280056 0.280056 0.280056 0.280056 0.280056 0.280056 0.280056 0.280056 0.280056 0.274721 0.274721 0.274721 0.274721 0.274721 0.274721 0.274721 0.274721 0.274721 0.274721 0.274721 0.274721 0.274721 0.285714 0.285714 0.285714 0.285714 0.285714 0.285714 0.285714 0.285714 0.285714 0.285714 0.285714 0.280056 0.280056 0.280056 0.280056 0.280056 0.280056 0.280056 0.280056 0.280056 0.280056 0.280056 0.274721 0.274721 0.274721 0.274721 0.274721 0.274721 0.274721 0.274721 0.274721 0.274721 0.274721 0.280056 0.280056 0.280056 0.280056 0.280056 0.280056 0.280056 0.280056 0.280056 0.280056 0.285714 0.285714 0.285714 0.285714 0.285714 0.285714 0.285714 0.285714 0.285714 0.280056 0.280056 0.280056 0.280056 0.280056 0.280056 0.280056 0.280056 0.280056 0.274721 0.274721 0.274721 0.274721 0.274721 0.274721 0.274721 0.274721 0.274721 0.269680 0.269680 0.269680 0.269680 0.269680 0.269680 0.269680 0.269680 0.269680 0.264906 0.264906 0.264906 0.264906 0.264906 0.264906 0.264906 0.264906 0.264906 0.274721 0.274721 0.274721 0.274721 0.274721 0.274721 0.274721 0.274721 0.269680 0.269680 0.269680 0.269680 0.269680 0.269680 0.269680 0.269680 0.285714 0.285714 0.285714 0.285714 0.285714 0.285714 0.285714 0.264906 0.264906 0.264906 0.264906 0.264906 0.264906 0.264906 0.264906 0.274721 0.274721 0.274721 0.274721 0.274721 0.274721 0.274721 0.256074 0.256074 0.256074 0.256074 0.256074 0.256074 0.256074 0.256074 0.264906 0.264906 0.264906 0.264906 0.264906 0.264906 0.264906 0.264906 0.264906 0.264906 0.264906 0.264906 0.264906 0.264906 0.260378 0.260378 0.260378 0.260378 0.260378 0.260378 0.260378 0.260378 0.260378 0.260378 0.260378 0.260378
