# Output from CTFFind version 4.1.9, run on 2019-11-03 19:26:06
# Input file: stack11_bm3d_averaged_1_3.75_0_750_half.mrc ; Number of micrographs: 1
# Pixel size: 3.000 Angstroms ; acceleration voltage: 300.0 keV ; spherical aberration: 0.00 mm ; amplitude contrast: 0.07
# Box size: 512 pixels ; min. res.: 30.0 Angstroms ; max. res.: 5.0 Angstroms ; min. def.: 5000.0 um; max. def. 50000.0 um; num. frames averaged: 1
# 6 lines per micrograph: #1 - spatial frequency (1/Angstroms); #2 - 1D rotational average of spectrum (assuming no astigmatism); #3 - 1D rotational average of spectrum; #4 - CTF fit; #5 - cross-correlation between spectrum and CTF fit; #6 - 2sigma of expected cross correlation of noise
0.000000 0.000651 0.001302 0.001953 0.002604 0.003255 0.003906 0.004557 0.005208 0.005859 0.006510 0.007161 0.007812 0.008464 0.009115 0.009766 0.010417 0.011068 0.011719 0.012370 0.013021 0.013672 0.014323 0.014974 0.015625 0.016276 0.016927 0.017578 0.018229 0.018880 0.019531 0.020182 0.020833 0.021484 0.022135 0.022786 0.023438 0.024089 0.024740 0.025391 0.026042 0.026693 0.027344 0.027995 0.028646 0.029297 0.029948 0.030599 0.031250 0.031901 0.032552 0.033203 0.033854 0.034505 0.035156 0.035807 0.036458 0.037109 0.037760 0.038411 0.039062 0.039714 0.040365 0.041016 0.041667 0.042318 0.042969 0.043620 0.044271 0.044922 0.045573 0.046224 0.046875 0.047526 0.048177 0.048828 0.049479 0.050130 0.050781 0.051432 0.052083 0.052734 0.053385 0.054036 0.054688 0.055339 0.055990 0.056641 0.057292 0.057943 0.058594 0.059245 0.059896 0.060547 0.061198 0.061849 0.062500 0.063151 0.063802 0.064453 0.065104 0.065755 0.066406 0.067057 0.067708 0.068359 0.069010 0.069661 0.070312 0.070964 0.071615 0.072266 0.072917 0.073568 0.074219 0.074870 0.075521 0.076172 0.076823 0.077474 0.078125 0.078776 0.079427 0.080078 0.080729 0.081380 0.082031 0.082682 0.083333 0.083984 0.084635 0.085286 0.085938 0.086589 0.087240 0.087891 0.088542 0.089193 0.089844 0.090495 0.091146 0.091797 0.092448 0.093099 0.093750 0.094401 0.095052 0.095703 0.096354 0.097005 0.097656 0.098307 0.098958 0.099609 0.100260 0.100911 0.101562 0.102214 0.102865 0.103516 0.104167 0.104818 0.105469 0.106120 0.106771 0.107422 0.108073 0.108724 0.109375 0.110026 0.110677 0.111328 0.111979 0.112630 0.113281 0.113932 0.114583 0.115234 0.115885 0.116536 0.117188 0.117839 0.118490 0.119141 0.119792 0.120443 0.121094 0.121745 0.122396 0.123047 0.123698 0.124349 0.125000 0.125651 0.126302 0.126953 0.127604 0.128255 0.128906 0.129557 0.130208 0.130859 0.131510 0.132161 0.132812 0.133464 0.134115 0.134766 0.135417 0.136068 0.136719 0.137370 0.138021 0.138672 0.139323 0.139974 0.140625 0.141276 0.141927 0.142578 0.143229 0.143880 0.144531 0.145182 0.145833 0.146484 0.147135 0.147786 0.148438 0.149089 0.149740 0.150391 0.151042 0.151693 0.152344 0.152995 0.153646 0.154297 0.154948 0.155599 0.156250 0.156901 0.157552 0.158203 0.158854 0.159505 0.160156 0.160807 0.161458 0.162109 0.162760 0.163411 0.164062 0.164714 0.165365 0.166016 0.166667 0.167318 0.167969 0.168620 0.169271 0.169922 0.170573 0.171224 0.171875 0.172526 0.173177 0.173828 0.174479 0.175130 0.175781 0.176432 0.177083 0.177734 0.178385 0.179036 0.179688 0.180339 0.180990 0.181641 0.182292 0.182943 0.183594 0.184245 0.184896 0.185547 0.186198 0.186849 0.187500 0.188151 0.188802 0.189453 0.190104 0.190755 0.191406 0.192057 0.192708 0.193359 0.194010 0.194661 0.195312 0.195964 0.196615 0.197266 0.197917 0.198568 0.199219 0.199870 0.200521 0.201172 0.201823 0.202474 0.203125 0.203776 0.204427 0.205078 0.205729 0.206380 0.207031 0.207682 0.208333 0.208984 0.209635 0.210286 0.210938 0.211589 0.212240 0.212891 0.213542 0.214193 0.214844 0.215495 0.216146 0.216797 0.217448 0.218099 0.218750 0.219401 0.220052 0.220703 0.221354 0.222005 0.222656 0.223307 0.223958 0.224609 0.225260 0.225911 0.226562 0.227214 0.227865 0.228516 0.229167 0.229818 0.230469 0.231120 0.231771 0.232422 0.233073 0.233724 0.234375 0.235026 0.235677
       0.32810        0.32810        0.32810        0.32810        0.32810        0.32810        0.32810        0.32810        0.32810        0.32810        0.32810        0.32810        0.32810        0.32810        0.32810        0.32810        0.32810        0.32810        0.32810        0.32810        0.32810        0.32810        0.32810        0.32810        0.32810        0.32810        0.32810        0.32810        0.32810        0.32810        0.32810        0.32810        0.32810        0.32810        0.32810        0.32810        0.32810        0.32810        0.32810        0.32810        0.32810        0.32810        0.32810        0.32810        0.32810        0.32810        0.32810        0.32810        0.32810        0.32810        0.32810        0.68717        0.86016        0.52864        0.09911       -0.04295       -0.40907       -0.19047       -0.29222       -0.11352       -0.06370       -0.11327       -0.05908       -0.18705       -0.21805       -0.23519       -0.31975       -0.33066       -0.46340       -0.37189       -0.44467       -0.43663       -0.41075       -0.44053       -0.49019       -0.53495       -0.57143       -0.58663       -0.55508       -0.38444       -0.35784       -0.31541       -0.29425       -0.19855       -0.19146        0.03907        0.11226        0.14275        0.24380        0.37367        0.44975        0.51414        0.57528        0.57308        0.56734        0.69060        0.80414        0.71505        0.73426        0.63599        0.56623        0.48180        0.42060        0.50431        0.38812        0.23724        0.09499        0.07630        0.05418       -0.04241        0.00141        0.01935       -0.03015        0.00700       -0.00057        0.23175        0.25991        0.28859        0.42475        0.44779        0.40631        0.56807        0.62389        0.66333        0.73774        0.68117        0.64887        0.67570        0.56558        0.47331        0.41658        0.29412        0.23185        0.16494        0.12150        0.04955        0.03226        0.03207        0.08182        0.13594        0.22096        0.27348        0.39832        0.44590        0.48798        0.58928        0.61652        0.63351        0.61897        0.55882        0.45184        0.46029        0.36721        0.24544        0.19227        0.15178        0.14478        0.13840        0.12053        0.14647        0.27944        0.29101        0.37187        0.40596        0.43147        0.50119        0.54662        0.55042        0.48414        0.44773        0.39552        0.34704        0.31529        0.27824        0.22388        0.22078        0.20412        0.22502        0.20564        0.29348        0.35141        0.38128        0.43513        0.45127        0.47227        0.41856        0.39435        0.40462        0.36160        0.29173        0.26464        0.23918        0.24043        0.21168        0.25616        0.25720        0.33411        0.36950        0.39511        0.47339        0.42143        0.42876        0.43115        0.40302        0.34271        0.31711        0.28683        0.29326        0.25963        0.29379        0.29085        0.31370        0.32054        0.33966        0.31911        0.40170        0.41608        0.38028        0.34471        0.36951        0.29743        0.28434        0.27638        0.30317        0.28481        0.29751        0.31283        0.32521        0.33785        0.36430        0.36896        0.37837        0.36615        0.31510        0.32747        0.28601        0.26292        0.31264        0.30496        0.31643        0.32001        0.32145        0.35468        0.32501        0.32194        0.30637        0.31873        0.28642        0.29737        0.26684        0.29412        0.30506        0.29030        0.31200        0.33241        0.33702        0.27389        0.30952        0.28024        0.29450        0.27222        0.23009        0.28576        0.29010        0.34067        0.32527        0.32235        0.31835        0.32835        0.28903        0.32843        0.32431        0.28548        0.27046        0.31335        0.29927        0.34559        0.32664        0.32738        0.33120        0.29019        0.27193        0.29927        0.24594        0.21847        0.31016        0.31431        0.31805        0.31312        0.32576        0.29851        0.34145        0.33336        0.26262        0.23656        0.29895        0.29849        0.29334        0.31721        0.33496        0.33420        0.30518        0.28980        0.33215        0.31305        0.28235        0.26497        0.31512        0.35129        0.38755        0.30748        0.27956        0.27226        0.30644        0.25554        0.28842        0.26614        0.24494        0.31233        0.33176        0.33718        0.32663        0.28594        0.26596        0.27419        0.25042        0.24052        0.24252        0.31716        0.28875        0.21926        0.32835        0.32357        0.25758        0.26444        0.20135        0.20360        0.25003        0.18142        0.24048        0.27106        0.22200        0.20324        0.29053        0.33868        0.33395        0.33500        0.24435        0.20647        0.17452        0.22524        0.21381        0.16023        0.18509        0.24075        0.22539        0.21742        0.16649        0.10815        0.13850        0.02171       -0.10345       -0.61177
2.659604 2.631742 2.604032 2.576473 2.549066 2.521809 2.494704 2.467749 2.440946 2.414294 2.387793 2.361444 2.335245 2.309198 2.283302 2.257557 2.231963 2.206520 2.181229 2.156088 2.131099 2.106261 2.081574 2.057039 2.032654 2.008421 1.984338 1.960407 1.936627 1.912999 1.889521 1.866195 1.843019 1.819995 1.797122 1.774401 1.751830 1.729410 1.707142 1.685025 1.663059 1.641244 1.619581 1.598068 1.576707 1.555497 1.534438 1.513530 1.492773 1.472168 1.451713 1.668827 2.087798 1.651964 1.155786 1.019301 0.426470 0.830056 0.555946 0.839709 0.790187 0.804453 0.752434 0.727702 0.580525 0.537338 0.489614 0.429060 0.229843 0.372248 0.200638 0.318238 0.224809 0.192323 0.159817 0.025454 0.024515 0.004283 -0.067061 0.120999 0.218394 0.186941 0.164141 0.334238 0.186094 0.505099 0.609936 0.599435 0.621902 0.876149 0.828077 0.942545 0.908737 1.007984 0.968122 1.082224 1.148204 1.050556 1.151889 0.926363 0.933218 0.793093 0.658854 0.795124 0.711303 0.480241 0.327376 0.251654 0.253409 0.149503 0.115729 0.153718 0.100980 0.139578 0.068946 0.266831 0.374866 0.352637 0.481333 0.559346 0.438756 0.584179 0.721585 0.712297 0.758369 0.716394 0.733878 0.684115 0.614575 0.535922 0.402413 0.286012 0.229570 0.087314 0.129945 -0.063213 -0.037031 -0.060130 -0.056914 -0.015528 0.151487 0.069874 0.265043 0.307531 0.353226 0.429176 0.520368 0.488001 0.518827 0.511888 0.328791 0.310694 0.293664 0.099731 0.053481 -0.038449 -0.005923 -0.041676 -0.073787 -0.084337 0.039674 0.080398 0.130205 0.201785 0.238765 0.281198 0.320184 0.423714 0.403052 0.293162 0.250784 0.226285 0.172484 0.140243 0.113111 0.012102 0.023919 0.055761 0.002754 0.078669 0.158188 0.152632 0.253225 0.254469 0.306129 0.187483 0.228959 0.154757 0.201970 0.117234 0.052620 0.005206 0.006232 -0.002117 -0.037660 0.050255 0.025840 0.140337 0.152150 0.186605 0.237016 0.168301 0.172550 0.180986 0.134477 0.064592 0.014610 0.054532 0.006001 -0.012309 0.023438 0.041950 0.057688 0.051779 0.062313 0.097075 0.131050 0.173714 0.070933 0.074677 0.065702 0.014097 -0.014546 0.015009 0.016993 0.012682 0.015358 0.037500 0.059144 0.070850 0.114017 0.065339 0.136610 0.067743 0.028267 0.052583 -0.025654 0.004746 0.052452 0.007577 0.053110 0.057006 0.032187 0.103339 0.059899 0.027431 0.057342 0.020963 0.029522 0.020281 -0.005322 0.054767 0.013612 0.021569 0.067086 0.077024 0.038865 0.044673 0.040228 0.040620 0.030487 -0.006500 -0.018496 0.038941 0.061239 0.096866 0.083326 0.083905 0.068436 0.098388 0.047139 0.106782 0.098431 0.024063 0.035650 0.091472 0.074525 0.105677 0.091473 0.124315 0.095032 0.062468 0.016550 0.084618 -0.027626 -0.001102 0.094006 0.066811 0.097293 0.077698 0.074267 0.021678 0.116428 0.076379 -0.010634 -0.038080 0.052822 0.066269 0.036936 0.038215 0.086810 0.096744 0.012386 0.051043 0.071811 0.056435 0.031916 -0.017776 0.069256 0.106463 0.113241 0.013297 -0.001200 -0.013314 0.051756 -0.044438 0.022283 -0.023747 -0.028626 0.027770 0.068419 0.011391 0.019430 -0.029594 -0.031103 -0.055245 -0.027236 -0.078221 -0.072889 0.041076 0.032644 -0.086085 0.058578 0.010363 -0.055622 0.017817 -0.111132 -0.067772 -0.045830 -0.090562 -0.021166 0.017714 -0.017220 -0.109438 0.049191 0.162962 0.003714 0.125544 0.016744 0.224579 0.155993 0.243862 0.256232 0.168869 0.191835 0.283084 0.208300 0.246301 0.152806 0.174191 0.209749 0.019801 -0.655995
0.072396 0.072898 0.074405 0.076915 0.080429 0.084944 0.090462 0.096978 0.104492 0.113001 0.122501 0.132987 0.144456 0.156899 0.170310 0.184680 0.199997 0.216248 0.233419 0.251492 0.270447 0.290262 0.310911 0.332364 0.354588 0.377546 0.401196 0.425494 0.450388 0.475823 0.501737 0.528064 0.554731 0.581659 0.608763 0.635952 0.663128 0.690185 0.717013 0.743492 0.769497 0.794896 0.819550 0.843315 0.866040 0.887568 0.907736 0.926379 0.943326 0.958403 0.971434 0.982241 0.990646 0.996473 0.999546 0.999694 0.996752 0.990559 0.980966 0.967832 0.951029 0.930445 0.905983 0.877565 0.845134 0.808656 0.768124 0.723557 0.675003 0.622545 0.566296 0.506406 0.443063 0.376490 0.306954 0.234759 0.160249 0.083809 0.005866 0.073118 0.152640 0.232164 0.311120 0.388910 0.464909 0.538472 0.608938 0.675635 0.737889 0.795029 0.846396 0.891350 0.929278 0.959607 0.981807 0.995407 1.000000 0.995254 0.980923 0.956851 0.922986 0.879384 0.826216 0.763775 0.692477 0.612869 0.525624 0.431545 0.331556 0.226706 0.118152 0.007156 0.104930 0.216677 0.326599 0.433167 0.534834 0.630056 0.717319 0.795162 0.862207 0.917184 0.958958 0.986560 0.999209 0.996339 0.977617 0.942968 0.892585 0.826942 0.746804 0.653221 0.547531 0.431347 0.306535 0.175202 0.039653 0.097635 0.234060 0.366942 0.493575 0.611281 0.717472 0.809713 0.885777 0.943711 0.981890 0.999072 0.994445 0.967665 0.918891 0.848798 0.758591 0.649998 0.525250 0.387049 0.238520 0.083152 0.075283 0.232806 0.385341 0.528811 0.659255 0.772941 0.866480 0.936936 0.981932 0.999742 0.989368 0.950601 0.884061 0.791212 0.674354 0.536584 0.381733 0.214276 0.039214 0.138068 0.311957 0.476789 0.627045 0.757527 0.863559 0.941165 0.987235 0.999666 0.977478 0.920890 0.831358 0.711569 0.565389 0.397759 0.214553 0.022387 0.171611 0.360053 0.535577 0.691140 0.820306 0.917534 0.978432 0.999981 0.980709 0.920804 0.822172 0.688403 0.524689 0.337637 0.135041 0.074433 0.281607 0.477177 0.652151 0.798262 0.908381 0.976891 0.999999 0.975980 0.905330 0.790808 0.637381 0.452041 0.243530 0.021947 0.201721 0.416130 0.610158 0.773500 0.897221 0.974286 0.999993 0.972292 0.891989 0.762780 0.591138 0.386035 0.158510 0.078888 0.312791 0.529744 0.716989 0.863241 0.959393 0.999128 0.979376 0.900597 0.766855 0.585667 0.367643 0.125900 0.124684 0.368374 0.589563 0.773777 0.908658 0.984821 0.996572 0.942381 0.825098 0.651886 0.433844 0.185355 0.076816 0.334644 0.570053 0.766208 0.908749 0.986882 0.994258 0.929556 0.796704 0.604732 0.367234 0.101452 0.172913 0.435148 0.665102 0.844731 0.959579 0.999988 0.961987 0.847750 0.665571 0.429361 0.157641 0.127836 0.403813 0.647414 0.838048 0.959215 0.999988 0.956080 0.830379 0.632861 0.379903 0.092999 0.203015 0.482064 0.719157 0.892643 0.986249 0.990688 0.904674 0.735226 0.497208 0.212125 0.093746 0.391745 0.653484 0.853588 0.972212 0.997085 0.924890 0.761783 0.523001 0.231551 0.083936 0.391949 0.661237 0.864017 0.978884 0.993178 0.904488 0.721122 0.461479 0.152295 0.173994 0.482642 0.740260 0.918493 0.997208 0.966884 0.829889 0.600464 0.303392 0.028584 0.358287 0.648250 0.864996 0.982976 0.987687 0.877597 0.664585 0.372818 0.036135 0.305788 0.612075 0.845555 0.977346 0.990538 0.882514 0.665550 0.365595 0.019306 0.330341 0.639341 0.868232 0.987199 0.980102 0.846815 0.603555 0.281091 0.079008
1.000000 1.000000 1.000000 1.000000 1.000000 1.000000 1.000000 1.000000 1.000000 1.000000 1.000000 1.000000 1.000000 1.000000 1.000000 1.000000 1.000000 1.000000 1.000000 1.000000 1.000000 1.000000 1.000000 1.000000 1.000000 1.000000 1.000000 1.000000 1.000000 1.000000 1.000000 1.000000 1.000000 1.000000 1.000000 1.000000 1.000000 1.000000 1.000000 1.000000 1.000000 1.000000 1.000000 1.000000 1.000000 1.000000 1.000000 1.000000 1.000000 1.000000 1.000000 1.000000 0.923001 0.923001 0.923001 0.914461 0.914461 0.914461 0.914461 0.914461 0.914461 0.914461 0.914461 0.914461 0.914461 0.914461 0.914461 0.914461 0.914461 0.914461 0.914461 0.914461 0.914461 0.914461 0.914461 0.914461 0.914461 0.914461 0.914461 0.914461 0.914461 0.914461 0.914461 0.914461 0.914461 0.914461 0.914461 0.914461 0.914461 0.914461 0.914461 0.914461 0.914461 0.914461 0.914461 0.914461 0.941788 0.943295 0.951373 0.951200 0.950559 0.948287 0.947223 0.946720 0.946581 0.946882 0.947570 0.948521 0.957451 0.958643 0.961511 0.962442 0.963271 0.964038 0.964826 0.965727 0.961528 0.958701 0.955119 0.954977 0.957852 0.957462 0.957614 0.958710 0.958591 0.958279 0.958784 0.958539 0.957792 0.956916 0.956088 0.955703 0.955480 0.956182 0.956551 0.958011 0.961356 0.961862 0.961945 0.962098 0.962180 0.963498 0.961790 0.961594 0.957336 0.957836 0.957522 0.955137 0.961643 0.958551 0.959163 0.959696 0.961164 0.961441 0.951874 0.949259 0.938933 0.937419 0.931765 0.924411 0.919865 0.921738 0.924081 0.925664 0.926329 0.921758 0.921794 0.918621 0.913962 0.917233 0.915838 0.915736 0.917207 0.917792 0.918150 0.916893 0.915395 0.907975 0.897601 0.896623 0.899809 0.904609 0.906592 0.906820 0.904994 0.875136 0.875251 0.881770 0.875524 0.864876 0.860440 0.859226 0.864592 0.865042 0.867932 0.867474 0.858642 0.845688 0.831776 0.825325 0.826490 0.820922 0.821620 0.820443 0.816830 0.827128 0.824063 0.829812 0.835767 0.843960 0.843973 0.833933 0.830146 0.828588 0.822109 0.806431 0.809835 0.794674 0.795343 0.794297 0.792253 0.786491 0.791946 0.773899 0.768489 0.756748 0.758905 0.762230 0.757207 0.753996 0.754658 0.756478 0.761074 0.745080 0.735452 0.720549 0.725730 0.735670 0.735510 0.730708 0.708456 0.675027 0.630818 0.648916 0.677577 0.624610 0.648202 0.658332 0.636147 0.634386 0.625423 0.623020 0.624809 0.625717 0.630213 0.636335 0.638935 0.659199 0.639628 0.630639 0.639943 0.634087 0.637123 0.621377 0.624759 0.603073 0.597100 0.622936 0.598803 0.597921 0.594566 0.605181 0.632296 0.594723 0.597690 0.611051 0.600468 0.603634 0.601997 0.591115 0.590774 0.598732 0.586854 0.601914 0.618120 0.594099 0.566067 0.546471 0.523802 0.513615 0.558243 0.559654 0.548609 0.518030 0.522072 0.539661 0.541342 0.534113 0.503231 0.516814 0.518223 0.557175 0.544665 0.499145 0.520044 0.516486 0.516733 0.466606 0.460883 0.445668 0.432040 0.387938 0.389937 0.402212 0.388956 0.348762 0.325982 0.326561 0.326184 0.333529 0.323690 0.294456 0.285407 0.302214 0.309761 0.296260 0.259451 0.252584 0.236116 0.222979 0.222976 0.187026 0.222680 0.287847 0.289435 0.289435 0.289435 0.289435 0.289435 0.289435 0.293865 0.293865 0.293865 0.293865 0.293865 0.293865 0.293865 0.293865 0.293865 0.308640 0.308640 0.308640 0.308640 0.308640 0.308640 0.308640 0.308640 0.308640 0.308640 0.308640 0.308640 0.308640 0.308640
0.000000 0.000000 0.000000 0.000000 0.000000 0.000000 0.000000 0.000000 0.000000 0.000000 0.000000 0.000000 0.000000 0.000000 0.000000 0.000000 0.000000 0.000000 0.000000 0.000000 0.000000 0.000000 0.000000 0.000000 0.000000 0.000000 0.000000 0.000000 0.000000 0.000000 0.000000 0.000000 0.000000 0.000000 0.000000 0.000000 0.000000 0.000000 0.000000 0.000000 0.000000 0.000000 0.000000 0.000000 0.000000 0.000000 0.000000 0.000000 0.000000 0.000000 0.000000 0.000000 0.180334 0.180334 0.180334 0.199007 0.199007 0.199007 0.199007 0.199007 0.199007 0.199007 0.199007 0.199007 0.199007 0.199007 0.199007 0.199007 0.199007 0.199007 0.199007 0.199007 0.199007 0.199007 0.199007 0.199007 0.199007 0.199007 0.199007 0.199007 0.199007 0.199007 0.199007 0.199007 0.199007 0.199007 0.199007 0.199007 0.199007 0.199007 0.199007 0.199007 0.199007 0.199007 0.199007 0.199007 0.225018 0.225018 0.225018 0.225018 0.225018 0.225018 0.225018 0.225018 0.225018 0.225018 0.225018 0.225018 0.225018 0.225018 0.225018 0.225018 0.225018 0.225018 0.225018 0.225018 0.225018 0.225018 0.225018 0.225018 0.225018 0.225018 0.225018 0.225018 0.225018 0.244339 0.244339 0.244339 0.244339 0.244339 0.244339 0.244339 0.244339 0.244339 0.244339 0.244339 0.244339 0.244339 0.244339 0.244339 0.244339 0.244339 0.244339 0.244339 0.244339 0.244339 0.244339 0.244339 0.251976 0.251976 0.251976 0.251976 0.251976 0.251976 0.251976 0.251976 0.251976 0.251976 0.251976 0.251976 0.251976 0.251976 0.251976 0.251976 0.251976 0.251976 0.251976 0.251976 0.264906 0.264906 0.264906 0.264906 0.264906 0.264906 0.264906 0.264906 0.264906 0.264906 0.264906 0.264906 0.264906 0.264906 0.264906 0.264906 0.264906 0.256074 0.256074 0.256074 0.256074 0.256074 0.256074 0.256074 0.256074 0.256074 0.256074 0.256074 0.256074 0.256074 0.256074 0.256074 0.256074 0.256074 0.269680 0.269680 0.269680 0.269680 0.269680 0.269680 0.269680 0.269680 0.269680 0.269680 0.269680 0.269680 0.269680 0.269680 0.264906 0.264906 0.264906 0.264906 0.264906 0.264906 0.264906 0.264906 0.264906 0.264906 0.264906 0.264906 0.264906 0.264906 0.256074 0.256074 0.256074 0.256074 0.256074 0.256074 0.256074 0.256074 0.256074 0.256074 0.256074 0.256074 0.256074 0.256074 0.269680 0.269680 0.269680 0.269680 0.269680 0.269680 0.269680 0.269680 0.269680 0.269680 0.269680 0.269680 0.264906 0.264906 0.264906 0.264906 0.264906 0.264906 0.264906 0.264906 0.264906 0.264906 0.264906 0.264906 0.260378 0.260378 0.260378 0.260378 0.260378 0.260378 0.260378 0.260378 0.260378 0.260378 0.260378 0.260378 0.274721 0.274721 0.274721 0.274721 0.274721 0.274721 0.274721 0.274721 0.274721 0.274721 0.256074 0.256074 0.256074 0.256074 0.256074 0.256074 0.256074 0.256074 0.256074 0.256074 0.256074 0.264906 0.264906 0.264906 0.264906 0.264906 0.264906 0.264906 0.264906 0.264906 0.264906 0.260378 0.260378 0.260378 0.260378 0.260378 0.260378 0.260378 0.260378 0.260378 0.260378 0.256074 0.256074 0.256074 0.256074 0.256074 0.256074 0.256074 0.256074 0.256074 0.256074 0.260378 0.260378 0.260378 0.260378 0.260378 0.260378 0.260378 0.260378 0.260378 0.256074 0.256074 0.256074 0.256074 0.256074 0.256074 0.256074 0.256074 0.256074 0.251976 0.251976 0.251976 0.251976 0.251976 0.251976 0.251976 0.251976 0.251976 0.251976 0.251976 0.251976 0.251976 0.251976
