# Output from CTFFind version 4.1.9, run on 2019-11-03 19:48:23
# Input file: stack1_bm3d_averaged_1_5.25_0_2000_half.mrc ; Number of micrographs: 1
# Pixel size: 3.000 Angstroms ; acceleration voltage: 300.0 keV ; spherical aberration: 0.00 mm ; amplitude contrast: 0.07
# Box size: 512 pixels ; min. res.: 30.0 Angstroms ; max. res.: 5.0 Angstroms ; min. def.: 5000.0 um; max. def. 50000.0 um; num. frames averaged: 1
# 6 lines per micrograph: #1 - spatial frequency (1/Angstroms); #2 - 1D rotational average of spectrum (assuming no astigmatism); #3 - 1D rotational average of spectrum; #4 - CTF fit; #5 - cross-correlation between spectrum and CTF fit; #6 - 2sigma of expected cross correlation of noise
0.000000 0.000651 0.001302 0.001953 0.002604 0.003255 0.003906 0.004557 0.005208 0.005859 0.006510 0.007161 0.007812 0.008464 0.009115 0.009766 0.010417 0.011068 0.011719 0.012370 0.013021 0.013672 0.014323 0.014974 0.015625 0.016276 0.016927 0.017578 0.018229 0.018880 0.019531 0.020182 0.020833 0.021484 0.022135 0.022786 0.023438 0.024089 0.024740 0.025391 0.026042 0.026693 0.027344 0.027995 0.028646 0.029297 0.029948 0.030599 0.031250 0.031901 0.032552 0.033203 0.033854 0.034505 0.035156 0.035807 0.036458 0.037109 0.037760 0.038411 0.039062 0.039714 0.040365 0.041016 0.041667 0.042318 0.042969 0.043620 0.044271 0.044922 0.045573 0.046224 0.046875 0.047526 0.048177 0.048828 0.049479 0.050130 0.050781 0.051432 0.052083 0.052734 0.053385 0.054036 0.054688 0.055339 0.055990 0.056641 0.057292 0.057943 0.058594 0.059245 0.059896 0.060547 0.061198 0.061849 0.062500 0.063151 0.063802 0.064453 0.065104 0.065755 0.066406 0.067057 0.067708 0.068359 0.069010 0.069661 0.070312 0.070964 0.071615 0.072266 0.072917 0.073568 0.074219 0.074870 0.075521 0.076172 0.076823 0.077474 0.078125 0.078776 0.079427 0.080078 0.080729 0.081380 0.082031 0.082682 0.083333 0.083984 0.084635 0.085286 0.085938 0.086589 0.087240 0.087891 0.088542 0.089193 0.089844 0.090495 0.091146 0.091797 0.092448 0.093099 0.093750 0.094401 0.095052 0.095703 0.096354 0.097005 0.097656 0.098307 0.098958 0.099609 0.100260 0.100911 0.101562 0.102214 0.102865 0.103516 0.104167 0.104818 0.105469 0.106120 0.106771 0.107422 0.108073 0.108724 0.109375 0.110026 0.110677 0.111328 0.111979 0.112630 0.113281 0.113932 0.114583 0.115234 0.115885 0.116536 0.117188 0.117839 0.118490 0.119141 0.119792 0.120443 0.121094 0.121745 0.122396 0.123047 0.123698 0.124349 0.125000 0.125651 0.126302 0.126953 0.127604 0.128255 0.128906 0.129557 0.130208 0.130859 0.131510 0.132161 0.132812 0.133464 0.134115 0.134766 0.135417 0.136068 0.136719 0.137370 0.138021 0.138672 0.139323 0.139974 0.140625 0.141276 0.141927 0.142578 0.143229 0.143880 0.144531 0.145182 0.145833 0.146484 0.147135 0.147786 0.148438 0.149089 0.149740 0.150391 0.151042 0.151693 0.152344 0.152995 0.153646 0.154297 0.154948 0.155599 0.156250 0.156901 0.157552 0.158203 0.158854 0.159505 0.160156 0.160807 0.161458 0.162109 0.162760 0.163411 0.164062 0.164714 0.165365 0.166016 0.166667 0.167318 0.167969 0.168620 0.169271 0.169922 0.170573 0.171224 0.171875 0.172526 0.173177 0.173828 0.174479 0.175130 0.175781 0.176432 0.177083 0.177734 0.178385 0.179036 0.179688 0.180339 0.180990 0.181641 0.182292 0.182943 0.183594 0.184245 0.184896 0.185547 0.186198 0.186849 0.187500 0.188151 0.188802 0.189453 0.190104 0.190755 0.191406 0.192057 0.192708 0.193359 0.194010 0.194661 0.195312 0.195964 0.196615 0.197266 0.197917 0.198568 0.199219 0.199870 0.200521 0.201172 0.201823 0.202474 0.203125 0.203776 0.204427 0.205078 0.205729 0.206380 0.207031 0.207682 0.208333 0.208984 0.209635 0.210286 0.210938 0.211589 0.212240 0.212891 0.213542 0.214193 0.214844 0.215495 0.216146 0.216797 0.217448 0.218099 0.218750 0.219401 0.220052 0.220703 0.221354 0.222005 0.222656 0.223307 0.223958 0.224609 0.225260 0.225911 0.226562 0.227214 0.227865 0.228516 0.229167 0.229818 0.230469 0.231120 0.231771 0.232422 0.233073 0.233724 0.234375 0.235026 0.235677
       0.35061        0.35061        0.35061        0.35061        0.35061        0.35061        0.35061        0.35061        0.35061        0.35061        0.35061        0.35061        0.35061        0.35061        0.35061        0.35061        0.35061        0.35061        0.35061        0.35061        0.35061        0.35061        0.35061        0.35061        0.35061        0.35061        0.35061        0.35061        0.35061        0.35061        0.35061        0.35061        0.35061        0.35061        0.35061        0.35061        0.35061        0.35061        0.35061        0.35061        0.35061        0.35061        0.35061        0.35061        0.35061        0.35061        0.35061        0.35061        0.35061        0.35061        0.35061        0.40617        0.59470        0.28095        0.12648       -0.01550       -0.27048       -0.09715       -0.17341       -0.20247        0.01719       -0.12986       -0.11138       -0.05732       -0.03626       -0.12865       -0.15739       -0.29608       -0.40002       -0.50403       -0.44641       -0.34634       -0.27202       -0.39559       -0.30651       -0.40386       -0.33864       -0.38598       -0.20507       -0.20047       -0.25659       -0.09154       -0.04592       -0.04565        0.08319        0.03130        0.20311        0.21921        0.33356        0.36787        0.45257        0.48644        0.54004        0.60198        0.67004        0.57031        0.52846        0.50621        0.48650        0.57090        0.48193        0.42806        0.40800        0.33162        0.28587        0.30944        0.32161        0.22110        0.19335        0.09178        0.13049        0.13398        0.15665        0.12557        0.18972        0.24071        0.29968        0.29840        0.33015        0.46283        0.42384        0.48778        0.63490        0.62596        0.55735        0.55416        0.57763        0.42842        0.48048        0.36845        0.31814        0.29149        0.24731        0.25194        0.19529        0.17082        0.15315        0.22389        0.24744        0.27705        0.34071        0.32932        0.40690        0.47470        0.47016        0.44980        0.47908        0.55339        0.49280        0.48069        0.42453        0.35450        0.34078        0.26458        0.29697        0.23391        0.21971        0.28642        0.23390        0.25669        0.32141        0.41322        0.41520        0.44892        0.42717        0.50554        0.49847        0.46839        0.43615        0.39258        0.38231        0.39265        0.40381        0.34744        0.28255        0.31397        0.29104        0.29428        0.30114        0.34603        0.37489        0.39792        0.45463        0.49286        0.41226        0.42939        0.43313        0.39483        0.33265        0.36991        0.32697        0.32035        0.33385        0.29561        0.26448        0.32734        0.34164        0.41443        0.42676        0.41775        0.40676        0.39844        0.37475        0.37321        0.31125        0.31603        0.34969        0.30224        0.31300        0.33021        0.34642        0.34965        0.35469        0.38710        0.38519        0.45638        0.39313        0.34314        0.36446        0.34364        0.33361        0.33252        0.33228        0.37294        0.33411        0.35748        0.35349        0.41198        0.37782        0.36453        0.38620        0.38140        0.36084        0.34158        0.33367        0.31063        0.35236        0.33061        0.31594        0.32914        0.36200        0.35208        0.34470        0.33633        0.30344        0.29985        0.27819        0.31071        0.33367        0.35086        0.33590        0.32215        0.37170        0.33396        0.34294        0.32509        0.30251        0.34362        0.31979        0.31533        0.34457        0.32639        0.31737        0.29910        0.34154        0.37039        0.32409        0.31304        0.32217        0.32188        0.30128        0.35396        0.32306        0.29226        0.33918        0.30474        0.34613        0.35730        0.37411        0.31231        0.31400        0.26748        0.33665        0.36034        0.34329        0.31415        0.30921        0.33238        0.32345        0.29147        0.31873        0.32034        0.31540        0.31186        0.30289        0.29643        0.29858        0.30143        0.32286        0.28534        0.31131        0.35662        0.36910        0.35025        0.31831        0.33091        0.28546        0.30647        0.28719        0.33555        0.34275        0.27341        0.26028        0.32630        0.32911        0.31751        0.29030        0.30456        0.32863        0.29009        0.30650        0.33411        0.32638        0.28247        0.25803        0.30021        0.33881        0.28587        0.26594        0.28800        0.27527        0.30454        0.36879        0.30993        0.32652        0.28143        0.26363        0.30024        0.28615        0.23377        0.25276        0.27734        0.24816        0.22008        0.26908        0.28771        0.39303        0.29673        0.26032        0.21694        0.24499        0.25931        0.24473        0.31756        0.20281        0.16061        0.29606        0.41104        0.30872        0.12293        0.06020       -0.57204       -1.10662
2.967488 2.935157 2.903005 2.871031 2.839236 2.807620 2.776182 2.744922 2.713841 2.682939 2.652215 2.621669 2.591303 2.561114 2.531104 2.501273 2.471620 2.442146 2.412851 2.383734 2.354795 2.326035 2.297454 2.269051 2.240826 2.212780 2.184913 2.157224 2.129714 2.102382 2.075229 2.048255 2.021459 1.994841 1.968402 1.942142 1.916060 1.890156 1.864431 1.838885 1.813517 1.788328 1.763317 1.738485 1.713832 1.689357 1.665060 1.640942 1.617002 1.593241 1.569659 1.533574 1.880798 1.625735 1.166545 1.013638 0.408473 0.886964 0.515387 0.654560 0.877529 0.678390 0.574970 0.748673 0.693094 0.611302 0.517632 0.324887 0.108124 -0.020632 -0.019140 0.007342 0.385875 -0.040399 0.121141 -0.003844 0.060165 -0.062019 0.198333 0.171900 0.079770 0.263007 0.373451 0.279340 0.470968 0.388394 0.666385 0.556615 0.798076 0.751996 0.861866 1.020408 0.921334 1.110885 1.132890 1.113440 0.893415 0.883022 0.872584 0.899067 0.852219 0.743064 0.637944 0.585892 0.501461 0.470495 0.506602 0.359534 0.322828 0.164991 0.127418 0.170560 0.184807 0.120328 0.160922 0.244610 0.327466 0.327243 0.385858 0.400375 0.542483 0.382750 0.716862 0.747176 0.650553 0.593495 0.652506 0.443870 0.413189 0.385476 0.202991 0.214619 0.062141 0.155830 -0.005666 0.002755 -0.070449 -0.052251 0.104958 0.029588 0.115842 0.167474 0.208257 0.282086 0.347003 0.287906 0.306680 0.395529 0.390588 0.328776 0.287646 0.186300 0.142871 0.055954 -0.009815 0.008416 -0.112258 0.016218 0.011741 -0.085859 -0.044815 0.117343 0.243395 0.164859 0.253245 0.207242 0.401899 0.275694 0.271542 0.270426 0.150536 0.112273 0.286010 0.078533 0.078539 0.011307 0.074987 -0.009525 0.080487 0.001784 0.164836 0.058421 0.201830 0.282250 0.252372 0.115458 0.202863 0.160726 0.089332 0.084448 0.076634 0.009748 0.017686 0.053248 -0.080511 -0.056493 0.047644 0.044006 0.208937 0.120430 0.145460 0.065968 0.093372 0.044431 0.020106 -0.071870 -0.007397 0.000373 -0.072029 -0.021481 -0.010624 0.022504 -0.021836 0.025359 0.073196 0.072993 0.193022 -0.007493 0.033179 0.026129 -0.024310 -0.002127 -0.021503 0.005261 0.074921 -0.028665 0.014573 0.038755 0.119030 0.038354 0.036581 0.086349 0.023023 0.042912 -0.018181 0.004121 -0.035893 0.023280 -0.010348 -0.026910 -0.013521 0.056421 -0.012921 0.029496 -0.023412 -0.050209 -0.055996 -0.084694 -0.022592 0.010586 0.044744 -0.025217 -0.010065 0.086235 -0.013969 0.039463 -0.013363 -0.015824 0.037966 -0.018367 0.022097 0.042195 0.016615 -0.005961 -0.021055 0.060176 0.085578 0.011994 0.020449 0.045125 -0.016605 0.028780 0.077367 0.023740 0.001699 0.061587 0.036076 0.026505 0.059959 0.070166 0.017894 -0.021896 -0.076418 0.056335 0.094816 0.001057 0.008445 -0.019659 0.084733 -0.009986 -0.044244 0.024624 0.031079 0.007847 0.004566 -0.039081 0.005528 -0.044415 -0.010150 -0.000904 -0.053071 0.035075 0.075975 0.094365 0.030197 0.015757 -0.001716 -0.026296 -0.026653 -0.039628 0.015384 0.035619 -0.101060 -0.084809 0.018474 0.003013 0.018139 -0.056263 -0.083753 0.027483 -0.038062 -0.024144 0.080557 -0.006988 -0.015024 -0.071225 -0.017896 0.082394 -0.020114 0.004317 0.023309 0.057316 0.067767 0.172592 0.055597 0.086428 0.022894 0.096744 0.096182 0.035152 -0.009425 0.006965 0.078198 0.040492 -0.000017 0.042847 0.117250 0.283097 0.021926 0.108295 -0.094971 0.024638 0.083935 0.011270 0.154195 0.248302 0.223840 0.510378 0.696094 0.334988 0.078180 0.091354 -1.557663
0.072396 0.072906 0.074436 0.076985 0.080553 0.085138 0.090741 0.097358 0.104988 0.113628 0.123274 0.133921 0.145565 0.158199 0.171814 0.186402 0.201950 0.218445 0.235872 0.254212 0.273445 0.293547 0.314491 0.336247 0.358779 0.382048 0.406013 0.430625 0.455831 0.481573 0.507788 0.534405 0.561348 0.588537 0.615881 0.643286 0.670649 0.697861 0.724806 0.751361 0.777395 0.802771 0.827345 0.850967 0.873480 0.894722 0.914527 0.932721 0.949129 0.963572 0.975870 0.985839 0.993300 0.998070 0.999972 0.998834 0.994487 0.986773 0.975542 0.960656 0.941990 0.919437 0.892906 0.862327 0.827654 0.788865 0.745964 0.698987 0.648001 0.593106 0.534438 0.472171 0.406517 0.337728 0.266098 0.191963 0.115698 0.037723 0.041505 0.121488 0.201690 0.281541 0.360439 0.437755 0.512836 0.585010 0.653592 0.717895 0.777228 0.830912 0.878286 0.918712 0.951591 0.976367 0.992540 0.999672 0.997405 0.985459 0.963654 0.931906 0.890248 0.838825 0.777908 0.707897 0.629322 0.542846 0.449264 0.349501 0.244605 0.135743 0.024190 0.088684 0.201430 0.312531 0.420429 0.523541 0.620287 0.709111 0.788514 0.857074 0.913482 0.956564 0.985317 0.998928 0.996804 0.978593 0.944207 0.893833 0.827952 0.747337 0.653064 0.546499 0.429293 0.303364 0.170866 0.034165 0.104196 0.241553 0.375160 0.502246 0.620079 0.726018 0.817586 0.892529 0.948878 0.985008 0.999698 0.992171 0.962141 0.909841 0.836041 0.742055 0.629734 0.501447 0.360035 0.208772 0.051288 0.108508 0.266515 0.418554 0.560470 0.688250 0.798151 0.886806 0.951346 0.989505 0.999707 0.981147 0.933851 0.858700 0.757454 0.632716 0.487903 0.327156 0.155247 0.022559 0.200650 0.373245 0.534579 0.679102 0.801673 0.897762 0.963628 0.996481 0.994626 0.957559 0.886036 0.782092 0.649011 0.491256 0.314333 0.124629 0.070808 0.264525 0.448939 0.616640 0.760693 0.874941 0.954289 0.994950 0.994653 0.952796 0.870525 0.750751 0.598081 0.418679 0.220037 0.010691 0.200129 0.402911 0.588276 0.747423 0.872574 0.957367 0.997209 0.989563 0.934135 0.832963 0.690393 0.512937 0.309007 0.088556 0.137390 0.357274 0.559591 0.733501 0.869430 0.959623 0.998622 0.983637 0.914781 0.795154 0.630765 0.430270 0.204568 0.033763 0.271146 0.493772 0.688400 0.843176 0.948374 0.997052 0.985559 0.913853 0.785608 0.608096 0.391831 0.149989 0.102349 0.349123 0.574316 0.762987 0.902309 0.982473 0.997429 0.945405 0.829140 0.655829 0.436739 0.186536 0.077641 0.337349 0.574098 0.770690 0.912507 0.988628 0.992744 0.923745 0.785936 0.588862 0.346717 0.077388 0.198831 0.460726 0.687822 0.861989 0.968937 0.999461 0.950298 0.824551 0.631588 0.386440 0.108701 0.178990 0.452759 0.689485 0.868774 0.974769 0.997629 0.934521 0.790040 0.575995 0.310520 0.016640 0.279703 0.551889 0.775052 0.928365 0.997068 0.973974 0.860318 0.665834 0.408041 0.110753 0.198050 0.488822 0.733281 0.907188 0.992832 0.980920 0.871698 0.675136 0.410149 0.102886 0.215797 0.513369 0.758968 0.926638 0.998155 0.965112 0.830030 0.606324 0.317101 0.007106 0.331511 0.620774 0.842859 0.972665 0.994950 0.906258 0.715548 0.443455 0.120177 0.217777 0.531663 0.784947 0.947614 0.999820 0.934447 0.758210 0.491141 0.164466 0.182956 0.509169 0.774214 0.945049 0.999795 0.930666 0.745234 0.465785 0.126795 0.229216 0.556950 0.814092 0.966862 0.994561 0.892533 0.673094 0.364238 0.006229 0.353571 0.666886 0.891063
1.000000 1.000000 1.000000 1.000000 1.000000 1.000000 1.000000 1.000000 1.000000 1.000000 1.000000 1.000000 1.000000 1.000000 1.000000 1.000000 1.000000 1.000000 1.000000 1.000000 1.000000 1.000000 1.000000 1.000000 1.000000 1.000000 1.000000 1.000000 1.000000 1.000000 1.000000 1.000000 1.000000 1.000000 1.000000 1.000000 1.000000 1.000000 1.000000 1.000000 1.000000 1.000000 1.000000 1.000000 1.000000 1.000000 1.000000 1.000000 1.000000 1.000000 1.000000 1.000000 0.839460 0.839460 0.839460 0.846886 0.846886 0.846886 0.846886 0.846886 0.846886 0.846886 0.846886 0.846886 0.846886 0.846886 0.846886 0.846886 0.846886 0.846886 0.846886 0.846886 0.846886 0.846886 0.846886 0.846886 0.846886 0.846886 0.846886 0.846886 0.846886 0.846886 0.846886 0.846886 0.846886 0.846886 0.846886 0.846886 0.846886 0.846886 0.846886 0.846886 0.846886 0.846886 0.846886 0.846886 0.860554 0.866226 0.868650 0.871296 0.874294 0.871640 0.870507 0.870109 0.870340 0.871241 0.882163 0.906973 0.923599 0.927198 0.938604 0.942308 0.947725 0.949063 0.958067 0.962169 0.964023 0.960754 0.960125 0.961951 0.952646 0.942849 0.940457 0.937421 0.954161 0.943682 0.939295 0.934968 0.933215 0.930844 0.931870 0.932449 0.925458 0.926052 0.926087 0.925304 0.925364 0.923379 0.922313 0.904846 0.906151 0.905399 0.908417 0.887699 0.880696 0.871931 0.864385 0.875840 0.869093 0.861701 0.860592 0.849398 0.849847 0.850016 0.848988 0.831662 0.829582 0.826005 0.821905 0.821493 0.821348 0.827162 0.829575 0.831064 0.818059 0.792607 0.774237 0.747882 0.746167 0.747794 0.751969 0.746956 0.748030 0.744964 0.742084 0.736094 0.734432 0.728178 0.731011 0.726858 0.719107 0.713107 0.691268 0.682761 0.683313 0.654802 0.651555 0.654568 0.655454 0.624432 0.621204 0.624205 0.631117 0.636647 0.648176 0.642326 0.632022 0.599624 0.573540 0.555642 0.571262 0.597776 0.588560 0.591355 0.569445 0.603094 0.608677 0.626310 0.638224 0.640409 0.631328 0.595482 0.554498 0.554874 0.555689 0.557390 0.555502 0.555232 0.562448 0.587361 0.569303 0.551403 0.539038 0.533358 0.537564 0.551913 0.526578 0.517770 0.490362 0.467371 0.450244 0.456021 0.440693 0.428389 0.422476 0.413170 0.397293 0.400631 0.419304 0.410170 0.408083 0.409278 0.407097 0.420602 0.381483 0.335759 0.336727 0.330844 0.328119 0.316015 0.298872 0.303265 0.311883 0.322848 0.357240 0.330851 0.314546 0.288697 0.290116 0.271248 0.291181 0.278971 0.265871 0.245405 0.221234 0.193318 0.195596 0.219472 0.246990 0.214513 0.177302 0.144837 0.137166 0.114375 0.105513 0.043980 -0.016590 -0.024516 -0.016720 -0.025248 -0.016699 -0.017205 -0.035439 -0.010496 0.004715 0.050045 0.022929 0.019184 -0.009138 0.007589 -0.029832 -0.041234 -0.068829 -0.064206 -0.050108 -0.026006 -0.062246 -0.077895 -0.096371 -0.091120 -0.126752 -0.108164 -0.112842 -0.108033 -0.115140 -0.158057 -0.167206 -0.191645 -0.213084 -0.135652 -0.136238 -0.130147 -0.148175 -0.142890 -0.126460 -0.134745 -0.138551 -0.116966 -0.124001 -0.106500 -0.108165 -0.103675 -0.065915 -0.059160 -0.066468 -0.070849 -0.055868 -0.062993 -0.075738 -0.072820 -0.029098 -0.011475 0.001727 -0.013636 -0.058833 -0.058833 -0.058833 -0.071159 -0.071159 -0.071159 -0.071159 -0.071159 -0.071159 -0.071159 -0.071159 -0.071159 -0.085829 -0.085829 -0.085829 -0.085829 -0.085829 -0.085829 -0.085829 -0.085829 -0.085829 -0.085829 -0.085829 -0.085829 -0.085829 -0.085829 -0.085829 -0.085829 -0.085829
0.000000 0.000000 0.000000 0.000000 0.000000 0.000000 0.000000 0.000000 0.000000 0.000000 0.000000 0.000000 0.000000 0.000000 0.000000 0.000000 0.000000 0.000000 0.000000 0.000000 0.000000 0.000000 0.000000 0.000000 0.000000 0.000000 0.000000 0.000000 0.000000 0.000000 0.000000 0.000000 0.000000 0.000000 0.000000 0.000000 0.000000 0.000000 0.000000 0.000000 0.000000 0.000000 0.000000 0.000000 0.000000 0.000000 0.000000 0.000000 0.000000 0.000000 0.000000 0.000000 0.180334 0.180334 0.180334 0.199007 0.199007 0.199007 0.199007 0.199007 0.199007 0.199007 0.199007 0.199007 0.199007 0.199007 0.199007 0.199007 0.199007 0.199007 0.199007 0.199007 0.199007 0.199007 0.199007 0.199007 0.199007 0.199007 0.199007 0.199007 0.199007 0.199007 0.199007 0.199007 0.199007 0.199007 0.199007 0.199007 0.199007 0.199007 0.199007 0.199007 0.199007 0.199007 0.199007 0.199007 0.230940 0.230940 0.230940 0.230940 0.230940 0.230940 0.230940 0.230940 0.230940 0.230940 0.230940 0.230940 0.230940 0.230940 0.230940 0.230940 0.230940 0.230940 0.230940 0.230940 0.230940 0.230940 0.230940 0.230940 0.230940 0.230940 0.230940 0.230940 0.244339 0.244339 0.244339 0.244339 0.244339 0.244339 0.244339 0.244339 0.244339 0.244339 0.244339 0.244339 0.244339 0.244339 0.244339 0.244339 0.244339 0.244339 0.244339 0.244339 0.244339 0.244339 0.244339 0.256074 0.256074 0.256074 0.256074 0.256074 0.256074 0.256074 0.256074 0.256074 0.256074 0.256074 0.256074 0.256074 0.256074 0.256074 0.256074 0.256074 0.256074 0.256074 0.256074 0.256074 0.256074 0.256074 0.256074 0.256074 0.256074 0.256074 0.256074 0.256074 0.256074 0.256074 0.256074 0.256074 0.256074 0.256074 0.256074 0.256074 0.264906 0.264906 0.264906 0.264906 0.264906 0.264906 0.264906 0.264906 0.264906 0.264906 0.264906 0.264906 0.264906 0.264906 0.264906 0.264906 0.264906 0.264906 0.264906 0.264906 0.264906 0.264906 0.264906 0.264906 0.264906 0.264906 0.264906 0.264906 0.264906 0.264906 0.264906 0.264906 0.264906 0.264906 0.264906 0.264906 0.264906 0.264906 0.264906 0.264906 0.264906 0.264906 0.264906 0.264906 0.264906 0.264906 0.264906 0.264906 0.264906 0.264906 0.264906 0.264906 0.264906 0.264906 0.264906 0.264906 0.264906 0.264906 0.269680 0.269680 0.269680 0.269680 0.269680 0.269680 0.269680 0.269680 0.269680 0.269680 0.269680 0.269680 0.264906 0.264906 0.264906 0.264906 0.264906 0.264906 0.264906 0.264906 0.264906 0.264906 0.264906 0.264906 0.269680 0.269680 0.269680 0.269680 0.269680 0.269680 0.269680 0.269680 0.269680 0.269680 0.269680 0.264906 0.264906 0.264906 0.264906 0.264906 0.264906 0.264906 0.264906 0.264906 0.264906 0.264906 0.256074 0.256074 0.256074 0.256074 0.256074 0.256074 0.256074 0.256074 0.256074 0.256074 0.256074 0.264906 0.264906 0.264906 0.264906 0.264906 0.264906 0.264906 0.264906 0.264906 0.264906 0.260378 0.260378 0.260378 0.260378 0.260378 0.260378 0.260378 0.260378 0.260378 0.260378 0.264906 0.264906 0.264906 0.264906 0.264906 0.264906 0.264906 0.264906 0.264906 0.260378 0.260378 0.260378 0.260378 0.260378 0.260378 0.260378 0.260378 0.260378 0.256074 0.256074 0.256074 0.256074 0.256074 0.256074 0.256074 0.256074 0.256074 0.251976 0.251976 0.251976 0.251976 0.251976 0.251976 0.251976 0.251976 0.251976 0.251976 0.251976 0.251976 0.251976 0.251976 0.251976 0.251976 0.251976
