# Output from CTFFind version 4.1.9, run on 2019-11-02 17:49:15
# Input file: stack6_bm3d_averaged_1_1.25_0_2500_half.mrc ; Number of micrographs: 1
# Pixel size: 3.000 Angstroms ; acceleration voltage: 300.0 keV ; spherical aberration: 0.00 mm ; amplitude contrast: 0.07
# Box size: 512 pixels ; min. res.: 30.0 Angstroms ; max. res.: 5.0 Angstroms ; min. def.: 5000.0 um; max. def. 50000.0 um; num. frames averaged: 1
# 6 lines per micrograph: #1 - spatial frequency (1/Angstroms); #2 - 1D rotational average of spectrum (assuming no astigmatism); #3 - 1D rotational average of spectrum; #4 - CTF fit; #5 - cross-correlation between spectrum and CTF fit; #6 - 2sigma of expected cross correlation of noise
0.000000 0.000651 0.001302 0.001953 0.002604 0.003255 0.003906 0.004557 0.005208 0.005859 0.006510 0.007161 0.007812 0.008464 0.009115 0.009766 0.010417 0.011068 0.011719 0.012370 0.013021 0.013672 0.014323 0.014974 0.015625 0.016276 0.016927 0.017578 0.018229 0.018880 0.019531 0.020182 0.020833 0.021484 0.022135 0.022786 0.023438 0.024089 0.024740 0.025391 0.026042 0.026693 0.027344 0.027995 0.028646 0.029297 0.029948 0.030599 0.031250 0.031901 0.032552 0.033203 0.033854 0.034505 0.035156 0.035807 0.036458 0.037109 0.037760 0.038411 0.039062 0.039714 0.040365 0.041016 0.041667 0.042318 0.042969 0.043620 0.044271 0.044922 0.045573 0.046224 0.046875 0.047526 0.048177 0.048828 0.049479 0.050130 0.050781 0.051432 0.052083 0.052734 0.053385 0.054036 0.054688 0.055339 0.055990 0.056641 0.057292 0.057943 0.058594 0.059245 0.059896 0.060547 0.061198 0.061849 0.062500 0.063151 0.063802 0.064453 0.065104 0.065755 0.066406 0.067057 0.067708 0.068359 0.069010 0.069661 0.070312 0.070964 0.071615 0.072266 0.072917 0.073568 0.074219 0.074870 0.075521 0.076172 0.076823 0.077474 0.078125 0.078776 0.079427 0.080078 0.080729 0.081380 0.082031 0.082682 0.083333 0.083984 0.084635 0.085286 0.085938 0.086589 0.087240 0.087891 0.088542 0.089193 0.089844 0.090495 0.091146 0.091797 0.092448 0.093099 0.093750 0.094401 0.095052 0.095703 0.096354 0.097005 0.097656 0.098307 0.098958 0.099609 0.100260 0.100911 0.101562 0.102214 0.102865 0.103516 0.104167 0.104818 0.105469 0.106120 0.106771 0.107422 0.108073 0.108724 0.109375 0.110026 0.110677 0.111328 0.111979 0.112630 0.113281 0.113932 0.114583 0.115234 0.115885 0.116536 0.117188 0.117839 0.118490 0.119141 0.119792 0.120443 0.121094 0.121745 0.122396 0.123047 0.123698 0.124349 0.125000 0.125651 0.126302 0.126953 0.127604 0.128255 0.128906 0.129557 0.130208 0.130859 0.131510 0.132161 0.132812 0.133464 0.134115 0.134766 0.135417 0.136068 0.136719 0.137370 0.138021 0.138672 0.139323 0.139974 0.140625 0.141276 0.141927 0.142578 0.143229 0.143880 0.144531 0.145182 0.145833 0.146484 0.147135 0.147786 0.148438 0.149089 0.149740 0.150391 0.151042 0.151693 0.152344 0.152995 0.153646 0.154297 0.154948 0.155599 0.156250 0.156901 0.157552 0.158203 0.158854 0.159505 0.160156 0.160807 0.161458 0.162109 0.162760 0.163411 0.164062 0.164714 0.165365 0.166016 0.166667 0.167318 0.167969 0.168620 0.169271 0.169922 0.170573 0.171224 0.171875 0.172526 0.173177 0.173828 0.174479 0.175130 0.175781 0.176432 0.177083 0.177734 0.178385 0.179036 0.179688 0.180339 0.180990 0.181641 0.182292 0.182943 0.183594 0.184245 0.184896 0.185547 0.186198 0.186849 0.187500 0.188151 0.188802 0.189453 0.190104 0.190755 0.191406 0.192057 0.192708 0.193359 0.194010 0.194661 0.195312 0.195964 0.196615 0.197266 0.197917 0.198568 0.199219 0.199870 0.200521 0.201172 0.201823 0.202474 0.203125 0.203776 0.204427 0.205078 0.205729 0.206380 0.207031 0.207682 0.208333 0.208984 0.209635 0.210286 0.210938 0.211589 0.212240 0.212891 0.213542 0.214193 0.214844 0.215495 0.216146 0.216797 0.217448 0.218099 0.218750 0.219401 0.220052 0.220703 0.221354 0.222005 0.222656 0.223307 0.223958 0.224609 0.225260 0.225911 0.226562 0.227214 0.227865 0.228516 0.229167 0.229818 0.230469 0.231120 0.231771 0.232422 0.233073 0.233724 0.234375 0.235026 0.235677
       0.31144        0.31144        0.31144        0.31144        0.31144        0.31144        0.31144        0.31144        0.31144        0.31144        0.31144        0.31144        0.31144        0.31144        0.31144        0.31144        0.31144        0.31144        0.31144        0.31144        0.31144        0.31144        0.31144        0.31144        0.31144        0.31144        0.31144        0.31144        0.31144        0.31144        0.31144        0.31144        0.31144        0.31144        0.31144        0.31144        0.31144        0.31144        0.31144        0.31144        0.31144        0.31144        0.31144        0.31144        0.31144        0.31144        0.31144        0.31144        0.31144        0.31144        0.31144        0.63637        0.81655        0.41501        0.31152        0.19005       -0.10547        0.11330       -0.00015        0.03445        0.11714        0.33821        0.42606        0.40683        0.22604       -0.00987        0.04767        0.07332       -0.16770       -0.17714       -0.08758       -0.10850       -0.29390       -0.18713       -0.30338       -0.25747       -0.28281       -0.40247       -0.47434       -0.47537       -0.41947       -0.34034       -0.43659       -0.36656       -0.41000       -0.35071       -0.27356       -0.19889       -0.19408       -0.13372       -0.09216        0.03811        0.08332        0.25054        0.28473        0.37416        0.40289        0.51558        0.58793        0.60714        0.74085        0.69794        0.73888        0.65074        0.66455        0.69722        0.63329        0.61727        0.60939        0.43690        0.39576        0.35688        0.32828        0.22545        0.13506        0.06129        0.05659       -0.00103       -0.07906       -0.03122       -0.03111       -0.06964        0.06494        0.16567        0.25611        0.31853        0.33869        0.42985        0.54396        0.58791        0.53949        0.66987        0.56327        0.53979        0.59984        0.63555        0.52979        0.46053        0.40388        0.37836        0.25240        0.21354        0.13365        0.11682        0.05656        0.06187        0.10735        0.16393        0.15121        0.17975        0.22027        0.24026        0.33247        0.45260        0.49268        0.49629        0.52393        0.57947        0.57200        0.52216        0.42038        0.38444        0.36510        0.26777        0.24538        0.21740        0.20777        0.20446        0.18185        0.15739        0.12303        0.18791        0.24561        0.34661        0.38166        0.40703        0.46212        0.53467        0.47542        0.48414        0.42548        0.40315        0.38157        0.36309        0.28867        0.25960        0.20441        0.23756        0.21932        0.19573        0.21591        0.22411        0.24454        0.30199        0.40101        0.39888        0.37446        0.39126        0.45372        0.48046        0.43107        0.35650        0.32504        0.28212        0.26237        0.24664        0.21314        0.28341        0.29523        0.29404        0.31415        0.30622        0.34374        0.37423        0.37132        0.37155        0.35493        0.31964        0.33392        0.32021        0.29872        0.28738        0.27125        0.21545        0.27027        0.27415        0.30281        0.32079        0.34127        0.37238        0.33597        0.31598        0.35791        0.36965        0.26654        0.29681        0.30769        0.24364        0.21165        0.26212        0.27432        0.27841        0.29938        0.30459        0.33291        0.33374        0.35865        0.32742        0.32430        0.30976        0.29254        0.26814        0.24356        0.25513        0.26014        0.27713        0.30090        0.29333        0.29468        0.31740        0.33263        0.26590        0.30722        0.26709        0.26019        0.27205        0.26239        0.25732        0.26325        0.31166        0.28341        0.31575        0.28943        0.27778        0.31169        0.30919        0.33310        0.31416        0.29732        0.25268        0.25958        0.27314        0.26349        0.30974        0.31726        0.33698        0.32353        0.30837        0.25847        0.28763        0.21625        0.19995        0.25214        0.26824        0.25643        0.28851        0.31405        0.29355        0.35239        0.30566        0.26307        0.22902        0.23799        0.29060        0.30545        0.30462        0.26962        0.27877        0.25132        0.31439        0.27868        0.25086        0.27293        0.25377        0.29132        0.25277        0.28729        0.32658        0.28662        0.20752        0.22937        0.27568        0.32121        0.26602        0.26284        0.24105        0.28436        0.29140        0.38192        0.29807        0.28183        0.26367        0.26041        0.22173        0.18260        0.25169        0.21667        0.20180        0.18783        0.19285        0.23748        0.22329        0.24264        0.19834        0.24562        0.22812        0.20628        0.18443        0.15743        0.19638        0.23597        0.15599        0.07831        0.20327        0.19011        0.13944        0.24331        0.15137        0.23610        0.19073       -0.11228       -0.52147       -0.96988
2.848783 2.820717 2.792795 2.765017 2.737384 2.709896 2.682552 2.655352 2.628298 2.601387 2.574621 2.548000 2.521523 2.495190 2.469002 2.442959 2.417060 2.391306 2.365696 2.340230 2.314909 2.289733 2.264701 2.239813 2.215070 2.190472 2.166018 2.141708 2.117543 2.093523 2.069647 2.045915 2.022329 1.998886 1.975588 1.952435 1.929426 1.906561 1.883841 1.861266 1.838834 1.816548 1.794406 1.772408 1.750556 1.728847 1.707283 1.685863 1.664588 1.643458 1.622472 1.920535 2.268579 1.693232 1.738235 1.380378 0.942478 1.199565 1.025077 1.075146 1.028676 1.492791 1.516635 1.545351 1.276733 0.946692 0.823768 1.011743 0.717559 0.493789 0.587063 0.678373 0.419871 0.490450 0.326153 0.365996 0.252351 0.163724 -0.035340 0.005171 0.033214 0.078016 0.043179 0.079476 -0.040290 0.027279 0.110708 0.227993 0.285883 0.211639 0.322992 0.551493 0.447134 0.726940 0.795717 0.882549 0.906059 1.113670 1.134975 1.170764 1.325886 1.227978 1.362050 1.195438 1.107927 1.292823 1.139603 1.053234 1.123798 0.888465 0.735312 0.674188 0.670787 0.466303 0.396994 0.262496 0.224671 0.090900 -0.010218 0.088691 0.025459 -0.064529 0.113454 0.257273 0.305873 0.462332 0.483795 0.554766 0.715690 0.811729 0.654837 0.949357 0.800697 0.656118 0.764730 0.788502 0.705360 0.636573 0.442415 0.497531 0.285181 0.191932 0.140035 0.006230 -0.018863 -0.101876 -0.015189 0.014014 0.097897 -0.050649 0.249924 0.096759 0.207338 0.371616 0.431156 0.525305 0.435303 0.554522 0.667721 0.502413 0.382028 0.330410 0.318602 0.141988 0.129440 0.018451 0.092341 0.027940 0.001346 -0.029079 -0.125909 -0.016572 0.015709 0.103956 0.290686 0.202237 0.348281 0.370641 0.424531 0.410785 0.394161 0.330813 0.224034 0.303287 0.161839 0.159564 0.010005 0.054389 0.068162 -0.020691 -0.006978 0.013246 0.061150 0.076203 0.216457 0.302466 0.241164 0.207687 0.373976 0.395476 0.352187 0.244525 0.173982 0.149938 0.082890 0.074153 0.021932 0.019716 0.134559 0.050461 0.186870 0.083669 0.135034 0.223358 0.213177 0.229016 0.197721 0.193704 0.121001 0.164522 0.121597 0.100349 0.115109 -0.004961 0.026621 0.084553 0.049112 0.152882 0.112496 0.209920 0.193543 0.133942 0.123644 0.226372 0.124973 0.070281 0.092328 0.061754 -0.003376 -0.021397 0.050649 0.075191 0.034759 0.114461 0.108363 0.122177 0.134196 0.171775 0.127222 0.085907 0.101977 0.082810 0.013623 0.010443 0.035134 0.006577 0.071019 0.106104 0.063616 0.058028 0.127045 0.109646 0.013846 0.117939 0.016151 0.025518 0.047466 0.016976 0.005694 0.061287 0.082542 0.021498 0.102798 0.068474 0.025494 0.118057 0.073236 0.090054 0.090322 0.031508 -0.010856 -0.003966 0.045658 0.007268 0.063179 0.098135 0.094433 0.061749 0.132920 -0.012244 0.048828 -0.092011 -0.026481 -0.023136 0.014672 0.017954 0.033404 0.087636 0.052395 0.122374 0.001583 -0.019905 -0.077799 -0.081062 0.070823 0.028203 0.050102 -0.022985 -0.008525 -0.043819 0.049801 0.008555 -0.065809 -0.010481 -0.076712 0.026285 -0.040144 0.022189 0.060653 -0.020429 -0.087517 -0.054152 0.068873 0.051382 -0.010881 0.001788 -0.057050 0.092901 0.071448 0.179120 0.049278 0.026366 0.022469 0.077463 -0.053597 -0.036465 0.056220 -0.000217 -0.041980 -0.037505 -0.044388 0.085126 -0.061484 0.082160 -0.002029 0.096267 -0.008746 0.048505 -0.068809 -0.045968 -0.046541 0.092239 -0.023518 -0.227699 0.284498 0.270091 0.196290 0.412296 0.200482 0.300625 0.301501 -0.154720 -1.351530
0.072396 0.072834 0.074149 0.076339 0.079404 0.083345 0.088159 0.093846 0.100404 0.107831 0.116125 0.125283 0.135300 0.146173 0.157896 0.170462 0.183864 0.198094 0.213140 0.228991 0.245633 0.263051 0.281227 0.300141 0.319770 0.340089 0.361070 0.382682 0.404890 0.427655 0.450937 0.474690 0.498863 0.523403 0.548251 0.573345 0.598615 0.623991 0.649393 0.674738 0.699940 0.724904 0.749533 0.773722 0.797363 0.820342 0.842541 0.863837 0.884102 0.903205 0.921012 0.937382 0.952177 0.965252 0.976465 0.985669 0.992719 0.997473 0.999788 0.999525 0.996550 0.990734 0.981953 0.970093 0.955049 0.936726 0.915042 0.889928 0.861331 0.829216 0.793563 0.754376 0.711679 0.665519 0.615968 0.563124 0.507111 0.448082 0.386220 0.321736 0.254873 0.185904 0.115133 0.042894 0.030449 0.104502 0.178843 0.253026 0.326578 0.399008 0.469802 0.538433 0.604362 0.667043 0.725925 0.780462 0.830111 0.874347 0.912661 0.944572 0.969628 0.987419 0.997577 0.999791 0.993805 0.979431 0.956551 0.925125 0.885198 0.836900 0.780454 0.716177 0.644485 0.565888 0.480998 0.390520 0.295255 0.196090 0.093999 0.009973 0.114709 0.219039 0.321748 0.421591 0.517308 0.607639 0.691342 0.767212 0.834101 0.890934 0.936731 0.970627 0.991890 0.999939 0.994360 0.974922 0.941591 0.894539 0.834154 0.761040 0.676025 0.580153 0.474679 0.361059 0.240935 0.116113 0.011456 0.139708 0.266496 0.389623 0.506886 0.616109 0.715190 0.802144 0.875146 0.932573 0.973046 0.995471 0.999068 0.983407 0.948430 0.894466 0.822246 0.732902 0.627963 0.509332 0.379268 0.240348 0.095418 0.052451 0.200034 0.344014 0.481059 0.607902 0.721417 0.818707 0.897181 0.954629 0.989297 0.999946 0.985906 0.947116 0.884147 0.798216 0.691172 0.565479 0.424165 0.270764 0.109237 0.056125 0.220809 0.380197 0.529709 0.664915 0.781698 0.876366 0.945792 0.987523 0.999882 0.982046 0.934104 0.857088 0.752966 0.624623 0.475787 0.310950 0.135231 0.045760 0.226108 0.399765 0.560775 0.703464 0.822661 0.913893 0.973564 0.999118 0.989166 0.943571 0.863498 0.751409 0.611022 0.447196 0.265791 0.073476 0.122509 0.314620 0.495293 0.657253 0.793807 0.899138 0.968573 0.998807 0.988084 0.936321 0.845156 0.717936 0.559621 0.376623 0.176557 0.032046 0.240100 0.438351 0.617797 0.770096 0.887974 0.965597 0.998878 0.985721 0.926183 0.822525 0.679172 0.502555 0.300859 0.083658 0.138515 0.354668 0.553893 0.725929 0.861703 0.953826 0.997031 0.988503 0.928096 0.818413 0.664735 0.474820 0.258530 0.027358 0.206167 0.429150 0.629046 0.794375 0.915404 0.984748 0.997861 0.953372 0.853243 0.702745 0.510226 0.286685 0.045190 0.199876 0.433659 0.641725 0.810976 0.930498 0.992298 0.991881 0.928626 0.805918 0.631030 0.414741 0.170714 0.085323 0.336582 0.566312 0.758912 0.901029 0.982513 0.997191 0.943387 0.824143 0.647121 0.424159 0.170551 0.095988 0.356517 0.592225 0.785793 0.922696 0.992339 0.988930 0.912023 0.766671 0.563161 0.316366 0.044695 0.231243 0.490184 0.711847 0.878555 0.976680 0.997818 0.939575 0.805885 0.606835 0.357977 0.079163 0.206978 0.476873 0.707941 0.880514 0.979546 0.995996 0.927726 0.779829 0.564341 0.299335 0.007479 0.285870 0.554856 0.775396 0.927389 0.996598 0.976056 0.866853 0.678199 0.426743 0.135168 0.169770 0.459699 0.707245 0.888657 0.986139 0.989667 0.898115 0.719534 0.470557 0.174930 0.138685 0.439444 0.697356 0.886306
1.000000 1.000000 1.000000 1.000000 1.000000 1.000000 1.000000 1.000000 1.000000 1.000000 1.000000 1.000000 1.000000 1.000000 1.000000 1.000000 1.000000 1.000000 1.000000 1.000000 1.000000 1.000000 1.000000 1.000000 1.000000 1.000000 1.000000 1.000000 1.000000 1.000000 1.000000 1.000000 1.000000 1.000000 1.000000 1.000000 1.000000 1.000000 1.000000 1.000000 1.000000 1.000000 1.000000 1.000000 1.000000 1.000000 1.000000 1.000000 1.000000 1.000000 1.000000 1.000000 0.835889 0.835889 0.835889 0.835889 0.835889 0.835889 0.835889 0.813501 0.813501 0.813501 0.813501 0.813501 0.813501 0.813501 0.813501 0.813501 0.813501 0.813501 0.813501 0.813501 0.813501 0.813501 0.813501 0.813501 0.813501 0.813501 0.813501 0.813501 0.813501 0.813501 0.813501 0.813501 0.813501 0.813501 0.813501 0.813501 0.813501 0.813501 0.813501 0.813501 0.813501 0.813501 0.813501 0.813501 0.813501 0.813501 0.813501 0.813501 0.813501 0.813501 0.813501 0.954549 0.955180 0.947575 0.946476 0.944758 0.941487 0.937103 0.936642 0.937991 0.938202 0.938838 0.940253 0.941302 0.942996 0.944070 0.944942 0.945780 0.953841 0.957473 0.957107 0.956708 0.952305 0.959002 0.957027 0.956867 0.957618 0.957903 0.958608 0.958499 0.958339 0.957818 0.956644 0.957343 0.957191 0.956477 0.955464 0.953193 0.953171 0.952729 0.952855 0.953805 0.954498 0.955130 0.955638 0.955605 0.955780 0.955767 0.955674 0.950744 0.950768 0.944158 0.944773 0.945918 0.945602 0.944581 0.943175 0.943231 0.943108 0.943032 0.942845 0.943063 0.924856 0.924549 0.924576 0.925123 0.918677 0.908380 0.901789 0.895715 0.896626 0.900547 0.905241 0.905444 0.902007 0.901168 0.883987 0.887752 0.873933 0.870390 0.860023 0.870220 0.871524 0.872736 0.867786 0.867120 0.865849 0.863457 0.852595 0.856776 0.857561 0.853849 0.850486 0.848176 0.845730 0.847515 0.852199 0.848411 0.843008 0.840164 0.829190 0.818962 0.817711 0.820170 0.828700 0.840857 0.840749 0.839835 0.832389 0.828330 0.820937 0.814154 0.813123 0.815027 0.812412 0.816241 0.816443 0.824370 0.814268 0.809491 0.814644 0.826136 0.831751 0.834172 0.836271 0.834020 0.832304 0.810211 0.810942 0.812629 0.766702 0.765991 0.753168 0.753010 0.745835 0.742658 0.739792 0.737249 0.730376 0.714686 0.727294 0.731411 0.706817 0.714191 0.708506 0.698504 0.677584 0.679067 0.692724 0.701710 0.701310 0.706518 0.695734 0.695113 0.705646 0.705920 0.712813 0.707069 0.702889 0.696878 0.701318 0.693313 0.685641 0.681346 0.680680 0.681158 0.677023 0.657327 0.665610 0.656199 0.648797 0.637470 0.602290 0.581424 0.567435 0.559152 0.540097 0.510354 0.524550 0.531917 0.517429 0.507541 0.486608 0.444508 0.428193 0.426479 0.404312 0.395904 0.375469 0.328721 0.332624 0.326429 0.332893 0.316263 0.311723 0.298951 0.243745 0.241856 0.203753 0.220521 0.244529 0.236058 0.216410 0.208515 0.227212 0.230004 0.237513 0.235770 0.251507 0.209029 0.151691 0.175502 0.172443 0.183611 0.167403 0.138250 0.164506 0.165076 0.176881 0.180729 0.136558 0.106618 0.084561 0.070218 0.077946 0.100714 0.113802 0.104226 0.090896 -0.001945 0.030423 0.052206 0.052206 0.052206 0.052206 0.052206 0.052206 0.052206 0.052206 0.052206 0.052206 0.052206 -0.002481 -0.002481 -0.002481 -0.002481 -0.002481 -0.002481 -0.002481 -0.002481 -0.002481 -0.002481 -0.002481 -0.002481 -0.002481 -0.002481 -0.002481 -0.002481 -0.002481 -0.002481 -0.002481
0.000000 0.000000 0.000000 0.000000 0.000000 0.000000 0.000000 0.000000 0.000000 0.000000 0.000000 0.000000 0.000000 0.000000 0.000000 0.000000 0.000000 0.000000 0.000000 0.000000 0.000000 0.000000 0.000000 0.000000 0.000000 0.000000 0.000000 0.000000 0.000000 0.000000 0.000000 0.000000 0.000000 0.000000 0.000000 0.000000 0.000000 0.000000 0.000000 0.000000 0.000000 0.000000 0.000000 0.000000 0.000000 0.000000 0.000000 0.000000 0.000000 0.000000 0.000000 0.000000 0.173422 0.173422 0.173422 0.173422 0.173422 0.173422 0.173422 0.191565 0.191565 0.191565 0.191565 0.191565 0.191565 0.191565 0.191565 0.191565 0.191565 0.191565 0.191565 0.191565 0.191565 0.191565 0.191565 0.191565 0.191565 0.191565 0.191565 0.191565 0.191565 0.191565 0.191565 0.191565 0.191565 0.191565 0.191565 0.191565 0.191565 0.191565 0.191565 0.191565 0.191565 0.191565 0.191565 0.191565 0.191565 0.191565 0.191565 0.191565 0.191565 0.191565 0.191565 0.219529 0.219529 0.219529 0.219529 0.219529 0.219529 0.219529 0.219529 0.219529 0.219529 0.219529 0.219529 0.219529 0.219529 0.219529 0.219529 0.219529 0.219529 0.219529 0.219529 0.219529 0.219529 0.219529 0.219529 0.219529 0.219529 0.219529 0.219529 0.219529 0.219529 0.219529 0.237356 0.237356 0.237356 0.237356 0.237356 0.237356 0.237356 0.237356 0.237356 0.237356 0.237356 0.237356 0.237356 0.237356 0.237356 0.237356 0.237356 0.237356 0.237356 0.237356 0.237356 0.237356 0.237356 0.237356 0.244339 0.244339 0.244339 0.244339 0.244339 0.244339 0.244339 0.244339 0.244339 0.244339 0.244339 0.244339 0.244339 0.244339 0.244339 0.244339 0.244339 0.244339 0.244339 0.244339 0.244339 0.248069 0.248069 0.248069 0.248069 0.248069 0.248069 0.248069 0.248069 0.248069 0.248069 0.248069 0.248069 0.248069 0.248069 0.248069 0.248069 0.248069 0.248069 0.248069 0.248069 0.248069 0.248069 0.248069 0.248069 0.248069 0.248069 0.248069 0.248069 0.248069 0.248069 0.248069 0.248069 0.248069 0.248069 0.248069 0.248069 0.248069 0.256074 0.256074 0.256074 0.256074 0.256074 0.256074 0.256074 0.256074 0.256074 0.256074 0.256074 0.256074 0.256074 0.256074 0.256074 0.256074 0.256074 0.256074 0.256074 0.256074 0.256074 0.256074 0.256074 0.256074 0.256074 0.256074 0.256074 0.256074 0.256074 0.256074 0.256074 0.256074 0.256074 0.256074 0.256074 0.256074 0.256074 0.256074 0.256074 0.256074 0.256074 0.256074 0.256074 0.256074 0.256074 0.260378 0.260378 0.260378 0.260378 0.260378 0.260378 0.260378 0.260378 0.260378 0.260378 0.260378 0.260378 0.260378 0.256074 0.256074 0.256074 0.256074 0.256074 0.256074 0.256074 0.256074 0.256074 0.256074 0.256074 0.256074 0.256074 0.260378 0.260378 0.260378 0.260378 0.260378 0.260378 0.260378 0.260378 0.260378 0.260378 0.260378 0.260378 0.251976 0.251976 0.251976 0.251976 0.251976 0.251976 0.251976 0.251976 0.251976 0.251976 0.251976 0.251976 0.256074 0.256074 0.256074 0.256074 0.256074 0.256074 0.256074 0.256074 0.256074 0.256074 0.256074 0.251976 0.251976 0.251976 0.251976 0.251976 0.251976 0.251976 0.251976 0.251976 0.251976 0.251976 0.248069 0.248069 0.248069 0.248069 0.248069 0.248069 0.248069 0.248069 0.248069 0.248069 0.248069 0.256074 0.256074 0.256074 0.256074 0.256074 0.256074 0.256074 0.256074 0.256074 0.256074 0.256074 0.256074 0.256074 0.256074 0.256074 0.256074 0.256074 0.256074 0.256074
