# Output from CTFFind version 4.1.9, run on 2019-11-03 19:00:51
# Input file: stack6_bm3d_averaged_1_2.25_0_1500_half.mrc ; Number of micrographs: 1
# Pixel size: 3.000 Angstroms ; acceleration voltage: 300.0 keV ; spherical aberration: 0.00 mm ; amplitude contrast: 0.07
# Box size: 512 pixels ; min. res.: 30.0 Angstroms ; max. res.: 5.0 Angstroms ; min. def.: 5000.0 um; max. def. 50000.0 um; num. frames averaged: 1
# 6 lines per micrograph: #1 - spatial frequency (1/Angstroms); #2 - 1D rotational average of spectrum (assuming no astigmatism); #3 - 1D rotational average of spectrum; #4 - CTF fit; #5 - cross-correlation between spectrum and CTF fit; #6 - 2sigma of expected cross correlation of noise
0.000000 0.000651 0.001302 0.001953 0.002604 0.003255 0.003906 0.004557 0.005208 0.005859 0.006510 0.007161 0.007812 0.008464 0.009115 0.009766 0.010417 0.011068 0.011719 0.012370 0.013021 0.013672 0.014323 0.014974 0.015625 0.016276 0.016927 0.017578 0.018229 0.018880 0.019531 0.020182 0.020833 0.021484 0.022135 0.022786 0.023438 0.024089 0.024740 0.025391 0.026042 0.026693 0.027344 0.027995 0.028646 0.029297 0.029948 0.030599 0.031250 0.031901 0.032552 0.033203 0.033854 0.034505 0.035156 0.035807 0.036458 0.037109 0.037760 0.038411 0.039062 0.039714 0.040365 0.041016 0.041667 0.042318 0.042969 0.043620 0.044271 0.044922 0.045573 0.046224 0.046875 0.047526 0.048177 0.048828 0.049479 0.050130 0.050781 0.051432 0.052083 0.052734 0.053385 0.054036 0.054688 0.055339 0.055990 0.056641 0.057292 0.057943 0.058594 0.059245 0.059896 0.060547 0.061198 0.061849 0.062500 0.063151 0.063802 0.064453 0.065104 0.065755 0.066406 0.067057 0.067708 0.068359 0.069010 0.069661 0.070312 0.070964 0.071615 0.072266 0.072917 0.073568 0.074219 0.074870 0.075521 0.076172 0.076823 0.077474 0.078125 0.078776 0.079427 0.080078 0.080729 0.081380 0.082031 0.082682 0.083333 0.083984 0.084635 0.085286 0.085938 0.086589 0.087240 0.087891 0.088542 0.089193 0.089844 0.090495 0.091146 0.091797 0.092448 0.093099 0.093750 0.094401 0.095052 0.095703 0.096354 0.097005 0.097656 0.098307 0.098958 0.099609 0.100260 0.100911 0.101562 0.102214 0.102865 0.103516 0.104167 0.104818 0.105469 0.106120 0.106771 0.107422 0.108073 0.108724 0.109375 0.110026 0.110677 0.111328 0.111979 0.112630 0.113281 0.113932 0.114583 0.115234 0.115885 0.116536 0.117188 0.117839 0.118490 0.119141 0.119792 0.120443 0.121094 0.121745 0.122396 0.123047 0.123698 0.124349 0.125000 0.125651 0.126302 0.126953 0.127604 0.128255 0.128906 0.129557 0.130208 0.130859 0.131510 0.132161 0.132812 0.133464 0.134115 0.134766 0.135417 0.136068 0.136719 0.137370 0.138021 0.138672 0.139323 0.139974 0.140625 0.141276 0.141927 0.142578 0.143229 0.143880 0.144531 0.145182 0.145833 0.146484 0.147135 0.147786 0.148438 0.149089 0.149740 0.150391 0.151042 0.151693 0.152344 0.152995 0.153646 0.154297 0.154948 0.155599 0.156250 0.156901 0.157552 0.158203 0.158854 0.159505 0.160156 0.160807 0.161458 0.162109 0.162760 0.163411 0.164062 0.164714 0.165365 0.166016 0.166667 0.167318 0.167969 0.168620 0.169271 0.169922 0.170573 0.171224 0.171875 0.172526 0.173177 0.173828 0.174479 0.175130 0.175781 0.176432 0.177083 0.177734 0.178385 0.179036 0.179688 0.180339 0.180990 0.181641 0.182292 0.182943 0.183594 0.184245 0.184896 0.185547 0.186198 0.186849 0.187500 0.188151 0.188802 0.189453 0.190104 0.190755 0.191406 0.192057 0.192708 0.193359 0.194010 0.194661 0.195312 0.195964 0.196615 0.197266 0.197917 0.198568 0.199219 0.199870 0.200521 0.201172 0.201823 0.202474 0.203125 0.203776 0.204427 0.205078 0.205729 0.206380 0.207031 0.207682 0.208333 0.208984 0.209635 0.210286 0.210938 0.211589 0.212240 0.212891 0.213542 0.214193 0.214844 0.215495 0.216146 0.216797 0.217448 0.218099 0.218750 0.219401 0.220052 0.220703 0.221354 0.222005 0.222656 0.223307 0.223958 0.224609 0.225260 0.225911 0.226562 0.227214 0.227865 0.228516 0.229167 0.229818 0.230469 0.231120 0.231771 0.232422 0.233073 0.233724 0.234375 0.235026 0.235677
       0.30476        0.30476        0.30476        0.30476        0.30476        0.30476        0.30476        0.30476        0.30476        0.30476        0.30476        0.30476        0.30476        0.30476        0.30476        0.30476        0.30476        0.30476        0.30476        0.30476        0.30476        0.30476        0.30476        0.30476        0.30476        0.30476        0.30476        0.30476        0.30476        0.30476        0.30476        0.30476        0.30476        0.30476        0.30476        0.30476        0.30476        0.30476        0.30476        0.30476        0.30476        0.30476        0.30476        0.30476        0.30476        0.30476        0.30476        0.30476        0.30476        0.30476        0.30476        0.62534        0.79125        0.39612        0.28616        0.17118       -0.11294        0.11573        0.01243        0.03296        0.11042        0.34429        0.41404        0.37834        0.21445       -0.02144        0.03577        0.06898       -0.17629       -0.18009       -0.08728       -0.11503       -0.29839       -0.19108       -0.31235       -0.26726       -0.28625       -0.40635       -0.46747       -0.46345       -0.41066       -0.34542       -0.42505       -0.34361       -0.40894       -0.35177       -0.27542       -0.20659       -0.19333       -0.11493       -0.06778        0.03839        0.07591        0.24165        0.30304        0.37448        0.39627        0.51281        0.57657        0.60897        0.71591        0.68258        0.73968        0.63998        0.65968        0.67680        0.62466        0.61536        0.61584        0.41438        0.38196        0.35337        0.33016        0.21519        0.12659        0.05852        0.05536        0.00271       -0.08033       -0.01261       -0.03904       -0.07920        0.06499        0.16787        0.26280        0.31029        0.32227        0.40812        0.51621        0.55759        0.51378        0.66470        0.55127        0.52200        0.59651        0.60876        0.53208        0.47925        0.41533        0.37773        0.23166        0.18808        0.12355        0.12405        0.08356        0.05380        0.08144        0.14200        0.13261        0.15567        0.21846        0.24348        0.32849        0.44014        0.46414        0.47585        0.51207        0.57158        0.54614        0.52238        0.40700        0.39715        0.35367        0.27394        0.23762        0.21193        0.17529        0.18291        0.17224        0.16874        0.13804        0.19767        0.24447        0.33748        0.38176        0.40005        0.46152        0.51101        0.44547        0.47513        0.42202        0.40848        0.39037        0.36772        0.28236        0.25150        0.19135        0.21686        0.22210        0.19977        0.21064        0.20391        0.24485        0.32127        0.39948        0.38124        0.37173        0.38949        0.44667        0.44293        0.42477        0.35030        0.31842        0.28162        0.28392        0.25451        0.21932        0.28238        0.29453        0.29313        0.30051        0.31449        0.31130        0.36813        0.35113        0.35072        0.36523        0.32478        0.32158        0.30619        0.28480        0.26977        0.25601        0.22533        0.26956        0.26320        0.29756        0.30979        0.34501        0.35887        0.32053        0.30905        0.34910        0.35481        0.26012        0.29231        0.28583        0.24016        0.22463        0.27690        0.26446        0.26208        0.30113        0.29967        0.32365        0.33388        0.35068        0.30044        0.31115        0.30739        0.28281        0.26445        0.24284        0.22833        0.24893        0.27534        0.29513        0.28842        0.28610        0.31451        0.33577        0.27722        0.30033        0.27382        0.25998        0.23951        0.23950        0.24490        0.25977        0.29967        0.26420        0.29787        0.28155        0.27876        0.30719        0.27059        0.31085        0.31483        0.29295        0.25529        0.25870        0.25530        0.25065        0.30775        0.30476        0.33769        0.30307        0.29843        0.27216        0.30653        0.23561        0.20389        0.27518        0.27127        0.26493        0.26759        0.30066        0.29526        0.35314        0.29951        0.23734        0.22431        0.23186        0.28333        0.30414        0.29181        0.24885        0.26498        0.26454        0.29506        0.27148        0.24635        0.26878        0.25420        0.28725        0.23320        0.27143        0.33485        0.29822        0.22706        0.25965        0.27804        0.29008        0.21072        0.24321        0.25417        0.26942        0.28268        0.35640        0.27857        0.26475        0.26597        0.24538        0.20786        0.18454        0.22759        0.21620        0.20669        0.19336        0.20786        0.25908        0.23933        0.24725        0.22148        0.18864        0.22407        0.22513        0.17392        0.16642        0.18206        0.22416        0.16270        0.04984        0.19055        0.15776        0.09081        0.18064        0.07995        0.10566        0.12972       -0.16370       -0.51516       -0.94285
2.860393 2.832217 2.804185 2.776299 2.748558 2.720961 2.693509 2.666202 2.639040 2.612023 2.585150 2.558423 2.531840 2.505402 2.479109 2.452961 2.426958 2.401100 2.375386 2.349818 2.324394 2.299115 2.273981 2.248992 2.224147 2.199448 2.174893 2.150483 2.126219 2.102099 2.078123 2.054293 2.030608 2.007067 1.983671 1.960420 1.937314 1.914353 1.891537 1.868866 1.846339 1.823957 1.801720 1.779628 1.757681 1.735879 1.714222 1.692709 1.671341 1.650118 1.629041 1.935552 2.262919 1.687736 1.714285 1.370120 0.921924 1.203087 1.054132 1.091622 1.013021 1.526930 1.514921 1.527922 1.266593 0.940005 0.805744 1.020548 0.715341 0.471541 0.597821 0.671869 0.411098 0.478530 0.313979 0.337283 0.242924 0.166749 -0.051850 0.008797 0.035051 0.061037 0.044091 0.122145 -0.050799 0.017405 0.102711 0.218209 0.261935 0.250424 0.342714 0.577057 0.435261 0.707537 0.852271 0.894208 0.901342 1.138554 1.136260 1.201087 1.322075 1.209756 1.397128 1.184606 1.131048 1.310860 1.128622 1.072851 1.166024 0.871343 0.722768 0.676560 0.679553 0.473466 0.393746 0.264977 0.207788 0.115458 -0.023702 0.121590 0.001857 -0.066720 0.104735 0.261800 0.336050 0.463638 0.475345 0.536166 0.702538 0.774981 0.627123 0.961633 0.808077 0.654486 0.764731 0.773896 0.713357 0.681371 0.461913 0.536911 0.254856 0.177123 0.115513 -0.004949 0.017784 -0.084334 -0.042301 -0.013072 0.058356 -0.071412 0.231559 0.131841 0.193195 0.387399 0.403673 0.506745 0.408910 0.580958 0.637848 0.482305 0.396911 0.330220 0.310505 0.155834 0.111239 0.028856 0.055194 -0.022731 -0.008605 -0.035379 -0.098601 -0.009947 0.007084 0.120649 0.272082 0.218992 0.354481 0.358337 0.398345 0.390821 0.433900 0.351434 0.225644 0.342705 0.165518 0.172659 -0.003793 0.054623 0.052760 0.003675 0.001909 -0.000898 0.049300 0.111500 0.246689 0.301167 0.230510 0.228129 0.374204 0.343231 0.342601 0.239890 0.160575 0.148578 0.101708 0.090345 0.026128 0.020427 0.145889 0.049813 0.156428 0.090149 0.123797 0.202836 0.202632 0.188715 0.184885 0.227125 0.125954 0.148508 0.102015 0.077324 0.101305 -0.034251 0.059676 0.083187 0.041313 0.138963 0.119576 0.205995 0.198621 0.124492 0.125427 0.232019 0.123910 0.061002 0.113363 0.040626 0.028654 0.006077 0.088261 0.054090 0.030088 0.139597 0.102379 0.132703 0.160707 0.156389 0.133465 0.093397 0.115407 0.070516 0.036801 0.013274 0.006466 0.012535 0.071123 0.106259 0.080445 0.056627 0.106513 0.128108 0.012539 0.094557 0.041915 -0.000245 -0.010514 -0.017230 -0.017635 0.054071 0.059882 -0.015955 0.070786 0.057940 0.009199 0.073850 0.005963 0.055297 0.087466 0.000462 -0.001716 -0.025097 0.001300 -0.029622 0.061997 0.061944 0.092469 0.008190 0.115587 -0.006532 0.072215 -0.089748 -0.053783 0.012424 -0.009326 0.028253 -0.032933 0.076887 0.039021 0.102630 -0.001859 -0.074800 -0.069280 -0.089334 0.062815 0.021103 0.028726 -0.050129 -0.029976 -0.024830 0.034875 -0.013212 -0.040707 0.009282 -0.079548 0.043409 -0.068941 0.027688 0.100602 0.015465 -0.052648 0.036909 0.026621 0.028352 -0.089079 0.006723 -0.021442 0.077199 0.089310 0.161768 0.044783 0.041036 0.060669 0.045213 -0.048563 -0.014055 0.035606 0.025864 -0.009859 -0.010034 0.034238 0.136910 0.031226 0.176261 0.029763 0.052021 0.088898 0.130850 -0.024892 0.034894 0.007329 0.186071 0.059810 -0.029813 0.270640 0.223925 0.131601 0.315830 0.151126 0.114163 0.257513 -0.232530 -1.343602
0.072396 0.072835 0.074150 0.076341 0.079409 0.083352 0.088169 0.093859 0.100421 0.107853 0.116152 0.125315 0.135339 0.146218 0.157948 0.170522 0.183932 0.198170 0.213225 0.229086 0.245738 0.263166 0.281352 0.300277 0.319917 0.340248 0.361240 0.382863 0.405082 0.427860 0.451153 0.474917 0.499102 0.523653 0.548511 0.573615 0.598895 0.624278 0.649688 0.675040 0.700248 0.725216 0.749847 0.774037 0.797677 0.820654 0.842848 0.864137 0.884392 0.903483 0.921273 0.937626 0.952399 0.965450 0.976634 0.985806 0.992821 0.997535 0.999806 0.999496 0.996470 0.990597 0.981757 0.969834 0.954722 0.936328 0.914569 0.889377 0.860699 0.828499 0.792760 0.753485 0.710698 0.664448 0.614807 0.561872 0.505771 0.446655 0.384709 0.320145 0.253207 0.184169 0.113335 0.041041 0.032347 0.106435 0.180801 0.254996 0.328547 0.400961 0.471725 0.540310 0.606176 0.668775 0.727559 0.781978 0.831491 0.875573 0.913715 0.945434 0.970283 0.987849 0.997768 0.999729 0.993478 0.978828 0.955665 0.923951 0.883733 0.835145 0.778414 0.713859 0.641900 0.563052 0.477929 0.387242 0.291793 0.192477 0.090267 0.013783 0.118557 0.222881 0.325538 0.425279 0.520845 0.610973 0.694422 0.769989 0.836525 0.892958 0.938313 0.971728 0.992476 0.999980 0.993836 0.973819 0.939903 0.892271 0.831316 0.757657 0.672129 0.575787 0.469896 0.355922 0.235515 0.110492 0.017191 0.145463 0.272172 0.395118 0.512096 0.620930 0.719521 0.805890 0.878216 0.934887 0.974536 0.996080 0.998756 0.982151 0.946223 0.891325 0.818206 0.728019 0.622314 0.503014 0.372396 0.233056 0.087855 0.060125 0.207647 0.351391 0.488023 0.614277 0.727035 0.823412 0.900832 0.957106 0.990505 0.999819 0.984410 0.944250 0.879947 0.792755 0.684559 0.557859 0.415716 0.261694 0.099778 0.065720 0.230273 0.389259 0.538096 0.672369 0.787974 0.881249 0.949099 0.989114 0.999664 0.979980 0.930208 0.851436 0.745695 0.615924 0.465908 0.300182 0.123908 0.057277 0.237434 0.410512 0.570561 0.711928 0.829478 0.918781 0.976305 0.999563 0.987245 0.939298 0.856976 0.742832 0.600660 0.435401 0.252982 0.060124 0.135898 0.327521 0.507186 0.667640 0.802236 0.905225 0.972015 0.999405 0.985751 0.931090 0.837187 0.707511 0.547137 0.362577 0.161533 0.047405 0.255116 0.452345 0.630111 0.780135 0.895228 0.969672 0.999517 0.982824 0.919816 0.812922 0.666731 0.487828 0.284518 0.066481 0.155689 0.370973 0.568489 0.738038 0.870653 0.959092 0.998266 0.985565 0.921060 0.807576 0.650608 0.458104 0.240090 0.008177 0.225039 0.446655 0.644176 0.806224 0.923236 0.988039 0.996337 0.947033 0.842375 0.687906 0.492230 0.266557 0.024108 0.220649 0.452842 0.658102 0.823484 0.938281 0.994784 0.988819 0.920115 0.792410 0.613313 0.393898 0.148063 0.108315 0.358394 0.585456 0.774054 0.911071 0.986682 0.995101 0.935078 0.810091 0.628217 0.401660 0.145997 0.120871 0.379942 0.612470 0.801324 0.932297 0.995202 0.984734 0.900968 0.749480 0.541042 0.290929 0.017838 0.257465 0.513720 0.730812 0.891383 0.982256 0.995588 0.929594 0.788841 0.584002 0.331131 0.050451 0.235210 0.502270 0.728334 0.894106 0.985083 0.992885 0.916105 0.760571 0.539004 0.270038 0.023261 0.315364 0.580464 0.794773 0.938702 0.998707 0.968635 0.850442 0.654177 0.397217 0.102812 0.201973 0.488721 0.730291 0.903451 0.991148 0.984270 0.882686 0.695434 0.440022 0.140872 0.172943 0.470496 0.722057 0.902082
1.000000 1.000000 1.000000 1.000000 1.000000 1.000000 1.000000 1.000000 1.000000 1.000000 1.000000 1.000000 1.000000 1.000000 1.000000 1.000000 1.000000 1.000000 1.000000 1.000000 1.000000 1.000000 1.000000 1.000000 1.000000 1.000000 1.000000 1.000000 1.000000 1.000000 1.000000 1.000000 1.000000 1.000000 1.000000 1.000000 1.000000 1.000000 1.000000 1.000000 1.000000 1.000000 1.000000 1.000000 1.000000 1.000000 1.000000 1.000000 1.000000 1.000000 1.000000 1.000000 0.836403 0.836403 0.836403 0.836403 0.836403 0.836403 0.836403 0.814247 0.814247 0.814247 0.814247 0.814247 0.814247 0.814247 0.814247 0.814247 0.814247 0.814247 0.814247 0.814247 0.814247 0.814247 0.814247 0.814247 0.814247 0.814247 0.814247 0.814247 0.814247 0.814247 0.814247 0.814247 0.814247 0.814247 0.814247 0.814247 0.814247 0.814247 0.814247 0.814247 0.814247 0.814247 0.814247 0.814247 0.814247 0.814247 0.814247 0.814247 0.814247 0.814247 0.814247 0.954586 0.955210 0.955392 0.954352 0.952767 0.949282 0.945164 0.944714 0.946044 0.946252 0.946862 0.948150 0.949078 0.950608 0.951539 0.952296 0.953064 0.961170 0.964899 0.964673 0.964467 0.963305 0.970151 0.969565 0.967294 0.967746 0.967912 0.967891 0.967779 0.967670 0.967208 0.966655 0.967144 0.967025 0.966479 0.965705 0.963845 0.963920 0.963587 0.963702 0.964538 0.965207 0.965812 0.966202 0.966144 0.966235 0.964845 0.964106 0.953306 0.953275 0.945954 0.945688 0.944641 0.941921 0.940858 0.939337 0.939413 0.939327 0.938264 0.938173 0.937058 0.923010 0.923201 0.922650 0.923436 0.918103 0.907411 0.901790 0.898281 0.899878 0.903936 0.908422 0.907571 0.903459 0.901775 0.888429 0.880473 0.864564 0.859309 0.849207 0.857388 0.858292 0.859795 0.857297 0.856520 0.855081 0.852974 0.841730 0.846510 0.839190 0.833993 0.830828 0.829130 0.828195 0.830825 0.834331 0.824085 0.808699 0.809684 0.794191 0.776661 0.774658 0.779153 0.788963 0.802987 0.800892 0.799617 0.785470 0.780711 0.767698 0.759584 0.761288 0.764381 0.762120 0.770049 0.771196 0.781141 0.772468 0.776404 0.778004 0.790481 0.801551 0.806878 0.807486 0.803539 0.806403 0.787531 0.787554 0.788856 0.758912 0.762692 0.762655 0.761323 0.764654 0.765936 0.762843 0.761952 0.758910 0.732561 0.742905 0.751054 0.731264 0.738351 0.720874 0.712740 0.674771 0.676891 0.676228 0.685461 0.687975 0.685390 0.675196 0.688781 0.702913 0.694692 0.700345 0.696547 0.684960 0.683046 0.691430 0.689160 0.667469 0.671679 0.670402 0.659408 0.656740 0.640238 0.653178 0.644343 0.628978 0.623053 0.583464 0.565316 0.555391 0.538629 0.516590 0.494390 0.499652 0.495018 0.482878 0.476710 0.456402 0.409456 0.423976 0.422967 0.406096 0.391838 0.376955 0.329525 0.354974 0.350222 0.352068 0.327340 0.308010 0.278997 0.218830 0.204665 0.175018 0.197771 0.207682 0.195568 0.180722 0.173296 0.188531 0.199538 0.223058 0.221467 0.249294 0.225777 0.185435 0.206209 0.201855 0.192023 0.178301 0.142663 0.181130 0.171755 0.179277 0.186559 0.139873 0.108614 0.077034 0.083674 0.090549 0.117606 0.143444 0.131469 0.109578 0.008213 0.043055 0.070531 0.070531 0.070531 0.070531 0.070531 0.070531 0.070531 0.070531 0.070531 0.070531 0.070531 0.003811 0.003811 0.003811 0.003811 0.003811 0.003811 0.003811 0.003811 0.003811 0.003811 0.003811 0.003811 0.003811 0.003811 0.003811 0.003811 0.003811 0.003811 0.003811
0.000000 0.000000 0.000000 0.000000 0.000000 0.000000 0.000000 0.000000 0.000000 0.000000 0.000000 0.000000 0.000000 0.000000 0.000000 0.000000 0.000000 0.000000 0.000000 0.000000 0.000000 0.000000 0.000000 0.000000 0.000000 0.000000 0.000000 0.000000 0.000000 0.000000 0.000000 0.000000 0.000000 0.000000 0.000000 0.000000 0.000000 0.000000 0.000000 0.000000 0.000000 0.000000 0.000000 0.000000 0.000000 0.000000 0.000000 0.000000 0.000000 0.000000 0.000000 0.000000 0.173422 0.173422 0.173422 0.173422 0.173422 0.173422 0.173422 0.191565 0.191565 0.191565 0.191565 0.191565 0.191565 0.191565 0.191565 0.191565 0.191565 0.191565 0.191565 0.191565 0.191565 0.191565 0.191565 0.191565 0.191565 0.191565 0.191565 0.191565 0.191565 0.191565 0.191565 0.191565 0.191565 0.191565 0.191565 0.191565 0.191565 0.191565 0.191565 0.191565 0.191565 0.191565 0.191565 0.191565 0.191565 0.191565 0.191565 0.191565 0.191565 0.191565 0.191565 0.219529 0.219529 0.219529 0.219529 0.219529 0.219529 0.219529 0.219529 0.219529 0.219529 0.219529 0.219529 0.219529 0.219529 0.219529 0.219529 0.219529 0.219529 0.219529 0.219529 0.219529 0.219529 0.219529 0.219529 0.219529 0.219529 0.219529 0.219529 0.219529 0.219529 0.219529 0.237356 0.237356 0.237356 0.237356 0.237356 0.237356 0.237356 0.237356 0.237356 0.237356 0.237356 0.237356 0.237356 0.237356 0.237356 0.237356 0.237356 0.237356 0.237356 0.237356 0.237356 0.237356 0.237356 0.237356 0.244339 0.244339 0.244339 0.244339 0.244339 0.244339 0.244339 0.244339 0.244339 0.244339 0.244339 0.244339 0.244339 0.244339 0.244339 0.244339 0.244339 0.244339 0.244339 0.244339 0.244339 0.248069 0.248069 0.248069 0.248069 0.248069 0.248069 0.248069 0.248069 0.248069 0.248069 0.248069 0.248069 0.248069 0.248069 0.248069 0.248069 0.248069 0.248069 0.248069 0.248069 0.248069 0.248069 0.248069 0.248069 0.248069 0.248069 0.248069 0.248069 0.248069 0.248069 0.248069 0.248069 0.248069 0.248069 0.248069 0.248069 0.248069 0.256074 0.256074 0.256074 0.256074 0.256074 0.256074 0.256074 0.256074 0.256074 0.256074 0.256074 0.256074 0.256074 0.256074 0.256074 0.256074 0.256074 0.256074 0.256074 0.256074 0.256074 0.256074 0.256074 0.256074 0.256074 0.256074 0.256074 0.256074 0.256074 0.256074 0.256074 0.256074 0.256074 0.256074 0.256074 0.256074 0.256074 0.256074 0.256074 0.256074 0.256074 0.256074 0.256074 0.256074 0.256074 0.260378 0.260378 0.260378 0.260378 0.260378 0.260378 0.260378 0.260378 0.260378 0.260378 0.260378 0.260378 0.260378 0.256074 0.256074 0.256074 0.256074 0.256074 0.256074 0.256074 0.256074 0.256074 0.256074 0.256074 0.256074 0.256074 0.260378 0.260378 0.260378 0.260378 0.260378 0.260378 0.260378 0.260378 0.260378 0.260378 0.260378 0.260378 0.251976 0.251976 0.251976 0.251976 0.251976 0.251976 0.251976 0.251976 0.251976 0.251976 0.251976 0.251976 0.256074 0.256074 0.256074 0.256074 0.256074 0.256074 0.256074 0.256074 0.256074 0.256074 0.256074 0.251976 0.251976 0.251976 0.251976 0.251976 0.251976 0.251976 0.251976 0.251976 0.251976 0.251976 0.248069 0.248069 0.248069 0.248069 0.248069 0.248069 0.248069 0.248069 0.248069 0.248069 0.248069 0.256074 0.256074 0.256074 0.256074 0.256074 0.256074 0.256074 0.256074 0.256074 0.256074 0.256074 0.256074 0.256074 0.256074 0.256074 0.256074 0.256074 0.256074 0.256074
