# Output from CTFFind version 4.1.9, run on 2019-11-03 20:05:12
# Input file: stack6_bm3d_averaged_1_7.0_0_750_half.mrc ; Number of micrographs: 1
# Pixel size: 3.000 Angstroms ; acceleration voltage: 300.0 keV ; spherical aberration: 0.00 mm ; amplitude contrast: 0.07
# Box size: 512 pixels ; min. res.: 30.0 Angstroms ; max. res.: 5.0 Angstroms ; min. def.: 5000.0 um; max. def. 50000.0 um; num. frames averaged: 1
# 6 lines per micrograph: #1 - spatial frequency (1/Angstroms); #2 - 1D rotational average of spectrum (assuming no astigmatism); #3 - 1D rotational average of spectrum; #4 - CTF fit; #5 - cross-correlation between spectrum and CTF fit; #6 - 2sigma of expected cross correlation of noise
0.000000 0.000651 0.001302 0.001953 0.002604 0.003255 0.003906 0.004557 0.005208 0.005859 0.006510 0.007161 0.007812 0.008464 0.009115 0.009766 0.010417 0.011068 0.011719 0.012370 0.013021 0.013672 0.014323 0.014974 0.015625 0.016276 0.016927 0.017578 0.018229 0.018880 0.019531 0.020182 0.020833 0.021484 0.022135 0.022786 0.023438 0.024089 0.024740 0.025391 0.026042 0.026693 0.027344 0.027995 0.028646 0.029297 0.029948 0.030599 0.031250 0.031901 0.032552 0.033203 0.033854 0.034505 0.035156 0.035807 0.036458 0.037109 0.037760 0.038411 0.039062 0.039714 0.040365 0.041016 0.041667 0.042318 0.042969 0.043620 0.044271 0.044922 0.045573 0.046224 0.046875 0.047526 0.048177 0.048828 0.049479 0.050130 0.050781 0.051432 0.052083 0.052734 0.053385 0.054036 0.054688 0.055339 0.055990 0.056641 0.057292 0.057943 0.058594 0.059245 0.059896 0.060547 0.061198 0.061849 0.062500 0.063151 0.063802 0.064453 0.065104 0.065755 0.066406 0.067057 0.067708 0.068359 0.069010 0.069661 0.070312 0.070964 0.071615 0.072266 0.072917 0.073568 0.074219 0.074870 0.075521 0.076172 0.076823 0.077474 0.078125 0.078776 0.079427 0.080078 0.080729 0.081380 0.082031 0.082682 0.083333 0.083984 0.084635 0.085286 0.085938 0.086589 0.087240 0.087891 0.088542 0.089193 0.089844 0.090495 0.091146 0.091797 0.092448 0.093099 0.093750 0.094401 0.095052 0.095703 0.096354 0.097005 0.097656 0.098307 0.098958 0.099609 0.100260 0.100911 0.101562 0.102214 0.102865 0.103516 0.104167 0.104818 0.105469 0.106120 0.106771 0.107422 0.108073 0.108724 0.109375 0.110026 0.110677 0.111328 0.111979 0.112630 0.113281 0.113932 0.114583 0.115234 0.115885 0.116536 0.117188 0.117839 0.118490 0.119141 0.119792 0.120443 0.121094 0.121745 0.122396 0.123047 0.123698 0.124349 0.125000 0.125651 0.126302 0.126953 0.127604 0.128255 0.128906 0.129557 0.130208 0.130859 0.131510 0.132161 0.132812 0.133464 0.134115 0.134766 0.135417 0.136068 0.136719 0.137370 0.138021 0.138672 0.139323 0.139974 0.140625 0.141276 0.141927 0.142578 0.143229 0.143880 0.144531 0.145182 0.145833 0.146484 0.147135 0.147786 0.148438 0.149089 0.149740 0.150391 0.151042 0.151693 0.152344 0.152995 0.153646 0.154297 0.154948 0.155599 0.156250 0.156901 0.157552 0.158203 0.158854 0.159505 0.160156 0.160807 0.161458 0.162109 0.162760 0.163411 0.164062 0.164714 0.165365 0.166016 0.166667 0.167318 0.167969 0.168620 0.169271 0.169922 0.170573 0.171224 0.171875 0.172526 0.173177 0.173828 0.174479 0.175130 0.175781 0.176432 0.177083 0.177734 0.178385 0.179036 0.179688 0.180339 0.180990 0.181641 0.182292 0.182943 0.183594 0.184245 0.184896 0.185547 0.186198 0.186849 0.187500 0.188151 0.188802 0.189453 0.190104 0.190755 0.191406 0.192057 0.192708 0.193359 0.194010 0.194661 0.195312 0.195964 0.196615 0.197266 0.197917 0.198568 0.199219 0.199870 0.200521 0.201172 0.201823 0.202474 0.203125 0.203776 0.204427 0.205078 0.205729 0.206380 0.207031 0.207682 0.208333 0.208984 0.209635 0.210286 0.210938 0.211589 0.212240 0.212891 0.213542 0.214193 0.214844 0.215495 0.216146 0.216797 0.217448 0.218099 0.218750 0.219401 0.220052 0.220703 0.221354 0.222005 0.222656 0.223307 0.223958 0.224609 0.225260 0.225911 0.226562 0.227214 0.227865 0.228516 0.229167 0.229818 0.230469 0.231120 0.231771 0.232422 0.233073 0.233724 0.234375 0.235026 0.235677
       0.33215        0.33215        0.33215        0.33215        0.33215        0.33215        0.33215        0.33215        0.33215        0.33215        0.33215        0.33215        0.33215        0.33215        0.33215        0.33215        0.33215        0.33215        0.33215        0.33215        0.33215        0.33215        0.33215        0.33215        0.33215        0.33215        0.33215        0.33215        0.33215        0.33215        0.33215        0.33215        0.33215        0.33215        0.33215        0.33215        0.33215        0.33215        0.33215        0.33215        0.33215        0.33215        0.33215        0.33215        0.33215        0.33215        0.33215        0.33215        0.33215        0.33215        0.33215        0.59618        0.70918        0.36549        0.17300        0.13936       -0.12898        0.11292        0.04107        0.04357        0.09399        0.30961        0.30766        0.23657        0.14225       -0.03712       -0.00966        0.05195       -0.09017       -0.09667       -0.06872       -0.07548       -0.17438       -0.11106       -0.22030       -0.23932       -0.23731       -0.29588       -0.36684       -0.29583       -0.20466       -0.16950       -0.27654       -0.20132       -0.24175       -0.18304       -0.12291       -0.06453       -0.03633        0.01932        0.06756        0.15094        0.19221        0.23440        0.34684        0.41162        0.36150        0.48303        0.54578        0.55423        0.63035        0.55508        0.58479        0.60388        0.60477        0.59541        0.55973        0.59607        0.54230        0.39875        0.35432        0.37777        0.34450        0.21254        0.20308        0.17325        0.11681        0.11470        0.04267        0.10906        0.08736        0.05414        0.13536        0.19017        0.27724        0.34988        0.36610        0.39772        0.44894        0.48213        0.42267        0.63804        0.55020        0.48245        0.56993        0.50349        0.55795        0.51721        0.39048        0.32833        0.31406        0.26809        0.25799        0.21576        0.19761        0.17542        0.26651        0.24449        0.26487        0.23511        0.27563        0.33869        0.33863        0.45045        0.44590        0.43205        0.41832        0.48165        0.43609        0.41738        0.40765        0.39804        0.33721        0.28457        0.28180        0.27137        0.26990        0.21548        0.20378        0.25269        0.26877        0.29039        0.35201        0.38626        0.42783        0.41673        0.43012        0.49024        0.47430        0.43052        0.38385        0.41853        0.38174        0.33124        0.34061        0.33153        0.27324        0.28494        0.28139        0.25696        0.32167        0.30037        0.31931        0.33891        0.39951        0.42262        0.41317        0.44211        0.39106        0.43365        0.40597        0.33422        0.30116        0.27501        0.28620        0.25821        0.22754        0.31463        0.37701        0.33892        0.31092        0.36701        0.29283        0.35108        0.40330        0.38845        0.36650        0.38088        0.34837        0.36391        0.33656        0.30735        0.28922        0.26990        0.32177        0.33341        0.35251        0.36704        0.38982        0.37294        0.36998        0.32752        0.35727        0.36492        0.34558        0.33016        0.29217        0.28970        0.27130        0.34132        0.33768        0.34920        0.31832        0.35008        0.37190        0.34000        0.35777        0.34957        0.31551        0.31187        0.31016        0.28291        0.27314        0.26352        0.25506        0.27555        0.26851        0.30530        0.27755        0.31869        0.36046        0.26464        0.29677        0.28394        0.24853        0.30344        0.28580        0.28683        0.31302        0.32916        0.32989        0.31788        0.31625        0.31334        0.36038        0.35977        0.30406        0.32863        0.32046        0.37055        0.28136        0.27925        0.29536        0.30779        0.33289        0.36637        0.35889        0.29829        0.23423        0.29859        0.26807        0.25931        0.26109        0.27587        0.30908        0.23901        0.30708        0.33247        0.36746        0.31224        0.31581        0.28338        0.29580        0.29259        0.26608        0.28877        0.27177        0.28756        0.35272        0.34858        0.28588        0.32461        0.33151        0.26295        0.23204        0.18878        0.33220        0.33042        0.36114        0.34506        0.29462        0.23148        0.22088        0.27612        0.27090        0.27084        0.29237        0.29293        0.24707        0.28190        0.28182        0.31025        0.28229        0.27952        0.27477        0.24827        0.23080        0.28632        0.25105        0.21799        0.26413        0.25732        0.26301        0.22558        0.20502        0.27274        0.30049        0.27782        0.20114        0.14675        0.29252        0.22739        0.25740        0.27554        0.16894        0.16349        0.20072        0.24316        0.29525        0.09727       -0.11205       -0.60731       -0.96402
2.421723 2.401205 2.380778 2.360441 2.340196 2.320042 2.299978 2.280005 2.260123 2.240332 2.220632 2.201022 2.181504 2.162076 2.142739 2.123493 2.104338 2.085273 2.066300 2.047417 2.028625 2.009924 1.991314 1.972795 1.954366 1.936029 1.917782 1.899626 1.881561 1.863587 1.845704 1.827911 1.810210 1.792599 1.775079 1.757650 1.740312 1.723064 1.705908 1.688842 1.671867 1.654983 1.638190 1.621488 1.604876 1.588356 1.571926 1.555587 1.539339 1.523182 1.507115 1.865216 2.206781 1.531757 1.330869 1.104989 0.519289 0.934702 0.804609 0.846016 0.701373 1.424140 1.195670 1.212541 0.987517 0.597634 0.470513 0.748240 0.602639 0.282183 0.272692 0.487916 0.247083 0.264905 0.109966 -0.002250 -0.016314 -0.009448 -0.320391 -0.144134 0.013066 0.008133 -0.081597 -0.013867 -0.105397 -0.085106 0.068854 0.197027 0.259936 0.281276 0.386328 0.631763 0.563825 0.668945 0.829895 1.063267 0.805956 1.268714 1.195755 1.272005 1.372210 1.264037 1.163986 1.374740 1.239191 1.349431 1.206368 1.205138 1.223216 0.965377 0.715392 0.750174 0.797134 0.484100 0.447503 0.372710 0.240108 0.197957 0.035591 0.233449 0.174928 0.059479 0.140738 0.238346 0.363637 0.608209 0.611424 0.628519 0.697869 0.881507 0.594574 1.029063 1.054274 0.776261 0.928161 0.771179 0.887199 0.919566 0.651593 0.408199 0.438277 0.385911 0.222671 0.243104 0.163183 -0.014571 0.252315 0.231324 0.261999 0.156714 0.250422 0.334589 0.277853 0.502017 0.603730 0.555386 0.366225 0.652383 0.561004 0.421230 0.540291 0.436080 0.270015 0.314528 0.138536 0.215268 0.025784 0.216087 -0.055224 0.058122 0.066275 0.259339 0.050587 0.399991 0.350714 0.405219 0.381930 0.419058 0.590334 0.409866 0.347297 0.402137 0.198020 0.361051 0.109827 0.268666 0.065218 0.091925 0.082017 0.062859 0.046543 0.159301 0.059091 0.158824 0.242269 0.287403 0.330277 0.265041 0.346283 0.264287 0.293840 0.185580 0.104515 0.019540 -0.008132 0.017752 -0.065061 -0.070930 0.127279 0.219293 0.054840 0.108693 0.129226 0.008610 0.190016 0.258787 0.188883 0.183521 0.130954 0.168789 0.107458 0.098239 0.046837 -0.086813 -0.002919 0.134662 0.052360 0.153974 0.133886 0.221669 0.181641 0.156341 0.107649 0.188265 0.101250 0.143822 0.092975 0.011309 -0.011818 -0.011247 0.129997 0.123837 0.129991 0.060296 0.152343 0.160397 0.046168 0.144686 0.052934 -0.008482 0.027037 0.008121 -0.059263 -0.062048 -0.116429 -0.048592 -0.053805 -0.096638 0.012349 -0.044951 0.047440 0.102132 -0.112033 0.024910 -0.051136 -0.098527 0.049229 -0.026504 -0.062565 0.043285 0.098710 0.030562 0.059637 -0.045045 0.027901 0.200299 0.009691 -0.044693 0.082274 0.041454 0.114017 -0.108440 -0.047801 -0.008159 0.046662 0.058553 0.100430 0.132884 -0.047150 -0.108756 0.008320 -0.063103 -0.066715 -0.047440 -0.047257 0.051116 -0.176531 0.126531 0.127185 0.183856 0.038850 0.050727 0.030652 0.030721 0.094362 -0.029289 0.038929 0.009643 0.056256 0.140618 0.189696 0.043074 0.163444 0.171667 -0.040248 -0.009014 -0.162506 0.235301 0.137148 0.214447 0.170121 0.030961 -0.063108 -0.091284 0.012254 0.008236 -0.017670 0.044518 0.050280 -0.078599 0.014907 0.106804 0.070995 0.039226 0.009383 0.057196 -0.101561 -0.017512 0.053718 -0.028393 -0.114506 0.045464 -0.009500 -0.039207 -0.033671 -0.112579 0.084068 0.123416 0.000308 -0.090581 -0.341710 0.198389 0.511560 0.448195 0.576275 0.266617 0.324155 0.400744 0.512250 0.566425 0.057970 0.029977 -0.927911
0.072396 0.072838 0.074163 0.076371 0.079462 0.083435 0.088289 0.094022 0.100634 0.108122 0.116484 0.125716 0.135815 0.146776 0.158594 0.171262 0.184772 0.199116 0.214282 0.230259 0.247032 0.264586 0.282903 0.301961 0.321739 0.342209 0.363344 0.385111 0.407474 0.430396 0.453833 0.477738 0.502061 0.526747 0.551735 0.576960 0.602354 0.627843 0.653346 0.678779 0.704051 0.729069 0.753731 0.777931 0.801559 0.824499 0.846629 0.867825 0.887956 0.906890 0.924488 0.940610 0.955112 0.967851 0.978680 0.987451 0.994019 0.998237 0.999964 0.999060 0.995388 0.988821 0.979236 0.966518 0.950564 0.931282 0.908590 0.882425 0.852736 0.819493 0.782682 0.742313 0.698416 0.651047 0.600285 0.546238 0.489041 0.428857 0.365881 0.300336 0.232478 0.162594 0.091002 0.018050 0.055883 0.130388 0.205031 0.279348 0.352856 0.425047 0.495396 0.563366 0.628407 0.689964 0.747479 0.800402 0.848190 0.890315 0.926273 0.955588 0.977820 0.992569 0.999485 0.998277 0.988713 0.970632 0.943948 0.908657 0.864842 0.812675 0.752424 0.684454 0.609231 0.527317 0.439375 0.346165 0.248540 0.147440 0.043885 0.061028 0.166143 0.270251 0.372106 0.470437 0.563965 0.651424 0.731572 0.803218 0.865233 0.916578 0.956321 0.983654 0.997916 0.998607 0.985407 0.958192 0.917039 0.862242 0.794319 0.714007 0.622269 0.520285 0.409446 0.291336 0.167716 0.040506 0.088250 0.216406 0.341757 0.462066 0.575119 0.678750 0.770902 0.849658 0.913296 0.960323 0.989521 0.999980 0.991137 0.962795 0.915150 0.848800 0.764752 0.664419 0.549605 0.422480 0.285552 0.141622 0.006269 0.154897 0.300927 0.440980 0.571721 0.689935 0.792613 0.877034 0.940842 0.982127 0.999484 0.992074 0.959665 0.902665 0.822136 0.719788 0.597962 0.459586 0.308120 0.147478 0.018066 0.183983 0.345614 0.498297 0.637510 0.759000 0.858929 0.934004 0.981593 0.999836 0.987727 0.945176 0.873050 0.773168 0.648289 0.502048 0.338864 0.163824 0.017463 0.199040 0.374797 0.538674 0.684877 0.808085 0.903659 0.967832 0.997874 0.992225 0.950588 0.873990 0.764777 0.626575 0.464192 0.283467 0.091080 0.105682 0.299199 0.481803 0.646095 0.785242 0.893285 0.965408 0.998170 0.989698 0.939809 0.850073 0.723801 0.565943 0.382939 0.182460 0.026882 0.235900 0.435226 0.615737 0.768976 0.887568 0.965597 0.998919 0.985421 0.925170 0.820481 0.675864 0.497862 0.294798 0.076395 0.146661 0.363236 0.562304 0.733521 0.867767 0.957665 0.998014 0.986118 0.922006 0.808499 0.651135 0.457938 0.239048 0.006209 0.227834 0.450029 0.647754 0.809529 0.925727 0.989163 0.995583 0.943987 0.836772 0.679681 0.481538 0.253798 0.009912 0.235431 0.467203 0.670938 0.833664 0.944749 0.996643 0.985427 0.911160 0.777971 0.593885 0.370404 0.121820 0.135662 0.384967 0.609279 0.793179 0.923751 0.991510 0.991152 0.922021 0.788260 0.598637 0.366026 0.106581 0.161341 0.418481 0.646035 0.827068 0.947796 0.998685 0.975268 0.878586 0.715243 0.497021 0.240102 0.036101 0.310362 0.561273 0.768927 0.916516 0.991754 0.987952 0.904681 0.747947 0.529842 0.267673 0.017345 0.301778 0.561874 0.775578 0.924413 0.995148 0.981031 0.882517 0.707374 0.470168 0.191118 0.105567 0.393759 0.647693 0.844311 0.965377 0.999256 0.942097 0.798357 0.580554 0.308267 0.006448 0.296823 0.572914 0.795383 0.942524 0.999570 0.960250 0.827572 0.613716 0.339009 0.030078 0.282680 0.568056 0.797160 0.946401 0.999962
1.000000 1.000000 1.000000 1.000000 1.000000 1.000000 1.000000 1.000000 1.000000 1.000000 1.000000 1.000000 1.000000 1.000000 1.000000 1.000000 1.000000 1.000000 1.000000 1.000000 1.000000 1.000000 1.000000 1.000000 1.000000 1.000000 1.000000 1.000000 1.000000 1.000000 1.000000 1.000000 1.000000 1.000000 1.000000 1.000000 1.000000 1.000000 1.000000 1.000000 1.000000 1.000000 1.000000 1.000000 1.000000 1.000000 1.000000 1.000000 1.000000 1.000000 1.000000 1.000000 0.770796 0.770796 0.770796 0.770796 0.770796 0.770796 0.770796 0.759597 0.759597 0.759597 0.759597 0.759597 0.759597 0.759597 0.759597 0.759597 0.759597 0.759597 0.759597 0.759597 0.759597 0.759597 0.759597 0.759597 0.759597 0.759597 0.759597 0.759597 0.759597 0.759597 0.759597 0.759597 0.759597 0.759597 0.759597 0.759597 0.759597 0.759597 0.759597 0.759597 0.759597 0.759597 0.759597 0.759597 0.759597 0.759597 0.759597 0.759597 0.759597 0.759597 0.759597 0.899993 0.901465 0.904529 0.899950 0.901884 0.899723 0.893291 0.896218 0.896839 0.896650 0.897442 0.899096 0.901102 0.908437 0.917346 0.919234 0.926212 0.929645 0.929627 0.931142 0.929756 0.937232 0.934734 0.932963 0.921057 0.924469 0.926370 0.925379 0.924219 0.921044 0.927466 0.926061 0.923983 0.918700 0.914781 0.912870 0.914510 0.912273 0.912470 0.912655 0.913277 0.911483 0.912092 0.908245 0.909189 0.908089 0.904537 0.901526 0.901243 0.902631 0.900940 0.897564 0.891289 0.897250 0.897407 0.896771 0.895680 0.895890 0.896684 0.897458 0.898125 0.895687 0.895739 0.893157 0.894933 0.891324 0.886578 0.880439 0.880704 0.883187 0.890315 0.892355 0.891015 0.888185 0.879878 0.869242 0.867147 0.855419 0.820840 0.822742 0.826625 0.828760 0.829322 0.828387 0.824583 0.820153 0.811756 0.802714 0.807517 0.808070 0.800566 0.796398 0.797323 0.797997 0.805378 0.808934 0.800735 0.797636 0.800502 0.796466 0.797673 0.801604 0.794932 0.791660 0.798402 0.806577 0.806693 0.791292 0.786979 0.784643 0.772555 0.779667 0.786231 0.786227 0.787636 0.784616 0.772895 0.771476 0.764671 0.775403 0.782655 0.781927 0.776995 0.759933 0.716722 0.702978 0.670233 0.669043 0.670635 0.636840 0.637006 0.638554 0.642973 0.586865 0.564328 0.550329 0.551188 0.560060 0.565066 0.559079 0.532415 0.550318 0.546874 0.532453 0.528412 0.509042 0.495104 0.476589 0.479202 0.478487 0.470671 0.439907 0.440578 0.460377 0.469485 0.464837 0.461201 0.433320 0.412760 0.412782 0.405473 0.405359 0.411266 0.419862 0.363170 0.340106 0.326168 0.354956 0.353831 0.352161 0.369155 0.361304 0.354800 0.329946 0.309516 0.281187 0.293648 0.314209 0.317761 0.321424 0.289540 0.279840 0.263767 0.268014 0.313131 0.301825 0.323841 0.328800 0.333794 0.359791 0.332715 0.309077 0.286680 0.329886 0.335843 0.308407 0.300541 0.314595 0.328324 0.327718 0.323654 0.318014 0.365136 0.370441 0.349740 0.350142 0.317151 0.338284 0.369968 0.367118 0.372635 0.382998 0.388690 0.353741 0.281182 0.253157 0.256445 0.232833 0.232463 0.218295 0.203162 0.194896 0.207105 0.229112 0.235251 0.267708 0.236343 0.191858 0.100628 0.167806 0.085005 0.098072 0.098072 0.098072 0.098072 0.098072 0.098072 0.098072 0.098072 0.133984 0.133984 0.133984 0.133984 0.133984 0.133984 0.133984 0.133984 0.133984 0.133984 0.133984 0.133984 0.133984 0.133984 0.133984 0.133984 0.133984 0.133984 0.133984 0.133984 0.133984
0.000000 0.000000 0.000000 0.000000 0.000000 0.000000 0.000000 0.000000 0.000000 0.000000 0.000000 0.000000 0.000000 0.000000 0.000000 0.000000 0.000000 0.000000 0.000000 0.000000 0.000000 0.000000 0.000000 0.000000 0.000000 0.000000 0.000000 0.000000 0.000000 0.000000 0.000000 0.000000 0.000000 0.000000 0.000000 0.000000 0.000000 0.000000 0.000000 0.000000 0.000000 0.000000 0.000000 0.000000 0.000000 0.000000 0.000000 0.000000 0.000000 0.000000 0.000000 0.000000 0.173422 0.173422 0.173422 0.173422 0.173422 0.173422 0.173422 0.191565 0.191565 0.191565 0.191565 0.191565 0.191565 0.191565 0.191565 0.191565 0.191565 0.191565 0.191565 0.191565 0.191565 0.191565 0.191565 0.191565 0.191565 0.191565 0.191565 0.191565 0.191565 0.191565 0.191565 0.191565 0.191565 0.191565 0.191565 0.191565 0.191565 0.191565 0.191565 0.191565 0.191565 0.191565 0.191565 0.191565 0.191565 0.191565 0.191565 0.191565 0.191565 0.191565 0.191565 0.222222 0.222222 0.222222 0.222222 0.222222 0.222222 0.222222 0.222222 0.222222 0.222222 0.222222 0.222222 0.222222 0.222222 0.222222 0.222222 0.222222 0.222222 0.222222 0.222222 0.222222 0.222222 0.222222 0.222222 0.222222 0.222222 0.222222 0.222222 0.222222 0.222222 0.234082 0.234082 0.234082 0.234082 0.234082 0.234082 0.234082 0.234082 0.234082 0.234082 0.234082 0.234082 0.234082 0.234082 0.234082 0.234082 0.234082 0.234082 0.234082 0.234082 0.234082 0.234082 0.234082 0.234082 0.234082 0.244339 0.244339 0.244339 0.244339 0.244339 0.244339 0.244339 0.244339 0.244339 0.244339 0.244339 0.244339 0.244339 0.244339 0.244339 0.244339 0.244339 0.244339 0.244339 0.244339 0.244339 0.248069 0.248069 0.248069 0.248069 0.248069 0.248069 0.248069 0.248069 0.248069 0.248069 0.248069 0.248069 0.248069 0.248069 0.248069 0.248069 0.248069 0.248069 0.248069 0.256074 0.256074 0.256074 0.256074 0.256074 0.256074 0.256074 0.256074 0.256074 0.256074 0.256074 0.256074 0.256074 0.256074 0.256074 0.256074 0.256074 0.256074 0.256074 0.256074 0.256074 0.256074 0.256074 0.256074 0.256074 0.256074 0.256074 0.256074 0.256074 0.256074 0.256074 0.256074 0.256074 0.256074 0.256074 0.256074 0.256074 0.256074 0.256074 0.256074 0.256074 0.256074 0.256074 0.256074 0.256074 0.256074 0.256074 0.256074 0.256074 0.256074 0.256074 0.256074 0.256074 0.256074 0.256074 0.256074 0.256074 0.256074 0.256074 0.256074 0.256074 0.256074 0.260378 0.260378 0.260378 0.260378 0.260378 0.260378 0.260378 0.260378 0.260378 0.260378 0.260378 0.260378 0.260378 0.256074 0.256074 0.256074 0.256074 0.256074 0.256074 0.256074 0.256074 0.256074 0.256074 0.256074 0.256074 0.256074 0.260378 0.260378 0.260378 0.260378 0.260378 0.260378 0.260378 0.260378 0.260378 0.260378 0.260378 0.260378 0.251976 0.251976 0.251976 0.251976 0.251976 0.251976 0.251976 0.251976 0.251976 0.251976 0.251976 0.251976 0.256074 0.256074 0.256074 0.256074 0.256074 0.256074 0.256074 0.256074 0.256074 0.256074 0.256074 0.251976 0.251976 0.251976 0.251976 0.251976 0.251976 0.251976 0.251976 0.251976 0.251976 0.251976 0.260378 0.260378 0.260378 0.260378 0.260378 0.260378 0.260378 0.260378 0.260378 0.260378 0.244339 0.244339 0.244339 0.244339 0.244339 0.244339 0.244339 0.244339 0.244339 0.244339 0.244339 0.244339 0.244339 0.244339 0.244339 0.244339 0.244339 0.244339 0.244339 0.244339 0.244339
