# Output from CTFFind version 4.1.9, run on 2019-11-03 19:31:03
# Input file: stack11_bm3d_averaged_1_3.75_0_3000_half.mrc ; Number of micrographs: 1
# Pixel size: 3.000 Angstroms ; acceleration voltage: 300.0 keV ; spherical aberration: 0.00 mm ; amplitude contrast: 0.07
# Box size: 512 pixels ; min. res.: 30.0 Angstroms ; max. res.: 5.0 Angstroms ; min. def.: 5000.0 um; max. def. 50000.0 um; num. frames averaged: 1
# 6 lines per micrograph: #1 - spatial frequency (1/Angstroms); #2 - 1D rotational average of spectrum (assuming no astigmatism); #3 - 1D rotational average of spectrum; #4 - CTF fit; #5 - cross-correlation between spectrum and CTF fit; #6 - 2sigma of expected cross correlation of noise
0.000000 0.000651 0.001302 0.001953 0.002604 0.003255 0.003906 0.004557 0.005208 0.005859 0.006510 0.007161 0.007812 0.008464 0.009115 0.009766 0.010417 0.011068 0.011719 0.012370 0.013021 0.013672 0.014323 0.014974 0.015625 0.016276 0.016927 0.017578 0.018229 0.018880 0.019531 0.020182 0.020833 0.021484 0.022135 0.022786 0.023438 0.024089 0.024740 0.025391 0.026042 0.026693 0.027344 0.027995 0.028646 0.029297 0.029948 0.030599 0.031250 0.031901 0.032552 0.033203 0.033854 0.034505 0.035156 0.035807 0.036458 0.037109 0.037760 0.038411 0.039062 0.039714 0.040365 0.041016 0.041667 0.042318 0.042969 0.043620 0.044271 0.044922 0.045573 0.046224 0.046875 0.047526 0.048177 0.048828 0.049479 0.050130 0.050781 0.051432 0.052083 0.052734 0.053385 0.054036 0.054688 0.055339 0.055990 0.056641 0.057292 0.057943 0.058594 0.059245 0.059896 0.060547 0.061198 0.061849 0.062500 0.063151 0.063802 0.064453 0.065104 0.065755 0.066406 0.067057 0.067708 0.068359 0.069010 0.069661 0.070312 0.070964 0.071615 0.072266 0.072917 0.073568 0.074219 0.074870 0.075521 0.076172 0.076823 0.077474 0.078125 0.078776 0.079427 0.080078 0.080729 0.081380 0.082031 0.082682 0.083333 0.083984 0.084635 0.085286 0.085938 0.086589 0.087240 0.087891 0.088542 0.089193 0.089844 0.090495 0.091146 0.091797 0.092448 0.093099 0.093750 0.094401 0.095052 0.095703 0.096354 0.097005 0.097656 0.098307 0.098958 0.099609 0.100260 0.100911 0.101562 0.102214 0.102865 0.103516 0.104167 0.104818 0.105469 0.106120 0.106771 0.107422 0.108073 0.108724 0.109375 0.110026 0.110677 0.111328 0.111979 0.112630 0.113281 0.113932 0.114583 0.115234 0.115885 0.116536 0.117188 0.117839 0.118490 0.119141 0.119792 0.120443 0.121094 0.121745 0.122396 0.123047 0.123698 0.124349 0.125000 0.125651 0.126302 0.126953 0.127604 0.128255 0.128906 0.129557 0.130208 0.130859 0.131510 0.132161 0.132812 0.133464 0.134115 0.134766 0.135417 0.136068 0.136719 0.137370 0.138021 0.138672 0.139323 0.139974 0.140625 0.141276 0.141927 0.142578 0.143229 0.143880 0.144531 0.145182 0.145833 0.146484 0.147135 0.147786 0.148438 0.149089 0.149740 0.150391 0.151042 0.151693 0.152344 0.152995 0.153646 0.154297 0.154948 0.155599 0.156250 0.156901 0.157552 0.158203 0.158854 0.159505 0.160156 0.160807 0.161458 0.162109 0.162760 0.163411 0.164062 0.164714 0.165365 0.166016 0.166667 0.167318 0.167969 0.168620 0.169271 0.169922 0.170573 0.171224 0.171875 0.172526 0.173177 0.173828 0.174479 0.175130 0.175781 0.176432 0.177083 0.177734 0.178385 0.179036 0.179688 0.180339 0.180990 0.181641 0.182292 0.182943 0.183594 0.184245 0.184896 0.185547 0.186198 0.186849 0.187500 0.188151 0.188802 0.189453 0.190104 0.190755 0.191406 0.192057 0.192708 0.193359 0.194010 0.194661 0.195312 0.195964 0.196615 0.197266 0.197917 0.198568 0.199219 0.199870 0.200521 0.201172 0.201823 0.202474 0.203125 0.203776 0.204427 0.205078 0.205729 0.206380 0.207031 0.207682 0.208333 0.208984 0.209635 0.210286 0.210938 0.211589 0.212240 0.212891 0.213542 0.214193 0.214844 0.215495 0.216146 0.216797 0.217448 0.218099 0.218750 0.219401 0.220052 0.220703 0.221354 0.222005 0.222656 0.223307 0.223958 0.224609 0.225260 0.225911 0.226562 0.227214 0.227865 0.228516 0.229167 0.229818 0.230469 0.231120 0.231771 0.232422 0.233073 0.233724 0.234375 0.235026 0.235677
       0.32758        0.32758        0.32758        0.32758        0.32758        0.32758        0.32758        0.32758        0.32758        0.32758        0.32758        0.32758        0.32758        0.32758        0.32758        0.32758        0.32758        0.32758        0.32758        0.32758        0.32758        0.32758        0.32758        0.32758        0.32758        0.32758        0.32758        0.32758        0.32758        0.32758        0.32758        0.32758        0.32758        0.32758        0.32758        0.32758        0.32758        0.32758        0.32758        0.32758        0.32758        0.32758        0.32758        0.32758        0.32758        0.32758        0.32758        0.32758        0.32758        0.32758        0.32758        0.68806        0.86054        0.52780        0.09874       -0.04214       -0.40971       -0.18970       -0.29086       -0.11430       -0.06400       -0.11321       -0.05927       -0.18948       -0.21955       -0.23585       -0.32077       -0.33178       -0.46454       -0.37131       -0.44610       -0.43903       -0.41012       -0.44076       -0.49144       -0.53492       -0.57065       -0.58674       -0.55609       -0.38547       -0.35792       -0.31694       -0.29683       -0.20113       -0.19136        0.04017        0.10929        0.14243        0.24297        0.37451        0.45034        0.51340        0.57275        0.57091        0.56836        0.69114        0.80573        0.71793        0.73488        0.63929        0.56799        0.48172        0.41774        0.50426        0.38723        0.23492        0.09374        0.07527        0.05161       -0.04381       -0.00065        0.01753       -0.03060        0.00385       -0.00392        0.23278        0.26033        0.28838        0.42128        0.44501        0.40406        0.56379        0.62484        0.66494        0.74141        0.68283        0.65070        0.67550        0.56827        0.47537        0.41715        0.29100        0.22923        0.16481        0.12369        0.04957        0.03272        0.03112        0.08270        0.13691        0.22133        0.27399        0.39663        0.44493        0.48915        0.58864        0.61644        0.63190        0.62179        0.55962        0.45104        0.46196        0.36673        0.24223        0.19154        0.15140        0.14358        0.13879        0.11703        0.14430        0.27573        0.28854        0.37185        0.40102        0.43078        0.50067        0.54642        0.55020        0.48231        0.44742        0.39420        0.34844        0.31382        0.27646        0.22407        0.21872        0.20048        0.22503        0.20510        0.29295        0.34901        0.38492        0.43257        0.45329        0.47605        0.41878        0.39434        0.40601        0.36091        0.29087        0.26499        0.23766        0.23806        0.21188        0.25294        0.25679        0.33450        0.37089        0.39431        0.47248        0.42121        0.43098        0.42954        0.40220        0.34358        0.31848        0.28447        0.28920        0.25902        0.29166        0.29063        0.31541        0.32096        0.33933        0.31929        0.40418        0.41678        0.38049        0.34578        0.37010        0.29731        0.28337        0.27732        0.30515        0.28216        0.29683        0.30963        0.32359        0.33842        0.36384        0.37129        0.37799        0.36559        0.31338        0.32965        0.28394        0.25907        0.30839        0.30336        0.31898        0.32068        0.32135        0.35216        0.32285        0.31946        0.30428        0.31675        0.28843        0.29874        0.26587        0.29485        0.30315        0.28936        0.31104        0.32880        0.33344        0.27534        0.30949        0.28086        0.29140        0.27256        0.22657        0.28450        0.29020        0.34262        0.32477        0.32417        0.31806        0.32723        0.28627        0.32678        0.32244        0.28230        0.26805        0.30966        0.29616        0.34543        0.32830        0.33197        0.33681        0.29164        0.27254        0.29971        0.24160        0.21812        0.31111        0.31571        0.31688        0.30963        0.31978        0.29651        0.34151        0.33425        0.26157        0.23423        0.29677        0.30598        0.29480        0.32148        0.33719        0.33368        0.30394        0.29051        0.33612        0.31623        0.27781        0.25818        0.31456        0.35297        0.39038        0.30158        0.27107        0.27033        0.30666        0.24997        0.28960        0.26423        0.25042        0.31796        0.33699        0.34376        0.32753        0.28209        0.26498        0.27455        0.24849        0.23948        0.24127        0.31324        0.29377        0.21512        0.32894        0.32176        0.26112        0.26573        0.20256        0.20379        0.24484        0.18409        0.23462        0.25943        0.22049        0.19108        0.28507        0.34992        0.33397        0.33735        0.24268        0.20227        0.18593        0.23688        0.21608        0.14778        0.20030        0.24768        0.21089        0.20188        0.14793        0.09596        0.11186        0.07447       -0.09236       -0.63815
2.654342 2.626532 2.598873 2.571364 2.544007 2.516801 2.489745 2.462841 2.436088 2.409485 2.383034 2.356734 2.330585 2.304586 2.278739 2.253043 2.227497 2.202103 2.176860 2.151767 2.126826 2.102036 2.077396 2.052908 2.028571 2.004384 1.980349 1.956465 1.932731 1.909149 1.885718 1.862437 1.839308 1.816330 1.793502 1.770826 1.748301 1.725926 1.703703 1.681631 1.659709 1.637939 1.616319 1.594851 1.573534 1.552367 1.531352 1.510487 1.489774 1.469212 1.448800 1.667294 2.084872 1.646872 1.153443 1.019487 0.424528 0.830763 0.556071 0.838480 0.788754 0.802376 0.753235 0.724438 0.577611 0.535516 0.488921 0.427854 0.228401 0.372939 0.199138 0.315680 0.225868 0.191613 0.159619 0.026205 0.024796 0.005619 -0.066360 0.119771 0.218888 0.185584 0.161488 0.331735 0.185536 0.506544 0.607348 0.596536 0.620528 0.876464 0.828402 0.941465 0.904660 1.004158 0.966675 1.082152 1.147974 1.052442 1.150610 0.929355 0.934536 0.792700 0.655007 0.793122 0.711797 0.478153 0.325594 0.250839 0.251204 0.148574 0.114135 0.151681 0.102460 0.138229 0.064356 0.266583 0.376665 0.355425 0.475398 0.557062 0.436351 0.580110 0.719993 0.714681 0.758843 0.719083 0.734837 0.684361 0.616203 0.540238 0.404697 0.283151 0.227992 0.084282 0.133781 -0.060412 -0.035465 -0.059179 -0.056212 -0.011660 0.152596 0.071358 0.266329 0.306317 0.354186 0.426611 0.522877 0.488789 0.521786 0.512961 0.329679 0.313525 0.296118 0.098652 0.052776 -0.036221 -0.005251 -0.039590 -0.073374 -0.085373 0.040326 0.076168 0.134084 0.199263 0.235646 0.283807 0.319758 0.425757 0.402470 0.296207 0.249775 0.228882 0.174403 0.138894 0.112420 0.015906 0.021300 0.054302 0.006843 0.078702 0.156427 0.156486 0.255931 0.252240 0.312842 0.189887 0.226705 0.158637 0.204360 0.117002 0.052547 0.008573 0.003860 -0.001161 -0.036575 0.048651 0.028638 0.141795 0.155211 0.183558 0.239401 0.173078 0.178358 0.182474 0.137693 0.070794 0.019349 0.054273 0.005451 -0.009663 0.024006 0.045907 0.061217 0.054061 0.064668 0.099639 0.127689 0.174278 0.071384 0.072896 0.063803 0.009560 -0.015281 0.012933 0.014899 0.007899 0.011343 0.030012 0.056765 0.067020 0.112869 0.062235 0.130523 0.060803 0.022981 0.048612 -0.031788 -0.005272 0.042206 0.003400 0.051190 0.052784 0.026632 0.099582 0.051897 0.020455 0.048234 0.014497 0.028623 0.014172 -0.011876 0.049261 0.004875 0.015875 0.060303 0.067266 0.031195 0.042415 0.033236 0.034960 0.022296 -0.012671 -0.026380 0.030923 0.057171 0.091965 0.078664 0.079298 0.065615 0.091695 0.040924 0.102096 0.090726 0.017981 0.029400 0.084436 0.070444 0.098945 0.092191 0.127749 0.106200 0.067896 0.020718 0.090259 -0.030125 0.006635 0.100079 0.072775 0.101380 0.075521 0.075029 0.020929 0.121844 0.079880 -0.013406 -0.038508 0.053636 0.077131 0.040002 0.041895 0.090943 0.097027 0.017034 0.051062 0.079200 0.061707 0.024640 -0.021697 0.070505 0.111311 0.114957 0.002999 -0.009029 -0.013589 0.054121 -0.052557 0.027418 -0.029698 -0.019957 0.034033 0.076115 0.014926 0.011287 -0.030877 -0.034421 -0.056145 -0.033060 -0.082301 -0.074478 0.035086 0.042353 -0.090173 0.062808 0.007305 -0.047168 0.022871 -0.106429 -0.064576 -0.048806 -0.078728 -0.022517 0.010813 -0.010049 -0.108873 0.050149 0.189954 0.010563 0.141651 0.033444 0.218920 0.176935 0.261908 0.242973 0.145472 0.207130 0.289303 0.199108 0.228443 0.136357 0.147717 0.155546 0.076482 -0.682861
0.072396 0.072898 0.074405 0.076915 0.080429 0.084945 0.090462 0.096979 0.104493 0.113002 0.122502 0.132989 0.144457 0.156901 0.170313 0.184682 0.199999 0.216251 0.233422 0.251496 0.270452 0.290267 0.310916 0.332369 0.354594 0.377552 0.401203 0.425502 0.450396 0.475831 0.501746 0.528073 0.554740 0.581669 0.608773 0.635963 0.663139 0.690197 0.717024 0.743503 0.769508 0.794907 0.819562 0.843327 0.866051 0.887578 0.907746 0.926389 0.943335 0.958411 0.971440 0.982246 0.990650 0.996475 0.999547 0.999693 0.996749 0.990554 0.980958 0.967822 0.951017 0.930430 0.905964 0.877543 0.845109 0.808628 0.768092 0.723521 0.674965 0.622502 0.566250 0.506356 0.443010 0.376434 0.306895 0.234696 0.160184 0.083742 0.005796 0.073189 0.152712 0.232237 0.311193 0.388982 0.464980 0.538541 0.609004 0.675698 0.737948 0.795084 0.846445 0.891393 0.929314 0.959634 0.981826 0.995417 1.000000 0.995244 0.980902 0.956819 0.922942 0.879329 0.826149 0.763696 0.692388 0.612770 0.525515 0.431427 0.331431 0.226574 0.118015 0.007016 0.105072 0.216819 0.326739 0.433303 0.534964 0.630178 0.717430 0.795260 0.862290 0.917250 0.959006 0.986588 0.999216 0.996324 0.977579 0.942907 0.892501 0.826836 0.746675 0.653073 0.547365 0.431164 0.306340 0.174998 0.039442 0.097848 0.234272 0.367147 0.493770 0.611460 0.717633 0.809850 0.885887 0.943791 0.981936 0.999083 0.994419 0.967601 0.918790 0.848660 0.758420 0.649795 0.525020 0.386797 0.238250 0.082871 0.075566 0.233086 0.385610 0.529062 0.659481 0.773133 0.866633 0.937044 0.981991 0.999749 0.989321 0.950500 0.883906 0.791008 0.674105 0.536296 0.381414 0.213935 0.038860 0.138422 0.312299 0.477111 0.627333 0.757770 0.863749 0.941294 0.987296 0.999656 0.977395 0.920735 0.831134 0.711284 0.565049 0.397377 0.214143 0.021961 0.172034 0.360457 0.535948 0.691460 0.820562 0.917713 0.978526 0.999984 0.980618 0.920621 0.821902 0.688056 0.524276 0.337177 0.134551 0.074930 0.282088 0.477623 0.652540 0.798573 0.908600 0.977003 0.999998 0.975863 0.905100 0.790474 0.636955 0.451545 0.242986 0.021379 0.202281 0.416653 0.610619 0.773872 0.897482 0.974421 0.999990 0.972150 0.891711 0.762379 0.590633 0.385453 0.157885 0.079527 0.313406 0.530297 0.717446 0.863575 0.959581 0.999156 0.979239 0.900300 0.766412 0.585104 0.366990 0.125199 0.125391 0.369043 0.590148 0.774241 0.908963 0.984949 0.996510 0.942129 0.824669 0.651307 0.433149 0.184594 0.077599 0.335388 0.570708 0.766723 0.909085 0.987012 0.994170 0.929252 0.796201 0.604066 0.366450 0.100606 0.173754 0.435924 0.665749 0.845200 0.959827 0.999992 0.961743 0.847272 0.664896 0.428534 0.156733 0.128755 0.404668 0.648129 0.838564 0.959484 0.999983 0.955797 0.829836 0.632102 0.378989 0.092007 0.203990 0.482942 0.719859 0.893102 0.986418 0.990547 0.904232 0.734517 0.496294 0.211088 0.094809 0.392734 0.654303 0.854154 0.972467 0.997000 0.924468 0.761058 0.522045 0.230449 0.085069 0.393002 0.662101 0.864601 0.979122 0.993040 0.903983 0.720297 0.460416 0.151104 0.175188 0.483707 0.741085 0.918981 0.997300 0.966565 0.829186 0.599454 0.302181 0.029861 0.359490 0.649237 0.865650 0.983216 0.987480 0.876961 0.663590 0.371575 0.034789 0.307080 0.613154 0.846288 0.977637 0.990346 0.881857 0.664502 0.364281 0.017887 0.331687 0.640446 0.868948 0.987430 0.979810 0.846031 0.602381 0.279671 0.080498
1.000000 1.000000 1.000000 1.000000 1.000000 1.000000 1.000000 1.000000 1.000000 1.000000 1.000000 1.000000 1.000000 1.000000 1.000000 1.000000 1.000000 1.000000 1.000000 1.000000 1.000000 1.000000 1.000000 1.000000 1.000000 1.000000 1.000000 1.000000 1.000000 1.000000 1.000000 1.000000 1.000000 1.000000 1.000000 1.000000 1.000000 1.000000 1.000000 1.000000 1.000000 1.000000 1.000000 1.000000 1.000000 1.000000 1.000000 1.000000 1.000000 1.000000 1.000000 1.000000 0.922877 0.922877 0.922877 0.914306 0.914306 0.914306 0.914306 0.914306 0.914306 0.914306 0.914306 0.914306 0.914306 0.914306 0.914306 0.914306 0.914306 0.914306 0.914306 0.914306 0.914306 0.914306 0.914306 0.914306 0.914306 0.914306 0.914306 0.914306 0.914306 0.914306 0.914306 0.914306 0.914306 0.914306 0.914306 0.914306 0.914306 0.914306 0.914306 0.914306 0.914306 0.914306 0.914306 0.914306 0.941699 0.943207 0.951288 0.951116 0.950526 0.948260 0.947255 0.946753 0.946615 0.946916 0.947604 0.948555 0.957482 0.958674 0.961540 0.962471 0.963301 0.964069 0.964858 0.965758 0.961568 0.958736 0.955149 0.955003 0.957872 0.957481 0.957633 0.958727 0.958608 0.958300 0.958801 0.958554 0.957807 0.956930 0.956102 0.955718 0.955496 0.956198 0.956567 0.958026 0.961368 0.961875 0.961958 0.962112 0.962195 0.963512 0.961816 0.961612 0.957364 0.957861 0.957549 0.957878 0.961670 0.961421 0.961935 0.961744 0.963163 0.963426 0.953463 0.950109 0.939767 0.938136 0.932040 0.924354 0.920048 0.921873 0.924229 0.925808 0.926428 0.921920 0.921901 0.918591 0.914329 0.917561 0.916047 0.915316 0.916737 0.917556 0.917981 0.916705 0.915247 0.908724 0.898969 0.898221 0.901572 0.906269 0.908256 0.908681 0.907255 0.878411 0.877892 0.884437 0.878566 0.867847 0.863428 0.861821 0.867145 0.867709 0.870645 0.869910 0.860572 0.845977 0.831909 0.825747 0.827165 0.822549 0.822416 0.821441 0.819252 0.829861 0.826957 0.832911 0.831302 0.842813 0.846150 0.836165 0.832809 0.831784 0.826098 0.810991 0.814156 0.799311 0.800008 0.799247 0.795099 0.788319 0.793712 0.774546 0.768151 0.757193 0.759355 0.763297 0.757893 0.755392 0.756620 0.757605 0.762192 0.747715 0.737276 0.722767 0.727516 0.737053 0.738022 0.732920 0.710766 0.677299 0.637372 0.655060 0.680196 0.631680 0.654838 0.665385 0.645937 0.644488 0.636302 0.634570 0.635916 0.637972 0.643981 0.653225 0.653853 0.671670 0.651368 0.641727 0.650233 0.641416 0.643438 0.625887 0.629559 0.607917 0.600236 0.624696 0.599937 0.598993 0.595411 0.605783 0.632140 0.598094 0.601176 0.613355 0.601083 0.608531 0.607564 0.597167 0.599105 0.606142 0.595628 0.611635 0.625600 0.597828 0.568233 0.550616 0.527431 0.517261 0.562952 0.564229 0.551011 0.519744 0.523190 0.540877 0.545582 0.537877 0.506712 0.516452 0.519434 0.555126 0.543130 0.492846 0.511431 0.508956 0.508108 0.457441 0.451641 0.433557 0.415397 0.372306 0.370888 0.384233 0.370536 0.340233 0.318291 0.318970 0.318046 0.327894 0.317199 0.300346 0.299011 0.324576 0.325989 0.311465 0.272316 0.262635 0.246344 0.231653 0.231130 0.196001 0.226820 0.293174 0.294674 0.294674 0.294674 0.294674 0.294674 0.294674 0.300428 0.300428 0.300428 0.300428 0.300428 0.300428 0.300428 0.300428 0.300428 0.315796 0.315796 0.315796 0.315796 0.315796 0.315796 0.315796 0.315796 0.315796 0.315796 0.315796 0.315796 0.315796 0.315796
0.000000 0.000000 0.000000 0.000000 0.000000 0.000000 0.000000 0.000000 0.000000 0.000000 0.000000 0.000000 0.000000 0.000000 0.000000 0.000000 0.000000 0.000000 0.000000 0.000000 0.000000 0.000000 0.000000 0.000000 0.000000 7.000000 4.000000 0.000000 0.000000 0.000000 0.000000 0.000000 0.000000 0.000000 0.000000 0.000000 0.000000 0.000000 0.000000 0.000000 0.000000 0.000000 0.000000 0.000000 0.000000 0.000000 0.000000 0.000000 0.000000 0.000000 0.000000 0.000000 0.180334 0.180334 0.180334 0.199007 0.199007 0.199007 0.199007 0.199007 0.199007 0.199007 0.199007 0.199007 0.199007 0.199007 0.199007 0.199007 0.199007 0.199007 0.199007 0.199007 0.199007 0.199007 0.199007 0.199007 0.199007 0.199007 0.199007 0.199007 0.199007 0.199007 0.199007 0.199007 0.199007 0.199007 0.199007 0.199007 0.199007 0.199007 0.199007 0.199007 0.199007 0.199007 0.199007 0.199007 0.225018 0.225018 0.225018 0.225018 0.225018 0.225018 0.225018 0.225018 0.225018 0.225018 0.225018 0.225018 0.225018 0.225018 0.225018 0.225018 0.225018 0.225018 0.225018 0.225018 0.225018 0.225018 0.225018 0.225018 0.225018 0.225018 0.225018 0.225018 0.225018 0.244339 0.244339 0.244339 0.244339 0.244339 0.244339 0.244339 0.244339 0.244339 0.244339 0.244339 0.244339 0.244339 0.244339 0.244339 0.244339 0.244339 0.244339 0.244339 0.244339 0.244339 0.244339 0.244339 0.251976 0.251976 0.251976 0.251976 0.251976 0.251976 0.251976 0.251976 0.251976 0.251976 0.251976 0.251976 0.251976 0.251976 0.251976 0.251976 0.251976 0.251976 0.251976 0.251976 0.264906 0.264906 0.264906 0.264906 0.264906 0.264906 0.264906 0.264906 0.264906 0.264906 0.264906 0.264906 0.264906 0.264906 0.264906 0.264906 0.264906 0.256074 0.256074 0.256074 0.256074 0.256074 0.256074 0.256074 0.256074 0.256074 0.256074 0.256074 0.256074 0.256074 0.256074 0.256074 0.256074 0.256074 0.269680 0.269680 0.269680 0.269680 0.269680 0.269680 0.269680 0.269680 0.269680 0.269680 0.269680 0.269680 0.269680 0.269680 0.264906 0.264906 0.264906 0.264906 0.264906 0.264906 0.264906 0.264906 0.264906 0.264906 0.264906 0.264906 0.264906 0.264906 0.256074 0.256074 0.256074 0.256074 0.256074 0.256074 0.256074 0.256074 0.256074 0.256074 0.256074 0.256074 0.256074 0.256074 0.269680 0.269680 0.269680 0.269680 0.269680 0.269680 0.269680 0.269680 0.269680 0.269680 0.269680 0.269680 0.264906 0.264906 0.264906 0.264906 0.264906 0.264906 0.264906 0.264906 0.264906 0.264906 0.264906 0.264906 0.260378 0.260378 0.260378 0.260378 0.260378 0.260378 0.260378 0.260378 0.260378 0.260378 0.260378 0.260378 0.274721 0.274721 0.274721 0.274721 0.274721 0.274721 0.274721 0.274721 0.274721 0.274721 0.256074 0.256074 0.256074 0.256074 0.256074 0.256074 0.256074 0.256074 0.256074 0.256074 0.256074 0.264906 0.264906 0.264906 0.264906 0.264906 0.264906 0.264906 0.264906 0.264906 0.264906 0.260378 0.260378 0.260378 0.260378 0.260378 0.260378 0.260378 0.260378 0.260378 0.260378 0.256074 0.256074 0.256074 0.256074 0.256074 0.256074 0.256074 0.256074 0.256074 0.256074 0.260378 0.260378 0.260378 0.260378 0.260378 0.260378 0.260378 0.260378 0.260378 0.256074 0.256074 0.256074 0.256074 0.256074 0.256074 0.256074 0.256074 0.256074 0.251976 0.251976 0.251976 0.251976 0.251976 0.251976 0.251976 0.251976 0.251976 0.251976 0.251976 0.251976 0.251976 0.251976
