# Output from CTFFind version 4.1.9, run on 2019-11-02 17:44:58
# Input file: stack6_bm3d_averaged_1_1.0_0_750_half.mrc ; Number of micrographs: 1
# Pixel size: 3.000 Angstroms ; acceleration voltage: 300.0 keV ; spherical aberration: 0.00 mm ; amplitude contrast: 0.07
# Box size: 512 pixels ; min. res.: 30.0 Angstroms ; max. res.: 5.0 Angstroms ; min. def.: 5000.0 um; max. def. 50000.0 um; num. frames averaged: 1
# 6 lines per micrograph: #1 - spatial frequency (1/Angstroms); #2 - 1D rotational average of spectrum (assuming no astigmatism); #3 - 1D rotational average of spectrum; #4 - CTF fit; #5 - cross-correlation between spectrum and CTF fit; #6 - 2sigma of expected cross correlation of noise
0.000000 0.000651 0.001302 0.001953 0.002604 0.003255 0.003906 0.004557 0.005208 0.005859 0.006510 0.007161 0.007812 0.008464 0.009115 0.009766 0.010417 0.011068 0.011719 0.012370 0.013021 0.013672 0.014323 0.014974 0.015625 0.016276 0.016927 0.017578 0.018229 0.018880 0.019531 0.020182 0.020833 0.021484 0.022135 0.022786 0.023438 0.024089 0.024740 0.025391 0.026042 0.026693 0.027344 0.027995 0.028646 0.029297 0.029948 0.030599 0.031250 0.031901 0.032552 0.033203 0.033854 0.034505 0.035156 0.035807 0.036458 0.037109 0.037760 0.038411 0.039062 0.039714 0.040365 0.041016 0.041667 0.042318 0.042969 0.043620 0.044271 0.044922 0.045573 0.046224 0.046875 0.047526 0.048177 0.048828 0.049479 0.050130 0.050781 0.051432 0.052083 0.052734 0.053385 0.054036 0.054688 0.055339 0.055990 0.056641 0.057292 0.057943 0.058594 0.059245 0.059896 0.060547 0.061198 0.061849 0.062500 0.063151 0.063802 0.064453 0.065104 0.065755 0.066406 0.067057 0.067708 0.068359 0.069010 0.069661 0.070312 0.070964 0.071615 0.072266 0.072917 0.073568 0.074219 0.074870 0.075521 0.076172 0.076823 0.077474 0.078125 0.078776 0.079427 0.080078 0.080729 0.081380 0.082031 0.082682 0.083333 0.083984 0.084635 0.085286 0.085938 0.086589 0.087240 0.087891 0.088542 0.089193 0.089844 0.090495 0.091146 0.091797 0.092448 0.093099 0.093750 0.094401 0.095052 0.095703 0.096354 0.097005 0.097656 0.098307 0.098958 0.099609 0.100260 0.100911 0.101562 0.102214 0.102865 0.103516 0.104167 0.104818 0.105469 0.106120 0.106771 0.107422 0.108073 0.108724 0.109375 0.110026 0.110677 0.111328 0.111979 0.112630 0.113281 0.113932 0.114583 0.115234 0.115885 0.116536 0.117188 0.117839 0.118490 0.119141 0.119792 0.120443 0.121094 0.121745 0.122396 0.123047 0.123698 0.124349 0.125000 0.125651 0.126302 0.126953 0.127604 0.128255 0.128906 0.129557 0.130208 0.130859 0.131510 0.132161 0.132812 0.133464 0.134115 0.134766 0.135417 0.136068 0.136719 0.137370 0.138021 0.138672 0.139323 0.139974 0.140625 0.141276 0.141927 0.142578 0.143229 0.143880 0.144531 0.145182 0.145833 0.146484 0.147135 0.147786 0.148438 0.149089 0.149740 0.150391 0.151042 0.151693 0.152344 0.152995 0.153646 0.154297 0.154948 0.155599 0.156250 0.156901 0.157552 0.158203 0.158854 0.159505 0.160156 0.160807 0.161458 0.162109 0.162760 0.163411 0.164062 0.164714 0.165365 0.166016 0.166667 0.167318 0.167969 0.168620 0.169271 0.169922 0.170573 0.171224 0.171875 0.172526 0.173177 0.173828 0.174479 0.175130 0.175781 0.176432 0.177083 0.177734 0.178385 0.179036 0.179688 0.180339 0.180990 0.181641 0.182292 0.182943 0.183594 0.184245 0.184896 0.185547 0.186198 0.186849 0.187500 0.188151 0.188802 0.189453 0.190104 0.190755 0.191406 0.192057 0.192708 0.193359 0.194010 0.194661 0.195312 0.195964 0.196615 0.197266 0.197917 0.198568 0.199219 0.199870 0.200521 0.201172 0.201823 0.202474 0.203125 0.203776 0.204427 0.205078 0.205729 0.206380 0.207031 0.207682 0.208333 0.208984 0.209635 0.210286 0.210938 0.211589 0.212240 0.212891 0.213542 0.214193 0.214844 0.215495 0.216146 0.216797 0.217448 0.218099 0.218750 0.219401 0.220052 0.220703 0.221354 0.222005 0.222656 0.223307 0.223958 0.224609 0.225260 0.225911 0.226562 0.227214 0.227865 0.228516 0.229167 0.229818 0.230469 0.231120 0.231771 0.232422 0.233073 0.233724 0.234375 0.235026 0.235677
       0.31122        0.31122        0.31122        0.31122        0.31122        0.31122        0.31122        0.31122        0.31122        0.31122        0.31122        0.31122        0.31122        0.31122        0.31122        0.31122        0.31122        0.31122        0.31122        0.31122        0.31122        0.31122        0.31122        0.31122        0.31122        0.31122        0.31122        0.31122        0.31122        0.31122        0.31122        0.31122        0.31122        0.31122        0.31122        0.31122        0.31122        0.31122        0.31122        0.31122        0.31122        0.31122        0.31122        0.31122        0.31122        0.31122        0.31122        0.31122        0.31122        0.31122        0.31122        0.63364        0.81670        0.41662        0.31196        0.18723       -0.10601        0.11165       -0.00236        0.03307        0.11762        0.33642        0.42347        0.40431        0.22576       -0.01290        0.04776        0.07062       -0.17121       -0.18069       -0.08652       -0.10822       -0.29422       -0.19070       -0.30169       -0.25642       -0.28660       -0.40488       -0.47489       -0.47896       -0.42441       -0.34027       -0.43925       -0.36772       -0.41073       -0.35112       -0.27629       -0.20160       -0.19443       -0.13748       -0.09300        0.03933        0.08155        0.25167        0.28012        0.36830        0.40400        0.52065        0.59223        0.61084        0.74114        0.70117        0.74263        0.65274        0.66483        0.69479        0.63339        0.61525        0.60795        0.43398        0.39814        0.35599        0.32211        0.22339        0.13019        0.05991        0.05691        0.00138       -0.08021       -0.02924       -0.03178       -0.07125        0.06449        0.16324        0.25403        0.32049        0.33521        0.42929        0.54739        0.59598        0.54463        0.67271        0.56770        0.54241        0.59880        0.64217        0.53312        0.45832        0.40520        0.37766        0.24786        0.21137        0.13129        0.11593        0.05363        0.05343        0.10606        0.16710        0.14596        0.18161        0.22082        0.23872        0.32888        0.45643        0.49172        0.49750        0.51848        0.58026        0.57221        0.52281        0.42617        0.38524        0.36600        0.26983        0.24603        0.21133        0.20568        0.19871        0.17861        0.16086        0.12820        0.19175        0.24712        0.34355        0.38317        0.40844        0.46265        0.53630        0.47568        0.48766        0.42509        0.40143        0.38222        0.36281        0.28887        0.25419        0.19598        0.23367        0.21514        0.19011        0.21951        0.22553        0.23872        0.30115        0.40003        0.39968        0.37557        0.39124        0.45573        0.48493        0.42841        0.35234        0.32387        0.27493        0.26256        0.25067        0.21484        0.28202        0.29263        0.29611        0.31545        0.31089        0.34765        0.37546        0.37196        0.37285        0.35511        0.31740        0.33193        0.31947        0.29586        0.28381        0.27275        0.21692        0.27124        0.27339        0.30026        0.31907        0.34308        0.37809        0.33904        0.31694        0.36240        0.36505        0.26240        0.29316        0.30742        0.24370        0.20705        0.25954        0.27497        0.27756        0.29911        0.30701        0.33688        0.33448        0.36063        0.32498        0.32139        0.30818        0.29666        0.27208        0.24810        0.25479        0.25767        0.27929        0.30188        0.29916        0.29910        0.31316        0.32737        0.26517        0.30304        0.26790        0.25854        0.27502        0.26326        0.26221        0.26476        0.31151        0.28597        0.31615        0.28760        0.27215        0.30998        0.31188        0.33273        0.31515        0.29062        0.25054        0.25877        0.26592        0.25994        0.31301        0.31708        0.33416        0.32076        0.31231        0.25044        0.27992        0.20953        0.20430        0.25205        0.25910        0.25786        0.28474        0.31207        0.29913        0.35674        0.30550        0.25658        0.23238        0.23571        0.29120        0.31420        0.30507        0.27085        0.28000        0.26322        0.31966        0.28179        0.25362        0.26386        0.25557        0.28633        0.24952        0.28266        0.32610        0.29170        0.21777        0.23752        0.28394        0.31981        0.26133        0.26251        0.24029        0.28258        0.29200        0.38092        0.28475        0.26788        0.25948        0.25093        0.21941        0.18584        0.24528        0.21981        0.20796        0.17811        0.19285        0.23775        0.21806        0.23527        0.20047        0.25537        0.22926        0.21340        0.17860        0.16020        0.19442        0.24802        0.13383        0.06249        0.21445        0.18365        0.13938        0.24323        0.16410        0.23352        0.19740       -0.04504       -0.51020       -1.01778
2.848145 2.820123 2.792244 2.764510 2.736920 2.709475 2.682174 2.655017 2.628004 2.601135 2.574411 2.547831 2.521396 2.495104 2.468957 2.442954 2.417096 2.391382 2.365811 2.340386 2.315104 2.289967 2.264974 2.240126 2.215421 2.190861 2.166445 2.142174 2.118046 2.094063 2.070225 2.046530 2.022980 1.999574 1.976312 1.953195 1.930222 1.907393 1.884709 1.862168 1.839772 1.817520 1.795413 1.773450 1.751631 1.729956 1.708426 1.687040 1.665798 1.644700 1.623747 1.917509 2.269906 1.698487 1.741139 1.380983 0.940946 1.199061 1.024452 1.074695 1.030563 1.492225 1.517863 1.538389 1.282402 0.942830 0.824660 1.012132 0.712048 0.490048 0.590721 0.679237 0.422392 0.488077 0.328968 0.372948 0.248519 0.158281 -0.032786 0.005522 0.023636 0.082894 0.040409 0.078912 -0.041312 0.031509 0.112609 0.224935 0.284116 0.210137 0.322223 0.556541 0.448545 0.729547 0.794352 0.874757 0.910873 1.121192 1.148269 1.178113 1.326007 1.237863 1.378194 1.192575 1.112100 1.312605 1.128603 1.052566 1.127783 0.885004 0.739435 0.678339 0.670677 0.461960 0.393211 0.262087 0.227105 0.097033 -0.004592 0.091831 0.028292 -0.062744 0.115373 0.256014 0.309775 0.463250 0.486447 0.554428 0.721770 0.827452 0.663665 0.963704 0.805405 0.661435 0.767335 0.802549 0.717399 0.637737 0.445167 0.503327 0.288202 0.184322 0.143181 0.008512 -0.017514 -0.111641 -0.017513 0.031560 0.085550 -0.043440 0.255729 0.093719 0.212915 0.375340 0.436649 0.534108 0.426899 0.562095 0.662504 0.507251 0.393730 0.339605 0.324165 0.148277 0.141780 0.008607 0.096344 0.022923 0.000565 -0.025957 -0.114242 -0.005999 0.023474 0.105119 0.295173 0.207618 0.357281 0.371564 0.432879 0.411206 0.399465 0.332758 0.229813 0.306082 0.168840 0.158617 0.002516 0.047621 0.068774 -0.025874 -0.004097 0.022006 0.061864 0.073743 0.220419 0.306910 0.246865 0.211619 0.379628 0.407173 0.354383 0.245763 0.174631 0.146586 0.084803 0.073764 0.034306 0.021843 0.133859 0.058874 0.186217 0.094945 0.142252 0.236085 0.214773 0.228616 0.205841 0.200977 0.114467 0.167067 0.128023 0.097028 0.114901 -0.000129 0.035835 0.089886 0.049463 0.149671 0.120060 0.212275 0.208895 0.133658 0.138579 0.224677 0.114319 0.069500 0.087126 0.066198 -0.002679 -0.029276 0.051947 0.074724 0.038909 0.117658 0.114166 0.127993 0.141774 0.174232 0.118649 0.087450 0.105279 0.088753 0.025625 0.014371 0.040448 0.002386 0.077728 0.109646 0.073163 0.071183 0.121085 0.107159 0.021089 0.114640 0.026596 0.025845 0.063871 0.019214 0.019754 0.062017 0.090480 0.024753 0.108487 0.066773 0.013010 0.119741 0.076866 0.093136 0.085703 0.018898 -0.013196 -0.009696 0.037087 -0.003522 0.074763 0.091538 0.086620 0.058647 0.138438 -0.029792 0.033155 -0.098292 -0.021118 -0.031690 0.005628 0.015442 0.025036 0.086527 0.062915 0.117113 0.000851 -0.032857 -0.073232 -0.080864 0.065606 0.046851 0.042725 -0.016651 -0.007686 -0.028950 0.059759 0.005119 -0.078894 -0.019889 -0.079735 0.016298 -0.051041 0.009180 0.055872 -0.014080 -0.095570 -0.042440 0.080112 0.037602 -0.011883 -0.000341 -0.058346 0.086215 0.072049 0.175846 0.031010 0.008719 0.018082 0.050232 -0.049000 -0.036926 0.046040 0.000489 -0.027072 -0.053527 -0.044734 0.081501 -0.064375 0.088844 -0.015000 0.119240 -0.011475 0.062496 -0.090636 -0.038547 -0.056880 0.121808 -0.056963 -0.252043 0.298754 0.251981 0.196490 0.414929 0.206456 0.306077 0.303221 -0.060719 -1.419053
0.072396 0.072834 0.074149 0.076339 0.079406 0.083347 0.088162 0.093850 0.100409 0.107837 0.116133 0.125292 0.135311 0.146185 0.157910 0.170478 0.183883 0.198114 0.213163 0.229017 0.245662 0.263083 0.281262 0.300178 0.319810 0.340133 0.361117 0.382731 0.404942 0.427711 0.450996 0.474752 0.498928 0.523471 0.548322 0.573418 0.598692 0.624069 0.649473 0.674821 0.700024 0.724989 0.749619 0.773808 0.797449 0.820427 0.842625 0.863919 0.884181 0.903281 0.921083 0.937449 0.952237 0.965306 0.976511 0.985706 0.992747 0.997490 0.999793 0.999518 0.996528 0.990697 0.981900 0.970023 0.954960 0.936618 0.914913 0.889778 0.861159 0.829020 0.793344 0.754133 0.711412 0.665227 0.615652 0.562783 0.506746 0.447693 0.385808 0.321302 0.254419 0.185431 0.114642 0.042388 0.030967 0.105029 0.179377 0.253563 0.327115 0.399541 0.470326 0.538945 0.604857 0.667516 0.726371 0.780875 0.830488 0.874682 0.912949 0.944808 0.969807 0.987537 0.997630 0.999775 0.993717 0.979267 0.956310 0.924806 0.884799 0.836422 0.779898 0.715546 0.643780 0.565115 0.480162 0.389627 0.294311 0.195105 0.092981 0.011012 0.115758 0.220087 0.322782 0.422598 0.518274 0.608549 0.692183 0.767971 0.834764 0.891488 0.937164 0.970930 0.992052 0.999953 0.994219 0.974623 0.941133 0.893923 0.833382 0.760119 0.674964 0.578964 0.473376 0.359658 0.239457 0.114580 0.013020 0.141278 0.268044 0.391123 0.508308 0.617426 0.716374 0.803169 0.875987 0.933208 0.973457 0.995642 0.998988 0.983069 0.947832 0.893613 0.821148 0.731575 0.626425 0.507611 0.377396 0.238360 0.093356 0.054544 0.202112 0.346028 0.482961 0.609645 0.722954 0.819996 0.898183 0.955312 0.989634 0.999919 0.985506 0.946342 0.883009 0.796732 0.689374 0.563406 0.421864 0.268292 0.106658 0.058743 0.223392 0.382673 0.532001 0.666955 0.783417 0.877707 0.946704 0.987967 0.999833 0.981494 0.933052 0.855556 0.750992 0.622257 0.473099 0.308017 0.132144 0.048902 0.229199 0.402702 0.563452 0.705783 0.824533 0.915240 0.974326 0.999255 0.988657 0.942421 0.861733 0.749083 0.608205 0.443985 0.262301 0.069837 0.126163 0.318145 0.498548 0.660099 0.796121 0.900816 0.969531 0.998990 0.987468 0.934914 0.843000 0.715107 0.556229 0.372799 0.172463 0.036236 0.244201 0.442178 0.621170 0.772853 0.889975 0.966734 0.999078 0.984958 0.924471 0.819929 0.675798 0.498553 0.296410 0.078973 0.143204 0.359125 0.557891 0.729255 0.864171 0.955293 0.997400 0.987734 0.926208 0.815485 0.660905 0.470276 0.253509 0.022126 0.211323 0.433942 0.633198 0.797637 0.917576 0.985685 0.997486 0.951682 0.850315 0.698728 0.505339 0.281206 0.039443 0.205551 0.438911 0.646222 0.814426 0.932665 0.993024 0.991094 0.926350 0.802274 0.626230 0.409075 0.164543 0.091600 0.342552 0.571567 0.763085 0.903819 0.983706 0.996678 0.941175 0.820359 0.642003 0.418048 0.163864 0.102782 0.362931 0.597786 0.790080 0.925375 0.993185 0.987852 0.909070 0.762034 0.557167 0.309450 0.037373 0.238414 0.496641 0.717073 0.882120 0.978275 0.997287 0.936926 0.801298 0.600656 0.350682 0.071339 0.214697 0.483842 0.713566 0.884298 0.981142 0.995235 0.924639 0.774647 0.557478 0.291372 0.000905 0.293946 0.561894 0.780756 0.930567 0.997272 0.974129 0.862465 0.671717 0.418733 0.126356 0.178575 0.467665 0.713608 0.892791 0.987616 0.988306 0.894008 0.713042 0.462283 0.165660 0.148048 0.447966 0.704181 0.890718
1.000000 1.000000 1.000000 1.000000 1.000000 1.000000 1.000000 1.000000 1.000000 1.000000 1.000000 1.000000 1.000000 1.000000 1.000000 1.000000 1.000000 1.000000 1.000000 1.000000 1.000000 1.000000 1.000000 1.000000 1.000000 1.000000 1.000000 1.000000 1.000000 1.000000 1.000000 1.000000 1.000000 1.000000 1.000000 1.000000 1.000000 1.000000 1.000000 1.000000 1.000000 1.000000 1.000000 1.000000 1.000000 1.000000 1.000000 1.000000 1.000000 1.000000 1.000000 1.000000 0.833257 0.833257 0.833257 0.833257 0.833257 0.833257 0.833257 0.815313 0.815313 0.815313 0.815313 0.815313 0.815313 0.815313 0.815313 0.815313 0.815313 0.815313 0.815313 0.815313 0.815313 0.815313 0.815313 0.815313 0.815313 0.815313 0.815313 0.815313 0.815313 0.815313 0.815313 0.815313 0.815313 0.815313 0.815313 0.815313 0.815313 0.815313 0.815313 0.815313 0.815313 0.815313 0.815313 0.815313 0.815313 0.815313 0.815313 0.815313 0.815313 0.815313 0.815313 0.952513 0.953182 0.950285 0.949200 0.947522 0.944189 0.939885 0.939432 0.940778 0.940987 0.941612 0.943716 0.944706 0.946335 0.947513 0.948333 0.949142 0.957240 0.960928 0.961459 0.961129 0.951793 0.958544 0.957678 0.955394 0.956156 0.956442 0.957141 0.957028 0.956869 0.956375 0.955042 0.955751 0.955587 0.954851 0.953813 0.951551 0.951501 0.951057 0.951191 0.952156 0.952866 0.953517 0.954043 0.954028 0.954204 0.954194 0.954098 0.949277 0.949297 0.942546 0.943110 0.944194 0.943825 0.942767 0.941307 0.941370 0.941258 0.941197 0.941036 0.941250 0.922368 0.921856 0.921878 0.922160 0.915016 0.904061 0.896638 0.890612 0.891562 0.895828 0.900717 0.901334 0.898322 0.897379 0.881405 0.878310 0.864571 0.861575 0.850321 0.860723 0.862709 0.864297 0.857811 0.856978 0.855408 0.853249 0.842623 0.847083 0.847325 0.843174 0.839343 0.837312 0.835567 0.837456 0.846176 0.842972 0.841016 0.843055 0.831457 0.822093 0.820863 0.822370 0.830224 0.842190 0.841235 0.840022 0.833694 0.829985 0.823908 0.818576 0.818329 0.820261 0.817563 0.821405 0.820081 0.828163 0.817977 0.812154 0.817098 0.827047 0.830911 0.832459 0.834056 0.831594 0.834095 0.817518 0.818573 0.819896 0.770296 0.770569 0.758851 0.757479 0.743318 0.743836 0.739567 0.736292 0.726808 0.707589 0.719497 0.720737 0.686061 0.695591 0.689435 0.678863 0.660906 0.668587 0.683168 0.693059 0.693629 0.693716 0.682955 0.682675 0.692123 0.691273 0.697649 0.688621 0.685227 0.678297 0.680101 0.669817 0.666314 0.664216 0.663837 0.664814 0.661378 0.644540 0.654273 0.645528 0.634534 0.624683 0.590911 0.558948 0.545052 0.535437 0.516169 0.494182 0.510097 0.518183 0.502791 0.494642 0.476996 0.440686 0.426706 0.425445 0.405400 0.392351 0.373989 0.328275 0.338834 0.336380 0.338959 0.322357 0.326406 0.310128 0.261113 0.252996 0.215879 0.234629 0.256297 0.253362 0.232870 0.226088 0.247180 0.236504 0.245829 0.244005 0.259464 0.211919 0.152261 0.170638 0.165416 0.174305 0.159900 0.132164 0.161250 0.154733 0.168573 0.173175 0.121090 0.090531 0.069342 0.051764 0.057279 0.080985 0.095440 0.086666 0.070464 -0.022888 0.009363 0.033589 0.033589 0.033589 0.033589 0.033589 0.033589 0.033589 0.033589 0.033589 0.033589 0.033589 -0.023359 -0.023359 -0.023359 -0.023359 -0.023359 -0.023359 -0.023359 -0.023359 -0.023359 -0.023359 -0.023359 -0.023359 -0.023359 -0.023359 -0.023359 -0.023359 -0.023359 -0.023359 -0.023359
0.000000 0.000000 0.000000 0.000000 0.000000 0.000000 0.000000 0.000000 0.000000 0.000000 0.000000 0.000000 0.000000 0.000000 0.000000 0.000000 0.000000 0.000000 0.000000 0.000000 0.000000 0.000000 0.000000 0.000000 0.000000 0.000000 0.000000 0.000000 0.000000 0.000000 0.000000 0.000000 0.000000 0.000000 0.000000 0.000000 0.000000 0.000000 0.000000 0.000000 0.000000 0.000000 0.000000 0.000000 0.000000 0.000000 0.000000 0.000000 0.000000 0.000000 0.000000 0.000000 0.173422 0.173422 0.173422 0.173422 0.173422 0.173422 0.173422 0.191565 0.191565 0.191565 0.191565 0.191565 0.191565 0.191565 0.191565 0.191565 0.191565 0.191565 0.191565 0.191565 0.191565 0.191565 0.191565 0.191565 0.191565 0.191565 0.191565 0.191565 0.191565 0.191565 0.191565 0.191565 0.191565 0.191565 0.191565 0.191565 0.191565 0.191565 0.191565 0.191565 0.191565 0.191565 0.191565 0.191565 0.191565 0.191565 0.191565 0.191565 0.191565 0.191565 0.191565 0.219529 0.219529 0.219529 0.219529 0.219529 0.219529 0.219529 0.219529 0.219529 0.219529 0.219529 0.219529 0.219529 0.219529 0.219529 0.219529 0.219529 0.219529 0.219529 0.219529 0.219529 0.219529 0.219529 0.219529 0.219529 0.219529 0.219529 0.219529 0.219529 0.219529 0.219529 0.237356 0.237356 0.237356 0.237356 0.237356 0.237356 0.237356 0.237356 0.237356 0.237356 0.237356 0.237356 0.237356 0.237356 0.237356 0.237356 0.237356 0.237356 0.237356 0.237356 0.237356 0.237356 0.237356 0.237356 0.244339 0.244339 0.244339 0.244339 0.244339 0.244339 0.244339 0.244339 0.244339 0.244339 0.244339 0.244339 0.244339 0.244339 0.244339 0.244339 0.244339 0.244339 0.244339 0.244339 0.244339 0.248069 0.248069 0.248069 0.248069 0.248069 0.248069 0.248069 0.248069 0.248069 0.248069 0.248069 0.248069 0.248069 0.248069 0.248069 0.248069 0.248069 0.248069 0.248069 0.248069 0.248069 0.248069 0.248069 0.248069 0.248069 0.248069 0.248069 0.248069 0.248069 0.248069 0.248069 0.248069 0.248069 0.248069 0.248069 0.248069 0.248069 0.256074 0.256074 0.256074 0.256074 0.256074 0.256074 0.256074 0.256074 0.256074 0.256074 0.256074 0.256074 0.256074 0.256074 0.256074 0.256074 0.256074 0.256074 0.256074 0.256074 0.256074 0.256074 0.256074 0.256074 0.256074 0.256074 0.256074 0.256074 0.256074 0.256074 0.256074 0.256074 0.256074 0.256074 0.256074 0.256074 0.256074 0.256074 0.256074 0.256074 0.256074 0.256074 0.256074 0.256074 0.256074 0.260378 0.260378 0.260378 0.260378 0.260378 0.260378 0.260378 0.260378 0.260378 0.260378 0.260378 0.260378 0.260378 0.256074 0.256074 0.256074 0.256074 0.256074 0.256074 0.256074 0.256074 0.256074 0.256074 0.256074 0.256074 0.256074 0.260378 0.260378 0.260378 0.260378 0.260378 0.260378 0.260378 0.260378 0.260378 0.260378 0.260378 0.260378 0.251976 0.251976 0.251976 0.251976 0.251976 0.251976 0.251976 0.251976 0.251976 0.251976 0.251976 0.251976 0.256074 0.256074 0.256074 0.256074 0.256074 0.256074 0.256074 0.256074 0.256074 0.256074 0.256074 0.251976 0.251976 0.251976 0.251976 0.251976 0.251976 0.251976 0.251976 0.251976 0.251976 0.251976 0.248069 0.248069 0.248069 0.248069 0.248069 0.248069 0.248069 0.248069 0.248069 0.248069 0.248069 0.256074 0.256074 0.256074 0.256074 0.256074 0.256074 0.256074 0.256074 0.256074 0.256074 0.256074 0.256074 0.256074 0.256074 0.256074 0.256074 0.256074 0.256074 0.256074
