# Output from CTFFind version 4.1.9, run on 2019-11-03 20:08:07
# Input file: stack11_bm3d_averaged_1_6.5_0_1500_half.mrc ; Number of micrographs: 1
# Pixel size: 3.000 Angstroms ; acceleration voltage: 300.0 keV ; spherical aberration: 0.00 mm ; amplitude contrast: 0.07
# Box size: 512 pixels ; min. res.: 30.0 Angstroms ; max. res.: 5.0 Angstroms ; min. def.: 5000.0 um; max. def. 50000.0 um; num. frames averaged: 1
# 6 lines per micrograph: #1 - spatial frequency (1/Angstroms); #2 - 1D rotational average of spectrum (assuming no astigmatism); #3 - 1D rotational average of spectrum; #4 - CTF fit; #5 - cross-correlation between spectrum and CTF fit; #6 - 2sigma of expected cross correlation of noise
0.000000 0.000651 0.001302 0.001953 0.002604 0.003255 0.003906 0.004557 0.005208 0.005859 0.006510 0.007161 0.007812 0.008464 0.009115 0.009766 0.010417 0.011068 0.011719 0.012370 0.013021 0.013672 0.014323 0.014974 0.015625 0.016276 0.016927 0.017578 0.018229 0.018880 0.019531 0.020182 0.020833 0.021484 0.022135 0.022786 0.023438 0.024089 0.024740 0.025391 0.026042 0.026693 0.027344 0.027995 0.028646 0.029297 0.029948 0.030599 0.031250 0.031901 0.032552 0.033203 0.033854 0.034505 0.035156 0.035807 0.036458 0.037109 0.037760 0.038411 0.039062 0.039714 0.040365 0.041016 0.041667 0.042318 0.042969 0.043620 0.044271 0.044922 0.045573 0.046224 0.046875 0.047526 0.048177 0.048828 0.049479 0.050130 0.050781 0.051432 0.052083 0.052734 0.053385 0.054036 0.054688 0.055339 0.055990 0.056641 0.057292 0.057943 0.058594 0.059245 0.059896 0.060547 0.061198 0.061849 0.062500 0.063151 0.063802 0.064453 0.065104 0.065755 0.066406 0.067057 0.067708 0.068359 0.069010 0.069661 0.070312 0.070964 0.071615 0.072266 0.072917 0.073568 0.074219 0.074870 0.075521 0.076172 0.076823 0.077474 0.078125 0.078776 0.079427 0.080078 0.080729 0.081380 0.082031 0.082682 0.083333 0.083984 0.084635 0.085286 0.085938 0.086589 0.087240 0.087891 0.088542 0.089193 0.089844 0.090495 0.091146 0.091797 0.092448 0.093099 0.093750 0.094401 0.095052 0.095703 0.096354 0.097005 0.097656 0.098307 0.098958 0.099609 0.100260 0.100911 0.101562 0.102214 0.102865 0.103516 0.104167 0.104818 0.105469 0.106120 0.106771 0.107422 0.108073 0.108724 0.109375 0.110026 0.110677 0.111328 0.111979 0.112630 0.113281 0.113932 0.114583 0.115234 0.115885 0.116536 0.117188 0.117839 0.118490 0.119141 0.119792 0.120443 0.121094 0.121745 0.122396 0.123047 0.123698 0.124349 0.125000 0.125651 0.126302 0.126953 0.127604 0.128255 0.128906 0.129557 0.130208 0.130859 0.131510 0.132161 0.132812 0.133464 0.134115 0.134766 0.135417 0.136068 0.136719 0.137370 0.138021 0.138672 0.139323 0.139974 0.140625 0.141276 0.141927 0.142578 0.143229 0.143880 0.144531 0.145182 0.145833 0.146484 0.147135 0.147786 0.148438 0.149089 0.149740 0.150391 0.151042 0.151693 0.152344 0.152995 0.153646 0.154297 0.154948 0.155599 0.156250 0.156901 0.157552 0.158203 0.158854 0.159505 0.160156 0.160807 0.161458 0.162109 0.162760 0.163411 0.164062 0.164714 0.165365 0.166016 0.166667 0.167318 0.167969 0.168620 0.169271 0.169922 0.170573 0.171224 0.171875 0.172526 0.173177 0.173828 0.174479 0.175130 0.175781 0.176432 0.177083 0.177734 0.178385 0.179036 0.179688 0.180339 0.180990 0.181641 0.182292 0.182943 0.183594 0.184245 0.184896 0.185547 0.186198 0.186849 0.187500 0.188151 0.188802 0.189453 0.190104 0.190755 0.191406 0.192057 0.192708 0.193359 0.194010 0.194661 0.195312 0.195964 0.196615 0.197266 0.197917 0.198568 0.199219 0.199870 0.200521 0.201172 0.201823 0.202474 0.203125 0.203776 0.204427 0.205078 0.205729 0.206380 0.207031 0.207682 0.208333 0.208984 0.209635 0.210286 0.210938 0.211589 0.212240 0.212891 0.213542 0.214193 0.214844 0.215495 0.216146 0.216797 0.217448 0.218099 0.218750 0.219401 0.220052 0.220703 0.221354 0.222005 0.222656 0.223307 0.223958 0.224609 0.225260 0.225911 0.226562 0.227214 0.227865 0.228516 0.229167 0.229818 0.230469 0.231120 0.231771 0.232422 0.233073 0.233724 0.234375 0.235026 0.235677
       0.34477        0.34477        0.34477        0.34477        0.34477        0.34477        0.34477        0.34477        0.34477        0.34477        0.34477        0.34477        0.34477        0.34477        0.34477        0.34477        0.34477        0.34477        0.34477        0.34477        0.34477        0.34477        0.34477        0.34477        0.34477        0.34477        0.34477        0.34477        0.34477        0.34477        0.34477        0.34477        0.34477        0.34477        0.34477        0.34477        0.34477        0.34477        0.34477        0.34477        0.34477        0.34477        0.34477        0.34477        0.34477        0.34477        0.34477        0.34477        0.34477        0.34477        0.34477        0.69887        0.85764        0.53807        0.10540       -0.02909       -0.38630       -0.18016       -0.28838       -0.11584       -0.05513       -0.11248       -0.05319       -0.16690       -0.20570       -0.21387       -0.30703       -0.31840       -0.44407       -0.36200       -0.42598       -0.42100       -0.39384       -0.40734       -0.44717       -0.50779       -0.55860       -0.54999       -0.52428       -0.35656       -0.32621       -0.29140       -0.27138       -0.18560       -0.16989        0.06135        0.14193        0.17500        0.26611        0.38169        0.45787        0.52323        0.60065        0.59801        0.58439        0.70016        0.80331        0.70324        0.74428        0.61978        0.56876        0.48366        0.43263        0.51228        0.39769        0.27137        0.11669        0.11312        0.09355       -0.01358        0.04464        0.05254        0.01152        0.02812        0.03071        0.23719        0.27168        0.29672        0.43528        0.45373        0.41469        0.59996        0.61907        0.63569        0.72448        0.67636        0.64717        0.65647        0.56021        0.46086        0.41906        0.30389        0.26997        0.18469        0.13666        0.05258        0.06568        0.07556        0.09993        0.15978        0.24558        0.29794        0.42206        0.46549        0.48139        0.56488        0.60268        0.63679        0.61537        0.55845        0.46209        0.47376        0.37893        0.27756        0.21237        0.15668        0.17295        0.15368        0.16083        0.19009        0.32324        0.33770        0.40709        0.44635        0.42629        0.48089        0.56357        0.55521        0.50307        0.45773        0.41382        0.37285        0.34217        0.30960        0.26502        0.24747        0.25464        0.25668        0.22633        0.31020        0.36481        0.38486        0.43959        0.45641        0.46799        0.42746        0.41214        0.40231        0.36339        0.33714        0.27494        0.28109        0.26916        0.24647        0.29592        0.29317        0.35242        0.38320        0.43472        0.47682        0.40729        0.42297        0.43286        0.41194        0.35037        0.32877        0.29331        0.32676        0.27601        0.32345        0.31571        0.33348        0.34179        0.36497        0.31450        0.38885        0.41245        0.38108        0.35211        0.36995        0.31915        0.29565        0.30817        0.32058        0.30836        0.32065        0.34502        0.35725        0.34131        0.36466        0.36353        0.42304        0.39059        0.33992        0.34887        0.30011        0.29443        0.32688        0.32052        0.33112        0.34340        0.34276        0.38781        0.33150        0.33053        0.33911        0.34895        0.30522        0.31310        0.28226        0.30353        0.33138        0.30518        0.33213        0.35868        0.37008        0.29906        0.34258        0.29990        0.29417        0.27971        0.24737        0.30754        0.30754        0.34300        0.33985        0.34467        0.32792        0.34999        0.31533        0.34663        0.30727        0.32546        0.29182        0.33716        0.33058        0.37231        0.33073        0.33664        0.33813        0.29382        0.27607        0.31279        0.25052        0.22949        0.34141        0.32347        0.36759        0.34779        0.36362        0.33571        0.33484        0.35121        0.26639        0.26846        0.31934        0.30188        0.31170        0.31570        0.33980        0.32938        0.28961        0.29093        0.34591        0.32260        0.32167        0.29854        0.32253        0.33861        0.39392        0.36258        0.31987        0.28334        0.30415        0.29030        0.30671        0.27834        0.27064        0.31283        0.33042        0.34608        0.35627        0.33196        0.29572        0.30179        0.27113        0.27872        0.25676        0.30742        0.26236        0.24791        0.29165        0.28660        0.26298        0.29491        0.21936        0.21585        0.23994        0.19290        0.27246        0.34875        0.25306        0.24203        0.31844        0.30324        0.31065        0.31453        0.27267        0.25215        0.19306        0.21073        0.20729        0.27891        0.23708        0.28441        0.36462        0.36769        0.25421        0.17505        0.11994       -0.01436       -0.12489       -0.62296
2.801945 2.772214 2.742644 2.713237 2.683991 2.654908 2.625986 2.597227 2.568629 2.540193 2.511919 2.483807 2.455856 2.428068 2.400442 2.372977 2.345675 2.318534 2.291555 2.264739 2.238084 2.211591 2.185259 2.159090 2.133083 2.107238 2.081554 2.056033 2.030673 2.005475 1.980439 1.955565 1.930853 1.906303 1.881915 1.857689 1.833624 1.809722 1.785981 1.762403 1.738986 1.715731 1.692638 1.669707 1.646938 1.624331 1.601886 1.579602 1.557481 1.535521 1.513724 1.731751 2.157644 1.713268 1.192493 1.055870 0.454648 0.851934 0.562675 0.847759 0.817068 0.820777 0.759888 0.756906 0.598433 0.562408 0.502832 0.428879 0.249817 0.365784 0.199985 0.331029 0.219756 0.210639 0.185489 0.041535 0.002798 0.019197 -0.069964 0.133708 0.233597 0.189268 0.179391 0.325727 0.184797 0.523061 0.627073 0.635741 0.652889 0.880141 0.838655 0.947080 0.942564 1.039534 1.008870 1.092068 1.174996 1.048138 1.170454 0.913310 0.933227 0.799233 0.656224 0.811378 0.697748 0.498107 0.334245 0.252520 0.270336 0.149697 0.137473 0.166486 0.109334 0.120769 0.082605 0.249771 0.352258 0.343064 0.478307 0.546686 0.418195 0.596093 0.734100 0.648968 0.722407 0.712700 0.720990 0.647991 0.597701 0.492589 0.369037 0.277252 0.220807 0.091586 0.116772 -0.115517 -0.049390 -0.063364 -0.083897 -0.018714 0.129391 0.070784 0.242495 0.308116 0.336915 0.374888 0.497752 0.466478 0.480810 0.491656 0.305625 0.294631 0.287419 0.086616 0.046067 -0.081404 -0.015244 -0.062695 -0.096742 -0.072161 0.040052 0.094849 0.126123 0.224442 0.224244 0.221547 0.316673 0.358320 0.435128 0.257052 0.232834 0.226574 0.143729 0.145412 0.119721 -0.004301 0.015469 0.075944 -0.010274 0.045445 0.133849 0.135529 0.214319 0.234148 0.259233 0.162112 0.211211 0.128169 0.128505 0.113603 0.027554 -0.026552 -0.000865 -0.020605 -0.052816 0.054996 0.004732 0.106562 0.138743 0.192789 0.169301 0.111209 0.140686 0.160336 0.110413 0.036076 -0.025632 0.029800 0.027925 -0.043118 0.036617 0.021118 0.047964 0.039506 0.050702 0.030254 0.133863 0.120141 0.046573 0.038437 0.042900 0.005831 -0.030881 0.009453 0.005507 -0.003878 0.004023 0.056082 0.053679 0.039030 0.076288 0.060986 0.163033 0.063953 0.040533 0.043056 -0.034501 0.011924 0.047108 0.007920 0.033467 0.055410 0.080389 0.049899 0.042220 0.008533 0.079635 0.025901 0.021289 0.023864 -0.006651 0.032979 0.026329 0.021137 0.069322 0.074778 0.076953 0.041225 0.051848 0.024388 0.016012 -0.023324 -0.024519 0.036772 0.052750 0.080965 0.081515 0.065809 0.072072 0.097970 0.043181 0.091681 0.058824 0.043844 0.018377 0.104274 0.062591 0.123974 0.070016 0.062120 0.100477 0.033079 0.003280 0.086458 -0.039193 -0.027355 0.095713 0.044196 0.160208 0.093282 0.090075 0.066767 0.035615 0.091651 -0.025217 -0.024510 0.050157 0.036332 0.034997 0.021681 0.105091 0.032164 -0.011313 0.051095 0.043323 0.051984 0.060724 -0.008549 0.059823 0.052585 0.119242 0.055836 0.028183 -0.027941 -0.024183 -0.004248 0.007044 -0.055420 -0.022403 0.001692 0.017057 0.035418 0.057071 0.005425 -0.032787 -0.029967 -0.019222 -0.066774 -0.047355 -0.031936 -0.130949 -0.096151 -0.055678 -0.091510 -0.105287 -0.024991 -0.153022 -0.105603 -0.112799 -0.187698 -0.069972 0.061165 -0.072148 -0.139122 0.051186 0.033943 -0.025121 0.074842 -0.023802 -0.001686 -0.087774 -0.036699 0.046561 0.124729 0.055387 0.139403 0.172393 0.431522 0.236940 0.317804 0.151986 -0.020013 -0.695408
0.072396 0.072899 0.074408 0.076923 0.080442 0.084966 0.090492 0.097020 0.104546 0.113069 0.122585 0.133089 0.144577 0.157041 0.170474 0.184868 0.200210 0.216487 0.233686 0.251789 0.270774 0.290621 0.311302 0.332787 0.355045 0.378037 0.401722 0.426054 0.450983 0.476451 0.502398 0.528757 0.555454 0.582411 0.609542 0.636755 0.663951 0.691026 0.717867 0.744355 0.770364 0.795761 0.820408 0.844158 0.866861 0.888359 0.908489 0.927084 0.943973 0.958983 0.971935 0.982653 0.990957 0.996670 0.999617 0.999627 0.996534 0.990177 0.980407 0.967084 0.950080 0.929283 0.904596 0.875944 0.843269 0.806540 0.765750 0.720920 0.672101 0.619376 0.562861 0.502710 0.439112 0.372294 0.302525 0.230113 0.155405 0.078791 0.000699 0.078402 0.158009 0.237580 0.316542 0.394293 0.470206 0.543632 0.613907 0.680359 0.742311 0.799091 0.850039 0.894516 0.931909 0.961647 0.983204 0.996111 0.999967 0.994445 0.979305 0.954400 0.919685 0.875227 0.821207 0.757928 0.685822 0.605444 0.517484 0.422754 0.322196 0.216868 0.107943 0.003307 0.115517 0.227250 0.337010 0.443262 0.544454 0.639041 0.725508 0.802397 0.868337 0.922067 0.962465 0.988578 0.999643 0.995117 0.974692 0.938321 0.886226 0.818914 0.737182 0.642117 0.535090 0.417746 0.291986 0.159944 0.023955 0.113484 0.249752 0.382156 0.507981 0.624554 0.729295 0.819781 0.893812 0.949466 0.985159 0.999694 0.992315 0.962738 0.911186 0.838402 0.745663 0.634765 0.508007 0.368158 0.218401 0.062275 0.096403 0.253629 0.405308 0.547363 0.675848 0.787059 0.877655 0.944765 0.986091 1.000000 0.985598 0.942793 0.872326 0.775784 0.655593 0.514966 0.357846 0.188804 0.012918 0.164366 0.337403 0.500528 0.648238 0.775393 0.877399 0.950394 0.991405 0.998493 0.970857 0.908910 0.814307 0.689932 0.539842 0.369149 0.183877 0.009243 0.203005 0.389985 0.562837 0.714578 0.838888 0.930386 0.984883 0.999604 0.973348 0.906595 0.801545 0.662086 0.493676 0.303171 0.098555 0.111365 0.317334 0.510054 0.680602 0.820868 0.923951 0.984526 0.999150 0.966491 0.887457 0.765231 0.605181 0.414667 0.202737 0.020280 0.243259 0.454824 0.643937 0.800483 0.915833 0.983351 0.998811 0.960705 0.870402 0.732168 0.553008 0.342364 0.111652 0.126331 0.358102 0.570246 0.750215 0.887078 0.972229 0.999965 0.967914 0.877282 0.732874 0.542907 0.318592 0.073518 0.177143 0.417562 0.632244 0.807052 0.930159 0.992899 0.990427 0.922145 0.791861 0.607655 0.381438 0.128233 0.134773 0.389387 0.617653 0.803145 0.932170 0.994841 0.985887 0.905160 0.757788 0.553921 0.308110 0.038328 0.235310 0.492033 0.711982 0.877786 0.975971 0.998124 0.941687 0.810306 0.613691 0.366992 0.089687 0.195889 0.466335 0.699097 0.874367 0.976836 0.997086 0.932550 0.787893 0.574784 0.311042 0.019230 0.275239 0.546278 0.769461 0.924259 0.995989 0.977293 0.868994 0.680203 0.427660 0.134347 0.172533 0.464051 0.712276 0.892977 0.988059 0.987464 0.890336 0.705314 0.449891 0.148854 0.168031 0.468935 0.723144 0.904246 0.992939 0.979188 0.863479 0.656994 0.380665 0.063153 0.262036 0.560070 0.798509 0.950912 0.999843 0.938992 0.774109 0.522615 0.211901 0.123570 0.446011 0.718559 0.909533 0.996201 0.967598 0.826061 0.587216 0.278409 0.064303 0.400296 0.689170 0.895633 0.993910 0.971074 0.828909 0.583968 0.265821 0.086401 0.428724 0.717817 0.916504 0.998651 0.952741 0.783652 0.512333 0.173386 0.189225
1.000000 1.000000 1.000000 1.000000 1.000000 1.000000 1.000000 1.000000 1.000000 1.000000 1.000000 1.000000 1.000000 1.000000 1.000000 1.000000 1.000000 1.000000 1.000000 1.000000 1.000000 1.000000 1.000000 1.000000 1.000000 1.000000 1.000000 1.000000 1.000000 1.000000 1.000000 1.000000 1.000000 1.000000 1.000000 1.000000 1.000000 1.000000 1.000000 1.000000 1.000000 1.000000 1.000000 1.000000 1.000000 1.000000 1.000000 1.000000 1.000000 1.000000 1.000000 1.000000 0.916511 0.916511 0.916511 0.912405 0.912405 0.912405 0.912405 0.912405 0.912405 0.912405 0.912405 0.912405 0.912405 0.912405 0.912405 0.912405 0.912405 0.912405 0.912405 0.912405 0.912405 0.912405 0.912405 0.912405 0.912405 0.912405 0.912405 0.912405 0.912405 0.912405 0.912405 0.912405 0.912405 0.912405 0.912405 0.912405 0.912405 0.912405 0.912405 0.912405 0.912405 0.912405 0.912405 0.912405 0.941233 0.942630 0.950939 0.950474 0.949890 0.947913 0.946679 0.946344 0.946257 0.946600 0.947317 0.948288 0.954496 0.955408 0.959811 0.962514 0.962483 0.964218 0.966185 0.965851 0.957511 0.957291 0.955888 0.955162 0.957276 0.955924 0.954698 0.955171 0.954784 0.957336 0.956880 0.955672 0.954040 0.952455 0.951169 0.950623 0.950391 0.951185 0.951254 0.952810 0.955825 0.955975 0.955703 0.952923 0.952551 0.953753 0.953119 0.952880 0.941159 0.940530 0.939079 0.939073 0.941642 0.941559 0.941455 0.942348 0.942045 0.941965 0.942111 0.935489 0.935183 0.927500 0.924008 0.922462 0.917082 0.913045 0.915672 0.918265 0.919527 0.919987 0.910944 0.907978 0.908925 0.907757 0.909226 0.906914 0.907723 0.908435 0.908268 0.902695 0.892684 0.891145 0.884086 0.886866 0.883984 0.881238 0.877962 0.868591 0.858039 0.872124 0.856934 0.823730 0.827492 0.832458 0.825607 0.822734 0.823900 0.825508 0.830371 0.823372 0.821728 0.816146 0.803676 0.799382 0.792902 0.779056 0.777788 0.768806 0.758347 0.752582 0.776681 0.770403 0.781829 0.786290 0.786052 0.782843 0.774400 0.764047 0.763768 0.759647 0.756112 0.733142 0.724536 0.724761 0.721941 0.710048 0.713239 0.701314 0.701343 0.689115 0.693876 0.699181 0.702217 0.698599 0.693908 0.685735 0.681365 0.693884 0.707948 0.700695 0.696044 0.699561 0.689783 0.682700 0.676112 0.680296 0.673339 0.663488 0.669047 0.696783 0.668716 0.658190 0.664925 0.666957 0.661105 0.662031 0.641697 0.636224 0.614413 0.631635 0.636409 0.652340 0.653372 0.654974 0.666037 0.671703 0.682430 0.686930 0.685861 0.646398 0.650061 0.669417 0.677019 0.665415 0.655220 0.655206 0.649316 0.685347 0.668759 0.626147 0.622393 0.621290 0.581642 0.559297 0.557842 0.559974 0.586449 0.581612 0.562990 0.536668 0.538526 0.540520 0.540192 0.538985 0.523334 0.531544 0.516829 0.493202 0.505117 0.512984 0.511442 0.495766 0.489152 0.501787 0.479251 0.508895 0.484138 0.464973 0.482379 0.480547 0.469034 0.395903 0.406524 0.395087 0.381577 0.337128 0.346756 0.356481 0.339666 0.264961 0.258312 0.259075 0.255880 0.237554 0.217147 0.203622 0.192868 0.170800 0.107813 0.059499 0.059930 0.063698 0.091299 0.051244 0.103900 0.170649 0.169290 0.169290 0.169290 0.169290 0.169290 0.169290 0.169290 0.169290 0.145057 0.145057 0.145057 0.145057 0.145057 0.145057 0.145057 0.145057 0.145057 0.169290 0.169290 0.169290 0.169290 0.169290 0.169290 0.169290 0.169290 0.169290 0.169290 0.169290 0.169290 0.169290 0.169290
0.000000 0.000000 0.000000 0.000000 0.000000 0.000000 0.000000 0.000000 0.000000 0.000000 0.000000 0.000000 0.000000 0.000000 0.000000 0.000000 0.000000 0.000000 0.000000 0.000000 0.000000 0.000000 0.000000 0.000000 0.000000 0.000000 0.000000 0.000000 0.000000 0.000000 0.000000 0.000000 0.000000 0.000000 0.000000 0.000000 0.000000 0.000000 0.000000 0.000000 0.000000 0.000000 0.000000 0.000000 0.000000 0.000000 0.000000 0.000000 0.000000 0.000000 0.000000 0.000000 0.180334 0.180334 0.180334 0.199007 0.199007 0.199007 0.199007 0.199007 0.199007 0.199007 0.199007 0.199007 0.199007 0.199007 0.199007 0.199007 0.199007 0.199007 0.199007 0.199007 0.199007 0.199007 0.199007 0.199007 0.199007 0.199007 0.199007 0.199007 0.199007 0.199007 0.199007 0.199007 0.199007 0.199007 0.199007 0.199007 0.199007 0.199007 0.199007 0.199007 0.199007 0.199007 0.199007 0.199007 0.225018 0.225018 0.225018 0.225018 0.225018 0.225018 0.225018 0.225018 0.225018 0.225018 0.225018 0.225018 0.225018 0.225018 0.225018 0.225018 0.225018 0.225018 0.225018 0.225018 0.225018 0.225018 0.225018 0.225018 0.225018 0.225018 0.225018 0.225018 0.225018 0.244339 0.244339 0.244339 0.244339 0.244339 0.244339 0.244339 0.244339 0.244339 0.244339 0.244339 0.244339 0.244339 0.244339 0.244339 0.244339 0.244339 0.244339 0.244339 0.244339 0.244339 0.244339 0.244339 0.256074 0.256074 0.256074 0.256074 0.256074 0.256074 0.256074 0.256074 0.256074 0.256074 0.256074 0.256074 0.256074 0.256074 0.256074 0.256074 0.256074 0.256074 0.256074 0.256074 0.256074 0.256074 0.256074 0.256074 0.256074 0.256074 0.256074 0.256074 0.256074 0.256074 0.256074 0.256074 0.256074 0.256074 0.256074 0.256074 0.256074 0.264906 0.264906 0.264906 0.264906 0.264906 0.264906 0.264906 0.264906 0.264906 0.264906 0.264906 0.264906 0.264906 0.264906 0.264906 0.264906 0.264906 0.264906 0.264906 0.264906 0.264906 0.264906 0.264906 0.264906 0.264906 0.264906 0.264906 0.264906 0.264906 0.264906 0.264906 0.264906 0.264906 0.264906 0.264906 0.264906 0.264906 0.264906 0.264906 0.264906 0.264906 0.264906 0.264906 0.264906 0.264906 0.264906 0.264906 0.264906 0.264906 0.264906 0.264906 0.264906 0.264906 0.264906 0.264906 0.264906 0.264906 0.264906 0.260378 0.260378 0.260378 0.260378 0.260378 0.260378 0.260378 0.260378 0.260378 0.260378 0.260378 0.260378 0.260378 0.264906 0.264906 0.264906 0.264906 0.264906 0.264906 0.264906 0.264906 0.264906 0.264906 0.264906 0.264906 0.269680 0.269680 0.269680 0.269680 0.269680 0.269680 0.269680 0.269680 0.269680 0.269680 0.269680 0.264906 0.264906 0.264906 0.264906 0.264906 0.264906 0.264906 0.264906 0.264906 0.264906 0.264906 0.256074 0.256074 0.256074 0.256074 0.256074 0.256074 0.256074 0.256074 0.256074 0.256074 0.256074 0.264906 0.264906 0.264906 0.264906 0.264906 0.264906 0.264906 0.264906 0.264906 0.264906 0.260378 0.260378 0.260378 0.260378 0.260378 0.260378 0.260378 0.260378 0.260378 0.260378 0.264906 0.264906 0.264906 0.264906 0.264906 0.264906 0.264906 0.264906 0.264906 0.251976 0.251976 0.251976 0.251976 0.251976 0.251976 0.251976 0.251976 0.251976 0.251976 0.256074 0.256074 0.256074 0.256074 0.256074 0.256074 0.256074 0.256074 0.256074 0.251976 0.251976 0.251976 0.251976 0.251976 0.251976 0.251976 0.251976 0.251976 0.251976 0.251976 0.251976 0.251976 0.251976
