# Output from CTFFind version 4.1.9, run on 2019-11-03 19:02:27
# Input file: stack16_bm3d_averaged_1_3.25_0_50_half.mrc ; Number of micrographs: 1
# Pixel size: 3.000 Angstroms ; acceleration voltage: 300.0 keV ; spherical aberration: 0.00 mm ; amplitude contrast: 0.07
# Box size: 512 pixels ; min. res.: 30.0 Angstroms ; max. res.: 5.0 Angstroms ; min. def.: 5000.0 um; max. def. 50000.0 um; num. frames averaged: 1
# 6 lines per micrograph: #1 - spatial frequency (1/Angstroms); #2 - 1D rotational average of spectrum (assuming no astigmatism); #3 - 1D rotational average of spectrum; #4 - CTF fit; #5 - cross-correlation between spectrum and CTF fit; #6 - 2sigma of expected cross correlation of noise
0.000000 0.000651 0.001302 0.001953 0.002604 0.003255 0.003906 0.004557 0.005208 0.005859 0.006510 0.007161 0.007812 0.008464 0.009115 0.009766 0.010417 0.011068 0.011719 0.012370 0.013021 0.013672 0.014323 0.014974 0.015625 0.016276 0.016927 0.017578 0.018229 0.018880 0.019531 0.020182 0.020833 0.021484 0.022135 0.022786 0.023438 0.024089 0.024740 0.025391 0.026042 0.026693 0.027344 0.027995 0.028646 0.029297 0.029948 0.030599 0.031250 0.031901 0.032552 0.033203 0.033854 0.034505 0.035156 0.035807 0.036458 0.037109 0.037760 0.038411 0.039062 0.039714 0.040365 0.041016 0.041667 0.042318 0.042969 0.043620 0.044271 0.044922 0.045573 0.046224 0.046875 0.047526 0.048177 0.048828 0.049479 0.050130 0.050781 0.051432 0.052083 0.052734 0.053385 0.054036 0.054688 0.055339 0.055990 0.056641 0.057292 0.057943 0.058594 0.059245 0.059896 0.060547 0.061198 0.061849 0.062500 0.063151 0.063802 0.064453 0.065104 0.065755 0.066406 0.067057 0.067708 0.068359 0.069010 0.069661 0.070312 0.070964 0.071615 0.072266 0.072917 0.073568 0.074219 0.074870 0.075521 0.076172 0.076823 0.077474 0.078125 0.078776 0.079427 0.080078 0.080729 0.081380 0.082031 0.082682 0.083333 0.083984 0.084635 0.085286 0.085938 0.086589 0.087240 0.087891 0.088542 0.089193 0.089844 0.090495 0.091146 0.091797 0.092448 0.093099 0.093750 0.094401 0.095052 0.095703 0.096354 0.097005 0.097656 0.098307 0.098958 0.099609 0.100260 0.100911 0.101562 0.102214 0.102865 0.103516 0.104167 0.104818 0.105469 0.106120 0.106771 0.107422 0.108073 0.108724 0.109375 0.110026 0.110677 0.111328 0.111979 0.112630 0.113281 0.113932 0.114583 0.115234 0.115885 0.116536 0.117188 0.117839 0.118490 0.119141 0.119792 0.120443 0.121094 0.121745 0.122396 0.123047 0.123698 0.124349 0.125000 0.125651 0.126302 0.126953 0.127604 0.128255 0.128906 0.129557 0.130208 0.130859 0.131510 0.132161 0.132812 0.133464 0.134115 0.134766 0.135417 0.136068 0.136719 0.137370 0.138021 0.138672 0.139323 0.139974 0.140625 0.141276 0.141927 0.142578 0.143229 0.143880 0.144531 0.145182 0.145833 0.146484 0.147135 0.147786 0.148438 0.149089 0.149740 0.150391 0.151042 0.151693 0.152344 0.152995 0.153646 0.154297 0.154948 0.155599 0.156250 0.156901 0.157552 0.158203 0.158854 0.159505 0.160156 0.160807 0.161458 0.162109 0.162760 0.163411 0.164062 0.164714 0.165365 0.166016 0.166667 0.167318 0.167969 0.168620 0.169271 0.169922 0.170573 0.171224 0.171875 0.172526 0.173177 0.173828 0.174479 0.175130 0.175781 0.176432 0.177083 0.177734 0.178385 0.179036 0.179688 0.180339 0.180990 0.181641 0.182292 0.182943 0.183594 0.184245 0.184896 0.185547 0.186198 0.186849 0.187500 0.188151 0.188802 0.189453 0.190104 0.190755 0.191406 0.192057 0.192708 0.193359 0.194010 0.194661 0.195312 0.195964 0.196615 0.197266 0.197917 0.198568 0.199219 0.199870 0.200521 0.201172 0.201823 0.202474 0.203125 0.203776 0.204427 0.205078 0.205729 0.206380 0.207031 0.207682 0.208333 0.208984 0.209635 0.210286 0.210938 0.211589 0.212240 0.212891 0.213542 0.214193 0.214844 0.215495 0.216146 0.216797 0.217448 0.218099 0.218750 0.219401 0.220052 0.220703 0.221354 0.222005 0.222656 0.223307 0.223958 0.224609 0.225260 0.225911 0.226562 0.227214 0.227865 0.228516 0.229167 0.229818 0.230469 0.231120 0.231771 0.232422 0.233073 0.233724 0.234375 0.235026 0.235677
       0.33549        0.33549        0.33549        0.33549        0.33549        0.33549        0.33549        0.33549        0.33549        0.33549        0.33549        0.33549        0.33549        0.33549        0.33549        0.33549        0.33549        0.33549        0.33549        0.33549        0.33549        0.33549        0.33549        0.33549        0.33549        0.33549        0.33549        0.33549        0.33549        0.33549        0.33549        0.33549        0.33549        0.33549        0.33549        0.33549        0.33549        0.33549        0.33549        0.33549        0.33549        0.33549        0.33549        0.33549        0.33549        0.33549        0.33549        0.33549        0.33549        0.33549        0.33549        0.42550        0.57097        0.35969       -0.18732       -0.45054       -0.55755       -0.65598       -0.72614       -0.74926       -0.85709       -0.91410       -0.71268       -0.87735       -0.84805       -0.99321       -1.03528       -0.92047       -0.87904       -0.81971       -0.75086       -0.67027       -0.58531       -0.49431       -0.42175       -0.19770       -0.08631        0.00828        0.23721        0.24384        0.30351        0.36815        0.39731        0.50288        0.54379        0.57460        0.53829        0.48072        0.51516        0.50383        0.42741        0.31924        0.18842        0.16970        0.10373       -0.02796       -0.04504       -0.04728        0.03280       -0.00699        0.04926        0.03127        0.14492        0.18926        0.40697        0.45951        0.55820        0.65914        0.70017        0.72358        0.64912        0.62068        0.53308        0.44640        0.38074        0.26172        0.20740        0.19338        0.07733        0.06615        0.05276        0.06447        0.08214        0.29535        0.40973        0.51164        0.54659        0.58468        0.62353        0.59684        0.59935        0.59427        0.56898        0.47125        0.28683        0.24721        0.21960        0.11986        0.06850        0.12543        0.15076        0.27014        0.35061        0.40790        0.47746        0.54070        0.61130        0.56024        0.51287        0.50067        0.35967        0.23274        0.22685        0.15627        0.14481        0.19609        0.23946        0.26080        0.31243        0.41760        0.43693        0.50764        0.46077        0.45742        0.47575        0.37667        0.31919        0.27193        0.23014        0.20748        0.21721        0.23070        0.32042        0.42647        0.41776        0.49009        0.54864        0.45746        0.41787        0.35675        0.30550        0.24549        0.24625        0.26867        0.28008        0.31536        0.33451        0.41237        0.46911        0.43978        0.45396        0.35523        0.36850        0.34809        0.23644        0.22696        0.23213        0.28993        0.35541        0.36634        0.39169        0.43493        0.43185        0.36971        0.34270        0.31202        0.33372        0.29699        0.27739        0.26864        0.32162        0.36036        0.37550        0.40073        0.37351        0.40265        0.37901        0.29420        0.27718        0.30561        0.33190        0.35796        0.35920        0.41141        0.33856        0.37029        0.37816        0.32186        0.34408        0.28827        0.29143        0.33923        0.32190        0.31822        0.33320        0.35661        0.31605        0.33371        0.29285        0.30438        0.27992        0.29476        0.29242        0.33662        0.37629        0.35891        0.34124        0.28917        0.27735        0.28232        0.31876        0.29105        0.30440        0.35678        0.37281        0.33551        0.30420        0.30915        0.30221        0.27292        0.28479        0.28576        0.31832        0.34176        0.31985        0.28086        0.32495        0.30511        0.29379        0.34432        0.33369        0.31153        0.33176        0.29635        0.32214        0.27935        0.30158        0.29444        0.31174        0.38621        0.33087        0.34069        0.30605        0.30551        0.31125        0.31633        0.28651        0.29077        0.32169        0.31765        0.32360        0.30846        0.30880        0.29196        0.29254        0.31407        0.33444        0.31987        0.32747        0.32976        0.28425        0.27181        0.27694        0.26779        0.35080        0.32168        0.36055        0.29978        0.27398        0.28896        0.34839        0.30742        0.28769        0.27912        0.31093        0.27983        0.25248        0.30238        0.27117        0.27163        0.31431        0.30200        0.33769        0.34113        0.29380        0.25671        0.24481        0.24505        0.26735        0.28160        0.31447        0.27460        0.20738        0.28365        0.27374        0.28345        0.23159        0.30912        0.29408        0.29134        0.26466        0.27070        0.28009        0.24152        0.28942        0.32229        0.35204        0.26371        0.26881        0.22586        0.25515        0.21418        0.31748        0.22156        0.21593        0.13161        0.24242        0.24129        0.21077        0.11736        0.06603       -0.56063       -0.97061
3.040772 3.002800 2.965072 2.927590 2.890352 2.853358 2.816610 2.780106 2.743847 2.707833 2.672063 2.636538 2.601258 2.566223 2.531432 2.496886 2.462585 2.428529 2.394717 2.361150 2.327828 2.294751 2.261918 2.229330 2.196987 2.164888 2.133034 2.101425 2.070061 2.038942 2.008067 1.977437 1.947051 1.916911 1.887015 1.857364 1.827957 1.798795 1.769879 1.741206 1.712779 1.684596 1.656658 1.628965 1.601516 1.574313 1.547354 1.520639 1.494170 1.467945 1.441965 1.479378 1.581506 1.523462 0.857713 0.587413 0.437297 0.369062 0.282067 0.194854 0.148941 -0.065165 0.181776 0.042454 -0.052065 -0.123000 -0.249837 -0.165167 -0.082007 -0.095295 -0.096135 0.027898 0.018416 0.207900 0.095627 0.338901 0.452009 0.470708 0.747283 0.686104 0.680789 0.827877 0.799920 0.827326 0.921361 0.869693 0.900160 0.736108 0.813100 0.842624 0.672390 0.598242 0.442045 0.418600 0.366190 0.178551 0.172186 0.115169 0.214427 0.118808 0.216635 0.102984 0.238859 0.239000 0.470590 0.418314 0.603038 0.633387 0.671352 0.734322 0.656182 0.622540 0.475558 0.437862 0.317749 0.283519 0.115498 0.181174 -0.013306 0.025282 -0.038111 -0.038803 -0.025728 0.046600 0.296618 0.320511 0.397223 0.347884 0.428492 0.468661 0.440729 0.448914 0.382646 0.375787 0.149342 0.097641 0.068752 -0.000365 -0.143596 -0.036872 -0.080884 0.045070 0.116596 0.174871 0.259983 0.256615 0.350243 0.450493 0.332356 0.397327 0.282222 0.144903 0.059863 0.060613 0.011745 0.037777 0.075162 0.108160 0.117255 0.217682 0.253259 0.300930 0.324437 0.256764 0.275616 0.244161 0.115758 0.098255 0.040615 0.037721 0.009174 0.013795 0.048934 0.173948 0.199723 0.192700 0.340023 0.202107 0.238711 0.099566 0.096241 -0.000287 -0.007943 0.007694 0.016471 0.041726 0.053338 0.089408 0.169073 0.175846 0.207270 0.117477 0.082062 0.101870 0.037839 -0.078122 -0.027213 0.006468 0.046374 0.060673 0.091104 0.159309 0.128170 0.161805 0.047143 0.060903 0.047140 0.049449 0.022563 -0.006213 0.020291 0.041087 0.084687 0.114127 0.102850 0.107892 0.122999 0.067829 -0.001336 0.008345 0.023419 0.078994 0.059137 0.114331 0.120426 0.045246 0.101914 0.062538 0.037490 0.065913 -0.036936 0.030922 0.058829 0.028315 0.023596 0.109924 0.041477 0.045870 0.040276 0.004247 0.024927 -0.020602 0.018029 0.002672 0.081731 0.070196 0.056532 0.036539 -0.017410 -0.014073 -0.002551 0.022677 -0.001251 0.009076 0.077513 0.073634 -0.008419 0.018545 -0.001276 0.003237 -0.030495 -0.019788 -0.012306 0.030744 0.012367 0.016966 -0.013613 0.012208 -0.010724 -0.001857 0.045575 0.022204 0.027604 -0.017967 0.010759 0.007384 -0.040660 -0.002675 -0.012442 0.040039 0.078182 0.016433 0.017626 0.009711 0.013414 -0.001516 0.031343 -0.018529 -0.008451 0.015925 0.033500 0.034184 0.009276 0.050057 -0.028972 -0.001809 0.027823 0.039249 0.021600 0.058297 0.018994 0.003501 0.003156 -0.026225 0.007843 0.067260 0.045630 0.064912 0.007465 -0.010898 -0.001664 0.079957 0.005708 0.028141 -0.023601 0.026728 -0.017069 -0.016872 0.006079 0.001520 -0.025616 0.034185 0.030763 0.083137 0.048895 0.019313 -0.008219 -0.039307 -0.032689 0.013257 0.000644 0.070004 -0.024120 -0.093343 0.031915 -0.011987 -0.078103 -0.066879 0.006473 -0.036510 -0.046357 -0.069366 -0.035412 -0.035882 -0.082282 -0.011572 0.001678 0.045210 -0.094810 -0.018437 0.002117 -0.032743 -0.101076 0.110375 -0.005457 0.047656 -0.065237 0.260647 0.213336 0.225167 0.044156 0.066968 -0.907669
0.072396 0.073048 0.075002 0.078258 0.082816 0.088673 0.095827 0.104276 0.114015 0.125040 0.137343 0.150917 0.165751 0.181832 0.199145 0.217671 0.237389 0.258271 0.280288 0.303403 0.327576 0.352759 0.378898 0.405932 0.433793 0.462404 0.491680 0.521525 0.551835 0.582495 0.613380 0.644354 0.675269 0.705966 0.736276 0.766016 0.794994 0.823005 0.849834 0.875256 0.899038 0.920937 0.940701 0.958077 0.972803 0.984618 0.993259 0.998464 0.999978 0.997552 0.990949 0.979944 0.964330 0.943922 0.918560 0.888114 0.852485 0.811614 0.765483 0.714122 0.657608 0.596074 0.529711 0.458770 0.383566 0.304481 0.221961 0.136522 0.048750 0.040707 0.131133 0.221753 0.311735 0.400197 0.486213 0.568825 0.647050 0.719892 0.786359 0.845470 0.896277 0.937879 0.969440 0.990204 0.999520 0.996850 0.981799 0.954121 0.913742 0.860772 0.795519 0.718495 0.630425 0.532254 0.425137 0.310444 0.189743 0.064789 0.062498 0.190054 0.315708 0.437211 0.552277 0.658631 0.754051 0.836424 0.903792 0.954411 0.986797 0.999781 0.992554 0.964707 0.916270 0.847734 0.760072 0.654743 0.533687 0.399307 0.254433 0.102275 0.053634 0.209515 0.361433 0.505392 0.637443 0.753796 0.850940 0.925756 0.975634 0.998578 0.993298 0.959287 0.896886 0.807312 0.692666 0.555921 0.400860 0.232001 0.054479 0.126092 0.303791 0.472580 0.626512 0.759946 0.867770 0.945611 0.990041 0.998743 0.970662 0.906098 0.806769 0.675803 0.517678 0.338114 0.143881 0.057423 0.257658 0.448464 0.621616 0.769377 0.884879 0.962456 0.997959 0.989012 0.935199 0.838170 0.701652 0.531355 0.334789 0.120957 0.100010 0.317333 0.520094 0.697795 0.840915 0.941460 0.993442 0.993281 0.940101 0.835881 0.685463 0.496391 0.278592 0.043899 0.194561 0.423076 0.628149 0.797303 0.919874 0.987735 0.995882 0.942873 0.831042 0.666498 0.458862 0.220789 0.032771 0.285455 0.520547 0.722083 0.875965 0.970996 0.999762 0.959282 0.851375 0.682694 0.464421 0.211601 0.057829 0.324274 0.567883 0.770054 0.914886 0.990498 0.990083 0.912611 0.763102 0.552422 0.296599 0.015682 0.267761 0.530447 0.750282 0.908283 0.990264 0.988222 0.901221 0.735690 0.505086 0.228925 0.068788 0.361585 0.622860 0.828336 0.958350 0.999860 0.947850 0.806058 0.586875 0.310406 0.002743 0.306433 0.586665 0.809754 0.952651 0.999945 0.945663 0.794146 0.559905 0.266378 0.056280 0.374222 0.653435 0.863404 0.980531 0.990925 0.892198 0.694052 0.417513 0.092873 0.243527 0.553294 0.800384 0.955356 0.999019 0.924972 0.740702 0.467059 0.136081 0.212625 0.536539 0.795425 0.956393 0.998225 0.914356 0.714083 0.421774 0.074119 0.284357 0.606906 0.850690 0.982556 0.983719 0.852657 0.605735 0.275417 0.093809 0.451308 0.747183 0.939342 0.999605 0.918069 0.704963 0.389652 0.016830 0.359658 0.684517 0.909168 0.999165 0.939684 0.738230 0.424014 0.043983 0.344008 0.679933 0.910903 0.999656 0.930808 0.713796 0.381931 0.012442 0.406002 0.734558 0.943572 0.997408 0.885665 0.625486 0.259290 0.151902 0.538433 0.833806 0.986231 0.967948 0.780595 0.455561 0.049063 0.367342 0.719225 0.942665 0.996053 0.868153 0.580796 0.185557 0.245207 0.631441 0.900274 0.999927 0.910008 0.646051 0.257259 0.182309 0.587656 0.879251 0.998796 0.921189 0.660193 0.266462 0.181928 0.594715 0.887636 0.999757 0.906505 0.625475 0.213580 0.244079 0.651592 0.922345 0.997618 0.859726 0.536593 0.096593 0.365538 0.748941
1.000000 1.000000 1.000000 1.000000 1.000000 1.000000 1.000000 1.000000 1.000000 1.000000 1.000000 1.000000 1.000000 1.000000 1.000000 1.000000 1.000000 1.000000 1.000000 1.000000 1.000000 1.000000 1.000000 1.000000 1.000000 1.000000 1.000000 1.000000 1.000000 1.000000 1.000000 1.000000 1.000000 1.000000 1.000000 1.000000 1.000000 1.000000 1.000000 1.000000 1.000000 1.000000 1.000000 1.000000 1.000000 1.000000 1.000000 1.000000 1.000000 1.000000 1.000000 1.000000 0.935823 0.935823 0.935823 0.935823 0.935823 0.935823 0.935823 0.935823 0.935823 0.935823 0.935823 0.935823 0.935823 0.935823 0.935823 0.935823 0.935823 0.935823 0.935823 0.935823 0.935823 0.935823 0.935823 0.935823 0.935823 0.935823 0.935823 0.935823 0.935823 0.935823 0.935823 0.935823 0.935823 0.922876 0.920810 0.923581 0.924524 0.924416 0.923951 0.923683 0.923985 0.925461 0.927250 0.948552 0.950831 0.951426 0.952557 0.953994 0.956614 0.955023 0.959823 0.970544 0.969947 0.970826 0.965357 0.966058 0.965760 0.965236 0.967152 0.966747 0.965560 0.964146 0.963074 0.962796 0.962599 0.964113 0.964536 0.964869 0.965189 0.965164 0.965086 0.962795 0.960435 0.962871 0.962314 0.961251 0.966733 0.965516 0.967594 0.967596 0.968272 0.969084 0.969288 0.969449 0.966546 0.966123 0.965400 0.953040 0.947953 0.944895 0.947233 0.949727 0.946711 0.941840 0.940425 0.943618 0.936800 0.936338 0.925548 0.923963 0.905603 0.898435 0.889439 0.890668 0.892242 0.893006 0.890143 0.880296 0.867544 0.863072 0.866608 0.860142 0.856993 0.872860 0.868715 0.870856 0.873769 0.875610 0.881142 0.874816 0.870498 0.866269 0.862064 0.860175 0.862518 0.865796 0.867696 0.861743 0.853573 0.857329 0.850174 0.849833 0.854942 0.852816 0.844482 0.840637 0.841068 0.841141 0.837983 0.842711 0.830159 0.823379 0.823912 0.818039 0.815746 0.808578 0.808543 0.808250 0.811137 0.798418 0.804508 0.767906 0.780712 0.773368 0.784427 0.783947 0.773134 0.774320 0.753659 0.741461 0.738089 0.749956 0.761736 0.744750 0.741597 0.737413 0.715066 0.722918 0.731300 0.725452 0.719148 0.706398 0.717073 0.717130 0.715075 0.706309 0.689201 0.689482 0.701923 0.710011 0.684124 0.677175 0.670885 0.678997 0.678318 0.670362 0.676724 0.655602 0.644378 0.613161 0.616873 0.634110 0.630601 0.603999 0.588852 0.551495 0.555112 0.554001 0.552833 0.531975 0.537133 0.521839 0.526159 0.561168 0.551995 0.568338 0.575194 0.571072 0.579431 0.466487 0.473925 0.462904 0.483662 0.494122 0.486413 0.450790 0.463246 0.465143 0.478579 0.473422 0.455014 0.468415 0.461116 0.459009 0.474273 0.458009 0.456230 0.462992 0.476797 0.480569 0.477437 0.469690 0.475427 0.495822 0.438673 0.427432 0.454846 0.400312 0.397952 0.372625 0.390711 0.382294 0.392288 0.384557 0.393562 0.399197 0.360361 0.376625 0.360908 0.376243 0.385260 0.387238 0.365824 0.358487 0.370069 0.313166 0.311935 0.337249 0.330887 0.402224 0.346051 0.330607 0.257267 0.316315 0.294260 0.300549 0.272748 0.208931 0.194459 0.192110 0.174554 0.171405 0.163788 0.156623 0.132914 0.085422 0.086826 0.078252 0.088410 0.101171 0.061625 0.064304 0.064304 0.064304 0.064304 0.039370 0.039370 0.039370 0.039370 0.039370 0.039370 0.039370 0.039370 0.039370 0.039370 0.039370 0.039370 0.039370 0.039370 -0.069468 -0.069468 -0.069468 -0.069468 -0.069468 -0.069468 -0.069468 -0.069468 -0.069468 -0.069468 -0.069468 -0.069468
0.000000 0.000000 0.000000 0.000000 0.000000 0.000000 0.000000 0.000000 0.000000 0.000000 0.000000 0.000000 0.000000 0.000000 0.000000 0.000000 0.000000 0.000000 0.000000 0.000000 0.000000 0.000000 0.000000 0.000000 0.000000 0.000000 0.000000 0.000000 0.000000 0.000000 0.000000 0.000000 0.000000 0.000000 0.000000 0.000000 0.000000 0.000000 0.000000 0.000000 0.000000 0.000000 0.000000 0.000000 0.000000 0.000000 0.000000 0.000000 0.000000 0.000000 0.000000 0.000000 0.209657 0.209657 0.209657 0.209657 0.209657 0.209657 0.209657 0.209657 0.209657 0.209657 0.209657 0.209657 0.209657 0.209657 0.209657 0.209657 0.209657 0.209657 0.209657 0.209657 0.209657 0.209657 0.209657 0.209657 0.209657 0.209657 0.209657 0.209657 0.209657 0.209657 0.209657 0.209657 0.209657 0.244339 0.244339 0.244339 0.244339 0.244339 0.244339 0.244339 0.244339 0.244339 0.244339 0.244339 0.244339 0.244339 0.244339 0.244339 0.244339 0.244339 0.244339 0.244339 0.244339 0.244339 0.244339 0.244339 0.244339 0.244339 0.260378 0.260378 0.260378 0.260378 0.260378 0.260378 0.260378 0.260378 0.260378 0.260378 0.260378 0.260378 0.260378 0.260378 0.260378 0.260378 0.260378 0.260378 0.260378 0.260378 0.269680 0.269680 0.269680 0.269680 0.269680 0.269680 0.269680 0.269680 0.269680 0.269680 0.269680 0.269680 0.269680 0.269680 0.269680 0.269680 0.269680 0.269680 0.269680 0.269680 0.269680 0.269680 0.269680 0.269680 0.269680 0.269680 0.269680 0.269680 0.269680 0.269680 0.269680 0.269680 0.269680 0.280056 0.280056 0.280056 0.280056 0.280056 0.280056 0.280056 0.280056 0.280056 0.280056 0.280056 0.280056 0.280056 0.280056 0.280056 0.280056 0.280056 0.280056 0.280056 0.280056 0.280056 0.280056 0.280056 0.280056 0.280056 0.280056 0.280056 0.285714 0.285714 0.285714 0.285714 0.285714 0.285714 0.285714 0.285714 0.285714 0.285714 0.285714 0.285714 0.274721 0.274721 0.274721 0.274721 0.274721 0.274721 0.274721 0.274721 0.274721 0.274721 0.274721 0.274721 0.280056 0.280056 0.280056 0.280056 0.280056 0.280056 0.280056 0.280056 0.280056 0.280056 0.280056 0.285714 0.285714 0.285714 0.285714 0.285714 0.285714 0.285714 0.285714 0.285714 0.285714 0.280056 0.280056 0.280056 0.280056 0.280056 0.280056 0.280056 0.280056 0.280056 0.280056 0.274721 0.274721 0.274721 0.274721 0.274721 0.274721 0.274721 0.274721 0.274721 0.274721 0.280056 0.280056 0.280056 0.280056 0.280056 0.280056 0.280056 0.280056 0.280056 0.274721 0.274721 0.274721 0.274721 0.274721 0.274721 0.274721 0.274721 0.274721 0.269680 0.269680 0.269680 0.269680 0.269680 0.269680 0.269680 0.269680 0.269680 0.280056 0.280056 0.280056 0.280056 0.280056 0.280056 0.280056 0.280056 0.260378 0.260378 0.260378 0.260378 0.260378 0.260378 0.260378 0.260378 0.260378 0.269680 0.269680 0.269680 0.269680 0.269680 0.269680 0.269680 0.269680 0.285714 0.285714 0.285714 0.285714 0.285714 0.285714 0.285714 0.264906 0.264906 0.264906 0.264906 0.264906 0.264906 0.264906 0.264906 0.274721 0.274721 0.274721 0.274721 0.274721 0.274721 0.274721 0.256074 0.256074 0.256074 0.256074 0.256074 0.256074 0.256074 0.256074 0.264906 0.264906 0.264906 0.264906 0.264906 0.264906 0.264906 0.264906 0.264906 0.264906 0.264906 0.264906 0.264906 0.264906 0.280056 0.280056 0.280056 0.280056 0.280056 0.280056 0.280056 0.280056 0.280056 0.280056 0.280056 0.280056
