# Output from CTFFind version 4.1.9, run on 2019-11-03 19:27:35
# Input file: stack16_bm3d_averaged_1_3.75_0_1000_half.mrc ; Number of micrographs: 1
# Pixel size: 3.000 Angstroms ; acceleration voltage: 300.0 keV ; spherical aberration: 0.00 mm ; amplitude contrast: 0.07
# Box size: 512 pixels ; min. res.: 30.0 Angstroms ; max. res.: 5.0 Angstroms ; min. def.: 5000.0 um; max. def. 50000.0 um; num. frames averaged: 1
# 6 lines per micrograph: #1 - spatial frequency (1/Angstroms); #2 - 1D rotational average of spectrum (assuming no astigmatism); #3 - 1D rotational average of spectrum; #4 - CTF fit; #5 - cross-correlation between spectrum and CTF fit; #6 - 2sigma of expected cross correlation of noise
0.000000 0.000651 0.001302 0.001953 0.002604 0.003255 0.003906 0.004557 0.005208 0.005859 0.006510 0.007161 0.007812 0.008464 0.009115 0.009766 0.010417 0.011068 0.011719 0.012370 0.013021 0.013672 0.014323 0.014974 0.015625 0.016276 0.016927 0.017578 0.018229 0.018880 0.019531 0.020182 0.020833 0.021484 0.022135 0.022786 0.023438 0.024089 0.024740 0.025391 0.026042 0.026693 0.027344 0.027995 0.028646 0.029297 0.029948 0.030599 0.031250 0.031901 0.032552 0.033203 0.033854 0.034505 0.035156 0.035807 0.036458 0.037109 0.037760 0.038411 0.039062 0.039714 0.040365 0.041016 0.041667 0.042318 0.042969 0.043620 0.044271 0.044922 0.045573 0.046224 0.046875 0.047526 0.048177 0.048828 0.049479 0.050130 0.050781 0.051432 0.052083 0.052734 0.053385 0.054036 0.054688 0.055339 0.055990 0.056641 0.057292 0.057943 0.058594 0.059245 0.059896 0.060547 0.061198 0.061849 0.062500 0.063151 0.063802 0.064453 0.065104 0.065755 0.066406 0.067057 0.067708 0.068359 0.069010 0.069661 0.070312 0.070964 0.071615 0.072266 0.072917 0.073568 0.074219 0.074870 0.075521 0.076172 0.076823 0.077474 0.078125 0.078776 0.079427 0.080078 0.080729 0.081380 0.082031 0.082682 0.083333 0.083984 0.084635 0.085286 0.085938 0.086589 0.087240 0.087891 0.088542 0.089193 0.089844 0.090495 0.091146 0.091797 0.092448 0.093099 0.093750 0.094401 0.095052 0.095703 0.096354 0.097005 0.097656 0.098307 0.098958 0.099609 0.100260 0.100911 0.101562 0.102214 0.102865 0.103516 0.104167 0.104818 0.105469 0.106120 0.106771 0.107422 0.108073 0.108724 0.109375 0.110026 0.110677 0.111328 0.111979 0.112630 0.113281 0.113932 0.114583 0.115234 0.115885 0.116536 0.117188 0.117839 0.118490 0.119141 0.119792 0.120443 0.121094 0.121745 0.122396 0.123047 0.123698 0.124349 0.125000 0.125651 0.126302 0.126953 0.127604 0.128255 0.128906 0.129557 0.130208 0.130859 0.131510 0.132161 0.132812 0.133464 0.134115 0.134766 0.135417 0.136068 0.136719 0.137370 0.138021 0.138672 0.139323 0.139974 0.140625 0.141276 0.141927 0.142578 0.143229 0.143880 0.144531 0.145182 0.145833 0.146484 0.147135 0.147786 0.148438 0.149089 0.149740 0.150391 0.151042 0.151693 0.152344 0.152995 0.153646 0.154297 0.154948 0.155599 0.156250 0.156901 0.157552 0.158203 0.158854 0.159505 0.160156 0.160807 0.161458 0.162109 0.162760 0.163411 0.164062 0.164714 0.165365 0.166016 0.166667 0.167318 0.167969 0.168620 0.169271 0.169922 0.170573 0.171224 0.171875 0.172526 0.173177 0.173828 0.174479 0.175130 0.175781 0.176432 0.177083 0.177734 0.178385 0.179036 0.179688 0.180339 0.180990 0.181641 0.182292 0.182943 0.183594 0.184245 0.184896 0.185547 0.186198 0.186849 0.187500 0.188151 0.188802 0.189453 0.190104 0.190755 0.191406 0.192057 0.192708 0.193359 0.194010 0.194661 0.195312 0.195964 0.196615 0.197266 0.197917 0.198568 0.199219 0.199870 0.200521 0.201172 0.201823 0.202474 0.203125 0.203776 0.204427 0.205078 0.205729 0.206380 0.207031 0.207682 0.208333 0.208984 0.209635 0.210286 0.210938 0.211589 0.212240 0.212891 0.213542 0.214193 0.214844 0.215495 0.216146 0.216797 0.217448 0.218099 0.218750 0.219401 0.220052 0.220703 0.221354 0.222005 0.222656 0.223307 0.223958 0.224609 0.225260 0.225911 0.226562 0.227214 0.227865 0.228516 0.229167 0.229818 0.230469 0.231120 0.231771 0.232422 0.233073 0.233724 0.234375 0.235026 0.235677
       0.33442        0.33442        0.33442        0.33442        0.33442        0.33442        0.33442        0.33442        0.33442        0.33442        0.33442        0.33442        0.33442        0.33442        0.33442        0.33442        0.33442        0.33442        0.33442        0.33442        0.33442        0.33442        0.33442        0.33442        0.33442        0.33442        0.33442        0.33442        0.33442        0.33442        0.33442        0.33442        0.33442        0.33442        0.33442        0.33442        0.33442        0.33442        0.33442        0.33442        0.33442        0.33442        0.33442        0.33442        0.33442        0.33442        0.33442        0.33442        0.33442        0.33442        0.33442        0.42726        0.58157        0.36970       -0.17347       -0.44910       -0.56171       -0.65665       -0.73092       -0.75384       -0.86928       -0.91910       -0.72140       -0.89015       -0.85460       -1.00468       -1.04580       -0.93328       -0.88981       -0.82518       -0.76411       -0.67873       -0.59343       -0.50157       -0.42455       -0.20589       -0.09292       -0.00252        0.22807        0.23969        0.30373        0.36988        0.39700        0.49704        0.54943        0.58133        0.54775        0.48444        0.52230        0.49723        0.41875        0.31964        0.18340        0.16955        0.10653       -0.04081       -0.05715       -0.05531        0.02641       -0.01248        0.04233        0.02825        0.14294        0.18886        0.40554        0.46419        0.56210        0.66558        0.71638        0.72655        0.65641        0.63348        0.53630        0.44898        0.37987        0.26356        0.20323        0.18718        0.07474        0.05181        0.03256        0.05697        0.08207        0.29120        0.41034        0.50863        0.55418        0.59285        0.64000        0.60874        0.61436        0.60331        0.57182        0.47306        0.28290        0.25003        0.21078        0.11524        0.06095        0.11188        0.13169        0.26349        0.35361        0.40869        0.48203        0.54662        0.61896        0.56760        0.51912        0.49928        0.36220        0.22242        0.21864        0.15538        0.13045        0.17718        0.22650        0.26325        0.31674        0.41962        0.43184        0.51687        0.46698        0.45984        0.47018        0.37559        0.31952        0.27017        0.21927        0.20367        0.21981        0.23039        0.31625        0.42431        0.42285        0.48679        0.54352        0.46638        0.42835        0.36052        0.29547        0.24208        0.23698        0.26567        0.27808        0.29987        0.32562        0.41037        0.46828        0.45013        0.45264        0.35024        0.36440        0.35123        0.21979        0.22880        0.24357        0.28446        0.34833        0.36907        0.39949        0.44028        0.43795        0.36982        0.35144        0.30854        0.32522        0.28605        0.27087        0.27096        0.32071        0.36943        0.37928        0.40118        0.37542        0.39994        0.36505        0.28681        0.27825        0.29793        0.32768        0.35807        0.34764        0.41352        0.34543        0.37340        0.37604        0.32112        0.33513        0.28472        0.29302        0.33999        0.32124        0.32335        0.33161        0.35086        0.31558        0.33803        0.29337        0.30941        0.27482        0.28750        0.29126        0.34231        0.37944        0.35554        0.34008        0.29219        0.27172        0.27474        0.30897        0.27731        0.30402        0.35977        0.37801        0.33465        0.30660        0.30417        0.29613        0.27957        0.27996        0.28216        0.32166        0.33733        0.30796        0.27764        0.33180        0.30397        0.29273        0.33412        0.32802        0.31854        0.33609        0.30004        0.32168        0.27384        0.29581        0.29919        0.31444        0.39839        0.32566        0.34229        0.30313        0.30170        0.30341        0.31904        0.28647        0.28164        0.31035        0.30919        0.33239        0.30618        0.30972        0.29165        0.29330        0.30709        0.33235        0.31806        0.33434        0.33687        0.30030        0.27543        0.28577        0.25834        0.32996        0.32416        0.33240        0.29692        0.27163        0.29651        0.32980        0.31408        0.29202        0.27988        0.30703        0.28871        0.24492        0.30562        0.28390        0.28630        0.30998        0.29822        0.33888        0.36116        0.29041        0.24971        0.24554        0.26091        0.27524        0.26945        0.28862        0.26626        0.24166        0.28276        0.28907        0.27346        0.23796        0.32568        0.30016        0.27291        0.25051        0.23983        0.26935        0.23415        0.27133        0.31745        0.35119        0.27720        0.26308        0.25553        0.25439        0.20276        0.30787        0.22835        0.19779        0.15292        0.22610        0.26291        0.22038        0.02818        0.13918       -0.46397       -0.87252
2.964703 2.927950 2.891432 2.855151 2.819105 2.783295 2.747721 2.712384 2.677282 2.642416 2.607786 2.573392 2.539234 2.505311 2.471625 2.438175 2.404961 2.371982 2.339240 2.306733 2.274463 2.242428 2.210629 2.179067 2.147740 2.116649 2.085795 2.055176 2.024793 1.994646 1.964735 1.935059 1.905620 1.876417 1.847450 1.818719 1.790223 1.761964 1.733940 1.706153 1.678601 1.651286 1.624206 1.597362 1.570754 1.544383 1.518247 1.492347 1.466683 1.441255 1.416063 1.451682 1.566251 1.508892 0.858121 0.579364 0.426413 0.361235 0.273570 0.188595 0.135274 -0.067426 0.171701 0.032842 -0.057735 -0.129412 -0.250929 -0.171704 -0.089980 -0.096007 -0.101830 0.022657 0.016107 0.199151 0.097490 0.332373 0.444938 0.458135 0.730892 0.681979 0.672920 0.825151 0.794042 0.814916 0.916647 0.871206 0.903974 0.732945 0.817731 0.839211 0.657938 0.594067 0.444978 0.415587 0.376262 0.176601 0.164448 0.115867 0.216599 0.122479 0.216361 0.104487 0.250159 0.242096 0.476467 0.423944 0.607670 0.638342 0.693167 0.740567 0.658949 0.638307 0.487329 0.441830 0.323120 0.295763 0.122368 0.186029 -0.003165 0.020811 -0.039655 -0.036584 -0.013421 0.051636 0.301864 0.329864 0.408097 0.358572 0.448001 0.484046 0.466174 0.458155 0.388497 0.388756 0.152960 0.112447 0.071529 0.012778 -0.141677 -0.029139 -0.086379 0.041917 0.132749 0.183824 0.271640 0.267567 0.360109 0.469097 0.349858 0.405079 0.298799 0.148039 0.060249 0.073188 0.019817 0.033461 0.073323 0.112818 0.129514 0.235662 0.258484 0.299750 0.352683 0.255879 0.277167 0.243092 0.121293 0.105546 0.036546 0.037761 0.013495 0.021959 0.051768 0.174306 0.202909 0.199014 0.325257 0.215914 0.245769 0.111366 0.096447 -0.011236 -0.005885 0.001998 0.024930 0.036797 0.033842 0.091288 0.166899 0.174845 0.214686 0.114804 0.080261 0.102599 0.031558 -0.087687 -0.013149 0.010676 0.036342 0.053586 0.102416 0.162573 0.131477 0.161068 0.053444 0.065514 0.037277 0.047102 0.009999 -0.007243 0.016523 0.049757 0.087811 0.113947 0.102800 0.102544 0.116444 0.047822 -0.006404 0.005746 0.014512 0.074162 0.055006 0.094820 0.116623 0.056266 0.093031 0.062025 0.037049 0.049332 -0.027315 0.027546 0.062004 0.027106 0.031269 0.096966 0.032446 0.052535 0.028683 0.010620 0.025531 -0.029123 0.002665 0.008070 0.059005 0.100135 0.064051 0.037828 -0.013610 -0.020375 -0.009154 0.016386 -0.009180 0.018368 0.078199 0.076141 0.002478 0.028403 -0.006794 0.004124 -0.016912 -0.020361 -0.006767 0.039509 -0.000603 0.007409 -0.006721 0.021553 -0.009192 0.005417 0.029741 0.025420 0.040535 -0.018817 0.007595 0.006364 -0.046085 -0.004297 -0.004469 0.034145 0.098573 0.008784 0.024346 0.005867 0.011198 -0.016511 0.035748 -0.017767 -0.012501 0.006002 0.034334 0.026346 0.010307 0.048138 -0.033623 0.000740 0.011560 0.033798 0.035331 0.050215 0.020528 0.022355 0.003126 -0.020931 -0.008491 0.034485 0.040608 0.039029 0.008849 -0.015298 0.000698 0.046117 0.017594 0.021307 -0.010202 0.005649 -0.012534 -0.044342 0.005227 0.004817 -0.012693 0.026664 0.017578 0.070728 0.066354 0.019001 -0.014529 -0.041920 -0.009222 0.008553 -0.042787 0.028467 -0.028102 -0.068582 0.017830 0.003157 -0.080142 -0.063471 0.024190 -0.021753 -0.056419 -0.067524 -0.049025 -0.014305 -0.063820 -0.005390 0.030734 0.083920 -0.022066 0.003763 0.087268 0.040273 -0.048080 0.166142 0.087933 0.119259 0.059521 0.217325 0.237664 0.222575 -0.102477 0.133059 -0.803627
0.072396 0.073047 0.075001 0.078256 0.082813 0.088668 0.095820 0.104266 0.114003 0.125024 0.137324 0.150893 0.165723 0.181799 0.199107 0.217628 0.237340 0.258216 0.280227 0.303335 0.327501 0.352677 0.378809 0.405837 0.433691 0.462295 0.491564 0.521402 0.551706 0.582360 0.613240 0.644209 0.675120 0.705814 0.736122 0.765861 0.794839 0.822852 0.849684 0.875112 0.898900 0.920807 0.940583 0.957973 0.972715 0.984548 0.993210 0.998440 0.999981 0.997585 0.991015 0.980046 0.964471 0.944105 0.918787 0.888387 0.852807 0.811988 0.765910 0.714602 0.658142 0.596662 0.530353 0.459464 0.384311 0.305273 0.222797 0.137398 0.049659 0.039770 0.130177 0.220785 0.310765 0.399235 0.485271 0.567914 0.646182 0.719082 0.785618 0.844812 0.895717 0.937430 0.969114 0.990014 0.999475 0.996962 0.982074 0.954566 0.914360 0.861565 0.796484 0.719628 0.631719 0.533695 0.426711 0.312133 0.191524 0.066638 0.060610 0.188159 0.313839 0.435403 0.550568 0.657057 0.752650 0.835232 0.902843 0.953735 0.986422 0.999729 0.992841 0.965343 0.917257 0.849065 0.761733 0.656709 0.535927 0.401777 0.257084 0.105049 0.050801 0.206694 0.358698 0.502819 0.635107 0.751771 0.849294 0.924550 0.974921 0.998398 0.993677 0.960236 0.898399 0.809363 0.695213 0.558901 0.404195 0.235594 0.058224 0.122317 0.300112 0.469127 0.623412 0.757322 0.865733 0.944257 0.989441 0.998948 0.971690 0.907940 0.809379 0.679105 0.521566 0.342449 0.148501 0.052699 0.253025 0.444120 0.617757 0.766188 0.882519 0.961058 0.997615 0.989772 0.937061 0.841082 0.705508 0.536001 0.340021 0.126539 0.094346 0.311867 0.515110 0.693560 0.837674 0.939410 0.992726 0.993976 0.942209 0.839328 0.690095 0.501982 0.284851 0.050486 0.188016 0.416959 0.622833 0.793127 0.917122 0.986612 0.996502 0.945242 0.835058 0.671949 0.465435 0.228086 0.025207 0.278122 0.513939 0.716666 0.872138 0.969064 0.999905 0.961543 0.855644 0.688718 0.471807 0.219841 0.049321 0.316125 0.560714 0.764430 0.911277 0.989230 0.991310 0.916295 0.769008 0.560128 0.305524 0.025125 0.258566 0.522268 0.743831 0.904143 0.988840 0.989699 0.905535 0.742524 0.513896 0.238965 0.058391 0.351767 0.614534 0.822298 0.955215 0.999983 0.951289 0.812556 0.595872 0.321080 0.014087 0.295527 0.577287 0.802877 0.949021 0.999999 0.949470 0.801389 0.569899 0.278127 0.043986 0.362690 0.643919 0.856975 0.977957 0.992565 0.897952 0.703355 0.429388 0.106018 0.230594 0.542069 0.792206 0.951242 0.999533 0.930138 0.749991 0.479429 0.150081 0.198678 0.524370 0.786575 0.952036 0.998992 0.920243 0.724429 0.435329 0.089178 0.269732 0.594653 0.842474 0.979545 0.986413 0.860792 0.618297 0.290757 0.077763 0.436771 0.736228 0.933573 0.999933 0.924552 0.716773 0.405166 0.033845 0.343617 0.671835 0.901798 0.998298 0.945560 0.750069 0.440103 0.061917 0.326979 0.666475 0.903190 0.999003 0.937432 0.726754 0.399240 0.006482 0.388523 0.721414 0.937010 0.998617 0.894568 0.640710 0.278352 0.132184 0.521437 0.822505 0.982672 0.972873 0.793271 0.473868 0.069823 0.347792 0.704431 0.935383 0.997719 0.878596 0.598223 0.206841 0.223981 0.614257 0.890433 0.999411 0.919050 0.663060 0.279059 0.159879 0.568972 0.868047 0.997392 0.930005 0.677614 0.289108 0.158562 0.575374 0.876335 0.998935 0.916483 0.644324 0.237490 0.220072 0.632567 0.912413 0.999035 0.872341 0.557831 0.121960 0.341531 0.731596
1.000000 1.000000 1.000000 1.000000 1.000000 1.000000 1.000000 1.000000 1.000000 1.000000 1.000000 1.000000 1.000000 1.000000 1.000000 1.000000 1.000000 1.000000 1.000000 1.000000 1.000000 1.000000 1.000000 1.000000 1.000000 1.000000 1.000000 1.000000 1.000000 1.000000 1.000000 1.000000 1.000000 1.000000 1.000000 1.000000 1.000000 1.000000 1.000000 1.000000 1.000000 1.000000 1.000000 1.000000 1.000000 1.000000 1.000000 1.000000 1.000000 1.000000 1.000000 1.000000 0.934551 0.934551 0.934551 0.934551 0.934551 0.934551 0.934551 0.934551 0.934551 0.934551 0.934551 0.934551 0.934551 0.934551 0.934551 0.934551 0.934551 0.934551 0.934551 0.934551 0.934551 0.934551 0.934551 0.934551 0.934551 0.934551 0.934551 0.934551 0.934551 0.934551 0.934551 0.934551 0.934551 0.922574 0.920572 0.923391 0.924362 0.924264 0.923799 0.923526 0.923822 0.925281 0.927090 0.948448 0.950716 0.951647 0.952683 0.952751 0.955424 0.953764 0.958432 0.969120 0.968459 0.969351 0.963727 0.964545 0.964182 0.963618 0.965488 0.965179 0.963914 0.962415 0.961272 0.960269 0.959931 0.961480 0.961933 0.962221 0.962586 0.962555 0.962460 0.960067 0.957825 0.960253 0.959647 0.958560 0.964038 0.962694 0.964662 0.964659 0.965343 0.966149 0.966370 0.966546 0.960715 0.959239 0.957330 0.943396 0.937722 0.933421 0.936312 0.939485 0.937503 0.932562 0.930457 0.932725 0.924257 0.923786 0.917948 0.918211 0.904927 0.899083 0.888983 0.890356 0.891943 0.891934 0.889149 0.877784 0.868121 0.866022 0.869268 0.863082 0.859666 0.875806 0.871177 0.873351 0.876614 0.879052 0.886172 0.873850 0.868233 0.864281 0.859781 0.859156 0.861255 0.864656 0.867054 0.862637 0.854624 0.858332 0.852828 0.856987 0.862412 0.860236 0.855110 0.852504 0.852511 0.853686 0.849165 0.854595 0.842880 0.839522 0.838770 0.831861 0.830421 0.822706 0.822468 0.823756 0.827287 0.817984 0.824714 0.802618 0.810754 0.804710 0.811238 0.807810 0.808005 0.809052 0.791031 0.784929 0.782098 0.791466 0.799810 0.773749 0.771187 0.766819 0.754396 0.758014 0.765254 0.758562 0.756636 0.746782 0.755563 0.754607 0.757435 0.753408 0.733145 0.733642 0.743413 0.750342 0.725133 0.715329 0.710248 0.711865 0.711408 0.673727 0.664289 0.651320 0.640328 0.644377 0.632512 0.608581 0.614470 0.615725 0.592659 0.594508 0.587553 0.541806 0.530866 0.518885 0.522935 0.521011 0.543074 0.544234 0.526936 0.543186 0.547371 0.547524 0.561737 0.441878 0.448359 0.430523 0.452114 0.462645 0.462640 0.440231 0.449738 0.445623 0.451512 0.452616 0.446296 0.463046 0.446771 0.443514 0.457701 0.438115 0.428477 0.443065 0.459399 0.465890 0.453217 0.451739 0.454553 0.452153 0.395003 0.395069 0.426356 0.412697 0.379626 0.379417 0.401457 0.383071 0.415287 0.409637 0.417999 0.429955 0.386966 0.399786 0.385130 0.412333 0.434916 0.422055 0.405340 0.395702 0.409594 0.364719 0.376997 0.402447 0.379750 0.450300 0.395042 0.387058 0.307952 0.349276 0.308725 0.319734 0.310863 0.251357 0.243008 0.219975 0.220156 0.196991 0.203749 0.189713 0.164239 0.124157 0.126765 0.101953 0.123474 0.134567 0.104908 0.101310 0.101310 0.101310 0.101310 0.082002 0.082002 0.082002 0.082002 0.082002 0.082002 0.082002 0.082002 0.082002 0.082002 0.082002 0.082002 0.082002 0.082002 -0.011045 -0.011045 -0.011045 -0.011045 -0.011045 -0.011045 -0.011045 -0.011045 -0.011045 -0.011045 -0.011045 -0.011045
0.000000 0.000000 0.000000 0.000000 0.000000 0.000000 0.000000 0.000000 0.000000 0.000000 0.000000 0.000000 0.000000 0.000000 0.000000 0.000000 0.000000 0.000000 0.000000 0.000000 0.000000 0.000000 0.000000 0.000000 0.000000 7.000000 4.000000 0.000000 0.000000 0.000000 0.000000 0.000000 0.000000 0.000000 0.000000 0.000000 0.000000 0.000000 0.000000 0.000000 0.000000 0.000000 0.000000 0.000000 0.000000 0.000000 0.000000 0.000000 0.000000 0.000000 0.000000 0.000000 0.209657 0.209657 0.209657 0.209657 0.209657 0.209657 0.209657 0.209657 0.209657 0.209657 0.209657 0.209657 0.209657 0.209657 0.209657 0.209657 0.209657 0.209657 0.209657 0.209657 0.209657 0.209657 0.209657 0.209657 0.209657 0.209657 0.209657 0.209657 0.209657 0.209657 0.209657 0.209657 0.209657 0.244339 0.244339 0.244339 0.244339 0.244339 0.244339 0.244339 0.244339 0.244339 0.244339 0.244339 0.244339 0.244339 0.244339 0.244339 0.244339 0.244339 0.244339 0.244339 0.244339 0.244339 0.244339 0.244339 0.244339 0.244339 0.260378 0.260378 0.260378 0.260378 0.260378 0.260378 0.260378 0.260378 0.260378 0.260378 0.260378 0.260378 0.260378 0.260378 0.260378 0.260378 0.260378 0.260378 0.260378 0.260378 0.269680 0.269680 0.269680 0.269680 0.269680 0.269680 0.269680 0.269680 0.269680 0.269680 0.269680 0.269680 0.269680 0.269680 0.269680 0.269680 0.269680 0.269680 0.269680 0.269680 0.269680 0.269680 0.269680 0.269680 0.269680 0.269680 0.269680 0.269680 0.269680 0.269680 0.269680 0.269680 0.269680 0.280056 0.280056 0.280056 0.280056 0.280056 0.280056 0.280056 0.280056 0.280056 0.280056 0.280056 0.280056 0.280056 0.280056 0.280056 0.280056 0.280056 0.280056 0.280056 0.280056 0.280056 0.280056 0.280056 0.280056 0.280056 0.280056 0.280056 0.285714 0.285714 0.285714 0.285714 0.285714 0.285714 0.285714 0.285714 0.285714 0.285714 0.285714 0.285714 0.274721 0.274721 0.274721 0.274721 0.274721 0.274721 0.274721 0.274721 0.274721 0.274721 0.274721 0.274721 0.280056 0.280056 0.280056 0.280056 0.280056 0.280056 0.280056 0.280056 0.280056 0.280056 0.280056 0.285714 0.285714 0.285714 0.285714 0.285714 0.285714 0.285714 0.285714 0.285714 0.285714 0.269680 0.269680 0.269680 0.269680 0.269680 0.269680 0.269680 0.269680 0.269680 0.269680 0.269680 0.285714 0.285714 0.285714 0.285714 0.285714 0.285714 0.285714 0.285714 0.285714 0.280056 0.280056 0.280056 0.280056 0.280056 0.280056 0.280056 0.280056 0.280056 0.274721 0.274721 0.274721 0.274721 0.274721 0.274721 0.274721 0.274721 0.274721 0.269680 0.269680 0.269680 0.269680 0.269680 0.269680 0.269680 0.269680 0.269680 0.280056 0.280056 0.280056 0.280056 0.280056 0.280056 0.280056 0.280056 0.260378 0.260378 0.260378 0.260378 0.260378 0.260378 0.260378 0.260378 0.260378 0.269680 0.269680 0.269680 0.269680 0.269680 0.269680 0.269680 0.269680 0.285714 0.285714 0.285714 0.285714 0.285714 0.285714 0.285714 0.264906 0.264906 0.264906 0.264906 0.264906 0.264906 0.264906 0.264906 0.274721 0.274721 0.274721 0.274721 0.274721 0.274721 0.274721 0.256074 0.256074 0.256074 0.256074 0.256074 0.256074 0.256074 0.256074 0.264906 0.264906 0.264906 0.264906 0.264906 0.264906 0.264906 0.264906 0.264906 0.264906 0.264906 0.264906 0.264906 0.264906 0.280056 0.280056 0.280056 0.280056 0.280056 0.280056 0.280056 0.280056 0.280056 0.280056 0.280056 0.280056
