# Output from CTFFind version 4.1.9, run on 2019-11-03 19:02:24
# Input file: stack16_bm3d_averaged_1_3.25_0_1250_half.mrc ; Number of micrographs: 1
# Pixel size: 3.000 Angstroms ; acceleration voltage: 300.0 keV ; spherical aberration: 0.00 mm ; amplitude contrast: 0.07
# Box size: 512 pixels ; min. res.: 30.0 Angstroms ; max. res.: 5.0 Angstroms ; min. def.: 5000.0 um; max. def. 50000.0 um; num. frames averaged: 1
# 6 lines per micrograph: #1 - spatial frequency (1/Angstroms); #2 - 1D rotational average of spectrum (assuming no astigmatism); #3 - 1D rotational average of spectrum; #4 - CTF fit; #5 - cross-correlation between spectrum and CTF fit; #6 - 2sigma of expected cross correlation of noise
0.000000 0.000651 0.001302 0.001953 0.002604 0.003255 0.003906 0.004557 0.005208 0.005859 0.006510 0.007161 0.007812 0.008464 0.009115 0.009766 0.010417 0.011068 0.011719 0.012370 0.013021 0.013672 0.014323 0.014974 0.015625 0.016276 0.016927 0.017578 0.018229 0.018880 0.019531 0.020182 0.020833 0.021484 0.022135 0.022786 0.023438 0.024089 0.024740 0.025391 0.026042 0.026693 0.027344 0.027995 0.028646 0.029297 0.029948 0.030599 0.031250 0.031901 0.032552 0.033203 0.033854 0.034505 0.035156 0.035807 0.036458 0.037109 0.037760 0.038411 0.039062 0.039714 0.040365 0.041016 0.041667 0.042318 0.042969 0.043620 0.044271 0.044922 0.045573 0.046224 0.046875 0.047526 0.048177 0.048828 0.049479 0.050130 0.050781 0.051432 0.052083 0.052734 0.053385 0.054036 0.054688 0.055339 0.055990 0.056641 0.057292 0.057943 0.058594 0.059245 0.059896 0.060547 0.061198 0.061849 0.062500 0.063151 0.063802 0.064453 0.065104 0.065755 0.066406 0.067057 0.067708 0.068359 0.069010 0.069661 0.070312 0.070964 0.071615 0.072266 0.072917 0.073568 0.074219 0.074870 0.075521 0.076172 0.076823 0.077474 0.078125 0.078776 0.079427 0.080078 0.080729 0.081380 0.082031 0.082682 0.083333 0.083984 0.084635 0.085286 0.085938 0.086589 0.087240 0.087891 0.088542 0.089193 0.089844 0.090495 0.091146 0.091797 0.092448 0.093099 0.093750 0.094401 0.095052 0.095703 0.096354 0.097005 0.097656 0.098307 0.098958 0.099609 0.100260 0.100911 0.101562 0.102214 0.102865 0.103516 0.104167 0.104818 0.105469 0.106120 0.106771 0.107422 0.108073 0.108724 0.109375 0.110026 0.110677 0.111328 0.111979 0.112630 0.113281 0.113932 0.114583 0.115234 0.115885 0.116536 0.117188 0.117839 0.118490 0.119141 0.119792 0.120443 0.121094 0.121745 0.122396 0.123047 0.123698 0.124349 0.125000 0.125651 0.126302 0.126953 0.127604 0.128255 0.128906 0.129557 0.130208 0.130859 0.131510 0.132161 0.132812 0.133464 0.134115 0.134766 0.135417 0.136068 0.136719 0.137370 0.138021 0.138672 0.139323 0.139974 0.140625 0.141276 0.141927 0.142578 0.143229 0.143880 0.144531 0.145182 0.145833 0.146484 0.147135 0.147786 0.148438 0.149089 0.149740 0.150391 0.151042 0.151693 0.152344 0.152995 0.153646 0.154297 0.154948 0.155599 0.156250 0.156901 0.157552 0.158203 0.158854 0.159505 0.160156 0.160807 0.161458 0.162109 0.162760 0.163411 0.164062 0.164714 0.165365 0.166016 0.166667 0.167318 0.167969 0.168620 0.169271 0.169922 0.170573 0.171224 0.171875 0.172526 0.173177 0.173828 0.174479 0.175130 0.175781 0.176432 0.177083 0.177734 0.178385 0.179036 0.179688 0.180339 0.180990 0.181641 0.182292 0.182943 0.183594 0.184245 0.184896 0.185547 0.186198 0.186849 0.187500 0.188151 0.188802 0.189453 0.190104 0.190755 0.191406 0.192057 0.192708 0.193359 0.194010 0.194661 0.195312 0.195964 0.196615 0.197266 0.197917 0.198568 0.199219 0.199870 0.200521 0.201172 0.201823 0.202474 0.203125 0.203776 0.204427 0.205078 0.205729 0.206380 0.207031 0.207682 0.208333 0.208984 0.209635 0.210286 0.210938 0.211589 0.212240 0.212891 0.213542 0.214193 0.214844 0.215495 0.216146 0.216797 0.217448 0.218099 0.218750 0.219401 0.220052 0.220703 0.221354 0.222005 0.222656 0.223307 0.223958 0.224609 0.225260 0.225911 0.226562 0.227214 0.227865 0.228516 0.229167 0.229818 0.230469 0.231120 0.231771 0.232422 0.233073 0.233724 0.234375 0.235026 0.235677
       0.33441        0.33441        0.33441        0.33441        0.33441        0.33441        0.33441        0.33441        0.33441        0.33441        0.33441        0.33441        0.33441        0.33441        0.33441        0.33441        0.33441        0.33441        0.33441        0.33441        0.33441        0.33441        0.33441        0.33441        0.33441        0.33441        0.33441        0.33441        0.33441        0.33441        0.33441        0.33441        0.33441        0.33441        0.33441        0.33441        0.33441        0.33441        0.33441        0.33441        0.33441        0.33441        0.33441        0.33441        0.33441        0.33441        0.33441        0.33441        0.33441        0.33441        0.33441        0.43537        0.59891        0.38835       -0.15212       -0.44368       -0.56847       -0.66075       -0.73541       -0.76054       -0.88869       -0.92840       -0.73702       -0.91403       -0.86739       -1.01338       -1.06432       -0.95147       -0.90992       -0.83653       -0.78227       -0.68821       -0.60336       -0.50930       -0.42982       -0.22227       -0.10164       -0.01315        0.21118        0.22907        0.30497        0.36861        0.39821        0.49084        0.55803        0.58655        0.55986        0.49165        0.53430        0.49380        0.41159        0.31767        0.17976        0.17401        0.11295       -0.05689       -0.07557       -0.06469        0.02188       -0.01352        0.02841        0.02811        0.14855        0.19200        0.40243        0.46734        0.56766        0.67527        0.74437        0.72535        0.66942        0.64258        0.54809        0.45917        0.37620        0.26986        0.20105        0.18337        0.07438        0.02510        0.00738        0.03969        0.08070        0.27762        0.40717        0.50365        0.55841        0.59921        0.66638        0.62993        0.64232        0.62127        0.57818        0.47504        0.27623        0.25044        0.20057        0.11398        0.05560        0.09661        0.11774        0.26089        0.34790        0.40983        0.47973        0.54328        0.63152        0.58118        0.52075        0.50128        0.37003        0.20879        0.21096        0.15366        0.12128        0.15910        0.21941        0.25885        0.33048        0.42532        0.42854        0.52030        0.46671        0.45951        0.46433        0.37927        0.31919        0.26815        0.20878        0.20238        0.21643        0.22256        0.30627        0.42915        0.44501        0.48398        0.53779        0.47553        0.43324        0.36847        0.29722        0.23984        0.22294        0.24508        0.26150        0.28764        0.32450        0.42263        0.47584        0.46575        0.45519        0.36403        0.36432        0.35324        0.21597        0.23303        0.26020        0.28967        0.34715        0.36038        0.40536        0.43404        0.43305        0.37581        0.35475        0.30644        0.32413        0.27551        0.26293        0.27895        0.32726        0.38414        0.39733        0.39727        0.37172        0.40044        0.35966        0.29059        0.28492        0.28416        0.31301        0.36200        0.34390        0.41535        0.34669        0.37428        0.37070        0.32285        0.31699        0.27200        0.29225        0.33354        0.32674        0.32784        0.33567        0.36207        0.32508        0.35382        0.29365        0.30827        0.26467        0.27998        0.28877        0.34301        0.38183        0.36061        0.34270        0.29656        0.26304        0.26441        0.29251        0.26988        0.31324        0.35955        0.37079        0.33378        0.30477        0.28817        0.29648        0.29799        0.28818        0.29440        0.33836        0.33803        0.31292        0.28626        0.33606        0.30288        0.29064        0.31280        0.30999        0.31507        0.34172        0.31036        0.31646        0.27536        0.29848        0.30043        0.32235        0.40041        0.32462        0.35691        0.30329        0.29769        0.29706        0.31712        0.29603        0.28499        0.29198        0.32562        0.33591        0.30105        0.30294        0.28951        0.29828        0.29917        0.32177        0.31624        0.34043        0.34805        0.30346        0.29263        0.29031        0.24407        0.31556        0.33063        0.30609        0.28915        0.26448        0.28594        0.32408        0.32994        0.29368        0.29794        0.30936        0.30341        0.22633        0.29078        0.29816        0.28222        0.31963        0.29008        0.34635        0.37823        0.28311        0.25830        0.24118        0.26763        0.27820        0.27640        0.27829        0.25289        0.25443        0.29802        0.30791        0.28683        0.24257        0.34694        0.31317        0.27833        0.24147        0.20997        0.24583        0.22442        0.23600        0.29375        0.34761        0.26836        0.23819        0.25908        0.24969        0.19045        0.30141        0.24342        0.19702        0.14896        0.24497        0.31976        0.26198        0.02337        0.15152       -0.37835       -0.64007
2.919425 2.883417 2.847639 2.812092 2.776775 2.741688 2.706832 2.672206 2.637811 2.603647 2.569712 2.536008 2.502535 2.469292 2.436280 2.403498 2.370946 2.338625 2.306535 2.274675 2.243045 2.211646 2.180477 2.149539 2.118831 2.088353 2.058106 2.028090 1.998304 1.968748 1.939423 1.910329 1.881465 1.852831 1.824428 1.796255 1.768312 1.740601 1.713119 1.685868 1.658848 1.632058 1.605498 1.579169 1.553070 1.527202 1.501564 1.476157 1.450980 1.426034 1.401318 1.441018 1.563737 1.509969 0.877034 0.586445 0.421763 0.359527 0.274687 0.192534 0.126181 -0.065068 0.165373 0.023922 -0.065398 -0.118763 -0.250710 -0.176323 -0.097648 -0.095500 -0.102518 0.019757 0.021557 0.193451 0.103369 0.323886 0.438314 0.452033 0.706287 0.676487 0.672218 0.818667 0.790113 0.806660 0.920105 0.868267 0.911435 0.734829 0.824427 0.840261 0.645929 0.585040 0.450846 0.414410 0.390470 0.176029 0.151920 0.115431 0.217883 0.131690 0.210630 0.102474 0.268527 0.251400 0.472745 0.425665 0.614791 0.635600 0.727283 0.742868 0.659082 0.645110 0.499884 0.453167 0.325978 0.306049 0.132715 0.189021 0.009489 0.000367 -0.045101 -0.048389 -0.009235 0.051374 0.290675 0.341004 0.408078 0.360639 0.475440 0.492435 0.494690 0.472145 0.394258 0.396487 0.146357 0.118195 0.068358 0.015912 -0.135246 -0.025868 -0.095542 0.033307 0.148950 0.175023 0.279544 0.253617 0.371728 0.480044 0.357299 0.404028 0.311133 0.146522 0.050834 0.076095 0.026354 0.027374 0.067113 0.113132 0.132366 0.256205 0.260086 0.295289 0.357644 0.247263 0.270314 0.236753 0.129800 0.095148 0.039196 0.021371 0.023616 0.010900 0.044280 0.174078 0.210229 0.213172 0.310288 0.224276 0.246723 0.120773 0.105930 -0.007274 -0.010457 -0.008555 0.011245 0.029858 0.022951 0.103426 0.183243 0.181929 0.219371 0.132875 0.086610 0.101362 0.036476 -0.079895 -0.001188 0.026237 0.036572 0.049797 0.110100 0.155759 0.130921 0.164524 0.064340 0.065165 0.037007 0.057482 -0.004496 0.007947 0.015112 0.069505 0.109171 0.132133 0.080787 0.116482 0.109830 0.038474 -0.001840 0.012088 0.000658 0.058650 0.068986 0.080319 0.115116 0.065650 0.093335 0.060020 0.041445 0.027597 -0.021020 0.027732 0.058863 0.037603 0.050681 0.020852 0.066486 0.062403 0.036044 0.011137 0.019165 -0.041383 -0.005006 0.009425 0.052993 0.101848 0.071107 0.042285 -0.008622 -0.028131 -0.012055 0.000105 -0.007266 0.032319 0.068198 0.070223 0.007308 0.021723 -0.025067 0.011286 0.000078 -0.023001 0.009878 0.045271 -0.005005 0.009569 -0.011132 0.026656 -0.018512 -0.002787 0.003077 0.009692 0.030251 -0.010917 0.013095 -0.005819 -0.056441 0.007983 -0.011718 0.034210 0.091990 0.000651 0.042300 -0.006351 -0.000452 -0.028552 0.028580 -0.007086 -0.016849 -0.022190 0.016883 0.027686 0.007327 0.015015 -0.040793 0.003628 -0.013915 0.018984 0.033382 0.046540 0.032145 0.027150 0.016723 -0.021100 -0.030331 0.011938 0.057147 0.006880 0.008624 -0.030658 -0.001987 0.030475 0.043194 0.020712 0.004346 0.014408 0.007298 -0.059507 -0.001693 0.031949 -0.007522 0.029177 0.031353 0.084412 0.095858 0.024411 0.007533 -0.029004 -0.007790 0.059380 -0.036376 0.016653 -0.020393 -0.036154 0.033010 0.038165 -0.017041 -0.063307 0.050996 -0.009300 -0.050633 -0.070487 -0.066077 -0.046046 -0.069062 -0.060107 0.007927 0.087459 -0.022608 -0.024945 0.103183 0.017903 -0.056788 0.130653 0.101214 0.134567 0.059073 0.211115 0.298825 0.208409 -0.111174 0.142368 -0.579157
0.072396 0.073047 0.075000 0.078255 0.082810 0.088664 0.095815 0.104260 0.113994 0.125013 0.137310 0.150877 0.165703 0.181776 0.199080 0.217597 0.237305 0.258177 0.280183 0.303287 0.327448 0.352620 0.378747 0.405769 0.433618 0.462218 0.491481 0.521315 0.551614 0.582264 0.613140 0.644106 0.675014 0.705706 0.736012 0.765751 0.794729 0.822743 0.849577 0.875008 0.898802 0.920716 0.940499 0.957898 0.972652 0.984499 0.993176 0.998422 0.999983 0.997609 0.991062 0.980118 0.964571 0.944234 0.918948 0.888582 0.853037 0.812253 0.766213 0.714943 0.658521 0.597080 0.530809 0.459958 0.384841 0.305837 0.223392 0.138021 0.050306 0.039103 0.129496 0.220096 0.310075 0.398550 0.484600 0.567265 0.645564 0.718504 0.785090 0.844344 0.895318 0.937109 0.968881 0.989877 0.999443 0.997041 0.982269 0.954881 0.914799 0.862128 0.797170 0.720433 0.632637 0.534720 0.427831 0.313334 0.192792 0.067953 0.059267 0.186810 0.312508 0.434116 0.549350 0.655936 0.751652 0.834382 0.902165 0.953252 0.986152 0.999689 0.993042 0.965792 0.917955 0.850009 0.762911 0.658106 0.537518 0.403533 0.258969 0.107022 0.048786 0.204686 0.356751 0.500986 0.633442 0.750325 0.848117 0.923687 0.974408 0.998263 0.993940 0.960905 0.899468 0.810815 0.697019 0.561017 0.406563 0.238149 0.060887 0.119629 0.297491 0.466665 0.621201 0.755448 0.864275 0.943283 0.989004 0.999082 0.972410 0.909239 0.811227 0.681447 0.524326 0.345528 0.151786 0.049337 0.249724 0.441025 0.615002 0.763905 0.880826 0.960048 0.997355 0.990296 0.938371 0.843139 0.708239 0.539296 0.343736 0.130507 0.090314 0.307972 0.511553 0.690533 0.835348 0.937930 0.992194 0.994448 0.943688 0.841760 0.693373 0.505947 0.289297 0.055173 0.183355 0.412596 0.619033 0.790133 0.915137 0.985783 0.996912 0.946898 0.837889 0.675804 0.470097 0.233270 0.019826 0.272894 0.509220 0.712785 0.869383 0.967651 0.999968 0.963112 0.858648 0.692975 0.477040 0.225694 0.043266 0.310312 0.555586 0.760394 0.908666 0.988279 0.992133 0.918869 0.773171 0.565583 0.311857 0.031844 0.252008 0.516420 0.739199 0.901143 0.987768 0.990690 0.908548 0.747342 0.520129 0.246093 0.050991 0.344758 0.608567 0.817946 0.952917 0.999998 0.953666 0.817118 0.602226 0.328649 0.022154 0.287740 0.570568 0.797917 0.946358 0.999952 0.952098 0.806473 0.576959 0.286460 0.035238 0.354449 0.637087 0.852319 0.976029 0.993632 0.901955 0.709906 0.437792 0.115360 0.221367 0.534024 0.786301 0.948208 0.999784 0.933707 0.756512 0.488169 0.160022 0.188730 0.515644 0.780181 0.948812 0.999406 0.924309 0.731691 0.444913 0.099880 0.259291 0.585850 0.836505 0.977259 0.988183 0.866448 0.627141 0.301630 0.066330 0.426362 0.728315 0.929316 1.000000 0.929008 0.725050 0.416132 0.045947 0.332138 0.662692 0.896387 0.997495 0.949562 0.758350 0.451467 0.074670 0.314796 0.656767 0.897521 0.998331 0.941947 0.735821 0.411469 0.019947 0.375998 0.711903 0.932125 0.999248 0.900694 0.651390 0.291844 0.118128 0.509217 0.814258 0.979894 0.976133 0.802087 0.486769 0.084580 0.333798 0.693723 0.929946 0.998628 0.885781 0.610453 0.221931 0.208809 0.601847 0.883167 0.998742 0.925206 0.674956 0.294488 0.143870 0.555502 0.859794 0.996067 0.935973 0.689784 0.305128 0.141878 0.561414 0.867987 0.997996 0.923251 0.657506 0.254410 0.202914 0.618796 0.905004 0.999660 0.880980 0.572727 0.139969 0.324308 0.718954
1.000000 1.000000 1.000000 1.000000 1.000000 1.000000 1.000000 1.000000 1.000000 1.000000 1.000000 1.000000 1.000000 1.000000 1.000000 1.000000 1.000000 1.000000 1.000000 1.000000 1.000000 1.000000 1.000000 1.000000 1.000000 1.000000 1.000000 1.000000 1.000000 1.000000 1.000000 1.000000 1.000000 1.000000 1.000000 1.000000 1.000000 1.000000 1.000000 1.000000 1.000000 1.000000 1.000000 1.000000 1.000000 1.000000 1.000000 1.000000 1.000000 1.000000 1.000000 1.000000 0.931275 0.931275 0.931275 0.931275 0.931275 0.931275 0.931275 0.931275 0.931275 0.931275 0.931275 0.931275 0.931275 0.931275 0.931275 0.931275 0.931275 0.931275 0.931275 0.931275 0.931275 0.931275 0.931275 0.931275 0.931275 0.931275 0.931275 0.931275 0.931275 0.931275 0.931275 0.931275 0.931275 0.914584 0.916233 0.919228 0.920265 0.920162 0.919664 0.919361 0.919656 0.921161 0.923042 0.944449 0.946732 0.947881 0.948962 0.947725 0.950184 0.947906 0.952218 0.967207 0.966485 0.967414 0.961688 0.962606 0.962193 0.961599 0.962496 0.962272 0.960923 0.959321 0.958093 0.957774 0.957411 0.959011 0.959384 0.959640 0.960044 0.960011 0.959904 0.957440 0.955281 0.955512 0.954853 0.953651 0.959033 0.958890 0.967045 0.968195 0.968893 0.969654 0.969849 0.970008 0.962695 0.960658 0.958208 0.946016 0.938546 0.934404 0.937161 0.940289 0.937228 0.931414 0.930421 0.928426 0.921621 0.921204 0.917712 0.918528 0.907794 0.903411 0.893179 0.894007 0.896719 0.897438 0.894598 0.881961 0.875040 0.875123 0.878086 0.872585 0.869754 0.886330 0.883195 0.885335 0.888943 0.891389 0.897873 0.883080 0.875857 0.872255 0.867423 0.866742 0.868838 0.872004 0.873835 0.873079 0.865642 0.870243 0.861249 0.869126 0.874774 0.872279 0.871061 0.871203 0.870799 0.867559 0.863289 0.867573 0.864240 0.861483 0.858964 0.853038 0.854530 0.855353 0.855621 0.855193 0.856539 0.850495 0.855276 0.847423 0.851614 0.846511 0.850849 0.848768 0.853179 0.845183 0.838187 0.826394 0.817742 0.820479 0.824344 0.782114 0.779946 0.776780 0.775106 0.780727 0.786983 0.782601 0.783983 0.778951 0.785522 0.794678 0.787734 0.782478 0.783097 0.785073 0.764309 0.772551 0.772117 0.759435 0.763471 0.744563 0.742630 0.740155 0.742931 0.700836 0.694643 0.670015 0.653789 0.668742 0.663270 0.652532 0.640907 0.638622 0.633658 0.596470 0.589036 0.576413 0.578188 0.563005 0.566379 0.566408 0.535028 0.549410 0.540917 0.543522 0.558860 0.497014 0.483751 0.465376 0.448536 0.468612 0.476990 0.486879 0.496530 0.478675 0.478170 0.474346 0.469915 0.486350 0.462329 0.433120 0.445355 0.418292 0.398538 0.410478 0.406901 0.407407 0.421338 0.393244 0.373483 0.397124 0.406278 0.408840 0.408687 0.419732 0.394568 0.433097 0.413792 0.410812 0.420002 0.394763 0.373518 0.375591 0.355000 0.366755 0.353305 0.347782 0.374374 0.344413 0.335618 0.353048 0.369554 0.302538 0.336053 0.363618 0.341814 0.392479 0.352398 0.339827 0.279857 0.292689 0.264072 0.265999 0.288930 0.223022 0.205128 0.177586 0.185133 0.161427 0.174902 0.154319 0.125704 0.088979 0.085306 0.072654 0.090440 0.096286 0.082931 0.074824 0.074824 0.074824 0.074824 0.090350 0.090350 0.090350 0.090350 0.090350 0.090350 0.090350 0.090350 0.090350 0.090350 0.090350 0.090350 0.090350 0.090350 0.030573 0.030573 0.030573 0.030573 0.030573 0.030573 0.030573 0.030573 0.030573 0.030573 0.030573 0.030573
0.000000 0.000000 0.000000 0.000000 0.000000 0.000000 0.000000 0.000000 0.000000 0.000000 0.000000 0.000000 0.000000 0.000000 0.000000 0.000000 0.000000 0.000000 0.000000 0.000000 0.000000 0.000000 0.000000 0.000000 0.000000 7.000000 4.000000 0.000000 0.000000 0.000000 0.000000 0.000000 0.000000 0.000000 0.000000 0.000000 0.000000 0.000000 0.000000 0.000000 0.000000 0.000000 0.000000 0.000000 0.000000 0.000000 0.000000 0.000000 0.000000 0.000000 0.000000 0.000000 0.209657 0.209657 0.209657 0.209657 0.209657 0.209657 0.209657 0.209657 0.209657 0.209657 0.209657 0.209657 0.209657 0.209657 0.209657 0.209657 0.209657 0.209657 0.209657 0.209657 0.209657 0.209657 0.209657 0.209657 0.209657 0.209657 0.209657 0.209657 0.209657 0.209657 0.209657 0.209657 0.209657 0.244339 0.244339 0.244339 0.244339 0.244339 0.244339 0.244339 0.244339 0.244339 0.244339 0.244339 0.244339 0.244339 0.244339 0.244339 0.244339 0.244339 0.244339 0.244339 0.244339 0.244339 0.244339 0.244339 0.244339 0.244339 0.260378 0.260378 0.260378 0.260378 0.260378 0.260378 0.260378 0.260378 0.260378 0.260378 0.260378 0.260378 0.260378 0.260378 0.260378 0.260378 0.260378 0.260378 0.260378 0.260378 0.269680 0.269680 0.269680 0.269680 0.269680 0.269680 0.269680 0.269680 0.269680 0.269680 0.269680 0.269680 0.269680 0.269680 0.269680 0.269680 0.269680 0.269680 0.269680 0.269680 0.269680 0.269680 0.269680 0.269680 0.269680 0.269680 0.269680 0.269680 0.269680 0.269680 0.269680 0.269680 0.269680 0.280056 0.280056 0.280056 0.280056 0.280056 0.280056 0.280056 0.280056 0.280056 0.280056 0.280056 0.280056 0.280056 0.280056 0.280056 0.280056 0.280056 0.280056 0.280056 0.280056 0.280056 0.280056 0.280056 0.280056 0.280056 0.280056 0.280056 0.285714 0.285714 0.285714 0.285714 0.285714 0.285714 0.285714 0.285714 0.285714 0.285714 0.285714 0.285714 0.274721 0.274721 0.274721 0.274721 0.274721 0.274721 0.274721 0.274721 0.274721 0.274721 0.274721 0.274721 0.280056 0.280056 0.280056 0.280056 0.280056 0.280056 0.280056 0.280056 0.280056 0.280056 0.280056 0.274721 0.274721 0.274721 0.274721 0.274721 0.274721 0.274721 0.274721 0.274721 0.274721 0.274721 0.280056 0.280056 0.280056 0.280056 0.280056 0.280056 0.280056 0.280056 0.280056 0.280056 0.285714 0.285714 0.285714 0.285714 0.285714 0.285714 0.285714 0.285714 0.285714 0.280056 0.280056 0.280056 0.280056 0.280056 0.280056 0.280056 0.280056 0.280056 0.274721 0.274721 0.274721 0.274721 0.274721 0.274721 0.274721 0.274721 0.274721 0.269680 0.269680 0.269680 0.269680 0.269680 0.269680 0.269680 0.269680 0.269680 0.264906 0.264906 0.264906 0.264906 0.264906 0.264906 0.264906 0.264906 0.264906 0.274721 0.274721 0.274721 0.274721 0.274721 0.274721 0.274721 0.274721 0.269680 0.269680 0.269680 0.269680 0.269680 0.269680 0.269680 0.269680 0.285714 0.285714 0.285714 0.285714 0.285714 0.285714 0.285714 0.264906 0.264906 0.264906 0.264906 0.264906 0.264906 0.264906 0.264906 0.274721 0.274721 0.274721 0.274721 0.274721 0.274721 0.274721 0.256074 0.256074 0.256074 0.256074 0.256074 0.256074 0.256074 0.256074 0.264906 0.264906 0.264906 0.264906 0.264906 0.264906 0.264906 0.264906 0.264906 0.264906 0.264906 0.264906 0.264906 0.264906 0.280056 0.280056 0.280056 0.280056 0.280056 0.280056 0.280056 0.280056 0.280056 0.280056 0.280056 0.280056
