# Output from CTFFind version 4.1.9, run on 2019-11-03 20:08:49
# Input file: stack11_bm3d_averaged_1_6.0_0_2000_half.mrc ; Number of micrographs: 1
# Pixel size: 3.000 Angstroms ; acceleration voltage: 300.0 keV ; spherical aberration: 0.00 mm ; amplitude contrast: 0.07
# Box size: 512 pixels ; min. res.: 30.0 Angstroms ; max. res.: 5.0 Angstroms ; min. def.: 5000.0 um; max. def. 50000.0 um; num. frames averaged: 1
# 6 lines per micrograph: #1 - spatial frequency (1/Angstroms); #2 - 1D rotational average of spectrum (assuming no astigmatism); #3 - 1D rotational average of spectrum; #4 - CTF fit; #5 - cross-correlation between spectrum and CTF fit; #6 - 2sigma of expected cross correlation of noise
0.000000 0.000651 0.001302 0.001953 0.002604 0.003255 0.003906 0.004557 0.005208 0.005859 0.006510 0.007161 0.007812 0.008464 0.009115 0.009766 0.010417 0.011068 0.011719 0.012370 0.013021 0.013672 0.014323 0.014974 0.015625 0.016276 0.016927 0.017578 0.018229 0.018880 0.019531 0.020182 0.020833 0.021484 0.022135 0.022786 0.023438 0.024089 0.024740 0.025391 0.026042 0.026693 0.027344 0.027995 0.028646 0.029297 0.029948 0.030599 0.031250 0.031901 0.032552 0.033203 0.033854 0.034505 0.035156 0.035807 0.036458 0.037109 0.037760 0.038411 0.039062 0.039714 0.040365 0.041016 0.041667 0.042318 0.042969 0.043620 0.044271 0.044922 0.045573 0.046224 0.046875 0.047526 0.048177 0.048828 0.049479 0.050130 0.050781 0.051432 0.052083 0.052734 0.053385 0.054036 0.054688 0.055339 0.055990 0.056641 0.057292 0.057943 0.058594 0.059245 0.059896 0.060547 0.061198 0.061849 0.062500 0.063151 0.063802 0.064453 0.065104 0.065755 0.066406 0.067057 0.067708 0.068359 0.069010 0.069661 0.070312 0.070964 0.071615 0.072266 0.072917 0.073568 0.074219 0.074870 0.075521 0.076172 0.076823 0.077474 0.078125 0.078776 0.079427 0.080078 0.080729 0.081380 0.082031 0.082682 0.083333 0.083984 0.084635 0.085286 0.085938 0.086589 0.087240 0.087891 0.088542 0.089193 0.089844 0.090495 0.091146 0.091797 0.092448 0.093099 0.093750 0.094401 0.095052 0.095703 0.096354 0.097005 0.097656 0.098307 0.098958 0.099609 0.100260 0.100911 0.101562 0.102214 0.102865 0.103516 0.104167 0.104818 0.105469 0.106120 0.106771 0.107422 0.108073 0.108724 0.109375 0.110026 0.110677 0.111328 0.111979 0.112630 0.113281 0.113932 0.114583 0.115234 0.115885 0.116536 0.117188 0.117839 0.118490 0.119141 0.119792 0.120443 0.121094 0.121745 0.122396 0.123047 0.123698 0.124349 0.125000 0.125651 0.126302 0.126953 0.127604 0.128255 0.128906 0.129557 0.130208 0.130859 0.131510 0.132161 0.132812 0.133464 0.134115 0.134766 0.135417 0.136068 0.136719 0.137370 0.138021 0.138672 0.139323 0.139974 0.140625 0.141276 0.141927 0.142578 0.143229 0.143880 0.144531 0.145182 0.145833 0.146484 0.147135 0.147786 0.148438 0.149089 0.149740 0.150391 0.151042 0.151693 0.152344 0.152995 0.153646 0.154297 0.154948 0.155599 0.156250 0.156901 0.157552 0.158203 0.158854 0.159505 0.160156 0.160807 0.161458 0.162109 0.162760 0.163411 0.164062 0.164714 0.165365 0.166016 0.166667 0.167318 0.167969 0.168620 0.169271 0.169922 0.170573 0.171224 0.171875 0.172526 0.173177 0.173828 0.174479 0.175130 0.175781 0.176432 0.177083 0.177734 0.178385 0.179036 0.179688 0.180339 0.180990 0.181641 0.182292 0.182943 0.183594 0.184245 0.184896 0.185547 0.186198 0.186849 0.187500 0.188151 0.188802 0.189453 0.190104 0.190755 0.191406 0.192057 0.192708 0.193359 0.194010 0.194661 0.195312 0.195964 0.196615 0.197266 0.197917 0.198568 0.199219 0.199870 0.200521 0.201172 0.201823 0.202474 0.203125 0.203776 0.204427 0.205078 0.205729 0.206380 0.207031 0.207682 0.208333 0.208984 0.209635 0.210286 0.210938 0.211589 0.212240 0.212891 0.213542 0.214193 0.214844 0.215495 0.216146 0.216797 0.217448 0.218099 0.218750 0.219401 0.220052 0.220703 0.221354 0.222005 0.222656 0.223307 0.223958 0.224609 0.225260 0.225911 0.226562 0.227214 0.227865 0.228516 0.229167 0.229818 0.230469 0.231120 0.231771 0.232422 0.233073 0.233724 0.234375 0.235026 0.235677
       0.34362        0.34362        0.34362        0.34362        0.34362        0.34362        0.34362        0.34362        0.34362        0.34362        0.34362        0.34362        0.34362        0.34362        0.34362        0.34362        0.34362        0.34362        0.34362        0.34362        0.34362        0.34362        0.34362        0.34362        0.34362        0.34362        0.34362        0.34362        0.34362        0.34362        0.34362        0.34362        0.34362        0.34362        0.34362        0.34362        0.34362        0.34362        0.34362        0.34362        0.34362        0.34362        0.34362        0.34362        0.34362        0.34362        0.34362        0.34362        0.34362        0.34362        0.34362        0.69848        0.85856        0.53757        0.10543       -0.02933       -0.38825       -0.18041       -0.28801       -0.11460       -0.05505       -0.11165       -0.05328       -0.16841       -0.20645       -0.21566       -0.30785       -0.31934       -0.44562       -0.36252       -0.42761       -0.42223       -0.39569       -0.41115       -0.45175       -0.51051       -0.55986       -0.55407       -0.52791       -0.35887       -0.32935       -0.29325       -0.27325       -0.18614       -0.17171        0.05968        0.13996        0.17236        0.26413        0.38144        0.45786        0.52343        0.59905        0.59643        0.58302        0.69942        0.80446        0.70500        0.74356        0.62161        0.56900        0.48376        0.43180        0.51236        0.39696        0.26809        0.11543        0.10964        0.08939       -0.01684        0.04048        0.04969        0.00772        0.02677        0.02790        0.23760        0.27127        0.29615        0.43483        0.45354        0.41455        0.59713        0.62158        0.63991        0.72645        0.67742        0.64772        0.65951        0.56118        0.46281        0.41931        0.30359        0.26645        0.18227        0.13546        0.05263        0.06254        0.07135        0.09846        0.15713        0.24342        0.29535        0.41929        0.46488        0.48151        0.56801        0.60463        0.63770        0.61726        0.56035        0.46095        0.47365        0.37922        0.27458        0.21078        0.15723        0.17045        0.15239        0.15662        0.18520        0.31983        0.33369        0.40402        0.44455        0.42770        0.48351        0.56306        0.55487        0.50191        0.45742        0.41256        0.36969        0.33965        0.30686        0.26056        0.24596        0.25063        0.25482        0.22501        0.30876        0.36416        0.38540        0.43967        0.45653        0.46935        0.42672        0.40991        0.40244        0.36300        0.33285        0.27425        0.27757        0.26772        0.24247        0.29314        0.29019        0.35041        0.38157        0.43160        0.47672        0.40884        0.42364        0.43330        0.41129        0.34937        0.32696        0.29367        0.32415        0.27424        0.32058        0.31310        0.33083        0.33921        0.36318        0.31648        0.39110        0.41413        0.38081        0.35049        0.37070        0.31735        0.29424        0.30595        0.32046        0.30802        0.32006        0.34299        0.35443        0.34062        0.36562        0.36446        0.41917        0.38859        0.33866        0.34662        0.29936        0.29266        0.32560        0.31984        0.33019        0.34186        0.34064        0.38611        0.33088        0.33045        0.33799        0.34616        0.30464        0.31285        0.28115        0.30358        0.32985        0.30568        0.33023        0.35609        0.36587        0.29660        0.33883        0.29834        0.29722        0.27972        0.24671        0.30473        0.30514        0.34289        0.33876        0.34243        0.32666        0.34997        0.31443        0.34601        0.31011        0.32267        0.28884        0.33511        0.32572        0.36754        0.32776        0.33601        0.33980        0.29339        0.27558        0.31097        0.25036        0.22876        0.34159        0.32228        0.36495        0.34648        0.36161        0.33268        0.33586        0.34924        0.26509        0.26307        0.31666        0.30158        0.31166        0.31778        0.34031        0.33147        0.29261        0.29099        0.34497        0.32169        0.31723        0.29378        0.32249        0.34073        0.39531        0.35864        0.31760        0.28189        0.30359        0.28887        0.30265        0.27526        0.26634        0.31334        0.33120        0.34493        0.35476        0.33062        0.29216        0.30117        0.26880        0.27583        0.25548        0.30961        0.26546        0.24262        0.29739        0.29214        0.26416        0.29576        0.21661        0.21416        0.24442        0.19206        0.26999        0.34595        0.25173        0.23686        0.31705        0.30648        0.31480        0.31529        0.26730        0.24932        0.19035        0.21170        0.20009        0.26595        0.23491        0.28152        0.35691        0.35401        0.24797        0.16378        0.10035       -0.01214       -0.11382       -0.62957
2.783161 2.753644 2.724289 2.695094 2.666060 2.637187 2.608475 2.579923 2.551532 2.523302 2.495233 2.467324 2.439576 2.411989 2.384562 2.357297 2.330192 2.303248 2.276464 2.249841 2.223379 2.197078 2.170938 2.144958 2.119139 2.093481 2.067983 2.042646 2.017470 1.992455 1.967601 1.942907 1.918374 1.894001 1.869790 1.845739 1.821849 1.798120 1.774551 1.751143 1.727896 1.704810 1.681884 1.659119 1.636515 1.614072 1.591789 1.569667 1.547706 1.525906 1.504266 1.721462 2.144796 1.702595 1.187019 1.051216 0.452153 0.849350 0.562583 0.846585 0.813671 0.819093 0.758144 0.753015 0.596525 0.559594 0.501478 0.429065 0.248346 0.366995 0.200829 0.330189 0.220621 0.208428 0.182701 0.040846 0.006226 0.018246 -0.069213 0.133101 0.232093 0.189138 0.178262 0.327167 0.184913 0.520017 0.624263 0.630941 0.647486 0.877111 0.835362 0.944074 0.936305 1.033424 1.001141 1.086048 1.169591 1.045620 1.163489 0.910624 0.929884 0.795991 0.653718 0.806819 0.697080 0.492902 0.333339 0.251037 0.267017 0.148145 0.134194 0.164666 0.107893 0.122488 0.080500 0.250777 0.353746 0.341797 0.476590 0.545649 0.418006 0.592394 0.730107 0.653988 0.722164 0.710835 0.718735 0.648809 0.596766 0.495072 0.370225 0.276710 0.220532 0.089059 0.116667 -0.110382 -0.048901 -0.063318 -0.081402 -0.020197 0.130335 0.069309 0.241475 0.306705 0.335803 0.377679 0.498392 0.458221 0.487141 0.492627 0.305817 0.294017 0.287123 0.087107 0.045577 -0.077975 -0.013635 -0.062266 -0.095013 -0.076021 0.038898 0.092851 0.124117 0.221205 0.225927 0.224549 0.274668 0.445643 0.393601 0.257257 0.233273 0.223559 0.143439 0.144484 0.116786 -0.004332 0.016079 0.073187 -0.009150 0.047758 0.133896 0.136371 0.216220 0.237944 0.253707 0.169228 0.210031 0.127297 0.133965 0.110981 0.029471 -0.026014 -0.000008 -0.019827 -0.053822 0.053927 0.005850 0.106522 0.138877 0.190172 0.169750 0.119277 0.141742 0.162041 0.111781 0.038062 -0.023059 0.032617 0.025170 -0.040011 0.033367 0.022573 0.047562 0.038976 0.052090 0.035782 0.139869 0.124704 0.046918 0.040541 0.044979 0.006332 -0.030418 0.010260 0.007987 -0.001306 0.006695 0.052853 0.053930 0.041868 0.078070 0.059343 0.158600 0.062969 0.038895 0.041621 -0.033533 0.011166 0.046023 0.007495 0.034595 0.054436 0.080300 0.046245 0.042647 0.010652 0.078359 0.023680 0.022885 0.023183 -0.006286 0.035567 0.025940 0.022196 0.068126 0.081898 0.062161 0.040274 0.049476 0.028162 0.019057 -0.020370 -0.023141 0.035278 0.053419 0.082519 0.085056 0.052182 0.074620 0.103878 0.046186 0.095746 0.064917 0.041812 0.021407 0.102813 0.061494 0.115705 0.082022 0.052642 0.108324 0.037561 0.005861 0.086724 -0.035873 -0.022570 0.100762 0.046254 0.159520 0.095100 0.090985 0.053412 0.057565 0.092962 -0.023934 -0.026425 0.052414 0.040924 0.038560 0.027939 0.102926 0.043409 -0.006530 0.053776 0.047633 0.052716 0.059443 -0.010959 0.064041 0.059325 0.119249 0.053897 0.025874 -0.025250 -0.017754 -0.005120 0.004383 -0.052254 -0.025814 0.004379 0.023761 0.029248 0.051326 0.006078 -0.035899 -0.031618 -0.021196 -0.069049 -0.050311 -0.026095 -0.090068 -0.069464 -0.014225 -0.055524 -0.077689 -0.002497 -0.139032 -0.098924 -0.097084 -0.193867 -0.058430 0.062693 -0.069879 -0.157954 0.029294 0.012048 -0.061846 0.028063 -0.090831 0.274537 0.167690 0.217536 0.271932 0.328259 0.258073 0.323339 0.341383 0.411702 0.229045 0.298114 0.124464 -0.017761 -0.696990
0.072396 0.072899 0.074408 0.076922 0.080441 0.084964 0.090489 0.097016 0.104542 0.113063 0.122578 0.133081 0.144566 0.157029 0.170460 0.184852 0.200191 0.216467 0.233664 0.251763 0.270747 0.290590 0.311268 0.332751 0.355006 0.377995 0.401677 0.426007 0.450932 0.476397 0.502342 0.528698 0.555392 0.582347 0.609475 0.636686 0.663881 0.690955 0.717794 0.744281 0.770290 0.795687 0.820335 0.844087 0.866791 0.888291 0.908425 0.927024 0.943918 0.958934 0.971893 0.982618 0.990930 0.996653 0.999611 0.999633 0.996552 0.990210 0.980455 0.967148 0.950161 0.929382 0.904715 0.876082 0.843428 0.806721 0.765953 0.721145 0.672348 0.619646 0.563154 0.503025 0.439448 0.372652 0.302903 0.230508 0.155817 0.079218 0.001139 0.077952 0.157552 0.237119 0.316080 0.393835 0.469755 0.543193 0.613485 0.679958 0.741936 0.798747 0.849731 0.894248 0.931687 0.961475 0.983087 0.996054 0.999972 0.994517 0.979445 0.954611 0.919969 0.875583 0.821635 0.758428 0.686390 0.606078 0.518178 0.423504 0.322994 0.217707 0.108812 0.002416 0.114616 0.226351 0.336125 0.442405 0.543638 0.638279 0.724814 0.801786 0.867820 0.921656 0.962172 0.988412 0.999613 0.995228 0.974948 0.938723 0.886774 0.819604 0.738007 0.643068 0.536154 0.418907 0.293227 0.161245 0.025291 0.112136 0.248418 0.380864 0.506760 0.623431 0.728297 0.818934 0.893139 0.948988 0.984893 0.999654 0.992510 0.963171 0.911855 0.839299 0.746774 0.636071 0.509483 0.369772 0.220117 0.064054 0.094606 0.251861 0.403616 0.545794 0.674448 0.785872 0.876721 0.944118 0.985758 0.999999 0.985941 0.943479 0.873345 0.777117 0.657206 0.516819 0.359889 0.190978 0.015157 0.162131 0.335246 0.498521 0.646452 0.773895 0.876247 0.949638 0.991082 0.998626 0.971454 0.909961 0.815787 0.691799 0.542037 0.371598 0.186495 0.006552 0.200339 0.387453 0.560540 0.712614 0.837342 0.929332 0.984378 0.999682 0.974020 0.907848 0.803340 0.664359 0.496341 0.306121 0.101667 0.108227 0.314310 0.507282 0.678219 0.818992 0.922680 0.983935 0.999284 0.967359 0.889036 0.767459 0.607962 0.417877 0.206225 0.016685 0.239739 0.451561 0.641109 0.798246 0.914318 0.982655 0.998990 0.961769 0.872311 0.734836 0.556301 0.346112 0.115652 0.122301 0.354275 0.566849 0.747455 0.885132 0.971230 0.999992 0.968987 0.879357 0.735843 0.546605 0.322804 0.077987 0.172696 0.413419 0.628682 0.804311 0.928436 0.992329 0.991070 0.923982 0.794792 0.611498 0.385950 0.133115 0.129857 0.384776 0.613685 0.800109 0.930306 0.994305 0.986743 0.907372 0.761215 0.558331 0.313193 0.043710 0.230034 0.487267 0.708106 0.875115 0.974738 0.998453 0.943580 0.813637 0.618220 0.372372 0.095495 0.190125 0.461096 0.694826 0.871441 0.975526 0.997532 0.934743 0.791674 0.579852 0.316974 0.025519 0.269145 0.540924 0.765347 0.921773 0.995385 0.978660 0.872237 0.685050 0.433688 0.141008 0.165864 0.458005 0.707446 0.889850 0.986965 0.988543 0.893516 0.710315 0.456243 0.155941 0.160912 0.462504 0.718074 0.901081 0.992033 0.980673 0.867235 0.662661 0.387670 0.070769 0.254618 0.553650 0.793805 0.948462 0.999951 0.941686 0.779127 0.529434 0.219775 0.115518 0.438693 0.712825 0.906071 0.995443 0.969675 0.830768 0.594038 0.286569 0.055762 0.392399 0.682873 0.891728 0.992907 0.973139 0.833829 0.591176 0.274445 0.077425 0.420525 0.711445 0.912800 0.998130 0.955516 0.789405 0.520356 0.182658 0.179919
1.000000 1.000000 1.000000 1.000000 1.000000 1.000000 1.000000 1.000000 1.000000 1.000000 1.000000 1.000000 1.000000 1.000000 1.000000 1.000000 1.000000 1.000000 1.000000 1.000000 1.000000 1.000000 1.000000 1.000000 1.000000 1.000000 1.000000 1.000000 1.000000 1.000000 1.000000 1.000000 1.000000 1.000000 1.000000 1.000000 1.000000 1.000000 1.000000 1.000000 1.000000 1.000000 1.000000 1.000000 1.000000 1.000000 1.000000 1.000000 1.000000 1.000000 1.000000 1.000000 0.919282 0.919282 0.919282 0.912686 0.912686 0.912686 0.912686 0.912686 0.912686 0.912686 0.912686 0.912686 0.912686 0.912686 0.912686 0.912686 0.912686 0.912686 0.912686 0.912686 0.912686 0.912686 0.912686 0.912686 0.912686 0.912686 0.912686 0.912686 0.912686 0.912686 0.912686 0.912686 0.912686 0.912686 0.912686 0.912686 0.912686 0.912686 0.912686 0.912686 0.912686 0.912686 0.912686 0.912686 0.941658 0.943055 0.951329 0.950885 0.950302 0.948309 0.947093 0.946757 0.946667 0.947005 0.947714 0.948677 0.954889 0.956123 0.960516 0.962200 0.962384 0.964127 0.964843 0.964472 0.956052 0.955823 0.954413 0.953883 0.956409 0.955518 0.954781 0.955754 0.955660 0.955987 0.955982 0.955332 0.954298 0.953249 0.952346 0.951953 0.951761 0.952480 0.952890 0.954329 0.957572 0.958169 0.958307 0.956720 0.955497 0.956767 0.956000 0.955316 0.943561 0.943067 0.941739 0.941785 0.944884 0.944960 0.945550 0.946167 0.947941 0.948305 0.943902 0.943714 0.936731 0.934046 0.932051 0.926535 0.921757 0.923579 0.925501 0.925972 0.926131 0.920671 0.920693 0.918816 0.914757 0.917221 0.917593 0.918869 0.920219 0.915730 0.915070 0.913855 0.912254 0.904643 0.892505 0.891339 0.886641 0.891588 0.891580 0.890471 0.893506 0.882705 0.867623 0.835696 0.838082 0.841320 0.831495 0.826714 0.826712 0.827483 0.831856 0.825332 0.823667 0.818198 0.806111 0.800518 0.793202 0.779808 0.781361 0.772929 0.762895 0.758468 0.782521 0.776516 0.787533 0.791885 0.791583 0.788479 0.780616 0.770428 0.769169 0.763349 0.759643 0.737987 0.730163 0.730315 0.727092 0.716602 0.720673 0.707971 0.708352 0.696588 0.701233 0.706288 0.709622 0.705183 0.699975 0.691961 0.689049 0.701253 0.715320 0.711525 0.708410 0.710875 0.700842 0.691310 0.688917 0.692605 0.687155 0.665716 0.673444 0.699673 0.666090 0.655706 0.662560 0.667868 0.658378 0.660560 0.640747 0.634153 0.612474 0.629847 0.635197 0.651998 0.649781 0.650013 0.660671 0.666599 0.677507 0.678859 0.680486 0.640416 0.643279 0.664120 0.671219 0.657579 0.646196 0.648910 0.646251 0.681669 0.670927 0.626679 0.623210 0.619702 0.579925 0.557539 0.556399 0.560814 0.587059 0.581365 0.560672 0.538887 0.543343 0.547972 0.549944 0.548425 0.535178 0.541992 0.528426 0.504863 0.513305 0.519287 0.516834 0.502559 0.498541 0.508961 0.484094 0.519035 0.492020 0.468103 0.487963 0.485157 0.473365 0.399158 0.414737 0.401673 0.394043 0.348506 0.358507 0.367164 0.351375 0.276370 0.267959 0.268945 0.266737 0.248504 0.230080 0.219044 0.206532 0.185545 0.125916 0.087536 0.087799 0.090211 0.114304 0.074194 0.123210 0.187558 0.187995 0.187995 0.187995 0.187995 0.187995 0.187995 0.187995 0.187995 0.163285 0.163285 0.163285 0.163285 0.163285 0.163285 0.163285 0.163285 0.163285 0.187995 0.187995 0.187995 0.187995 0.187995 0.187995 0.187995 0.187995 0.187995 0.187995 0.187995 0.187995 0.187995 0.187995
0.000000 0.000000 0.000000 0.000000 0.000000 0.000000 0.000000 0.000000 0.000000 0.000000 0.000000 0.000000 0.000000 0.000000 0.000000 0.000000 0.000000 0.000000 0.000000 0.000000 0.000000 0.000000 0.000000 0.000000 0.000000 0.000000 0.000000 0.000000 0.000000 0.000000 0.000000 0.000000 0.000000 0.000000 0.000000 0.000000 0.000000 0.000000 0.000000 0.000000 0.000000 0.000000 0.000000 0.000000 0.000000 0.000000 0.000000 0.000000 0.000000 0.000000 0.000000 0.000000 0.180334 0.180334 0.180334 0.199007 0.199007 0.199007 0.199007 0.199007 0.199007 0.199007 0.199007 0.199007 0.199007 0.199007 0.199007 0.199007 0.199007 0.199007 0.199007 0.199007 0.199007 0.199007 0.199007 0.199007 0.199007 0.199007 0.199007 0.199007 0.199007 0.199007 0.199007 0.199007 0.199007 0.199007 0.199007 0.199007 0.199007 0.199007 0.199007 0.199007 0.199007 0.199007 0.199007 0.199007 0.225018 0.225018 0.225018 0.225018 0.225018 0.225018 0.225018 0.225018 0.225018 0.225018 0.225018 0.225018 0.225018 0.225018 0.225018 0.225018 0.225018 0.225018 0.225018 0.225018 0.225018 0.225018 0.225018 0.225018 0.225018 0.225018 0.225018 0.225018 0.225018 0.244339 0.244339 0.244339 0.244339 0.244339 0.244339 0.244339 0.244339 0.244339 0.244339 0.244339 0.244339 0.244339 0.244339 0.244339 0.244339 0.244339 0.244339 0.244339 0.244339 0.244339 0.244339 0.244339 0.251976 0.251976 0.251976 0.251976 0.251976 0.251976 0.251976 0.251976 0.251976 0.251976 0.251976 0.251976 0.251976 0.251976 0.251976 0.251976 0.251976 0.251976 0.251976 0.251976 0.264906 0.264906 0.264906 0.264906 0.264906 0.264906 0.264906 0.264906 0.264906 0.264906 0.264906 0.264906 0.264906 0.264906 0.264906 0.264906 0.264906 0.264906 0.264906 0.264906 0.264906 0.264906 0.264906 0.264906 0.264906 0.264906 0.264906 0.264906 0.264906 0.264906 0.264906 0.264906 0.264906 0.264906 0.264906 0.264906 0.264906 0.264906 0.264906 0.264906 0.264906 0.264906 0.264906 0.264906 0.264906 0.264906 0.264906 0.264906 0.264906 0.264906 0.264906 0.264906 0.264906 0.264906 0.264906 0.264906 0.264906 0.264906 0.264906 0.264906 0.264906 0.264906 0.264906 0.264906 0.264906 0.264906 0.264906 0.264906 0.264906 0.264906 0.264906 0.264906 0.264906 0.264906 0.264906 0.260378 0.260378 0.260378 0.260378 0.260378 0.260378 0.260378 0.260378 0.260378 0.260378 0.260378 0.260378 0.260378 0.264906 0.264906 0.264906 0.264906 0.264906 0.264906 0.264906 0.264906 0.264906 0.264906 0.264906 0.264906 0.269680 0.269680 0.269680 0.269680 0.269680 0.269680 0.269680 0.269680 0.269680 0.269680 0.269680 0.264906 0.264906 0.264906 0.264906 0.264906 0.264906 0.264906 0.264906 0.264906 0.264906 0.264906 0.256074 0.256074 0.256074 0.256074 0.256074 0.256074 0.256074 0.256074 0.256074 0.256074 0.256074 0.264906 0.264906 0.264906 0.264906 0.264906 0.264906 0.264906 0.264906 0.264906 0.264906 0.260378 0.260378 0.260378 0.260378 0.260378 0.260378 0.260378 0.260378 0.260378 0.260378 0.264906 0.264906 0.264906 0.264906 0.264906 0.264906 0.264906 0.264906 0.264906 0.251976 0.251976 0.251976 0.251976 0.251976 0.251976 0.251976 0.251976 0.251976 0.251976 0.256074 0.256074 0.256074 0.256074 0.256074 0.256074 0.256074 0.256074 0.256074 0.251976 0.251976 0.251976 0.251976 0.251976 0.251976 0.251976 0.251976 0.251976 0.251976 0.251976 0.251976 0.251976 0.251976
