# Output from CTFFind version 4.1.9, run on 2019-11-03 20:05:59
# Input file: stack6_bm3d_averaged_1_6.0_0_1000_half.mrc ; Number of micrographs: 1
# Pixel size: 3.000 Angstroms ; acceleration voltage: 300.0 keV ; spherical aberration: 0.00 mm ; amplitude contrast: 0.07
# Box size: 512 pixels ; min. res.: 30.0 Angstroms ; max. res.: 5.0 Angstroms ; min. def.: 5000.0 um; max. def. 50000.0 um; num. frames averaged: 1
# 6 lines per micrograph: #1 - spatial frequency (1/Angstroms); #2 - 1D rotational average of spectrum (assuming no astigmatism); #3 - 1D rotational average of spectrum; #4 - CTF fit; #5 - cross-correlation between spectrum and CTF fit; #6 - 2sigma of expected cross correlation of noise
0.000000 0.000651 0.001302 0.001953 0.002604 0.003255 0.003906 0.004557 0.005208 0.005859 0.006510 0.007161 0.007812 0.008464 0.009115 0.009766 0.010417 0.011068 0.011719 0.012370 0.013021 0.013672 0.014323 0.014974 0.015625 0.016276 0.016927 0.017578 0.018229 0.018880 0.019531 0.020182 0.020833 0.021484 0.022135 0.022786 0.023438 0.024089 0.024740 0.025391 0.026042 0.026693 0.027344 0.027995 0.028646 0.029297 0.029948 0.030599 0.031250 0.031901 0.032552 0.033203 0.033854 0.034505 0.035156 0.035807 0.036458 0.037109 0.037760 0.038411 0.039062 0.039714 0.040365 0.041016 0.041667 0.042318 0.042969 0.043620 0.044271 0.044922 0.045573 0.046224 0.046875 0.047526 0.048177 0.048828 0.049479 0.050130 0.050781 0.051432 0.052083 0.052734 0.053385 0.054036 0.054688 0.055339 0.055990 0.056641 0.057292 0.057943 0.058594 0.059245 0.059896 0.060547 0.061198 0.061849 0.062500 0.063151 0.063802 0.064453 0.065104 0.065755 0.066406 0.067057 0.067708 0.068359 0.069010 0.069661 0.070312 0.070964 0.071615 0.072266 0.072917 0.073568 0.074219 0.074870 0.075521 0.076172 0.076823 0.077474 0.078125 0.078776 0.079427 0.080078 0.080729 0.081380 0.082031 0.082682 0.083333 0.083984 0.084635 0.085286 0.085938 0.086589 0.087240 0.087891 0.088542 0.089193 0.089844 0.090495 0.091146 0.091797 0.092448 0.093099 0.093750 0.094401 0.095052 0.095703 0.096354 0.097005 0.097656 0.098307 0.098958 0.099609 0.100260 0.100911 0.101562 0.102214 0.102865 0.103516 0.104167 0.104818 0.105469 0.106120 0.106771 0.107422 0.108073 0.108724 0.109375 0.110026 0.110677 0.111328 0.111979 0.112630 0.113281 0.113932 0.114583 0.115234 0.115885 0.116536 0.117188 0.117839 0.118490 0.119141 0.119792 0.120443 0.121094 0.121745 0.122396 0.123047 0.123698 0.124349 0.125000 0.125651 0.126302 0.126953 0.127604 0.128255 0.128906 0.129557 0.130208 0.130859 0.131510 0.132161 0.132812 0.133464 0.134115 0.134766 0.135417 0.136068 0.136719 0.137370 0.138021 0.138672 0.139323 0.139974 0.140625 0.141276 0.141927 0.142578 0.143229 0.143880 0.144531 0.145182 0.145833 0.146484 0.147135 0.147786 0.148438 0.149089 0.149740 0.150391 0.151042 0.151693 0.152344 0.152995 0.153646 0.154297 0.154948 0.155599 0.156250 0.156901 0.157552 0.158203 0.158854 0.159505 0.160156 0.160807 0.161458 0.162109 0.162760 0.163411 0.164062 0.164714 0.165365 0.166016 0.166667 0.167318 0.167969 0.168620 0.169271 0.169922 0.170573 0.171224 0.171875 0.172526 0.173177 0.173828 0.174479 0.175130 0.175781 0.176432 0.177083 0.177734 0.178385 0.179036 0.179688 0.180339 0.180990 0.181641 0.182292 0.182943 0.183594 0.184245 0.184896 0.185547 0.186198 0.186849 0.187500 0.188151 0.188802 0.189453 0.190104 0.190755 0.191406 0.192057 0.192708 0.193359 0.194010 0.194661 0.195312 0.195964 0.196615 0.197266 0.197917 0.198568 0.199219 0.199870 0.200521 0.201172 0.201823 0.202474 0.203125 0.203776 0.204427 0.205078 0.205729 0.206380 0.207031 0.207682 0.208333 0.208984 0.209635 0.210286 0.210938 0.211589 0.212240 0.212891 0.213542 0.214193 0.214844 0.215495 0.216146 0.216797 0.217448 0.218099 0.218750 0.219401 0.220052 0.220703 0.221354 0.222005 0.222656 0.223307 0.223958 0.224609 0.225260 0.225911 0.226562 0.227214 0.227865 0.228516 0.229167 0.229818 0.230469 0.231120 0.231771 0.232422 0.233073 0.233724 0.234375 0.235026 0.235677
       0.31862        0.31862        0.31862        0.31862        0.31862        0.31862        0.31862        0.31862        0.31862        0.31862        0.31862        0.31862        0.31862        0.31862        0.31862        0.31862        0.31862        0.31862        0.31862        0.31862        0.31862        0.31862        0.31862        0.31862        0.31862        0.31862        0.31862        0.31862        0.31862        0.31862        0.31862        0.31862        0.31862        0.31862        0.31862        0.31862        0.31862        0.31862        0.31862        0.31862        0.31862        0.31862        0.31862        0.31862        0.31862        0.31862        0.31862        0.31862        0.31862        0.31862        0.31862        0.59790        0.71780        0.35913        0.17898        0.13076       -0.14177        0.10906        0.03351        0.03626        0.09070        0.30726        0.31822        0.24480        0.14427       -0.03892       -0.01288        0.04426       -0.11498       -0.12204       -0.07885       -0.09276       -0.20477       -0.13325       -0.24697       -0.26408       -0.26086       -0.32328       -0.39909       -0.33473       -0.24209       -0.21105       -0.31366       -0.23128       -0.28221       -0.22319       -0.15158       -0.09668       -0.06290        0.00159        0.04103        0.13433        0.17693        0.21808        0.33917        0.40630        0.35681        0.46887        0.54573        0.55439        0.63544        0.56639        0.59815        0.60008        0.60835        0.60786        0.55464        0.58093        0.54612        0.39171        0.33597        0.36879        0.34413        0.19927        0.17600        0.14885        0.09569        0.09968        0.01893        0.07801        0.05812        0.01695        0.10911        0.17009        0.26455        0.35227        0.35036        0.37799        0.45161        0.48695        0.41792        0.64590        0.54050        0.48203        0.57203        0.49914        0.54211        0.50462        0.37363        0.31103        0.28811        0.23869        0.22873        0.20183        0.18137        0.14761        0.22872        0.20928        0.24430        0.21299        0.26825        0.32186        0.33533        0.44458        0.43762        0.41616        0.42260        0.47200        0.43790        0.42657        0.39511        0.40044        0.33627        0.28496        0.25247        0.25529        0.25222        0.19856        0.17485        0.23119        0.24090        0.27613        0.34636        0.36646        0.41741        0.39971        0.43030        0.46820        0.45925        0.42721        0.38813        0.41390        0.37164        0.32620        0.33381        0.31719        0.25954        0.27761        0.27527        0.24075        0.30736        0.28341        0.29860        0.32373        0.38238        0.41323        0.40580        0.43119        0.37732        0.41793        0.39268        0.31184        0.28891        0.25168        0.26716        0.23115        0.20596        0.29713        0.35538        0.32265        0.29487        0.34954        0.27318        0.33192        0.38497        0.37452        0.36080        0.38257        0.33177        0.34952        0.33128        0.29182        0.28249        0.24746        0.29943        0.31223        0.32660        0.34329        0.38097        0.37360        0.37289        0.32640        0.35055        0.34534        0.32880        0.32264        0.29129        0.28647        0.25782        0.32698        0.33133        0.32828        0.29889        0.33571        0.34196        0.33233        0.34834        0.32831        0.29538        0.29314        0.29642        0.26916        0.25251        0.24369        0.24715        0.26506        0.25270        0.29321        0.28227        0.32130        0.33398        0.26478        0.29875        0.27676        0.22105        0.27226        0.25388        0.25099        0.28515        0.31066        0.30896        0.30264        0.30345        0.30048        0.32055        0.33899        0.28664        0.31767        0.31310        0.36210        0.28387        0.27038        0.26928        0.31112        0.32194        0.33491        0.34996        0.30908        0.23051        0.29063        0.25469        0.24959        0.24951        0.25358        0.28982        0.22762        0.29808        0.31849        0.35481        0.31393        0.29427        0.25843        0.27910        0.28372        0.24064        0.26425        0.27680        0.30735        0.33775        0.32138        0.29334        0.28628        0.31898        0.26458        0.23281        0.19019        0.30388        0.33733        0.33443        0.31655        0.29698        0.23583        0.21206        0.25050        0.25013        0.24924        0.27249        0.28308        0.24857        0.25431        0.23883        0.29070        0.25581        0.25450        0.26410        0.25599        0.18866        0.24221        0.24515        0.23134        0.29041        0.24999        0.25257        0.21211        0.21446        0.26658        0.23048        0.23704        0.15825        0.15222        0.31785        0.20518        0.21239        0.28512        0.17070        0.16377        0.14795        0.25184        0.19308        0.15543       -0.05314       -0.59301       -0.92781
2.328140 2.308349 2.288646 2.269032 2.249506 2.230068 2.210719 2.191457 2.172284 2.153199 2.134203 2.115295 2.096475 2.077743 2.059100 2.040544 2.022078 2.003699 1.985409 1.967207 1.949093 1.931067 1.913130 1.895281 1.877520 1.859848 1.842264 1.824768 1.807360 1.790041 1.772810 1.755667 1.738612 1.721646 1.704768 1.687978 1.671277 1.654663 1.638138 1.621702 1.605353 1.589093 1.572921 1.556838 1.540842 1.524935 1.509116 1.493386 1.477744 1.462190 1.446724 1.806201 2.138490 1.480182 1.324554 1.079340 0.521758 0.911747 0.817114 0.830734 0.700046 1.377829 1.197697 1.212347 0.973722 0.622830 0.482570 0.745032 0.575045 0.255393 0.293454 0.478970 0.230563 0.254882 0.109420 0.002079 -0.016140 -0.010639 -0.303398 -0.166872 -0.002514 -0.029940 -0.095268 -0.017608 -0.128039 -0.109298 0.063347 0.169835 0.237814 0.273496 0.360112 0.602684 0.548730 0.628586 0.819044 1.020512 0.796690 1.209728 1.162456 1.229927 1.334949 1.234689 1.175248 1.325936 1.209029 1.337177 1.167716 1.130901 1.190516 0.951197 0.668284 0.727574 0.778028 0.480615 0.410070 0.357325 0.209121 0.193627 0.041715 0.192239 0.155360 0.024744 0.114299 0.227947 0.344475 0.603652 0.596198 0.575437 0.701275 0.874143 0.582388 1.017516 1.015111 0.758135 0.913152 0.755390 0.841381 0.877561 0.607752 0.392750 0.400027 0.340128 0.213594 0.193663 0.170745 -0.011238 0.205653 0.172973 0.238603 0.127000 0.260309 0.321825 0.283164 0.488449 0.591567 0.517683 0.361953 0.670245 0.552090 0.463505 0.509460 0.440429 0.299250 0.329740 0.123921 0.193413 0.040623 0.197591 -0.064875 0.052401 0.041524 0.242962 0.083071 0.378924 0.324801 0.381678 0.396795 0.399429 0.564900 0.401269 0.373982 0.424686 0.221387 0.330873 0.147381 0.265118 0.077220 0.116332 0.095682 0.081605 0.046006 0.158956 0.065543 0.148575 0.237361 0.278132 0.342782 0.269834 0.338165 0.257550 0.295784 0.180402 0.099030 0.034956 -0.010050 0.020242 -0.083709 -0.059843 0.110608 0.206240 0.067916 0.109151 0.108531 0.021550 0.175983 0.234511 0.183257 0.217498 0.138854 0.139472 0.112019 0.105048 0.053082 -0.075232 -0.022592 0.140280 0.013128 0.136569 0.108123 0.228838 0.210948 0.183902 0.129473 0.188019 0.101650 0.121015 0.112955 0.046102 -0.008004 0.014533 0.126758 0.133571 0.112535 0.053591 0.147322 0.119478 0.064982 0.132576 0.034826 -0.012629 0.024497 -0.002269 -0.045230 -0.073720 -0.101648 -0.036172 -0.058504 -0.079961 0.016257 0.002876 0.080364 0.078430 -0.063245 0.057100 -0.046755 -0.111429 0.027189 -0.063907 -0.077523 0.039941 0.073020 0.026560 0.057954 -0.031489 0.048158 0.136250 -0.011733 -0.015938 0.089857 0.040124 0.127702 -0.056789 -0.032365 -0.040582 0.098139 0.036686 0.072044 0.145547 0.010978 -0.094768 0.007172 -0.050290 -0.058730 -0.054573 -0.054948 0.022190 -0.143375 0.106909 0.078446 0.177063 0.041709 -0.000093 -0.006986 0.016540 0.059953 -0.069286 0.029765 0.017300 0.109507 0.112553 0.141662 0.077551 0.084648 0.171882 -0.027839 0.005445 -0.130981 0.173223 0.169909 0.164812 0.139450 0.062465 -0.035238 -0.074946 -0.022454 -0.000181 -0.008324 0.034752 0.082032 -0.024027 0.003549 0.035533 0.078622 0.056092 0.048689 0.072471 0.001841 -0.039154 0.029793 0.050730 0.006571 0.149403 0.048857 0.011354 0.044708 0.026683 0.104026 0.132677 0.070651 -0.062043 -0.178718 0.401607 0.447797 0.356782 0.551605 0.256171 0.300303 0.225214 0.538392 0.362461 0.291261 0.193320 -0.859000
0.072396 0.072838 0.074163 0.076371 0.079462 0.083435 0.088289 0.094022 0.100634 0.108122 0.116484 0.125716 0.135815 0.146776 0.158594 0.171262 0.184772 0.199116 0.214282 0.230259 0.247032 0.264586 0.282903 0.301961 0.321739 0.342209 0.363344 0.385111 0.407474 0.430396 0.453833 0.477738 0.502061 0.526747 0.551735 0.576960 0.602354 0.627843 0.653346 0.678779 0.704051 0.729069 0.753731 0.777931 0.801559 0.824499 0.846629 0.867825 0.887956 0.906890 0.924488 0.940610 0.955112 0.967851 0.978680 0.987451 0.994019 0.998237 0.999964 0.999060 0.995388 0.988821 0.979236 0.966518 0.950564 0.931282 0.908590 0.882425 0.852736 0.819493 0.782682 0.742313 0.698416 0.651047 0.600285 0.546238 0.489041 0.428857 0.365881 0.300336 0.232478 0.162594 0.091002 0.018050 0.055883 0.130388 0.205031 0.279348 0.352856 0.425047 0.495396 0.563366 0.628407 0.689964 0.747479 0.800402 0.848190 0.890315 0.926273 0.955588 0.977820 0.992569 0.999485 0.998277 0.988713 0.970632 0.943948 0.908657 0.864842 0.812675 0.752424 0.684454 0.609231 0.527317 0.439375 0.346165 0.248540 0.147440 0.043885 0.061028 0.166143 0.270251 0.372106 0.470437 0.563965 0.651424 0.731572 0.803218 0.865233 0.916578 0.956321 0.983654 0.997916 0.998607 0.985407 0.958192 0.917039 0.862242 0.794319 0.714007 0.622269 0.520285 0.409446 0.291336 0.167716 0.040506 0.088250 0.216406 0.341757 0.462066 0.575119 0.678750 0.770902 0.849658 0.913296 0.960323 0.989521 0.999980 0.991137 0.962795 0.915150 0.848800 0.764752 0.664419 0.549605 0.422480 0.285552 0.141622 0.006269 0.154897 0.300927 0.440980 0.571721 0.689935 0.792613 0.877034 0.940842 0.982127 0.999484 0.992074 0.959665 0.902665 0.822136 0.719788 0.597962 0.459586 0.308120 0.147478 0.018066 0.183983 0.345614 0.498297 0.637510 0.759000 0.858929 0.934004 0.981593 0.999836 0.987727 0.945176 0.873050 0.773168 0.648289 0.502048 0.338864 0.163824 0.017463 0.199040 0.374797 0.538674 0.684877 0.808085 0.903659 0.967832 0.997874 0.992225 0.950588 0.873990 0.764777 0.626575 0.464192 0.283467 0.091080 0.105682 0.299199 0.481803 0.646095 0.785242 0.893285 0.965408 0.998170 0.989698 0.939809 0.850073 0.723801 0.565943 0.382939 0.182460 0.026882 0.235900 0.435226 0.615737 0.768976 0.887568 0.965597 0.998919 0.985421 0.925170 0.820481 0.675864 0.497862 0.294798 0.076395 0.146661 0.363236 0.562304 0.733521 0.867767 0.957665 0.998014 0.986118 0.922006 0.808499 0.651135 0.457938 0.239048 0.006209 0.227834 0.450029 0.647754 0.809529 0.925727 0.989163 0.995583 0.943987 0.836772 0.679681 0.481538 0.253798 0.009912 0.235431 0.467203 0.670938 0.833664 0.944749 0.996643 0.985427 0.911160 0.777971 0.593885 0.370404 0.121820 0.135662 0.384967 0.609279 0.793179 0.923751 0.991510 0.991152 0.922021 0.788260 0.598637 0.366026 0.106581 0.161341 0.418481 0.646035 0.827068 0.947796 0.998685 0.975268 0.878586 0.715243 0.497021 0.240102 0.036101 0.310362 0.561273 0.768927 0.916516 0.991754 0.987952 0.904681 0.747947 0.529842 0.267673 0.017345 0.301778 0.561874 0.775578 0.924413 0.995148 0.981031 0.882517 0.707374 0.470168 0.191118 0.105567 0.393759 0.647693 0.844311 0.965377 0.999256 0.942097 0.798357 0.580554 0.308267 0.006448 0.296823 0.572914 0.795383 0.942524 0.999570 0.960250 0.827572 0.613716 0.339009 0.030078 0.282680 0.568056 0.797160 0.946401 0.999962
1.000000 1.000000 1.000000 1.000000 1.000000 1.000000 1.000000 1.000000 1.000000 1.000000 1.000000 1.000000 1.000000 1.000000 1.000000 1.000000 1.000000 1.000000 1.000000 1.000000 1.000000 1.000000 1.000000 1.000000 1.000000 1.000000 1.000000 1.000000 1.000000 1.000000 1.000000 1.000000 1.000000 1.000000 1.000000 1.000000 1.000000 1.000000 1.000000 1.000000 1.000000 1.000000 1.000000 1.000000 1.000000 1.000000 1.000000 1.000000 1.000000 1.000000 1.000000 1.000000 0.781046 0.781046 0.781046 0.781046 0.781046 0.781046 0.781046 0.766186 0.766186 0.766186 0.766186 0.766186 0.766186 0.766186 0.766186 0.766186 0.766186 0.766186 0.766186 0.766186 0.766186 0.766186 0.766186 0.766186 0.766186 0.766186 0.766186 0.766186 0.766186 0.766186 0.766186 0.766186 0.766186 0.766186 0.766186 0.766186 0.766186 0.766186 0.766186 0.766186 0.766186 0.766186 0.766186 0.766186 0.766186 0.766186 0.766186 0.766186 0.766186 0.766186 0.766186 0.910777 0.912091 0.914831 0.909756 0.911581 0.909517 0.903069 0.906031 0.905844 0.905680 0.906649 0.908159 0.910008 0.915043 0.921487 0.923284 0.931010 0.934346 0.935624 0.935678 0.932770 0.940302 0.937928 0.936185 0.924301 0.927577 0.927205 0.927357 0.926171 0.926290 0.927567 0.927486 0.925370 0.923538 0.921335 0.919538 0.921280 0.920877 0.921064 0.921228 0.921409 0.921315 0.921898 0.918041 0.920300 0.919180 0.915606 0.912253 0.911800 0.912915 0.906046 0.902675 0.893359 0.894569 0.893502 0.898736 0.893687 0.893427 0.894656 0.895419 0.896080 0.893927 0.893980 0.891523 0.893316 0.889859 0.885590 0.881699 0.882057 0.883794 0.891143 0.893809 0.892863 0.889292 0.882410 0.872878 0.870436 0.856949 0.827659 0.828681 0.831983 0.833822 0.834793 0.834121 0.832177 0.827751 0.818904 0.810135 0.814818 0.814516 0.806542 0.797309 0.797798 0.795484 0.803088 0.806302 0.797843 0.800520 0.798428 0.796088 0.796743 0.796650 0.795788 0.790542 0.792752 0.801465 0.802100 0.791244 0.785623 0.781682 0.762414 0.765841 0.772403 0.779602 0.780821 0.776334 0.762740 0.771275 0.765858 0.781760 0.794680 0.793075 0.789159 0.769069 0.727172 0.714935 0.703916 0.706644 0.708054 0.692075 0.685323 0.686239 0.690869 0.639423 0.625227 0.613786 0.612441 0.620327 0.625400 0.618540 0.583727 0.601992 0.599728 0.583171 0.579764 0.547444 0.530721 0.489285 0.491649 0.488578 0.466779 0.449726 0.440212 0.454896 0.465431 0.463421 0.461981 0.433141 0.415886 0.418046 0.416127 0.420418 0.420426 0.426937 0.380472 0.358166 0.343606 0.366009 0.367733 0.367458 0.378046 0.379195 0.377410 0.358165 0.341262 0.330673 0.344750 0.363479 0.371984 0.373912 0.339693 0.323247 0.302285 0.308565 0.350769 0.340485 0.344419 0.338846 0.343509 0.365248 0.348571 0.326849 0.305502 0.345971 0.341912 0.331728 0.306929 0.309780 0.329066 0.330918 0.325880 0.316539 0.355649 0.385900 0.377586 0.383349 0.364832 0.397041 0.444056 0.431486 0.428925 0.450065 0.443411 0.435913 0.406747 0.392825 0.391206 0.366224 0.358987 0.338533 0.323217 0.312287 0.319059 0.343548 0.349537 0.383983 0.360313 0.328050 0.229976 0.305575 0.219841 0.224275 0.224275 0.224275 0.224275 0.224275 0.224275 0.224275 0.224275 0.243004 0.243004 0.243004 0.243004 0.243004 0.243004 0.243004 0.243004 0.243004 0.243004 0.243004 0.243004 0.243004 0.243004 0.243004 0.243004 0.243004 0.243004 0.243004 0.243004 0.243004
0.000000 0.000000 0.000000 0.000000 0.000000 0.000000 0.000000 0.000000 0.000000 0.000000 0.000000 0.000000 0.000000 0.000000 0.000000 0.000000 0.000000 0.000000 0.000000 0.000000 0.000000 0.000000 0.000000 0.000000 0.000000 0.000000 0.000000 0.000000 0.000000 0.000000 0.000000 0.000000 0.000000 0.000000 0.000000 0.000000 0.000000 0.000000 0.000000 0.000000 0.000000 0.000000 0.000000 0.000000 0.000000 0.000000 0.000000 0.000000 0.000000 0.000000 0.000000 0.000000 0.173422 0.173422 0.173422 0.173422 0.173422 0.173422 0.173422 0.191565 0.191565 0.191565 0.191565 0.191565 0.191565 0.191565 0.191565 0.191565 0.191565 0.191565 0.191565 0.191565 0.191565 0.191565 0.191565 0.191565 0.191565 0.191565 0.191565 0.191565 0.191565 0.191565 0.191565 0.191565 0.191565 0.191565 0.191565 0.191565 0.191565 0.191565 0.191565 0.191565 0.191565 0.191565 0.191565 0.191565 0.191565 0.191565 0.191565 0.191565 0.191565 0.191565 0.191565 0.222222 0.222222 0.222222 0.222222 0.222222 0.222222 0.222222 0.222222 0.222222 0.222222 0.222222 0.222222 0.222222 0.222222 0.222222 0.222222 0.222222 0.222222 0.222222 0.222222 0.222222 0.222222 0.222222 0.222222 0.222222 0.222222 0.222222 0.222222 0.222222 0.222222 0.234082 0.234082 0.234082 0.234082 0.234082 0.234082 0.234082 0.234082 0.234082 0.234082 0.234082 0.234082 0.234082 0.234082 0.234082 0.234082 0.234082 0.234082 0.234082 0.234082 0.234082 0.234082 0.234082 0.234082 0.234082 0.244339 0.244339 0.244339 0.244339 0.244339 0.244339 0.244339 0.244339 0.244339 0.244339 0.244339 0.244339 0.244339 0.244339 0.244339 0.244339 0.244339 0.244339 0.244339 0.244339 0.244339 0.248069 0.248069 0.248069 0.248069 0.248069 0.248069 0.248069 0.248069 0.248069 0.248069 0.248069 0.248069 0.248069 0.248069 0.248069 0.248069 0.248069 0.248069 0.248069 0.256074 0.256074 0.256074 0.256074 0.256074 0.256074 0.256074 0.256074 0.256074 0.256074 0.256074 0.256074 0.256074 0.256074 0.256074 0.256074 0.256074 0.256074 0.256074 0.256074 0.256074 0.256074 0.256074 0.256074 0.256074 0.256074 0.256074 0.256074 0.256074 0.256074 0.256074 0.256074 0.256074 0.256074 0.256074 0.256074 0.256074 0.256074 0.256074 0.256074 0.256074 0.256074 0.256074 0.256074 0.256074 0.256074 0.256074 0.256074 0.256074 0.256074 0.256074 0.256074 0.256074 0.256074 0.256074 0.256074 0.256074 0.256074 0.256074 0.256074 0.256074 0.256074 0.260378 0.260378 0.260378 0.260378 0.260378 0.260378 0.260378 0.260378 0.260378 0.260378 0.260378 0.260378 0.260378 0.256074 0.256074 0.256074 0.256074 0.256074 0.256074 0.256074 0.256074 0.256074 0.256074 0.256074 0.256074 0.256074 0.260378 0.260378 0.260378 0.260378 0.260378 0.260378 0.260378 0.260378 0.260378 0.260378 0.260378 0.260378 0.251976 0.251976 0.251976 0.251976 0.251976 0.251976 0.251976 0.251976 0.251976 0.251976 0.251976 0.251976 0.256074 0.256074 0.256074 0.256074 0.256074 0.256074 0.256074 0.256074 0.256074 0.256074 0.256074 0.251976 0.251976 0.251976 0.251976 0.251976 0.251976 0.251976 0.251976 0.251976 0.251976 0.251976 0.260378 0.260378 0.260378 0.260378 0.260378 0.260378 0.260378 0.260378 0.260378 0.260378 0.244339 0.244339 0.244339 0.244339 0.244339 0.244339 0.244339 0.244339 0.244339 0.244339 0.244339 0.244339 0.244339 0.244339 0.244339 0.244339 0.244339 0.244339 0.244339 0.244339 0.244339
