# Output from CTFFind version 4.1.9, run on 2019-11-02 17:46:38
# Input file: stack6_bm3d_averaged_1_1.0_0_1250_half.mrc ; Number of micrographs: 1
# Pixel size: 3.000 Angstroms ; acceleration voltage: 300.0 keV ; spherical aberration: 0.00 mm ; amplitude contrast: 0.07
# Box size: 512 pixels ; min. res.: 30.0 Angstroms ; max. res.: 5.0 Angstroms ; min. def.: 5000.0 um; max. def. 50000.0 um; num. frames averaged: 1
# 6 lines per micrograph: #1 - spatial frequency (1/Angstroms); #2 - 1D rotational average of spectrum (assuming no astigmatism); #3 - 1D rotational average of spectrum; #4 - CTF fit; #5 - cross-correlation between spectrum and CTF fit; #6 - 2sigma of expected cross correlation of noise
0.000000 0.000651 0.001302 0.001953 0.002604 0.003255 0.003906 0.004557 0.005208 0.005859 0.006510 0.007161 0.007812 0.008464 0.009115 0.009766 0.010417 0.011068 0.011719 0.012370 0.013021 0.013672 0.014323 0.014974 0.015625 0.016276 0.016927 0.017578 0.018229 0.018880 0.019531 0.020182 0.020833 0.021484 0.022135 0.022786 0.023438 0.024089 0.024740 0.025391 0.026042 0.026693 0.027344 0.027995 0.028646 0.029297 0.029948 0.030599 0.031250 0.031901 0.032552 0.033203 0.033854 0.034505 0.035156 0.035807 0.036458 0.037109 0.037760 0.038411 0.039062 0.039714 0.040365 0.041016 0.041667 0.042318 0.042969 0.043620 0.044271 0.044922 0.045573 0.046224 0.046875 0.047526 0.048177 0.048828 0.049479 0.050130 0.050781 0.051432 0.052083 0.052734 0.053385 0.054036 0.054688 0.055339 0.055990 0.056641 0.057292 0.057943 0.058594 0.059245 0.059896 0.060547 0.061198 0.061849 0.062500 0.063151 0.063802 0.064453 0.065104 0.065755 0.066406 0.067057 0.067708 0.068359 0.069010 0.069661 0.070312 0.070964 0.071615 0.072266 0.072917 0.073568 0.074219 0.074870 0.075521 0.076172 0.076823 0.077474 0.078125 0.078776 0.079427 0.080078 0.080729 0.081380 0.082031 0.082682 0.083333 0.083984 0.084635 0.085286 0.085938 0.086589 0.087240 0.087891 0.088542 0.089193 0.089844 0.090495 0.091146 0.091797 0.092448 0.093099 0.093750 0.094401 0.095052 0.095703 0.096354 0.097005 0.097656 0.098307 0.098958 0.099609 0.100260 0.100911 0.101562 0.102214 0.102865 0.103516 0.104167 0.104818 0.105469 0.106120 0.106771 0.107422 0.108073 0.108724 0.109375 0.110026 0.110677 0.111328 0.111979 0.112630 0.113281 0.113932 0.114583 0.115234 0.115885 0.116536 0.117188 0.117839 0.118490 0.119141 0.119792 0.120443 0.121094 0.121745 0.122396 0.123047 0.123698 0.124349 0.125000 0.125651 0.126302 0.126953 0.127604 0.128255 0.128906 0.129557 0.130208 0.130859 0.131510 0.132161 0.132812 0.133464 0.134115 0.134766 0.135417 0.136068 0.136719 0.137370 0.138021 0.138672 0.139323 0.139974 0.140625 0.141276 0.141927 0.142578 0.143229 0.143880 0.144531 0.145182 0.145833 0.146484 0.147135 0.147786 0.148438 0.149089 0.149740 0.150391 0.151042 0.151693 0.152344 0.152995 0.153646 0.154297 0.154948 0.155599 0.156250 0.156901 0.157552 0.158203 0.158854 0.159505 0.160156 0.160807 0.161458 0.162109 0.162760 0.163411 0.164062 0.164714 0.165365 0.166016 0.166667 0.167318 0.167969 0.168620 0.169271 0.169922 0.170573 0.171224 0.171875 0.172526 0.173177 0.173828 0.174479 0.175130 0.175781 0.176432 0.177083 0.177734 0.178385 0.179036 0.179688 0.180339 0.180990 0.181641 0.182292 0.182943 0.183594 0.184245 0.184896 0.185547 0.186198 0.186849 0.187500 0.188151 0.188802 0.189453 0.190104 0.190755 0.191406 0.192057 0.192708 0.193359 0.194010 0.194661 0.195312 0.195964 0.196615 0.197266 0.197917 0.198568 0.199219 0.199870 0.200521 0.201172 0.201823 0.202474 0.203125 0.203776 0.204427 0.205078 0.205729 0.206380 0.207031 0.207682 0.208333 0.208984 0.209635 0.210286 0.210938 0.211589 0.212240 0.212891 0.213542 0.214193 0.214844 0.215495 0.216146 0.216797 0.217448 0.218099 0.218750 0.219401 0.220052 0.220703 0.221354 0.222005 0.222656 0.223307 0.223958 0.224609 0.225260 0.225911 0.226562 0.227214 0.227865 0.228516 0.229167 0.229818 0.230469 0.231120 0.231771 0.232422 0.233073 0.233724 0.234375 0.235026 0.235677
       0.31154        0.31154        0.31154        0.31154        0.31154        0.31154        0.31154        0.31154        0.31154        0.31154        0.31154        0.31154        0.31154        0.31154        0.31154        0.31154        0.31154        0.31154        0.31154        0.31154        0.31154        0.31154        0.31154        0.31154        0.31154        0.31154        0.31154        0.31154        0.31154        0.31154        0.31154        0.31154        0.31154        0.31154        0.31154        0.31154        0.31154        0.31154        0.31154        0.31154        0.31154        0.31154        0.31154        0.31154        0.31154        0.31154        0.31154        0.31154        0.31154        0.31154        0.31154        0.63502        0.81707        0.41662        0.31161        0.18910       -0.10605        0.11231       -0.00174        0.03407        0.11743        0.33628        0.42450        0.40471        0.22521       -0.01153        0.04808        0.07207       -0.16911       -0.17942       -0.08637       -0.10844       -0.29301       -0.18770       -0.30209       -0.25752       -0.28529       -0.40261       -0.47483       -0.47689       -0.42051       -0.33870       -0.43802       -0.36720       -0.40993       -0.34957       -0.27389       -0.19939       -0.19371       -0.13496       -0.09170        0.03919        0.08425        0.25127        0.28245        0.37107        0.40321        0.51814        0.59022        0.60857        0.74094        0.70008        0.74130        0.65131        0.66534        0.69673        0.63359        0.61514        0.60868        0.43583        0.39700        0.35759        0.32568        0.22327        0.13207        0.06087        0.05701        0.00085       -0.07906       -0.02923       -0.03103       -0.06994        0.06389        0.16388        0.25511        0.32083        0.33585        0.43016        0.54689        0.59345        0.54256        0.67229        0.56557        0.54096        0.59860        0.63841        0.53176        0.46063        0.40526        0.37755        0.25006        0.21249        0.13276        0.11632        0.05466        0.05753        0.10769        0.16710        0.14788        0.18118        0.21989        0.23822        0.33086        0.45498        0.49101        0.49715        0.52120        0.57956        0.57218        0.52157        0.42283        0.38460        0.36677        0.26992        0.24644        0.21476        0.20680        0.20218        0.18121        0.15919        0.12595        0.19006        0.24756        0.34692        0.38337        0.40746        0.46415        0.53516        0.47577        0.48503        0.42475        0.40295        0.38258        0.36294        0.28888        0.25822        0.19989        0.23416        0.21677        0.19338        0.21839        0.22465        0.24183        0.30100        0.40106        0.40032        0.37376        0.39049        0.45477        0.48312        0.42939        0.35397        0.32465        0.27762        0.26190        0.24862        0.21441        0.28337        0.29278        0.29515        0.31495        0.30994        0.34739        0.37526        0.37271        0.37245        0.35670        0.31911        0.33353        0.31926        0.29699        0.28438        0.27124        0.21579        0.27119        0.27377        0.30237        0.32090        0.34389        0.37577        0.33836        0.31926        0.36140        0.36823        0.26586        0.29498        0.30794        0.24427        0.20990        0.26147        0.27462        0.27707        0.29994        0.30614        0.33441        0.33430        0.35979        0.32577        0.32235        0.30936        0.29385        0.27197        0.24672        0.25463        0.25902        0.27822        0.30017        0.29544        0.29785        0.31552        0.32954        0.26547        0.30408        0.26790        0.25947        0.27494        0.26330        0.26115        0.26474        0.31289        0.28516        0.31512        0.28885        0.27537        0.31045        0.31010        0.33146        0.31501        0.29275        0.25199        0.26046        0.26827        0.26148        0.31233        0.31810        0.33719        0.32282        0.31140        0.25672        0.28279        0.21149        0.20226        0.25044        0.26164        0.25641        0.28672        0.31392        0.29818        0.35338        0.30599        0.26044        0.23177        0.23620        0.29212        0.31136        0.30472        0.26963        0.28043        0.25823        0.31732        0.28092        0.25305        0.26629        0.25210        0.28849        0.25159        0.28833        0.33114        0.29092        0.21386        0.23484        0.28142        0.32069        0.26314        0.26224        0.23900        0.28320        0.29104        0.38107        0.29066        0.27223        0.25790        0.25452        0.21799        0.18261        0.24960        0.21817        0.20301        0.18391        0.19403        0.24049        0.22259        0.24004        0.19644        0.25448        0.22874        0.21063        0.17979        0.15657        0.19248        0.23996        0.14290        0.06841        0.21520        0.19543        0.14705        0.24202        0.15707        0.23087        0.19924       -0.06992       -0.50657       -0.99926
2.866955 2.838708 2.810607 2.782651 2.754841 2.727176 2.699657 2.672283 2.645054 2.617972 2.591034 2.564242 2.537596 2.511095 2.484740 2.458530 2.432465 2.406546 2.380773 2.355145 2.329662 2.304325 2.279134 2.254088 2.229187 2.204432 2.179823 2.155359 2.131040 2.106867 2.082840 2.058957 2.035221 2.011630 1.988184 1.964884 1.941729 1.918720 1.895856 1.873138 1.850566 1.828138 1.805857 1.783720 1.761730 1.739884 1.718185 1.696630 1.675222 1.653958 1.632840 1.929999 2.282989 1.707772 1.748978 1.389140 0.947076 1.205778 1.029621 1.080776 1.035693 1.499248 1.525654 1.549586 1.285719 0.948997 0.829263 1.017166 0.719397 0.492811 0.592550 0.682146 0.423940 0.492966 0.329370 0.370194 0.250050 0.162371 -0.035032 0.004859 0.028976 0.082343 0.041049 0.077980 -0.040998 0.029413 0.113394 0.227644 0.287081 0.211306 0.325019 0.555993 0.453395 0.731519 0.798063 0.883330 0.911658 1.124555 1.146877 1.180587 1.331909 1.240193 1.382587 1.194228 1.115981 1.301187 1.147899 1.056581 1.130752 0.891396 0.740858 0.680234 0.676435 0.462570 0.396187 0.261506 0.226706 0.094082 -0.007829 0.090738 0.026342 -0.063928 0.113451 0.255643 0.306790 0.466667 0.486342 0.556169 0.723821 0.824948 0.662949 0.962943 0.807748 0.656437 0.769852 0.798306 0.713939 0.640995 0.446764 0.502301 0.285237 0.188704 0.140964 0.007094 -0.020045 -0.110117 -0.016555 0.023680 0.090972 -0.048466 0.253835 0.091493 0.208819 0.375174 0.435878 0.529565 0.435459 0.561126 0.663996 0.506961 0.387017 0.335082 0.322273 0.146968 0.137219 0.011340 0.094019 0.024644 0.001007 -0.028276 -0.122262 -0.011221 0.017789 0.107005 0.296360 0.203538 0.355894 0.373704 0.426542 0.415799 0.397514 0.332759 0.228978 0.305103 0.164458 0.159855 0.006946 0.048766 0.064257 -0.022187 -0.007508 0.017700 0.060705 0.074331 0.218332 0.306594 0.243847 0.208938 0.376727 0.404574 0.354020 0.245486 0.174274 0.147243 0.082532 0.072617 0.028180 0.020667 0.134626 0.053270 0.186500 0.089381 0.140749 0.231754 0.216896 0.236162 0.199796 0.199800 0.119190 0.165381 0.124311 0.098186 0.113235 -0.003328 0.030728 0.087516 0.049856 0.151713 0.119412 0.212627 0.203257 0.134693 0.138601 0.224086 0.121031 0.071841 0.089870 0.065269 -0.002171 -0.025430 0.052376 0.074499 0.035781 0.118627 0.112031 0.123937 0.137445 0.173973 0.122688 0.085572 0.104488 0.084128 0.022551 0.012663 0.035987 0.004268 0.074181 0.105480 0.066366 0.066800 0.125071 0.106949 0.016964 0.114925 0.022888 0.025543 0.057310 0.018656 0.014165 0.062832 0.088154 0.022477 0.104707 0.068275 0.023321 0.114855 0.072636 0.092353 0.088731 0.022927 -0.011688 -0.005476 0.038337 0.001589 0.070621 0.097155 0.093001 0.059712 0.138898 -0.018280 0.036640 -0.096836 -0.025174 -0.029806 0.006663 0.016959 0.027476 0.089812 0.060883 0.115786 0.002390 -0.027594 -0.073728 -0.083078 0.071220 0.039540 0.045857 -0.021026 -0.005468 -0.037373 0.053240 0.009025 -0.068683 -0.020317 -0.084940 0.021626 -0.045543 0.021021 0.066811 -0.017419 -0.084450 -0.040700 0.067284 0.042838 -0.010637 0.001436 -0.060485 0.089347 0.073035 0.180202 0.040822 0.014954 0.017481 0.064509 -0.052754 -0.038157 0.057876 0.000899 -0.033968 -0.041977 -0.039126 0.092415 -0.056859 0.102348 -0.016559 0.120628 -0.005943 0.061039 -0.082812 -0.041715 -0.050834 0.108308 -0.036810 -0.240711 0.301423 0.274276 0.208730 0.405456 0.203792 0.300461 0.318963 -0.096380 -1.401447
0.072396 0.072834 0.074149 0.076339 0.079405 0.083346 0.088160 0.093848 0.100406 0.107834 0.116129 0.125287 0.135305 0.146178 0.157902 0.170469 0.183872 0.198103 0.213150 0.229002 0.245646 0.263065 0.281242 0.300157 0.319788 0.340108 0.361091 0.382703 0.404913 0.427680 0.450963 0.474717 0.498891 0.523433 0.548282 0.573377 0.598649 0.624025 0.649428 0.674774 0.699977 0.724941 0.749570 0.773759 0.797400 0.820379 0.842578 0.863873 0.884137 0.903238 0.921043 0.937411 0.952203 0.965276 0.976485 0.985685 0.992732 0.997481 0.999790 0.999522 0.996541 0.990718 0.981930 0.970063 0.955011 0.936679 0.914986 0.889863 0.861256 0.829130 0.793468 0.754270 0.711563 0.665392 0.615831 0.562975 0.506952 0.447913 0.386041 0.321547 0.254675 0.185698 0.114919 0.042673 0.030675 0.104731 0.179075 0.253260 0.326812 0.399240 0.470030 0.538656 0.604578 0.667249 0.726120 0.780642 0.830275 0.874493 0.912787 0.944675 0.969706 0.987470 0.997601 0.999784 0.993767 0.979360 0.956446 0.924986 0.885024 0.836692 0.780212 0.715902 0.644178 0.565552 0.480634 0.390131 0.294844 0.195661 0.093555 0.010426 0.115166 0.219496 0.322198 0.422030 0.517729 0.608036 0.691709 0.767543 0.834390 0.891175 0.936920 0.970759 0.991961 0.999945 0.994299 0.974792 0.941392 0.894271 0.833818 0.760639 0.675563 0.579635 0.474111 0.360448 0.240291 0.115446 0.012137 0.140391 0.267170 0.390277 0.507506 0.616682 0.715706 0.802591 0.875513 0.932850 0.973226 0.995546 0.999034 0.983261 0.948170 0.894095 0.821768 0.732324 0.627293 0.508582 0.378453 0.239482 0.094520 0.053363 0.200939 0.344891 0.481888 0.608662 0.722087 0.819269 0.897618 0.954927 0.989444 0.999935 0.985732 0.946779 0.883652 0.797570 0.690389 0.564576 0.423163 0.269688 0.108114 0.057265 0.221934 0.381277 0.530708 0.665805 0.782448 0.876951 0.946190 0.987718 0.999862 0.981806 0.933647 0.856421 0.752107 0.623593 0.474618 0.309672 0.133887 0.047130 0.227455 0.401046 0.561942 0.704475 0.823478 0.914481 0.973897 0.999179 0.988946 0.943071 0.862730 0.750397 0.609795 0.445798 0.264270 0.071889 0.124101 0.316155 0.496711 0.658494 0.794816 0.899870 0.968992 0.998888 0.987818 0.935710 0.844218 0.716705 0.558144 0.374958 0.174773 0.033871 0.241886 0.440020 0.619269 0.771299 0.888848 0.966095 0.998968 0.985391 0.925439 0.821396 0.677703 0.500813 0.298921 0.081616 0.140559 0.356611 0.555635 0.727381 0.862781 0.954468 0.997195 0.988171 0.927277 0.817139 0.663069 0.472841 0.256342 0.025078 0.208414 0.431239 0.630857 0.795800 0.916354 0.985160 0.997702 0.952639 0.851971 0.700998 0.508098 0.284302 0.042686 0.202350 0.435947 0.643686 0.812482 0.931446 0.992618 0.991543 0.927639 0.804335 0.628941 0.412275 0.168026 0.088059 0.339185 0.568605 0.760735 0.902250 0.983038 0.996973 0.942428 0.822500 0.644894 0.421500 0.167637 0.098949 0.359314 0.594650 0.787665 0.923868 0.992714 0.988466 0.910742 0.764656 0.560555 0.313358 0.041505 0.234371 0.493001 0.714129 0.880114 0.977381 0.997594 0.938427 0.803892 0.604148 0.354801 0.075756 0.210339 0.479911 0.710397 0.882171 0.980249 0.995673 0.926389 0.777577 0.561355 0.295868 0.003825 0.289392 0.557927 0.777739 0.928782 0.996901 0.975225 0.864949 0.675382 0.423256 0.131331 0.173607 0.463175 0.710025 0.890468 0.986793 0.989084 0.896334 0.716712 0.466958 0.170891 0.142764 0.443161 0.700336 0.888238
1.000000 1.000000 1.000000 1.000000 1.000000 1.000000 1.000000 1.000000 1.000000 1.000000 1.000000 1.000000 1.000000 1.000000 1.000000 1.000000 1.000000 1.000000 1.000000 1.000000 1.000000 1.000000 1.000000 1.000000 1.000000 1.000000 1.000000 1.000000 1.000000 1.000000 1.000000 1.000000 1.000000 1.000000 1.000000 1.000000 1.000000 1.000000 1.000000 1.000000 1.000000 1.000000 1.000000 1.000000 1.000000 1.000000 1.000000 1.000000 1.000000 1.000000 1.000000 1.000000 0.834742 0.834742 0.834742 0.834742 0.834742 0.834742 0.834742 0.817074 0.817074 0.817074 0.817074 0.817074 0.817074 0.817074 0.817074 0.817074 0.817074 0.817074 0.817074 0.817074 0.817074 0.817074 0.817074 0.817074 0.817074 0.817074 0.817074 0.817074 0.817074 0.817074 0.817074 0.817074 0.817074 0.817074 0.817074 0.817074 0.817074 0.817074 0.817074 0.817074 0.817074 0.817074 0.817074 0.817074 0.817074 0.817074 0.817074 0.817074 0.817074 0.817074 0.817074 0.954822 0.955419 0.952461 0.951352 0.949669 0.946354 0.942052 0.941622 0.942980 0.943180 0.943786 0.945119 0.946091 0.947692 0.948677 0.949483 0.950287 0.958419 0.962142 0.961871 0.961572 0.952350 0.959168 0.957193 0.954924 0.955709 0.956004 0.956709 0.956589 0.956425 0.955919 0.954572 0.955298 0.955134 0.954389 0.953336 0.951189 0.951145 0.950697 0.950834 0.951810 0.952718 0.953372 0.953899 0.953880 0.954061 0.954049 0.953952 0.949079 0.949104 0.942420 0.943016 0.944118 0.943755 0.942682 0.941222 0.941284 0.941165 0.941098 0.940928 0.941146 0.922180 0.921654 0.921678 0.922024 0.915040 0.904218 0.896979 0.890766 0.891677 0.895884 0.900780 0.901244 0.897964 0.897082 0.880572 0.877493 0.863896 0.860682 0.850017 0.860442 0.861570 0.862895 0.856921 0.856229 0.854806 0.852646 0.842957 0.847369 0.847991 0.844213 0.840576 0.838614 0.836560 0.838765 0.847419 0.844590 0.842807 0.844862 0.834157 0.824973 0.823813 0.825644 0.833668 0.845687 0.844842 0.843857 0.837099 0.833616 0.827415 0.821629 0.821020 0.822709 0.820628 0.824272 0.823804 0.831878 0.821977 0.817079 0.822183 0.832692 0.837881 0.839888 0.842231 0.840247 0.840204 0.822218 0.822973 0.824447 0.775111 0.774902 0.763077 0.762387 0.751205 0.749783 0.746114 0.742658 0.733925 0.715661 0.728070 0.731948 0.705598 0.713487 0.707893 0.696962 0.675696 0.681153 0.694960 0.703931 0.704041 0.705022 0.694561 0.693905 0.703231 0.702497 0.708517 0.701574 0.698011 0.691513 0.693104 0.684532 0.679725 0.677380 0.676943 0.677666 0.674002 0.657326 0.666459 0.658379 0.649494 0.639446 0.601284 0.572513 0.558176 0.549688 0.531491 0.506091 0.519732 0.526073 0.509190 0.499312 0.478906 0.442956 0.432127 0.430689 0.411426 0.399521 0.379109 0.333430 0.345048 0.339181 0.343315 0.327243 0.327740 0.313655 0.262210 0.255427 0.218147 0.235068 0.257868 0.250182 0.229203 0.219612 0.237624 0.236127 0.244539 0.242767 0.259699 0.215126 0.158077 0.180112 0.172936 0.182120 0.164999 0.136473 0.163615 0.159279 0.171192 0.175201 0.128168 0.098770 0.077824 0.061603 0.067621 0.090631 0.104433 0.094480 0.077832 -0.016195 0.016864 0.042087 0.042087 0.042087 0.042087 0.042087 0.042087 0.042087 0.042087 0.042087 0.042087 0.042087 -0.018030 -0.018030 -0.018030 -0.018030 -0.018030 -0.018030 -0.018030 -0.018030 -0.018030 -0.018030 -0.018030 -0.018030 -0.018030 -0.018030 -0.018030 -0.018030 -0.018030 -0.018030 -0.018030
0.000000 0.000000 0.000000 0.000000 0.000000 0.000000 0.000000 0.000000 0.000000 0.000000 0.000000 0.000000 0.000000 0.000000 0.000000 0.000000 0.000000 0.000000 0.000000 0.000000 0.000000 0.000000 0.000000 0.000000 0.000000 0.000000 0.000000 0.000000 0.000000 0.000000 0.000000 0.000000 0.000000 0.000000 0.000000 0.000000 0.000000 0.000000 0.000000 0.000000 0.000000 0.000000 0.000000 0.000000 0.000000 0.000000 0.000000 0.000000 0.000000 0.000000 0.000000 0.000000 0.173422 0.173422 0.173422 0.173422 0.173422 0.173422 0.173422 0.191565 0.191565 0.191565 0.191565 0.191565 0.191565 0.191565 0.191565 0.191565 0.191565 0.191565 0.191565 0.191565 0.191565 0.191565 0.191565 0.191565 0.191565 0.191565 0.191565 0.191565 0.191565 0.191565 0.191565 0.191565 0.191565 0.191565 0.191565 0.191565 0.191565 0.191565 0.191565 0.191565 0.191565 0.191565 0.191565 0.191565 0.191565 0.191565 0.191565 0.191565 0.191565 0.191565 0.191565 0.219529 0.219529 0.219529 0.219529 0.219529 0.219529 0.219529 0.219529 0.219529 0.219529 0.219529 0.219529 0.219529 0.219529 0.219529 0.219529 0.219529 0.219529 0.219529 0.219529 0.219529 0.219529 0.219529 0.219529 0.219529 0.219529 0.219529 0.219529 0.219529 0.219529 0.219529 0.237356 0.237356 0.237356 0.237356 0.237356 0.237356 0.237356 0.237356 0.237356 0.237356 0.237356 0.237356 0.237356 0.237356 0.237356 0.237356 0.237356 0.237356 0.237356 0.237356 0.237356 0.237356 0.237356 0.237356 0.244339 0.244339 0.244339 0.244339 0.244339 0.244339 0.244339 0.244339 0.244339 0.244339 0.244339 0.244339 0.244339 0.244339 0.244339 0.244339 0.244339 0.244339 0.244339 0.244339 0.244339 0.248069 0.248069 0.248069 0.248069 0.248069 0.248069 0.248069 0.248069 0.248069 0.248069 0.248069 0.248069 0.248069 0.248069 0.248069 0.248069 0.248069 0.248069 0.248069 0.248069 0.248069 0.248069 0.248069 0.248069 0.248069 0.248069 0.248069 0.248069 0.248069 0.248069 0.248069 0.248069 0.248069 0.248069 0.248069 0.248069 0.248069 0.256074 0.256074 0.256074 0.256074 0.256074 0.256074 0.256074 0.256074 0.256074 0.256074 0.256074 0.256074 0.256074 0.256074 0.256074 0.256074 0.256074 0.256074 0.256074 0.256074 0.256074 0.256074 0.256074 0.256074 0.256074 0.256074 0.256074 0.256074 0.256074 0.256074 0.256074 0.256074 0.256074 0.256074 0.256074 0.256074 0.256074 0.256074 0.256074 0.256074 0.256074 0.256074 0.256074 0.256074 0.256074 0.260378 0.260378 0.260378 0.260378 0.260378 0.260378 0.260378 0.260378 0.260378 0.260378 0.260378 0.260378 0.260378 0.256074 0.256074 0.256074 0.256074 0.256074 0.256074 0.256074 0.256074 0.256074 0.256074 0.256074 0.256074 0.256074 0.260378 0.260378 0.260378 0.260378 0.260378 0.260378 0.260378 0.260378 0.260378 0.260378 0.260378 0.260378 0.251976 0.251976 0.251976 0.251976 0.251976 0.251976 0.251976 0.251976 0.251976 0.251976 0.251976 0.251976 0.256074 0.256074 0.256074 0.256074 0.256074 0.256074 0.256074 0.256074 0.256074 0.256074 0.256074 0.251976 0.251976 0.251976 0.251976 0.251976 0.251976 0.251976 0.251976 0.251976 0.251976 0.251976 0.248069 0.248069 0.248069 0.248069 0.248069 0.248069 0.248069 0.248069 0.248069 0.248069 0.248069 0.256074 0.256074 0.256074 0.256074 0.256074 0.256074 0.256074 0.256074 0.256074 0.256074 0.256074 0.256074 0.256074 0.256074 0.256074 0.256074 0.256074 0.256074 0.256074
