# Output from CTFFind version 4.1.9, run on 2019-11-03 20:04:05
# Input file: stack11_bm3d_averaged_1_6.0_0_250_half.mrc ; Number of micrographs: 1
# Pixel size: 3.000 Angstroms ; acceleration voltage: 300.0 keV ; spherical aberration: 0.00 mm ; amplitude contrast: 0.07
# Box size: 512 pixels ; min. res.: 30.0 Angstroms ; max. res.: 5.0 Angstroms ; min. def.: 5000.0 um; max. def. 50000.0 um; num. frames averaged: 1
# 6 lines per micrograph: #1 - spatial frequency (1/Angstroms); #2 - 1D rotational average of spectrum (assuming no astigmatism); #3 - 1D rotational average of spectrum; #4 - CTF fit; #5 - cross-correlation between spectrum and CTF fit; #6 - 2sigma of expected cross correlation of noise
0.000000 0.000651 0.001302 0.001953 0.002604 0.003255 0.003906 0.004557 0.005208 0.005859 0.006510 0.007161 0.007812 0.008464 0.009115 0.009766 0.010417 0.011068 0.011719 0.012370 0.013021 0.013672 0.014323 0.014974 0.015625 0.016276 0.016927 0.017578 0.018229 0.018880 0.019531 0.020182 0.020833 0.021484 0.022135 0.022786 0.023438 0.024089 0.024740 0.025391 0.026042 0.026693 0.027344 0.027995 0.028646 0.029297 0.029948 0.030599 0.031250 0.031901 0.032552 0.033203 0.033854 0.034505 0.035156 0.035807 0.036458 0.037109 0.037760 0.038411 0.039062 0.039714 0.040365 0.041016 0.041667 0.042318 0.042969 0.043620 0.044271 0.044922 0.045573 0.046224 0.046875 0.047526 0.048177 0.048828 0.049479 0.050130 0.050781 0.051432 0.052083 0.052734 0.053385 0.054036 0.054688 0.055339 0.055990 0.056641 0.057292 0.057943 0.058594 0.059245 0.059896 0.060547 0.061198 0.061849 0.062500 0.063151 0.063802 0.064453 0.065104 0.065755 0.066406 0.067057 0.067708 0.068359 0.069010 0.069661 0.070312 0.070964 0.071615 0.072266 0.072917 0.073568 0.074219 0.074870 0.075521 0.076172 0.076823 0.077474 0.078125 0.078776 0.079427 0.080078 0.080729 0.081380 0.082031 0.082682 0.083333 0.083984 0.084635 0.085286 0.085938 0.086589 0.087240 0.087891 0.088542 0.089193 0.089844 0.090495 0.091146 0.091797 0.092448 0.093099 0.093750 0.094401 0.095052 0.095703 0.096354 0.097005 0.097656 0.098307 0.098958 0.099609 0.100260 0.100911 0.101562 0.102214 0.102865 0.103516 0.104167 0.104818 0.105469 0.106120 0.106771 0.107422 0.108073 0.108724 0.109375 0.110026 0.110677 0.111328 0.111979 0.112630 0.113281 0.113932 0.114583 0.115234 0.115885 0.116536 0.117188 0.117839 0.118490 0.119141 0.119792 0.120443 0.121094 0.121745 0.122396 0.123047 0.123698 0.124349 0.125000 0.125651 0.126302 0.126953 0.127604 0.128255 0.128906 0.129557 0.130208 0.130859 0.131510 0.132161 0.132812 0.133464 0.134115 0.134766 0.135417 0.136068 0.136719 0.137370 0.138021 0.138672 0.139323 0.139974 0.140625 0.141276 0.141927 0.142578 0.143229 0.143880 0.144531 0.145182 0.145833 0.146484 0.147135 0.147786 0.148438 0.149089 0.149740 0.150391 0.151042 0.151693 0.152344 0.152995 0.153646 0.154297 0.154948 0.155599 0.156250 0.156901 0.157552 0.158203 0.158854 0.159505 0.160156 0.160807 0.161458 0.162109 0.162760 0.163411 0.164062 0.164714 0.165365 0.166016 0.166667 0.167318 0.167969 0.168620 0.169271 0.169922 0.170573 0.171224 0.171875 0.172526 0.173177 0.173828 0.174479 0.175130 0.175781 0.176432 0.177083 0.177734 0.178385 0.179036 0.179688 0.180339 0.180990 0.181641 0.182292 0.182943 0.183594 0.184245 0.184896 0.185547 0.186198 0.186849 0.187500 0.188151 0.188802 0.189453 0.190104 0.190755 0.191406 0.192057 0.192708 0.193359 0.194010 0.194661 0.195312 0.195964 0.196615 0.197266 0.197917 0.198568 0.199219 0.199870 0.200521 0.201172 0.201823 0.202474 0.203125 0.203776 0.204427 0.205078 0.205729 0.206380 0.207031 0.207682 0.208333 0.208984 0.209635 0.210286 0.210938 0.211589 0.212240 0.212891 0.213542 0.214193 0.214844 0.215495 0.216146 0.216797 0.217448 0.218099 0.218750 0.219401 0.220052 0.220703 0.221354 0.222005 0.222656 0.223307 0.223958 0.224609 0.225260 0.225911 0.226562 0.227214 0.227865 0.228516 0.229167 0.229818 0.230469 0.231120 0.231771 0.232422 0.233073 0.233724 0.234375 0.235026 0.235677
       0.34418        0.34418        0.34418        0.34418        0.34418        0.34418        0.34418        0.34418        0.34418        0.34418        0.34418        0.34418        0.34418        0.34418        0.34418        0.34418        0.34418        0.34418        0.34418        0.34418        0.34418        0.34418        0.34418        0.34418        0.34418        0.34418        0.34418        0.34418        0.34418        0.34418        0.34418        0.34418        0.34418        0.34418        0.34418        0.34418        0.34418        0.34418        0.34418        0.34418        0.34418        0.34418        0.34418        0.34418        0.34418        0.34418        0.34418        0.34418        0.34418        0.34418        0.34418        0.69861        0.85846        0.53781        0.10542       -0.02944       -0.38739       -0.18024       -0.28826       -0.11465       -0.05480       -0.11170       -0.05327       -0.16751       -0.20601       -0.21507       -0.30737       -0.31873       -0.44498       -0.36244       -0.42674       -0.42123       -0.39501       -0.40995       -0.45039       -0.50979       -0.55957       -0.55293       -0.52654       -0.35798       -0.32831       -0.29242       -0.27215       -0.18568       -0.17118        0.06009        0.14082        0.17329        0.26479        0.38150        0.45813        0.52346        0.60015        0.59743        0.58365        0.69992        0.80424        0.70459        0.74393        0.62117        0.56901        0.48408        0.43251        0.51259        0.39733        0.26958        0.11598        0.11051        0.09091       -0.01548        0.04212        0.05088        0.00897        0.02736        0.02920        0.23714        0.27114        0.29652        0.43573        0.45416        0.41502        0.59834        0.62058        0.63874        0.72581        0.67732        0.64796        0.65918        0.56096        0.46223        0.41918        0.30432        0.26818        0.18325        0.13563        0.05269        0.06359        0.07270        0.09869        0.15786        0.24409        0.29648        0.42108        0.46530        0.48172        0.56770        0.60458        0.63786        0.61640        0.55992        0.46138        0.47356        0.37938        0.27581        0.21169        0.15721        0.17132        0.15269        0.15840        0.18714        0.32122        0.33507        0.40491        0.44569        0.42731        0.48262        0.56335        0.55522        0.50260        0.45748        0.41312        0.37054        0.34059        0.30778        0.26227        0.24683        0.25270        0.25562        0.22563        0.30942        0.36488        0.38506        0.43990        0.45617        0.46866        0.42717        0.41078        0.40261        0.36365        0.33449        0.27456        0.27897        0.26848        0.24367        0.29443        0.29105        0.35084        0.38227        0.43279        0.47705        0.40909        0.42389        0.43329        0.41207        0.34978        0.32760        0.29366        0.32522        0.27493        0.32220        0.31420        0.33156        0.34010        0.36403        0.31603        0.39077        0.41390        0.38126        0.35096        0.37030        0.31778        0.29511        0.30671        0.32034        0.30850        0.32033        0.34408        0.35559        0.34081        0.36524        0.36394        0.42039        0.38914        0.33953        0.34768        0.29967        0.29348        0.32683        0.32043        0.33032        0.34286        0.34177        0.38685        0.33113        0.33101        0.33824        0.34734        0.30465        0.31310        0.28216        0.30380        0.33066        0.30580        0.33104        0.35734        0.36779        0.29756        0.34031        0.29883        0.29676        0.27944        0.24736        0.30587        0.30618        0.34311        0.33903        0.34325        0.32743        0.34967        0.31529        0.34629        0.30923        0.32406        0.29018        0.33596        0.32715        0.36929        0.32902        0.33569        0.33873        0.29302        0.27613        0.31142        0.25088        0.22958        0.34139        0.32333        0.36672        0.34774        0.36255        0.33354        0.33512        0.34970        0.26567        0.26481        0.31785        0.30059        0.31211        0.31768        0.34072        0.33186        0.29192        0.29096        0.34464        0.32194        0.31859        0.29574        0.32253        0.34021        0.39511        0.36079        0.31962        0.28344        0.30440        0.28974        0.30380        0.27594        0.26729        0.31268        0.32962        0.34484        0.35505        0.33128        0.29254        0.30152        0.27025        0.27733        0.25624        0.30934        0.26442        0.24441        0.29597        0.29078        0.26337        0.29608        0.21735        0.21510        0.24421        0.19349        0.27227        0.34785        0.25361        0.23936        0.31755        0.30466        0.31449        0.31514        0.26888        0.25134        0.18988        0.21079        0.20124        0.27118        0.23507        0.28009        0.35952        0.35766        0.25030        0.17201        0.10370       -0.01323       -0.12134       -0.63594
2.795763 2.766107 2.736612 2.707279 2.678107 2.649097 2.620248 2.591561 2.563035 2.534671 2.506469 2.478427 2.450548 2.422830 2.395273 2.367878 2.340645 2.313572 2.286662 2.259913 2.233325 2.206899 2.180635 2.154532 2.128590 2.102810 2.077192 2.051735 2.026439 2.001306 1.976333 1.951522 1.926873 1.902385 1.878059 1.853894 1.829891 1.806049 1.782368 1.758850 1.735492 1.712297 1.689262 1.666390 1.643678 1.621129 1.598740 1.576514 1.554448 1.532545 1.510803 1.728499 2.153732 1.710111 1.191321 1.054675 0.454420 0.852007 0.563726 0.849120 0.816898 0.821784 0.760068 0.756415 0.598631 0.561765 0.503081 0.430311 0.249448 0.367228 0.201492 0.331805 0.220810 0.209638 0.183715 0.040846 0.005192 0.018265 -0.069623 0.133771 0.232981 0.189782 0.179474 0.327701 0.185135 0.521956 0.626395 0.634148 0.650394 0.879904 0.838180 0.947067 0.940842 1.038031 1.005885 1.090421 1.173848 1.048819 1.168229 0.913558 0.932762 0.798837 0.656483 0.810176 0.698605 0.495922 0.334487 0.251731 0.268604 0.149059 0.135755 0.165673 0.108457 0.122212 0.081595 0.250875 0.353304 0.342410 0.479191 0.547481 0.419419 0.594839 0.732671 0.653563 0.723940 0.712866 0.721461 0.650356 0.598423 0.495083 0.370149 0.277892 0.221632 0.090525 0.116461 -0.112674 -0.049221 -0.063811 -0.082631 -0.020431 0.130275 0.069725 0.243029 0.307952 0.336945 0.378202 0.499452 0.469496 0.481383 0.493563 0.306279 0.294201 0.287887 0.087110 0.046241 -0.079124 -0.014432 -0.062858 -0.095848 -0.074540 0.039239 0.094059 0.124339 0.222885 0.226109 0.223638 0.317730 0.359648 0.434228 0.257448 0.233766 0.224349 0.143981 0.144943 0.117828 -0.003931 0.016353 0.074892 -0.010214 0.047473 0.134534 0.136182 0.215916 0.234778 0.257195 0.167820 0.211339 0.127400 0.132863 0.112044 0.029008 -0.026619 0.000109 -0.020203 -0.054043 0.054452 0.004869 0.106821 0.139046 0.191750 0.170719 0.116860 0.141629 0.162149 0.112059 0.037298 -0.024009 0.031891 0.025959 -0.040774 0.035104 0.022035 0.047559 0.039077 0.051895 0.034776 0.135932 0.123758 0.047161 0.039562 0.044446 0.006243 -0.030460 0.010259 0.007015 -0.001910 0.006052 0.054622 0.053906 0.040006 0.078707 0.059952 0.160391 0.063608 0.040110 0.042485 -0.034122 0.012076 0.047251 0.007501 0.034215 0.055453 0.079859 0.049023 0.042321 0.009973 0.078206 0.024484 0.021208 0.023802 -0.006445 0.034320 0.026045 0.021730 0.067908 0.072841 0.074894 0.039432 0.049806 0.026087 0.017523 -0.022675 -0.024163 0.035077 0.052502 0.081568 0.080747 0.061806 0.073295 0.101491 0.045006 0.093033 0.061817 0.041937 0.019330 0.102400 0.060202 0.120998 0.073351 0.057185 0.104634 0.035224 0.004253 0.085612 -0.036801 -0.024609 0.098449 0.045919 0.159977 0.094418 0.091241 0.066198 0.039747 0.092146 -0.024584 -0.026148 0.051770 0.037701 0.037806 0.026161 0.107278 0.038667 -0.008913 0.052992 0.045385 0.052288 0.059482 -0.010200 0.062646 0.056617 0.118508 0.056332 0.027261 -0.025181 -0.019979 -0.004400 0.004499 -0.053396 -0.025973 0.002941 0.015908 0.034245 0.053075 0.005631 -0.036319 -0.031146 -0.020031 -0.067846 -0.049492 -0.024152 -0.134687 -0.103224 -0.048090 -0.085275 -0.102975 -0.021739 -0.152763 -0.106217 -0.106247 -0.180407 -0.067809 0.060847 -0.065175 -0.143029 0.051778 0.040329 -0.019109 0.079731 -0.026194 0.000930 -0.094738 -0.033226 0.041598 0.117505 0.055680 0.135114 0.172148 0.418782 0.233127 0.313210 0.125751 -0.018949 -0.707438
0.072396 0.072899 0.074408 0.076922 0.080442 0.084965 0.090491 0.097018 0.104544 0.113066 0.122582 0.133085 0.144572 0.157036 0.170468 0.184860 0.200201 0.216478 0.233676 0.251777 0.270762 0.290607 0.311286 0.332771 0.355027 0.378018 0.401702 0.426032 0.450959 0.476426 0.502372 0.528729 0.555426 0.582381 0.609511 0.636723 0.663919 0.690993 0.717834 0.744321 0.770330 0.795727 0.820374 0.844125 0.866829 0.888328 0.908459 0.927056 0.943948 0.958960 0.971916 0.982637 0.990945 0.996662 0.999615 0.999630 0.996542 0.990192 0.980429 0.967113 0.950117 0.929328 0.904651 0.876007 0.843342 0.806623 0.765843 0.721023 0.672215 0.619500 0.562996 0.502854 0.439266 0.372458 0.302698 0.230294 0.155594 0.078987 0.000901 0.078196 0.157799 0.237368 0.316330 0.394083 0.469999 0.543431 0.613714 0.680175 0.742139 0.798934 0.849898 0.894393 0.931807 0.961568 0.983151 0.996085 0.999970 0.994478 0.979369 0.954497 0.919815 0.875390 0.821403 0.758158 0.686082 0.605735 0.517802 0.423098 0.322561 0.217252 0.108341 0.002898 0.115104 0.226838 0.336604 0.442869 0.544080 0.638692 0.725190 0.802117 0.868100 0.921879 0.962331 0.988502 0.999629 0.995168 0.974810 0.938505 0.886477 0.819230 0.737560 0.642553 0.535577 0.418278 0.292555 0.160540 0.024567 0.112867 0.249141 0.381563 0.507422 0.624040 0.728838 0.819393 0.893504 0.949247 0.985037 0.999676 0.992405 0.962937 0.911492 0.838814 0.746173 0.635363 0.508683 0.368897 0.219188 0.063091 0.095579 0.252819 0.404533 0.546645 0.675207 0.786515 0.877228 0.944469 0.985939 1.000000 0.985756 0.943108 0.872793 0.776395 0.656332 0.515815 0.358783 0.189800 0.013944 0.163341 0.336415 0.499608 0.647421 0.774707 0.876872 0.950048 0.991258 0.998555 0.971132 0.909392 0.814985 0.690788 0.540848 0.370271 0.185078 0.008009 0.201783 0.388824 0.561784 0.713678 0.838180 0.929904 0.984652 0.999641 0.973657 0.907170 0.802369 0.663129 0.494898 0.304523 0.099981 0.109926 0.315949 0.508783 0.679510 0.820009 0.923370 0.984257 0.999213 0.966890 0.888182 0.766253 0.606456 0.416139 0.204336 0.018633 0.241645 0.453330 0.642642 0.799459 0.915140 0.983034 0.998895 0.961194 0.871279 0.733391 0.554518 0.344082 0.113486 0.124486 0.356349 0.568691 0.748951 0.886188 0.971773 0.999979 0.968408 0.878234 0.734237 0.544602 0.320523 0.075566 0.175106 0.415665 0.630614 0.805797 0.929371 0.992640 0.990724 0.922990 0.793208 0.609419 0.383507 0.130472 0.132520 0.387274 0.615836 0.801756 0.931318 0.994599 0.986283 0.906177 0.759362 0.555943 0.310442 0.040794 0.232892 0.489850 0.710209 0.876566 0.975410 0.998279 0.942558 0.811837 0.615770 0.369460 0.092350 0.193247 0.463937 0.697144 0.873031 0.976240 0.997295 0.933560 0.789631 0.577110 0.313763 0.022113 0.272447 0.543828 0.767579 0.923125 0.995717 0.977925 0.870485 0.682428 0.430423 0.137400 0.169478 0.461285 0.710067 0.891549 0.987564 0.987964 0.891799 0.707612 0.452805 0.152104 0.164770 0.465991 0.720824 0.902800 0.992530 0.979875 0.865207 0.659596 0.383876 0.066644 0.258637 0.557133 0.796360 0.949797 0.999900 0.940234 0.776415 0.525743 0.215509 0.119882 0.442662 0.715938 0.907954 0.995862 0.968558 0.828227 0.590349 0.282152 0.060389 0.396678 0.686290 0.893852 0.993459 0.972030 0.831173 0.587277 0.269776 0.082288 0.424971 0.714903 0.914816 0.998423 0.954023 0.786295 0.516017 0.177637 0.184960
1.000000 1.000000 1.000000 1.000000 1.000000 1.000000 1.000000 1.000000 1.000000 1.000000 1.000000 1.000000 1.000000 1.000000 1.000000 1.000000 1.000000 1.000000 1.000000 1.000000 1.000000 1.000000 1.000000 1.000000 1.000000 1.000000 1.000000 1.000000 1.000000 1.000000 1.000000 1.000000 1.000000 1.000000 1.000000 1.000000 1.000000 1.000000 1.000000 1.000000 1.000000 1.000000 1.000000 1.000000 1.000000 1.000000 1.000000 1.000000 1.000000 1.000000 1.000000 1.000000 0.917033 0.917033 0.917033 0.913161 0.913161 0.913161 0.913161 0.913161 0.913161 0.913161 0.913161 0.913161 0.913161 0.913161 0.913161 0.913161 0.913161 0.913161 0.913161 0.913161 0.913161 0.913161 0.913161 0.913161 0.913161 0.913161 0.913161 0.913161 0.913161 0.913161 0.913161 0.913161 0.913161 0.913161 0.913161 0.913161 0.913161 0.913161 0.913161 0.913161 0.913161 0.913161 0.913161 0.913161 0.942225 0.943599 0.951880 0.951419 0.950844 0.948872 0.947657 0.947330 0.947244 0.947579 0.948283 0.949236 0.955434 0.956329 0.960727 0.963417 0.963601 0.965355 0.966089 0.965751 0.957377 0.957161 0.955763 0.955029 0.957140 0.955774 0.954535 0.955003 0.954608 0.957209 0.956744 0.955524 0.953878 0.952280 0.950984 0.950430 0.950195 0.950992 0.951061 0.952623 0.955644 0.955788 0.955508 0.952709 0.952348 0.953548 0.952890 0.952676 0.940895 0.940297 0.938865 0.938855 0.941387 0.941332 0.941222 0.942104 0.941796 0.941714 0.941860 0.936437 0.936197 0.928612 0.925731 0.924176 0.919141 0.915136 0.917626 0.919985 0.921244 0.921651 0.912929 0.910052 0.911065 0.909921 0.911333 0.909727 0.910415 0.911099 0.910910 0.905046 0.894625 0.893162 0.887338 0.890072 0.887662 0.884882 0.881344 0.871335 0.860545 0.875014 0.859685 0.828748 0.832449 0.837387 0.830148 0.827155 0.828317 0.829856 0.834560 0.827451 0.825739 0.820455 0.808514 0.803752 0.796924 0.783370 0.782921 0.773767 0.763572 0.757988 0.782026 0.775838 0.786962 0.791110 0.790655 0.787473 0.779419 0.769389 0.768435 0.764092 0.760604 0.738543 0.730362 0.730559 0.727884 0.716440 0.720173 0.707889 0.708078 0.696227 0.700820 0.705963 0.709040 0.705530 0.700432 0.692148 0.687120 0.699306 0.713388 0.706943 0.701734 0.702033 0.692027 0.681446 0.676180 0.680736 0.675133 0.662157 0.670042 0.696329 0.668191 0.657128 0.664405 0.667152 0.658983 0.660316 0.639922 0.633852 0.613217 0.630390 0.635326 0.651780 0.652215 0.652909 0.664327 0.669818 0.680638 0.684923 0.684457 0.645707 0.649197 0.669434 0.676808 0.664315 0.653987 0.655022 0.651467 0.686601 0.672029 0.628895 0.624960 0.623809 0.586503 0.566733 0.565605 0.568256 0.594077 0.589448 0.570262 0.544294 0.546448 0.549173 0.550380 0.549778 0.532430 0.541460 0.527449 0.504267 0.515821 0.523018 0.521239 0.506004 0.501406 0.514025 0.487308 0.521963 0.492941 0.470594 0.487823 0.485371 0.473719 0.400689 0.413733 0.401463 0.390887 0.345796 0.355537 0.364503 0.349884 0.275978 0.268702 0.269501 0.266863 0.249111 0.230965 0.217526 0.206247 0.185059 0.123284 0.079448 0.078956 0.081631 0.106811 0.066845 0.118180 0.182716 0.182837 0.182837 0.182837 0.182837 0.182837 0.182837 0.182837 0.182837 0.157909 0.157909 0.157909 0.157909 0.157909 0.157909 0.157909 0.157909 0.157909 0.182837 0.182837 0.182837 0.182837 0.182837 0.182837 0.182837 0.182837 0.182837 0.182837 0.182837 0.182837 0.182837 0.182837
0.000000 0.000000 0.000000 0.000000 0.000000 0.000000 0.000000 0.000000 0.000000 0.000000 0.000000 0.000000 0.000000 0.000000 0.000000 0.000000 0.000000 0.000000 0.000000 0.000000 0.000000 0.000000 0.000000 0.000000 0.000000 0.000000 0.000000 0.000000 0.000000 0.000000 0.000000 0.000000 0.000000 0.000000 0.000000 0.000000 0.000000 0.000000 0.000000 0.000000 0.000000 0.000000 0.000000 0.000000 0.000000 0.000000 0.000000 0.000000 0.000000 0.000000 0.000000 0.000000 0.180334 0.180334 0.180334 0.199007 0.199007 0.199007 0.199007 0.199007 0.199007 0.199007 0.199007 0.199007 0.199007 0.199007 0.199007 0.199007 0.199007 0.199007 0.199007 0.199007 0.199007 0.199007 0.199007 0.199007 0.199007 0.199007 0.199007 0.199007 0.199007 0.199007 0.199007 0.199007 0.199007 0.199007 0.199007 0.199007 0.199007 0.199007 0.199007 0.199007 0.199007 0.199007 0.199007 0.199007 0.225018 0.225018 0.225018 0.225018 0.225018 0.225018 0.225018 0.225018 0.225018 0.225018 0.225018 0.225018 0.225018 0.225018 0.225018 0.225018 0.225018 0.225018 0.225018 0.225018 0.225018 0.225018 0.225018 0.225018 0.225018 0.225018 0.225018 0.225018 0.225018 0.244339 0.244339 0.244339 0.244339 0.244339 0.244339 0.244339 0.244339 0.244339 0.244339 0.244339 0.244339 0.244339 0.244339 0.244339 0.244339 0.244339 0.244339 0.244339 0.244339 0.244339 0.244339 0.244339 0.256074 0.256074 0.256074 0.256074 0.256074 0.256074 0.256074 0.256074 0.256074 0.256074 0.256074 0.256074 0.256074 0.256074 0.256074 0.256074 0.256074 0.256074 0.256074 0.256074 0.256074 0.256074 0.256074 0.256074 0.256074 0.256074 0.256074 0.256074 0.256074 0.256074 0.256074 0.256074 0.256074 0.256074 0.256074 0.256074 0.256074 0.264906 0.264906 0.264906 0.264906 0.264906 0.264906 0.264906 0.264906 0.264906 0.264906 0.264906 0.264906 0.264906 0.264906 0.264906 0.264906 0.264906 0.264906 0.264906 0.264906 0.264906 0.264906 0.264906 0.264906 0.264906 0.264906 0.264906 0.264906 0.264906 0.264906 0.264906 0.264906 0.264906 0.264906 0.264906 0.264906 0.264906 0.264906 0.264906 0.264906 0.264906 0.264906 0.264906 0.264906 0.264906 0.264906 0.264906 0.264906 0.264906 0.264906 0.264906 0.264906 0.264906 0.264906 0.264906 0.264906 0.264906 0.264906 0.260378 0.260378 0.260378 0.260378 0.260378 0.260378 0.260378 0.260378 0.260378 0.260378 0.260378 0.260378 0.260378 0.264906 0.264906 0.264906 0.264906 0.264906 0.264906 0.264906 0.264906 0.264906 0.264906 0.264906 0.264906 0.269680 0.269680 0.269680 0.269680 0.269680 0.269680 0.269680 0.269680 0.269680 0.269680 0.269680 0.264906 0.264906 0.264906 0.264906 0.264906 0.264906 0.264906 0.264906 0.264906 0.264906 0.264906 0.256074 0.256074 0.256074 0.256074 0.256074 0.256074 0.256074 0.256074 0.256074 0.256074 0.256074 0.264906 0.264906 0.264906 0.264906 0.264906 0.264906 0.264906 0.264906 0.264906 0.264906 0.260378 0.260378 0.260378 0.260378 0.260378 0.260378 0.260378 0.260378 0.260378 0.260378 0.264906 0.264906 0.264906 0.264906 0.264906 0.264906 0.264906 0.264906 0.264906 0.251976 0.251976 0.251976 0.251976 0.251976 0.251976 0.251976 0.251976 0.251976 0.251976 0.256074 0.256074 0.256074 0.256074 0.256074 0.256074 0.256074 0.256074 0.256074 0.251976 0.251976 0.251976 0.251976 0.251976 0.251976 0.251976 0.251976 0.251976 0.251976 0.251976 0.251976 0.251976 0.251976
