# Output from CTFFind version 4.1.9, run on 2019-11-03 19:00:50
# Input file: stack6_bm3d_averaged_1_3.25_0_2000_half.mrc ; Number of micrographs: 1
# Pixel size: 3.000 Angstroms ; acceleration voltage: 300.0 keV ; spherical aberration: 0.00 mm ; amplitude contrast: 0.07
# Box size: 512 pixels ; min. res.: 30.0 Angstroms ; max. res.: 5.0 Angstroms ; min. def.: 5000.0 um; max. def. 50000.0 um; num. frames averaged: 1
# 6 lines per micrograph: #1 - spatial frequency (1/Angstroms); #2 - 1D rotational average of spectrum (assuming no astigmatism); #3 - 1D rotational average of spectrum; #4 - CTF fit; #5 - cross-correlation between spectrum and CTF fit; #6 - 2sigma of expected cross correlation of noise
0.000000 0.000651 0.001302 0.001953 0.002604 0.003255 0.003906 0.004557 0.005208 0.005859 0.006510 0.007161 0.007812 0.008464 0.009115 0.009766 0.010417 0.011068 0.011719 0.012370 0.013021 0.013672 0.014323 0.014974 0.015625 0.016276 0.016927 0.017578 0.018229 0.018880 0.019531 0.020182 0.020833 0.021484 0.022135 0.022786 0.023438 0.024089 0.024740 0.025391 0.026042 0.026693 0.027344 0.027995 0.028646 0.029297 0.029948 0.030599 0.031250 0.031901 0.032552 0.033203 0.033854 0.034505 0.035156 0.035807 0.036458 0.037109 0.037760 0.038411 0.039062 0.039714 0.040365 0.041016 0.041667 0.042318 0.042969 0.043620 0.044271 0.044922 0.045573 0.046224 0.046875 0.047526 0.048177 0.048828 0.049479 0.050130 0.050781 0.051432 0.052083 0.052734 0.053385 0.054036 0.054688 0.055339 0.055990 0.056641 0.057292 0.057943 0.058594 0.059245 0.059896 0.060547 0.061198 0.061849 0.062500 0.063151 0.063802 0.064453 0.065104 0.065755 0.066406 0.067057 0.067708 0.068359 0.069010 0.069661 0.070312 0.070964 0.071615 0.072266 0.072917 0.073568 0.074219 0.074870 0.075521 0.076172 0.076823 0.077474 0.078125 0.078776 0.079427 0.080078 0.080729 0.081380 0.082031 0.082682 0.083333 0.083984 0.084635 0.085286 0.085938 0.086589 0.087240 0.087891 0.088542 0.089193 0.089844 0.090495 0.091146 0.091797 0.092448 0.093099 0.093750 0.094401 0.095052 0.095703 0.096354 0.097005 0.097656 0.098307 0.098958 0.099609 0.100260 0.100911 0.101562 0.102214 0.102865 0.103516 0.104167 0.104818 0.105469 0.106120 0.106771 0.107422 0.108073 0.108724 0.109375 0.110026 0.110677 0.111328 0.111979 0.112630 0.113281 0.113932 0.114583 0.115234 0.115885 0.116536 0.117188 0.117839 0.118490 0.119141 0.119792 0.120443 0.121094 0.121745 0.122396 0.123047 0.123698 0.124349 0.125000 0.125651 0.126302 0.126953 0.127604 0.128255 0.128906 0.129557 0.130208 0.130859 0.131510 0.132161 0.132812 0.133464 0.134115 0.134766 0.135417 0.136068 0.136719 0.137370 0.138021 0.138672 0.139323 0.139974 0.140625 0.141276 0.141927 0.142578 0.143229 0.143880 0.144531 0.145182 0.145833 0.146484 0.147135 0.147786 0.148438 0.149089 0.149740 0.150391 0.151042 0.151693 0.152344 0.152995 0.153646 0.154297 0.154948 0.155599 0.156250 0.156901 0.157552 0.158203 0.158854 0.159505 0.160156 0.160807 0.161458 0.162109 0.162760 0.163411 0.164062 0.164714 0.165365 0.166016 0.166667 0.167318 0.167969 0.168620 0.169271 0.169922 0.170573 0.171224 0.171875 0.172526 0.173177 0.173828 0.174479 0.175130 0.175781 0.176432 0.177083 0.177734 0.178385 0.179036 0.179688 0.180339 0.180990 0.181641 0.182292 0.182943 0.183594 0.184245 0.184896 0.185547 0.186198 0.186849 0.187500 0.188151 0.188802 0.189453 0.190104 0.190755 0.191406 0.192057 0.192708 0.193359 0.194010 0.194661 0.195312 0.195964 0.196615 0.197266 0.197917 0.198568 0.199219 0.199870 0.200521 0.201172 0.201823 0.202474 0.203125 0.203776 0.204427 0.205078 0.205729 0.206380 0.207031 0.207682 0.208333 0.208984 0.209635 0.210286 0.210938 0.211589 0.212240 0.212891 0.213542 0.214193 0.214844 0.215495 0.216146 0.216797 0.217448 0.218099 0.218750 0.219401 0.220052 0.220703 0.221354 0.222005 0.222656 0.223307 0.223958 0.224609 0.225260 0.225911 0.226562 0.227214 0.227865 0.228516 0.229167 0.229818 0.230469 0.231120 0.231771 0.232422 0.233073 0.233724 0.234375 0.235026 0.235677
       0.29928        0.29928        0.29928        0.29928        0.29928        0.29928        0.29928        0.29928        0.29928        0.29928        0.29928        0.29928        0.29928        0.29928        0.29928        0.29928        0.29928        0.29928        0.29928        0.29928        0.29928        0.29928        0.29928        0.29928        0.29928        0.29928        0.29928        0.29928        0.29928        0.29928        0.29928        0.29928        0.29928        0.29928        0.29928        0.29928        0.29928        0.29928        0.29928        0.29928        0.29928        0.29928        0.29928        0.29928        0.29928        0.29928        0.29928        0.29928        0.29928        0.29928        0.29928        0.61578        0.76986        0.37299        0.24594        0.14773       -0.13735        0.11827        0.02242        0.03585        0.10221        0.33890        0.38747        0.33411        0.19569       -0.02477        0.01976        0.05760       -0.17132       -0.17944       -0.09310       -0.12090       -0.28784       -0.17711       -0.31390       -0.28584       -0.30229       -0.38917       -0.45913       -0.44755       -0.37396       -0.32687       -0.41357       -0.31478       -0.38600       -0.32164       -0.25809       -0.19812       -0.16812       -0.07979       -0.04983        0.06516        0.10202        0.22050        0.31892        0.38217        0.38095        0.48943        0.56420        0.59267        0.67585        0.64862        0.70966        0.61234        0.64753        0.65288        0.59028        0.59013        0.60214        0.40025        0.35458        0.35599        0.33513        0.18523        0.12292        0.06337        0.07430        0.03756       -0.05831        0.00577       -0.03382       -0.07565        0.05479        0.15833        0.25921        0.32412        0.32178        0.38709        0.50280        0.53257        0.48877        0.65048        0.52912        0.50874        0.55727        0.55418        0.51615        0.46667        0.39874        0.35439        0.23723        0.18943        0.13177        0.14145        0.11177        0.06092        0.09187        0.14860        0.16060        0.16237        0.21299        0.25130        0.33574        0.44703        0.44078        0.44206        0.50122        0.55796        0.53638        0.49395        0.38166        0.40482        0.35952        0.28093        0.22879        0.21444        0.16913        0.17743        0.17197        0.17194        0.14270        0.20352        0.24372        0.33507        0.37370        0.39738        0.45734        0.48503        0.43603        0.44044        0.40323        0.40122        0.40053        0.33914        0.27378        0.26752        0.20758        0.22963        0.21862        0.18896        0.21491        0.22606        0.24840        0.31748        0.36244        0.37015        0.37789        0.38758        0.43281        0.42330        0.40960        0.31348        0.30337        0.27359        0.28861        0.24341        0.20083        0.25218        0.30133        0.28983        0.28523        0.32601        0.30578        0.38080        0.33725        0.34625        0.35663        0.34202        0.32104        0.30144        0.27227        0.28178        0.25258        0.23423        0.25370        0.26906        0.29267        0.30959        0.33788        0.35766        0.32096        0.30897        0.34476        0.31750        0.25707        0.27810        0.27148        0.25295        0.25912        0.28877        0.27021        0.26821        0.30083        0.29699        0.31393        0.32160        0.33350        0.27137        0.28412        0.29585        0.27776        0.25561        0.24686        0.23140        0.24526        0.25903        0.26603        0.28295        0.27257        0.30808        0.33480        0.30016        0.30276        0.23547        0.23689        0.25134        0.22898        0.22079        0.25160        0.29425        0.24937        0.29226        0.29351        0.28613        0.31340        0.25744        0.28662        0.28632        0.28568        0.25919        0.23509        0.23214        0.24461        0.29041        0.29303        0.30401        0.29505        0.31285        0.28143        0.32089        0.27793        0.20413        0.28582        0.27419        0.26986        0.28546        0.30688        0.29792        0.34237        0.28555        0.23970        0.23980        0.23252        0.25714        0.29239        0.29477        0.25634        0.27600        0.25553        0.27415        0.26112        0.26153        0.23208        0.26069        0.27625        0.24394        0.26293        0.29986        0.29395        0.25835        0.26562        0.23921        0.27579        0.21010        0.20500        0.23024        0.26877        0.27317        0.30945        0.26532        0.22703        0.25420        0.22549        0.21141        0.18717        0.21046        0.20470        0.25223        0.25587        0.19410        0.26151        0.24234        0.28957        0.23834        0.17210        0.19831        0.19615        0.13973        0.20879        0.14840        0.15664        0.19290        0.10346        0.26281        0.09606        0.04891        0.14681        0.12380        0.17361        0.18355       -0.08691       -0.56744       -0.94256
2.882492 2.854227 2.826106 2.798129 2.770296 2.742607 2.715062 2.687662 2.660405 2.633293 2.606324 2.579500 2.552820 2.526283 2.499891 2.473643 2.447539 2.421579 2.395763 2.370091 2.344564 2.319180 2.293940 2.268845 2.243893 2.219086 2.194423 2.169903 2.145528 2.121297 2.097210 2.073267 2.049468 2.025813 2.002302 1.978935 1.955713 1.932634 1.909700 1.886909 1.864263 1.841760 1.819402 1.797188 1.775118 1.753192 1.731410 1.709772 1.688278 1.666928 1.645723 1.973747 2.300659 1.689965 1.674239 1.354561 0.861668 1.207219 1.069968 1.108548 0.984751 1.557834 1.500863 1.503807 1.247955 0.927593 0.775480 1.007457 0.727586 0.433372 0.571415 0.657843 0.392002 0.462055 0.285898 0.273167 0.182529 0.165489 -0.079233 -0.028385 0.043999 0.042285 0.019434 0.125757 -0.054544 0.007265 0.118404 0.204842 0.243184 0.308152 0.339045 0.611218 0.498383 0.670410 0.891238 0.923728 0.911537 1.154081 1.153342 1.231346 1.320464 1.196445 1.412527 1.176986 1.168195 1.327380 1.129111 1.067063 1.186959 0.902542 0.691760 0.687525 0.727189 0.442621 0.389165 0.246634 0.214124 0.149268 0.007600 0.129891 0.018529 -0.075053 0.089875 0.215811 0.346408 0.479865 0.505362 0.523344 0.716771 0.783612 0.606976 0.972751 0.820136 0.663948 0.763689 0.723045 0.719532 0.699069 0.456675 0.501889 0.259917 0.200212 0.117973 -0.010965 0.058687 -0.073258 -0.044526 -0.020175 0.099107 -0.045194 0.209825 0.136088 0.205735 0.398830 0.467225 0.437455 0.393922 0.615715 0.622557 0.493828 0.349242 0.350053 0.328735 0.174480 0.087745 0.040750 0.023200 -0.025063 -0.036893 -0.032249 -0.109275 -0.005656 0.017561 0.113586 0.251314 0.231421 0.365271 0.351764 0.397367 0.349370 0.433451 0.361048 0.262582 0.339799 0.126318 0.188639 0.037015 0.074990 0.035169 0.028769 -0.042578 0.039622 0.062319 0.112738 0.232009 0.265583 0.225232 0.265910 0.332951 0.328682 0.329772 0.197509 0.117272 0.147669 0.071829 0.089445 -0.019995 -0.024645 0.091019 0.091055 0.100921 0.093033 0.121939 0.201639 0.207365 0.184413 0.168109 0.197505 0.138424 0.135541 0.069087 0.061557 0.090741 -0.035235 0.030614 0.060121 0.020025 0.129013 0.112734 0.183015 0.191654 0.132049 0.110715 0.181375 0.095891 0.030234 0.081504 0.033288 0.012755 0.062021 0.077720 0.045667 0.032561 0.128290 0.080667 0.112495 0.142573 0.109603 0.081760 0.043629 0.086604 0.057358 0.012434 -0.009614 -0.024793 0.009038 0.007985 0.041721 0.085630 0.001129 0.084585 0.148645 0.030541 0.072800 -0.040111 -0.004785 -0.021166 -0.049326 -0.061262 0.038005 0.050480 -0.046906 0.070128 0.042339 0.058078 0.055535 -0.006867 0.007861 0.083381 -0.021217 0.014122 -0.054965 -0.036002 -0.041424 0.052688 0.050206 0.039969 0.004095 0.103343 0.000159 0.088952 -0.048630 -0.102889 0.030909 -0.017019 0.007182 -0.022422 0.098043 0.030044 0.068186 -0.001022 -0.121302 -0.039506 -0.097556 0.009823 0.011752 0.010001 -0.042976 -0.025884 -0.050511 -0.029014 -0.048142 -0.033548 -0.107325 -0.051819 -0.012256 -0.068425 0.001746 0.024338 -0.009273 -0.035362 0.022611 -0.031031 0.023630 -0.082143 -0.082990 -0.051041 0.045575 0.073233 0.084002 0.026174 -0.015644 0.054734 -0.024235 -0.085926 -0.000431 -0.068008 0.003481 0.063806 0.075048 -0.026487 0.103522 0.069432 0.187883 0.041854 0.009092 0.042889 0.047525 -0.106552 0.096762 -0.068727 0.080979 0.055470 0.005633 0.401483 0.094259 0.076690 0.295946 0.201078 0.235808 0.314189 -0.126644 -1.428391
0.072396 0.072835 0.074150 0.076342 0.079411 0.083355 0.088174 0.093866 0.100430 0.107864 0.116166 0.125332 0.135358 0.146241 0.157974 0.170552 0.183967 0.198209 0.213269 0.229134 0.245791 0.263225 0.281417 0.300347 0.319993 0.340329 0.361327 0.382956 0.405182 0.427965 0.451264 0.475034 0.499224 0.523781 0.548645 0.573753 0.599038 0.624426 0.649840 0.675196 0.700406 0.725376 0.750008 0.774199 0.797839 0.820814 0.843005 0.864290 0.884541 0.903625 0.921408 0.937751 0.952513 0.965551 0.976720 0.985876 0.992873 0.997566 0.999815 0.999481 0.996428 0.990527 0.981656 0.969700 0.954553 0.936122 0.914325 0.889093 0.860373 0.828130 0.792347 0.753026 0.710194 0.663897 0.614209 0.561229 0.505081 0.445922 0.383933 0.319328 0.252351 0.183277 0.112411 0.040089 0.033322 0.107429 0.181807 0.256008 0.329559 0.401965 0.472712 0.541273 0.607106 0.669664 0.728397 0.782755 0.832199 0.876201 0.914254 0.945875 0.970616 0.988067 0.997863 0.999694 0.993306 0.978515 0.955206 0.923344 0.882977 0.834240 0.777362 0.712665 0.640569 0.561592 0.476349 0.385555 0.290013 0.190618 0.088349 0.015742 0.120535 0.224855 0.327483 0.427173 0.522659 0.612682 0.696001 0.771410 0.837765 0.893992 0.939119 0.972286 0.992768 0.999993 0.993557 0.973243 0.939027 0.891095 0.829850 0.755910 0.670119 0.573536 0.467432 0.353277 0.232727 0.107601 0.020139 0.148419 0.275086 0.397937 0.514767 0.623399 0.721737 0.807802 0.879780 0.936062 0.975285 0.996376 0.998578 0.981487 0.945072 0.889694 0.816113 0.725495 0.619398 0.499755 0.368857 0.229303 0.083966 0.064067 0.211556 0.355175 0.491591 0.617538 0.729904 0.825808 0.902683 0.958353 0.991098 0.999725 0.983612 0.942749 0.877762 0.789923 0.681139 0.553924 0.411359 0.257022 0.094913 0.070649 0.235129 0.393903 0.542387 0.676173 0.791168 0.883722 0.950759 0.989889 0.999508 0.978875 0.928163 0.848493 0.741923 0.611425 0.460807 0.294632 0.118082 0.063192 0.243242 0.416014 0.575560 0.716240 0.832934 0.921240 0.977656 0.999732 0.986197 0.937044 0.853571 0.738374 0.595294 0.429309 0.246381 0.053257 0.142771 0.334129 0.513262 0.672930 0.806508 0.908283 0.973708 0.999632 0.984472 0.928326 0.833021 0.702092 0.540673 0.355327 0.153796 0.055295 0.262811 0.459496 0.636381 0.785218 0.898867 0.971667 0.999742 0.981232 0.916445 0.807898 0.660264 0.480202 0.276087 0.057644 0.164496 0.379309 0.575924 0.744172 0.875145 0.961677 0.998773 0.983926 0.917321 0.801896 0.643257 0.449448 0.230579 0.001684 0.234709 0.455589 0.651854 0.812192 0.927119 0.989576 0.995396 0.943622 0.836651 0.680165 0.482898 0.256166 0.013264 0.231288 0.462620 0.666402 0.829761 0.942108 0.995874 0.987055 0.915560 0.785311 0.604085 0.383107 0.136391 0.120113 0.369529 0.595174 0.781670 0.916032 0.988605 0.993803 0.930594 0.802681 0.618352 0.389998 0.133340 0.133634 0.391890 0.622721 0.809105 0.936992 0.996414 0.982317 0.895044 0.740438 0.529523 0.277770 0.004026 0.270872 0.525671 0.740347 0.897711 0.984830 0.994140 0.924178 0.779835 0.572080 0.317223 0.035675 0.249647 0.515157 0.738571 0.900790 0.987592 0.990942 0.909809 0.750402 0.525784 0.254883 0.039058 0.330408 0.593408 0.804431 0.944156 0.999402 0.964439 0.841667 0.641563 0.381882 0.086137 0.218446 0.503430 0.741825 0.910666 0.993289 0.981060 0.874361 0.682732 0.424125 0.123301 0.190472 0.486237 0.734411 0.909755
1.000000 1.000000 1.000000 1.000000 1.000000 1.000000 1.000000 1.000000 1.000000 1.000000 1.000000 1.000000 1.000000 1.000000 1.000000 1.000000 1.000000 1.000000 1.000000 1.000000 1.000000 1.000000 1.000000 1.000000 1.000000 1.000000 1.000000 1.000000 1.000000 1.000000 1.000000 1.000000 1.000000 1.000000 1.000000 1.000000 1.000000 1.000000 1.000000 1.000000 1.000000 1.000000 1.000000 1.000000 1.000000 1.000000 1.000000 1.000000 1.000000 1.000000 1.000000 1.000000 0.827010 0.827010 0.827010 0.827010 0.827010 0.827010 0.827010 0.804206 0.804206 0.804206 0.804206 0.804206 0.804206 0.804206 0.804206 0.804206 0.804206 0.804206 0.804206 0.804206 0.804206 0.804206 0.804206 0.804206 0.804206 0.804206 0.804206 0.804206 0.804206 0.804206 0.804206 0.804206 0.804206 0.804206 0.804206 0.804206 0.804206 0.804206 0.804206 0.804206 0.804206 0.804206 0.804206 0.804206 0.804206 0.804206 0.804206 0.804206 0.804206 0.804206 0.804206 0.948893 0.949709 0.950048 0.949076 0.947584 0.944030 0.942335 0.941534 0.944224 0.944447 0.944440 0.945402 0.945978 0.947558 0.948546 0.950439 0.950426 0.958580 0.962262 0.961984 0.961726 0.961464 0.972193 0.971688 0.971567 0.969047 0.969180 0.969150 0.969044 0.968948 0.968524 0.968015 0.968512 0.968390 0.967924 0.967194 0.965703 0.965007 0.964389 0.964735 0.965555 0.964298 0.964898 0.967602 0.966780 0.966696 0.965369 0.964566 0.960044 0.957955 0.955924 0.956206 0.957342 0.957206 0.956683 0.955575 0.955632 0.955564 0.954487 0.954341 0.953216 0.950132 0.950249 0.950266 0.951051 0.946026 0.935688 0.933790 0.931365 0.932355 0.935054 0.938036 0.937809 0.937909 0.935664 0.928560 0.923599 0.914104 0.912938 0.910598 0.914454 0.914816 0.915942 0.915690 0.916352 0.914741 0.914032 0.903596 0.906926 0.904593 0.902762 0.898179 0.896910 0.896136 0.897513 0.899702 0.894978 0.882439 0.877170 0.870333 0.842711 0.841129 0.843525 0.851737 0.850463 0.848030 0.846545 0.832000 0.828771 0.815942 0.808989 0.810487 0.811258 0.813098 0.815502 0.817149 0.811167 0.798715 0.792261 0.796071 0.806044 0.815922 0.821135 0.818156 0.812648 0.811768 0.775454 0.771437 0.774408 0.764323 0.768795 0.755954 0.756140 0.760475 0.759571 0.755446 0.754319 0.753108 0.728270 0.733470 0.738220 0.740961 0.742144 0.727044 0.720388 0.679332 0.679883 0.654038 0.663822 0.665158 0.668610 0.657031 0.663749 0.668108 0.662358 0.668949 0.667127 0.645770 0.633044 0.636749 0.644626 0.608294 0.619705 0.618692 0.610196 0.602001 0.611137 0.625364 0.623775 0.601585 0.600437 0.570087 0.540337 0.523927 0.508391 0.497503 0.483623 0.496923 0.497030 0.502776 0.475537 0.454841 0.400976 0.403978 0.404841 0.366855 0.372870 0.369366 0.341132 0.365690 0.353157 0.369975 0.342957 0.324730 0.301643 0.228760 0.207746 0.162656 0.184100 0.177542 0.164190 0.159027 0.160278 0.146890 0.097317 0.086416 0.087539 0.111452 0.095444 0.068841 0.081757 0.082120 0.070864 0.061094 0.061243 0.113057 0.088999 0.097554 0.098261 0.055666 0.030839 -0.029407 -0.019113 -0.010798 0.021330 0.047007 0.031571 0.005772 -0.079753 -0.048570 -0.011968 -0.011968 -0.011968 -0.011968 -0.011968 -0.011968 -0.011968 -0.011968 -0.011968 -0.011968 -0.011968 -0.088719 -0.088719 -0.088719 -0.088719 -0.088719 -0.088719 -0.088719 -0.088719 -0.088719 -0.088719 -0.088719 -0.088719 -0.088719 -0.088719 -0.088719 -0.088719 -0.088719 -0.088719 -0.088719
0.000000 0.000000 0.000000 0.000000 0.000000 0.000000 0.000000 0.000000 0.000000 0.000000 0.000000 0.000000 0.000000 0.000000 0.000000 0.000000 0.000000 0.000000 0.000000 0.000000 0.000000 0.000000 0.000000 0.000000 0.000000 0.000000 0.000000 0.000000 0.000000 0.000000 0.000000 0.000000 0.000000 0.000000 0.000000 0.000000 0.000000 0.000000 0.000000 0.000000 0.000000 0.000000 0.000000 0.000000 0.000000 0.000000 0.000000 0.000000 0.000000 0.000000 0.000000 0.000000 0.173422 0.173422 0.173422 0.173422 0.173422 0.173422 0.173422 0.191565 0.191565 0.191565 0.191565 0.191565 0.191565 0.191565 0.191565 0.191565 0.191565 0.191565 0.191565 0.191565 0.191565 0.191565 0.191565 0.191565 0.191565 0.191565 0.191565 0.191565 0.191565 0.191565 0.191565 0.191565 0.191565 0.191565 0.191565 0.191565 0.191565 0.191565 0.191565 0.191565 0.191565 0.191565 0.191565 0.191565 0.191565 0.191565 0.191565 0.191565 0.191565 0.191565 0.191565 0.219529 0.219529 0.219529 0.219529 0.219529 0.219529 0.219529 0.219529 0.219529 0.219529 0.219529 0.219529 0.219529 0.219529 0.219529 0.219529 0.219529 0.219529 0.219529 0.219529 0.219529 0.219529 0.219529 0.219529 0.219529 0.219529 0.219529 0.219529 0.219529 0.219529 0.219529 0.237356 0.237356 0.237356 0.237356 0.237356 0.237356 0.237356 0.237356 0.237356 0.237356 0.237356 0.237356 0.237356 0.237356 0.237356 0.237356 0.237356 0.237356 0.237356 0.237356 0.237356 0.237356 0.237356 0.237356 0.244339 0.244339 0.244339 0.244339 0.244339 0.244339 0.244339 0.244339 0.244339 0.244339 0.244339 0.244339 0.244339 0.244339 0.244339 0.244339 0.244339 0.244339 0.244339 0.244339 0.244339 0.248069 0.248069 0.248069 0.248069 0.248069 0.248069 0.248069 0.248069 0.248069 0.248069 0.248069 0.248069 0.248069 0.248069 0.248069 0.248069 0.248069 0.248069 0.248069 0.248069 0.248069 0.248069 0.248069 0.248069 0.248069 0.248069 0.248069 0.248069 0.248069 0.248069 0.248069 0.248069 0.248069 0.248069 0.248069 0.248069 0.248069 0.256074 0.256074 0.256074 0.256074 0.256074 0.256074 0.256074 0.256074 0.256074 0.256074 0.256074 0.256074 0.256074 0.256074 0.256074 0.256074 0.256074 0.256074 0.256074 0.256074 0.256074 0.256074 0.256074 0.256074 0.256074 0.256074 0.256074 0.256074 0.256074 0.256074 0.256074 0.256074 0.256074 0.256074 0.256074 0.256074 0.256074 0.256074 0.256074 0.256074 0.256074 0.256074 0.256074 0.256074 0.256074 0.260378 0.260378 0.260378 0.260378 0.260378 0.260378 0.260378 0.260378 0.260378 0.260378 0.260378 0.260378 0.260378 0.256074 0.256074 0.256074 0.256074 0.256074 0.256074 0.256074 0.256074 0.256074 0.256074 0.256074 0.256074 0.256074 0.260378 0.260378 0.260378 0.260378 0.260378 0.260378 0.260378 0.260378 0.260378 0.260378 0.260378 0.260378 0.251976 0.251976 0.251976 0.251976 0.251976 0.251976 0.251976 0.251976 0.251976 0.251976 0.251976 0.251976 0.256074 0.256074 0.256074 0.256074 0.256074 0.256074 0.256074 0.256074 0.256074 0.256074 0.256074 0.251976 0.251976 0.251976 0.251976 0.251976 0.251976 0.251976 0.251976 0.251976 0.251976 0.251976 0.248069 0.248069 0.248069 0.248069 0.248069 0.248069 0.248069 0.248069 0.248069 0.248069 0.248069 0.256074 0.256074 0.256074 0.256074 0.256074 0.256074 0.256074 0.256074 0.256074 0.256074 0.256074 0.256074 0.256074 0.256074 0.256074 0.256074 0.256074 0.256074 0.256074
