# Output from CTFFind version 4.1.9, run on 2019-11-03 20:07:54
# Input file: stack6_bm3d_averaged_1_5.5_0_1500_half.mrc ; Number of micrographs: 1
# Pixel size: 3.000 Angstroms ; acceleration voltage: 300.0 keV ; spherical aberration: 0.00 mm ; amplitude contrast: 0.07
# Box size: 512 pixels ; min. res.: 30.0 Angstroms ; max. res.: 5.0 Angstroms ; min. def.: 5000.0 um; max. def. 50000.0 um; num. frames averaged: 1
# 6 lines per micrograph: #1 - spatial frequency (1/Angstroms); #2 - 1D rotational average of spectrum (assuming no astigmatism); #3 - 1D rotational average of spectrum; #4 - CTF fit; #5 - cross-correlation between spectrum and CTF fit; #6 - 2sigma of expected cross correlation of noise
0.000000 0.000651 0.001302 0.001953 0.002604 0.003255 0.003906 0.004557 0.005208 0.005859 0.006510 0.007161 0.007812 0.008464 0.009115 0.009766 0.010417 0.011068 0.011719 0.012370 0.013021 0.013672 0.014323 0.014974 0.015625 0.016276 0.016927 0.017578 0.018229 0.018880 0.019531 0.020182 0.020833 0.021484 0.022135 0.022786 0.023438 0.024089 0.024740 0.025391 0.026042 0.026693 0.027344 0.027995 0.028646 0.029297 0.029948 0.030599 0.031250 0.031901 0.032552 0.033203 0.033854 0.034505 0.035156 0.035807 0.036458 0.037109 0.037760 0.038411 0.039062 0.039714 0.040365 0.041016 0.041667 0.042318 0.042969 0.043620 0.044271 0.044922 0.045573 0.046224 0.046875 0.047526 0.048177 0.048828 0.049479 0.050130 0.050781 0.051432 0.052083 0.052734 0.053385 0.054036 0.054688 0.055339 0.055990 0.056641 0.057292 0.057943 0.058594 0.059245 0.059896 0.060547 0.061198 0.061849 0.062500 0.063151 0.063802 0.064453 0.065104 0.065755 0.066406 0.067057 0.067708 0.068359 0.069010 0.069661 0.070312 0.070964 0.071615 0.072266 0.072917 0.073568 0.074219 0.074870 0.075521 0.076172 0.076823 0.077474 0.078125 0.078776 0.079427 0.080078 0.080729 0.081380 0.082031 0.082682 0.083333 0.083984 0.084635 0.085286 0.085938 0.086589 0.087240 0.087891 0.088542 0.089193 0.089844 0.090495 0.091146 0.091797 0.092448 0.093099 0.093750 0.094401 0.095052 0.095703 0.096354 0.097005 0.097656 0.098307 0.098958 0.099609 0.100260 0.100911 0.101562 0.102214 0.102865 0.103516 0.104167 0.104818 0.105469 0.106120 0.106771 0.107422 0.108073 0.108724 0.109375 0.110026 0.110677 0.111328 0.111979 0.112630 0.113281 0.113932 0.114583 0.115234 0.115885 0.116536 0.117188 0.117839 0.118490 0.119141 0.119792 0.120443 0.121094 0.121745 0.122396 0.123047 0.123698 0.124349 0.125000 0.125651 0.126302 0.126953 0.127604 0.128255 0.128906 0.129557 0.130208 0.130859 0.131510 0.132161 0.132812 0.133464 0.134115 0.134766 0.135417 0.136068 0.136719 0.137370 0.138021 0.138672 0.139323 0.139974 0.140625 0.141276 0.141927 0.142578 0.143229 0.143880 0.144531 0.145182 0.145833 0.146484 0.147135 0.147786 0.148438 0.149089 0.149740 0.150391 0.151042 0.151693 0.152344 0.152995 0.153646 0.154297 0.154948 0.155599 0.156250 0.156901 0.157552 0.158203 0.158854 0.159505 0.160156 0.160807 0.161458 0.162109 0.162760 0.163411 0.164062 0.164714 0.165365 0.166016 0.166667 0.167318 0.167969 0.168620 0.169271 0.169922 0.170573 0.171224 0.171875 0.172526 0.173177 0.173828 0.174479 0.175130 0.175781 0.176432 0.177083 0.177734 0.178385 0.179036 0.179688 0.180339 0.180990 0.181641 0.182292 0.182943 0.183594 0.184245 0.184896 0.185547 0.186198 0.186849 0.187500 0.188151 0.188802 0.189453 0.190104 0.190755 0.191406 0.192057 0.192708 0.193359 0.194010 0.194661 0.195312 0.195964 0.196615 0.197266 0.197917 0.198568 0.199219 0.199870 0.200521 0.201172 0.201823 0.202474 0.203125 0.203776 0.204427 0.205078 0.205729 0.206380 0.207031 0.207682 0.208333 0.208984 0.209635 0.210286 0.210938 0.211589 0.212240 0.212891 0.213542 0.214193 0.214844 0.215495 0.216146 0.216797 0.217448 0.218099 0.218750 0.219401 0.220052 0.220703 0.221354 0.222005 0.222656 0.223307 0.223958 0.224609 0.225260 0.225911 0.226562 0.227214 0.227865 0.228516 0.229167 0.229818 0.230469 0.231120 0.231771 0.232422 0.233073 0.233724 0.234375 0.235026 0.235677
       0.30888        0.30888        0.30888        0.30888        0.30888        0.30888        0.30888        0.30888        0.30888        0.30888        0.30888        0.30888        0.30888        0.30888        0.30888        0.30888        0.30888        0.30888        0.30888        0.30888        0.30888        0.30888        0.30888        0.30888        0.30888        0.30888        0.30888        0.30888        0.30888        0.30888        0.30888        0.30888        0.30888        0.30888        0.30888        0.30888        0.30888        0.30888        0.30888        0.30888        0.30888        0.30888        0.30888        0.30888        0.30888        0.30888        0.30888        0.30888        0.30888        0.30888        0.30888        0.59718        0.72154        0.35401        0.18176        0.12508       -0.15036        0.10568        0.02590        0.03053        0.08728        0.30463        0.32448        0.25033        0.14601       -0.04152       -0.01442        0.03907       -0.13169       -0.14037       -0.08725       -0.10549       -0.22559       -0.14780       -0.26607       -0.27943       -0.27799       -0.34282       -0.42063       -0.36082       -0.26912       -0.23962       -0.33920       -0.25199       -0.30838       -0.24791       -0.17212       -0.12031       -0.08422       -0.01404        0.02007        0.12105        0.16437        0.21007        0.33310        0.39843        0.35235        0.46149        0.54709        0.55513        0.63706        0.57498        0.60860        0.59644        0.60978        0.61202        0.55230        0.57119        0.54830        0.38911        0.32725        0.36065        0.34131        0.18943        0.15919        0.12944        0.08066        0.08740        0.00001        0.05871        0.03729       -0.00737        0.09456        0.15905        0.25640        0.34943        0.33855        0.36766        0.45576        0.49004        0.41900        0.64638        0.53273        0.47843        0.56810        0.49760        0.53048        0.49189        0.36490        0.30347        0.27010        0.22184        0.20788        0.18938        0.16790        0.12273        0.19937        0.18520        0.22624        0.19820        0.26146        0.30625        0.32722        0.44116        0.42820        0.40904        0.42884        0.47135        0.44422        0.43350        0.38650        0.39864        0.33405        0.28243        0.23638        0.24548        0.23792        0.18656        0.15825        0.21411        0.21858        0.26321        0.33525        0.35251        0.40881        0.38994        0.43488        0.45711        0.44931        0.42193        0.38843        0.40796        0.36766        0.32668        0.32772        0.30665        0.25265        0.27064        0.26855        0.22659        0.29033        0.26916        0.28027        0.31437        0.36868        0.40526        0.39778        0.41911        0.37155        0.40619        0.38695        0.30022        0.28133        0.23986        0.25476        0.21804        0.19686        0.28235        0.33721        0.30941        0.28050        0.33759        0.26350        0.32478        0.37145        0.36597        0.35999        0.37982        0.32209        0.33640        0.31851        0.28070        0.27646        0.23955        0.28567        0.29829        0.30916        0.32792        0.37089        0.37201        0.36557        0.32872        0.34841        0.33229        0.31711        0.31437        0.28287        0.28256        0.25056        0.31080        0.32244        0.31328        0.28825        0.32299        0.32632        0.32799        0.33887        0.31061        0.27704        0.28493        0.28457        0.26357        0.24240        0.23144        0.24255        0.25776        0.24260        0.27818        0.27852        0.32034        0.31764        0.26803        0.30022        0.26310        0.20691        0.26146        0.24143        0.22869        0.27324        0.29918        0.29223        0.29472        0.29602        0.29297        0.30388        0.31902        0.27131        0.30562        0.30328        0.34811        0.27559        0.26367        0.25463        0.30542        0.31063        0.31790        0.33484        0.30864        0.22196        0.27878        0.25238        0.24053        0.24163        0.24456        0.28297        0.23585        0.29899        0.31054        0.34242        0.30786        0.28392        0.24519        0.25887        0.26397        0.23544        0.25928        0.27842        0.31148        0.32927        0.29351        0.28733        0.26274        0.29889        0.26656        0.23193        0.19513        0.27435        0.33413        0.31360        0.30273        0.28882        0.23648        0.22090        0.23607        0.22907        0.22809        0.26754        0.27474        0.25858        0.23247        0.21606        0.26712        0.24054        0.24510        0.25900        0.25768        0.17779        0.22327        0.24928        0.23517        0.28821        0.24382        0.23776        0.19456        0.24646        0.27777        0.19706        0.20482        0.12556        0.14576        0.31059        0.17310        0.18392        0.31180        0.19069        0.16607        0.11480        0.21801        0.12479        0.15721       -0.05718       -0.60780       -0.94653
2.500481 2.477565 2.454762 2.432070 2.409491 2.387023 2.364668 2.342425 2.320294 2.298275 2.276368 2.254573 2.232890 2.211320 2.189861 2.168515 2.147280 2.126158 2.105148 2.084249 2.063463 2.042789 2.022227 2.001778 1.981440 1.961214 1.941101 1.921099 1.901210 1.881433 1.861768 1.842214 1.822773 1.803445 1.784228 1.765123 1.746130 1.727250 1.708481 1.689825 1.671280 1.652848 1.634528 1.616320 1.598224 1.580240 1.562368 1.544608 1.526961 1.509425 1.492002 1.867491 2.210480 1.528113 1.390932 1.120791 0.549040 0.945167 0.833451 0.873709 0.728521 1.411534 1.253814 1.264047 1.009801 0.654514 0.501377 0.769604 0.570902 0.233380 0.302628 0.475847 0.211020 0.241659 0.088687 -0.014031 -0.044483 -0.040959 -0.336942 -0.214731 -0.047447 -0.084509 -0.141825 -0.051120 -0.181026 -0.156764 0.027860 0.125227 0.193929 0.241903 0.318900 0.576855 0.525072 0.601401 0.820582 0.998137 0.795534 1.195433 1.165295 1.230630 1.337559 1.240352 1.192819 1.345450 1.208991 1.348397 1.162959 1.102541 1.189501 0.943777 0.639557 0.704483 0.760277 0.450004 0.367661 0.313080 0.153791 0.151008 -0.004603 0.133156 0.098617 -0.044343 0.065421 0.190394 0.306931 0.579601 0.566945 0.533309 0.698052 0.866268 0.567711 1.019436 0.955771 0.764374 0.891315 0.737777 0.818884 0.843539 0.560578 0.380061 0.349757 0.289424 0.175407 0.127312 0.136630 -0.059018 0.133429 0.102108 0.188868 0.071873 0.244212 0.287435 0.249452 0.470584 0.572250 0.488144 0.380568 0.588074 0.577055 0.471462 0.477549 0.423847 0.296646 0.307732 0.095718 0.152648 0.027511 0.154913 -0.097285 0.016940 -0.005407 0.208984 0.079916 0.347970 0.307636 0.364768 0.411440 0.406853 0.615368 0.412584 0.410942 0.477232 0.269393 0.364016 0.203430 0.298387 0.120611 0.166119 0.127910 0.122486 0.065665 0.190676 0.090473 0.180574 0.279362 0.315087 0.377617 0.300491 0.381097 0.298916 0.327139 0.216897 0.124257 0.074006 0.018677 0.038224 -0.058160 -0.028754 0.124636 0.226987 0.094973 0.131614 0.132666 0.070292 0.219613 0.270440 0.238161 0.290692 0.182839 0.178303 0.155504 0.143334 0.094881 -0.021300 0.022768 0.186151 0.032065 0.177150 0.143199 0.286524 0.196591 0.261010 0.217916 0.238840 0.139855 0.168596 0.167396 0.094911 0.038226 0.076249 0.158336 0.179018 0.148997 0.096524 0.188173 0.164703 0.128141 0.159859 0.056275 0.011505 0.065152 0.021497 0.010033 -0.053188 -0.064253 0.003866 -0.024465 -0.051502 0.035183 0.041040 0.118479 0.077118 -0.020770 0.070141 -0.055963 -0.098469 0.028231 -0.073398 -0.087680 0.054431 0.058256 0.026068 0.085708 -0.064397 0.066928 0.135594 -0.017392 0.001166 0.105635 0.040820 0.140010 -0.035617 -0.009667 -0.049629 0.133883 0.039541 0.074822 0.121611 0.031006 -0.102179 -0.004004 -0.036112 -0.060694 -0.061876 -0.050445 0.008429 -0.102842 0.094300 0.102879 0.158668 0.057517 -0.009306 -0.017522 -0.002635 0.027596 -0.056548 0.040352 0.028855 0.141711 0.120755 0.080537 0.075198 0.040000 0.149773 -0.011369 0.008860 -0.113418 0.116235 0.195339 0.069846 0.177331 0.022282 -0.018588 -0.048700 -0.036056 -0.020745 -0.022527 0.054614 0.093176 0.032177 -0.001398 -0.037788 0.100974 0.068005 0.062623 0.095422 0.053725 -0.018647 0.030394 0.124689 0.058626 0.222645 0.108775 0.071947 0.088117 0.153722 0.217349 0.106149 0.099189 -0.055315 -0.100526 0.508172 0.330287 0.393281 0.576026 0.287532 0.304460 0.133231 0.517947 0.234959 0.343106 -0.096048 -1.752109
0.072396 0.072837 0.074160 0.076365 0.079452 0.083419 0.088265 0.093991 0.100593 0.108070 0.116420 0.125638 0.135723 0.146668 0.158469 0.171119 0.184609 0.198932 0.214077 0.230032 0.246782 0.264311 0.282603 0.301635 0.321386 0.341830 0.362937 0.384676 0.407012 0.429905 0.453315 0.477193 0.501489 0.526148 0.551111 0.576313 0.601686 0.627154 0.652639 0.678056 0.703317 0.728325 0.752981 0.777180 0.800810 0.823757 0.845900 0.867115 0.887270 0.906235 0.923870 0.940038 0.954593 0.967393 0.978291 0.987140 0.993795 0.998111 0.999944 0.999155 0.995609 0.989177 0.979736 0.967173 0.951383 0.932273 0.909762 0.883786 0.854293 0.821252 0.784649 0.744492 0.700810 0.653657 0.603112 0.549279 0.492293 0.432315 0.369537 0.304181 0.236499 0.166777 0.095329 0.022501 0.051329 0.125757 0.200350 0.274648 0.348169 0.420407 0.490842 0.558937 0.624143 0.685907 0.743674 0.796892 0.845020 0.887530 0.923917 0.953703 0.976446 0.991745 0.999247 0.998656 0.989736 0.972321 0.946320 0.911722 0.868602 0.817125 0.757552 0.690238 0.615639 0.534310 0.446904 0.354171 0.256954 0.156184 0.052873 0.051891 0.156959 0.261130 0.363161 0.461786 0.555732 0.643730 0.724539 0.796965 0.859876 0.912225 0.953072 0.981597 0.997126 0.999145 0.987316 0.961495 0.921740 0.868323 0.801735 0.722694 0.632134 0.531215 0.421300 0.303952 0.180912 0.054078 0.074520 0.202751 0.328419 0.449295 0.563162 0.667855 0.761305 0.841584 0.906947 0.955878 0.987127 0.999754 0.993151 0.967082 0.921694 0.857537 0.775570 0.677154 0.564043 0.438361 0.302573 0.159440 0.011971 0.136637 0.283063 0.423941 0.555931 0.675806 0.780532 0.867354 0.933871 0.978115 0.998617 0.994463 0.965341 0.911574 0.834134 0.734643 0.615355 0.479117 0.329312 0.169791 0.004775 0.161245 0.323629 0.477721 0.618975 0.743108 0.846221 0.924943 0.976549 0.999067 0.991367 0.953224 0.885362 0.789461 0.668140 0.524899 0.364042 0.190552 0.009962 0.171829 0.348731 0.514680 0.663835 0.790804 0.890840 0.960040 0.995509 0.995499 0.959516 0.888371 0.784202 0.650428 0.491666 0.313591 0.122747 0.073676 0.268106 0.452882 0.620553 0.764190 0.877683 0.956018 0.995520 0.994045 0.951124 0.868025 0.747760 0.595001 0.415934 0.218024 0.009721 0.199874 0.401419 0.585733 0.744236 0.869347 0.954879 0.996365 0.991320 0.939413 0.842550 0.704846 0.532476 0.333449 0.117240 0.105626 0.324085 0.527067 0.704085 0.845769 0.944399 0.994346 0.992429 0.938153 0.833803 0.684400 0.497503 0.282856 0.051914 0.182747 0.408108 0.611432 0.780983 0.906742 0.981016 0.998949 0.958880 0.862523 0.714955 0.524387 0.301772 0.060184 0.185907 0.421497 0.631961 0.803974 0.926387 0.990974 0.993038 0.931794 0.810517 0.636427 0.420318 0.175933 0.080890 0.333196 0.564056 0.757694 0.900596 0.982491 0.997134 0.942838 0.822697 0.644486 0.420210 0.165354 0.102145 0.363155 0.598691 0.791318 0.926477 0.993623 0.987106 0.906703 0.757767 0.550930 0.301430 0.028013 0.248412 0.506380 0.725533 0.888248 0.981109 0.996060 0.931180 0.790967 0.586115 0.332768 0.051316 0.235225 0.503045 0.729559 0.895305 0.985693 0.992340 0.913924 0.756452 0.532888 0.262165 0.032363 0.324880 0.589375 0.801961 0.943068 0.999315 0.964848 0.842032 0.641408 0.380873 0.084164 0.221252 0.506689 0.744958 0.912962 0.994020 0.979593 0.870274 0.675916 0.414841 0.112213 0.202351 0.497615 0.743856 0.915874 0.995644
1.000000 1.000000 1.000000 1.000000 1.000000 1.000000 1.000000 1.000000 1.000000 1.000000 1.000000 1.000000 1.000000 1.000000 1.000000 1.000000 1.000000 1.000000 1.000000 1.000000 1.000000 1.000000 1.000000 1.000000 1.000000 1.000000 1.000000 1.000000 1.000000 1.000000 1.000000 1.000000 1.000000 1.000000 1.000000 1.000000 1.000000 1.000000 1.000000 1.000000 1.000000 1.000000 1.000000 1.000000 1.000000 1.000000 1.000000 1.000000 1.000000 1.000000 1.000000 1.000000 0.782107 0.782107 0.782107 0.782107 0.782107 0.782107 0.782107 0.767895 0.767895 0.767895 0.767895 0.767895 0.767895 0.767895 0.767895 0.767895 0.767895 0.767895 0.767895 0.767895 0.767895 0.767895 0.767895 0.767895 0.767895 0.767895 0.767895 0.767895 0.767895 0.767895 0.767895 0.767895 0.767895 0.767895 0.767895 0.767895 0.767895 0.767895 0.767895 0.767895 0.767895 0.767895 0.767895 0.767895 0.767895 0.767895 0.767895 0.767895 0.767895 0.767895 0.767895 0.917318 0.917564 0.920016 0.914126 0.915881 0.913581 0.907678 0.910629 0.909754 0.909636 0.910471 0.911588 0.913390 0.918550 0.925112 0.926947 0.934907 0.938507 0.939729 0.939599 0.936995 0.943718 0.941420 0.939310 0.928326 0.931429 0.930676 0.931192 0.929704 0.930129 0.932038 0.932340 0.929910 0.928402 0.926014 0.924414 0.924690 0.924224 0.924142 0.924291 0.923569 0.924318 0.924986 0.920628 0.922010 0.920365 0.917742 0.913333 0.913122 0.913954 0.907089 0.904761 0.894823 0.889839 0.889942 0.892137 0.889142 0.888397 0.890274 0.891013 0.891703 0.889136 0.889243 0.886734 0.886986 0.883092 0.878709 0.874519 0.874070 0.876685 0.883276 0.886810 0.886597 0.883691 0.878121 0.869173 0.867344 0.852929 0.828403 0.829019 0.831504 0.833559 0.834464 0.833262 0.832115 0.829112 0.823790 0.818256 0.823567 0.823842 0.815911 0.802837 0.802766 0.798331 0.805867 0.809975 0.801944 0.803937 0.803082 0.808258 0.809008 0.807568 0.806935 0.801462 0.803425 0.811858 0.812399 0.804172 0.797509 0.793138 0.774974 0.777543 0.782585 0.794232 0.797202 0.791037 0.775927 0.786167 0.782207 0.793921 0.807150 0.807941 0.806688 0.790435 0.749977 0.737076 0.729401 0.731544 0.732897 0.722195 0.720181 0.719604 0.722303 0.686409 0.678346 0.668622 0.665753 0.674189 0.675706 0.680833 0.630054 0.648113 0.646126 0.629808 0.625326 0.587374 0.568517 0.511144 0.516649 0.517690 0.495355 0.481970 0.469926 0.486373 0.498516 0.498281 0.491899 0.469379 0.453211 0.448723 0.452283 0.461379 0.461603 0.467448 0.426003 0.407743 0.404950 0.425461 0.430180 0.428505 0.442967 0.449520 0.451869 0.438952 0.420349 0.416098 0.430509 0.440382 0.448158 0.448538 0.434458 0.414046 0.391952 0.395963 0.438528 0.433941 0.429587 0.412236 0.419968 0.415160 0.391603 0.366621 0.346080 0.383755 0.391135 0.394517 0.355684 0.319580 0.332407 0.329977 0.326241 0.313756 0.352597 0.375661 0.372401 0.376350 0.367165 0.414525 0.493256 0.483324 0.476713 0.490571 0.480290 0.464761 0.445037 0.429226 0.426753 0.416375 0.406799 0.390656 0.382248 0.368103 0.366928 0.385327 0.388133 0.419268 0.398940 0.350957 0.204141 0.258315 0.258315 0.258315 0.258315 0.258315 0.258315 0.258315 0.258315 0.258315 0.258315 0.258315 0.199964 0.199964 0.199964 0.199964 0.199964 0.199964 0.199964 0.199964 0.199964 0.199964 0.199964 0.199964 0.199964 0.199964 0.199964 0.199964 0.199964 0.199964 0.199964 0.199964
0.000000 0.000000 0.000000 0.000000 0.000000 0.000000 0.000000 0.000000 0.000000 0.000000 0.000000 0.000000 0.000000 0.000000 0.000000 0.000000 0.000000 0.000000 0.000000 0.000000 0.000000 0.000000 0.000000 0.000000 0.000000 0.000000 0.000000 0.000000 0.000000 0.000000 0.000000 0.000000 0.000000 0.000000 0.000000 0.000000 0.000000 0.000000 0.000000 0.000000 0.000000 0.000000 0.000000 0.000000 0.000000 0.000000 0.000000 0.000000 0.000000 0.000000 0.000000 0.000000 0.173422 0.173422 0.173422 0.173422 0.173422 0.173422 0.173422 0.191565 0.191565 0.191565 0.191565 0.191565 0.191565 0.191565 0.191565 0.191565 0.191565 0.191565 0.191565 0.191565 0.191565 0.191565 0.191565 0.191565 0.191565 0.191565 0.191565 0.191565 0.191565 0.191565 0.191565 0.191565 0.191565 0.191565 0.191565 0.191565 0.191565 0.191565 0.191565 0.191565 0.191565 0.191565 0.191565 0.191565 0.191565 0.191565 0.191565 0.191565 0.191565 0.191565 0.191565 0.222222 0.222222 0.222222 0.222222 0.222222 0.222222 0.222222 0.222222 0.222222 0.222222 0.222222 0.222222 0.222222 0.222222 0.222222 0.222222 0.222222 0.222222 0.222222 0.222222 0.222222 0.222222 0.222222 0.222222 0.222222 0.222222 0.222222 0.222222 0.222222 0.222222 0.234082 0.234082 0.234082 0.234082 0.234082 0.234082 0.234082 0.234082 0.234082 0.234082 0.234082 0.234082 0.234082 0.234082 0.234082 0.234082 0.234082 0.234082 0.234082 0.234082 0.234082 0.234082 0.234082 0.234082 0.234082 0.244339 0.244339 0.244339 0.244339 0.244339 0.244339 0.244339 0.244339 0.244339 0.244339 0.244339 0.244339 0.244339 0.244339 0.244339 0.244339 0.244339 0.244339 0.244339 0.244339 0.244339 0.248069 0.248069 0.248069 0.248069 0.248069 0.248069 0.248069 0.248069 0.248069 0.248069 0.248069 0.248069 0.248069 0.248069 0.248069 0.248069 0.248069 0.248069 0.248069 0.256074 0.256074 0.256074 0.256074 0.256074 0.256074 0.256074 0.256074 0.256074 0.256074 0.256074 0.256074 0.256074 0.256074 0.256074 0.256074 0.256074 0.256074 0.256074 0.256074 0.256074 0.256074 0.256074 0.256074 0.256074 0.256074 0.256074 0.256074 0.256074 0.256074 0.256074 0.256074 0.256074 0.256074 0.256074 0.256074 0.256074 0.256074 0.256074 0.256074 0.256074 0.256074 0.256074 0.256074 0.256074 0.256074 0.256074 0.256074 0.256074 0.256074 0.256074 0.256074 0.256074 0.256074 0.256074 0.256074 0.256074 0.256074 0.256074 0.256074 0.256074 0.256074 0.260378 0.260378 0.260378 0.260378 0.260378 0.260378 0.260378 0.260378 0.260378 0.260378 0.260378 0.260378 0.260378 0.256074 0.256074 0.256074 0.256074 0.256074 0.256074 0.256074 0.256074 0.256074 0.256074 0.256074 0.256074 0.256074 0.260378 0.260378 0.260378 0.260378 0.260378 0.260378 0.260378 0.260378 0.260378 0.260378 0.260378 0.260378 0.251976 0.251976 0.251976 0.251976 0.251976 0.251976 0.251976 0.251976 0.251976 0.251976 0.251976 0.251976 0.256074 0.256074 0.256074 0.256074 0.256074 0.256074 0.256074 0.256074 0.256074 0.256074 0.256074 0.251976 0.251976 0.251976 0.251976 0.251976 0.251976 0.251976 0.251976 0.251976 0.251976 0.251976 0.248069 0.248069 0.248069 0.248069 0.248069 0.248069 0.248069 0.248069 0.248069 0.248069 0.248069 0.256074 0.256074 0.256074 0.256074 0.256074 0.256074 0.256074 0.256074 0.256074 0.256074 0.256074 0.256074 0.256074 0.256074 0.256074 0.256074 0.256074 0.256074 0.256074 0.256074
