# Output from CTFFind version 4.1.9, run on 2019-11-03 19:46:58
# Input file: stack1_bm3d_averaged_1_5.25_0_1250_half.mrc ; Number of micrographs: 1
# Pixel size: 3.000 Angstroms ; acceleration voltage: 300.0 keV ; spherical aberration: 0.00 mm ; amplitude contrast: 0.07
# Box size: 512 pixels ; min. res.: 30.0 Angstroms ; max. res.: 5.0 Angstroms ; min. def.: 5000.0 um; max. def. 50000.0 um; num. frames averaged: 1
# 6 lines per micrograph: #1 - spatial frequency (1/Angstroms); #2 - 1D rotational average of spectrum (assuming no astigmatism); #3 - 1D rotational average of spectrum; #4 - CTF fit; #5 - cross-correlation between spectrum and CTF fit; #6 - 2sigma of expected cross correlation of noise
0.000000 0.000651 0.001302 0.001953 0.002604 0.003255 0.003906 0.004557 0.005208 0.005859 0.006510 0.007161 0.007812 0.008464 0.009115 0.009766 0.010417 0.011068 0.011719 0.012370 0.013021 0.013672 0.014323 0.014974 0.015625 0.016276 0.016927 0.017578 0.018229 0.018880 0.019531 0.020182 0.020833 0.021484 0.022135 0.022786 0.023438 0.024089 0.024740 0.025391 0.026042 0.026693 0.027344 0.027995 0.028646 0.029297 0.029948 0.030599 0.031250 0.031901 0.032552 0.033203 0.033854 0.034505 0.035156 0.035807 0.036458 0.037109 0.037760 0.038411 0.039062 0.039714 0.040365 0.041016 0.041667 0.042318 0.042969 0.043620 0.044271 0.044922 0.045573 0.046224 0.046875 0.047526 0.048177 0.048828 0.049479 0.050130 0.050781 0.051432 0.052083 0.052734 0.053385 0.054036 0.054688 0.055339 0.055990 0.056641 0.057292 0.057943 0.058594 0.059245 0.059896 0.060547 0.061198 0.061849 0.062500 0.063151 0.063802 0.064453 0.065104 0.065755 0.066406 0.067057 0.067708 0.068359 0.069010 0.069661 0.070312 0.070964 0.071615 0.072266 0.072917 0.073568 0.074219 0.074870 0.075521 0.076172 0.076823 0.077474 0.078125 0.078776 0.079427 0.080078 0.080729 0.081380 0.082031 0.082682 0.083333 0.083984 0.084635 0.085286 0.085938 0.086589 0.087240 0.087891 0.088542 0.089193 0.089844 0.090495 0.091146 0.091797 0.092448 0.093099 0.093750 0.094401 0.095052 0.095703 0.096354 0.097005 0.097656 0.098307 0.098958 0.099609 0.100260 0.100911 0.101562 0.102214 0.102865 0.103516 0.104167 0.104818 0.105469 0.106120 0.106771 0.107422 0.108073 0.108724 0.109375 0.110026 0.110677 0.111328 0.111979 0.112630 0.113281 0.113932 0.114583 0.115234 0.115885 0.116536 0.117188 0.117839 0.118490 0.119141 0.119792 0.120443 0.121094 0.121745 0.122396 0.123047 0.123698 0.124349 0.125000 0.125651 0.126302 0.126953 0.127604 0.128255 0.128906 0.129557 0.130208 0.130859 0.131510 0.132161 0.132812 0.133464 0.134115 0.134766 0.135417 0.136068 0.136719 0.137370 0.138021 0.138672 0.139323 0.139974 0.140625 0.141276 0.141927 0.142578 0.143229 0.143880 0.144531 0.145182 0.145833 0.146484 0.147135 0.147786 0.148438 0.149089 0.149740 0.150391 0.151042 0.151693 0.152344 0.152995 0.153646 0.154297 0.154948 0.155599 0.156250 0.156901 0.157552 0.158203 0.158854 0.159505 0.160156 0.160807 0.161458 0.162109 0.162760 0.163411 0.164062 0.164714 0.165365 0.166016 0.166667 0.167318 0.167969 0.168620 0.169271 0.169922 0.170573 0.171224 0.171875 0.172526 0.173177 0.173828 0.174479 0.175130 0.175781 0.176432 0.177083 0.177734 0.178385 0.179036 0.179688 0.180339 0.180990 0.181641 0.182292 0.182943 0.183594 0.184245 0.184896 0.185547 0.186198 0.186849 0.187500 0.188151 0.188802 0.189453 0.190104 0.190755 0.191406 0.192057 0.192708 0.193359 0.194010 0.194661 0.195312 0.195964 0.196615 0.197266 0.197917 0.198568 0.199219 0.199870 0.200521 0.201172 0.201823 0.202474 0.203125 0.203776 0.204427 0.205078 0.205729 0.206380 0.207031 0.207682 0.208333 0.208984 0.209635 0.210286 0.210938 0.211589 0.212240 0.212891 0.213542 0.214193 0.214844 0.215495 0.216146 0.216797 0.217448 0.218099 0.218750 0.219401 0.220052 0.220703 0.221354 0.222005 0.222656 0.223307 0.223958 0.224609 0.225260 0.225911 0.226562 0.227214 0.227865 0.228516 0.229167 0.229818 0.230469 0.231120 0.231771 0.232422 0.233073 0.233724 0.234375 0.235026 0.235677
       0.34988        0.34988        0.34988        0.34988        0.34988        0.34988        0.34988        0.34988        0.34988        0.34988        0.34988        0.34988        0.34988        0.34988        0.34988        0.34988        0.34988        0.34988        0.34988        0.34988        0.34988        0.34988        0.34988        0.34988        0.34988        0.34988        0.34988        0.34988        0.34988        0.34988        0.34988        0.34988        0.34988        0.34988        0.34988        0.34988        0.34988        0.34988        0.34988        0.34988        0.34988        0.34988        0.34988        0.34988        0.34988        0.34988        0.34988        0.34988        0.34988        0.34988        0.34988        0.40442        0.59239        0.27909        0.12495       -0.01546       -0.27056       -0.09774       -0.17414       -0.20448        0.01620       -0.13126       -0.11116       -0.05825       -0.03772       -0.12931       -0.15818       -0.29602       -0.39878       -0.50362       -0.44497       -0.34546       -0.27209       -0.39467       -0.30546       -0.40210       -0.33792       -0.38479       -0.20412       -0.19999       -0.25613       -0.09054       -0.04463       -0.04679        0.08214        0.03036        0.20333        0.21973        0.33372        0.36712        0.45054        0.48450        0.53891        0.60114        0.66683        0.56785        0.52667        0.50603        0.48501        0.56941        0.48063        0.42617        0.40689        0.33121        0.28577        0.30895        0.32224        0.22101        0.19213        0.09271        0.13007        0.13377        0.15770        0.12625        0.19073        0.24119        0.30046        0.29764        0.33082        0.46191        0.42141        0.48637        0.63315        0.62348        0.55534        0.55292        0.57707        0.42638        0.48037        0.36886        0.31676        0.29052        0.24795        0.25174        0.19432        0.17080        0.15150        0.22259        0.24734        0.27613        0.34077        0.32809        0.40711        0.47372        0.46995        0.44976        0.47925        0.55104        0.49158        0.47829        0.42369        0.35294        0.34002        0.26606        0.29711        0.23413        0.21982        0.28506        0.23397        0.25642        0.32100        0.41385        0.41436        0.44663        0.42561        0.50433        0.49813        0.46863        0.43689        0.39142        0.38167        0.39299        0.40250        0.34392        0.28213        0.31349        0.29063        0.29466        0.30013        0.34441        0.37410        0.39641        0.45393        0.49078        0.40886        0.42924        0.43128        0.39482        0.33024        0.36937        0.32606        0.31881        0.33362        0.29245        0.26173        0.32524        0.34090        0.41555        0.42553        0.41538        0.40574        0.39804        0.37328        0.37156        0.31159        0.31658        0.34844        0.30264        0.31181        0.32977        0.34646        0.34884        0.35382        0.38700        0.38535        0.45710        0.39409        0.34226        0.36279        0.34419        0.33354        0.33113        0.33266        0.37344        0.33441        0.35644        0.35215        0.41285        0.37733        0.36250        0.38405        0.37994        0.36061        0.34064        0.33233        0.30956        0.35109        0.33058        0.31384        0.32724        0.36080        0.35168        0.34297        0.33594        0.30373        0.29985        0.27834        0.31197        0.33272        0.35038        0.33501        0.32362        0.37169        0.33370        0.34147        0.32504        0.30069        0.34207        0.31775        0.31550        0.34228        0.32556        0.31650        0.29859        0.34178        0.37008        0.32453        0.31332        0.32035        0.32203        0.29969        0.35241        0.32225        0.28904        0.33791        0.30341        0.34569        0.35482        0.37506        0.31406        0.31365        0.26627        0.33568        0.36127        0.34341        0.31379        0.31033        0.33068        0.32322        0.29158        0.31789        0.31933        0.31495        0.30763        0.30084        0.29799        0.29668        0.29958        0.32049        0.28066        0.31044        0.35612        0.36820        0.34786        0.31674        0.32938        0.28381        0.30613        0.28864        0.33340        0.34094        0.27353        0.26092        0.32352        0.33018        0.31978        0.28808        0.30126        0.32758        0.28962        0.30626        0.33433        0.32925        0.28228        0.25659        0.30073        0.33875        0.28590        0.26221        0.28598        0.27348        0.30513        0.36552        0.30765        0.32900        0.28043        0.26332        0.29932        0.28741        0.23269        0.25443        0.28127        0.24865        0.21887        0.26516        0.29157        0.39587        0.29788        0.25670        0.21091        0.24236        0.25898        0.24508        0.32730        0.20644        0.15890        0.29689        0.40239        0.30453        0.13073        0.06550       -0.57457       -1.11223
3.004879 2.972115 2.939532 2.907130 2.874909 2.842869 2.811010 2.779332 2.747835 2.716520 2.685385 2.654431 2.623659 2.593067 2.562657 2.532427 2.502379 2.472512 2.442826 2.413321 2.383997 2.354854 2.325892 2.297111 2.268511 2.240093 2.211855 2.183799 2.155923 2.128229 2.100716 2.073383 2.046232 2.019262 1.992473 1.965865 1.939438 1.913192 1.887127 1.861244 1.835541 1.810019 1.784679 1.759519 1.734541 1.709744 1.685127 1.660692 1.636438 1.612365 1.588473 1.550976 1.901577 1.642677 1.180548 1.024812 0.413210 0.896873 0.520488 0.659862 0.887054 0.684958 0.582091 0.756196 0.699018 0.618000 0.521794 0.328625 0.111260 -0.021570 -0.018340 0.009036 0.390031 -0.040944 0.124108 -0.002151 0.062702 -0.062607 0.201951 0.173439 0.081528 0.266764 0.380218 0.280503 0.475053 0.391649 0.674683 0.564302 0.807639 0.761483 0.869063 1.030764 0.929998 1.124725 1.143621 1.102519 0.910119 0.894350 0.882003 0.906855 0.862134 0.749245 0.643788 0.592211 0.508548 0.474822 0.512388 0.366187 0.323812 0.167411 0.128977 0.171025 0.189132 0.122692 0.162739 0.249348 0.331648 0.331066 0.391247 0.406233 0.544916 0.384609 0.724684 0.753698 0.654909 0.598180 0.659570 0.446736 0.418099 0.391132 0.203868 0.215208 0.063639 0.158319 -0.007387 0.001922 -0.072597 -0.055399 0.106606 0.028879 0.116407 0.169481 0.208633 0.286809 0.350385 0.291042 0.332050 0.388349 0.392262 0.329958 0.284263 0.189441 0.143178 0.057761 -0.008300 0.008058 -0.111502 0.012803 0.011009 -0.086981 -0.045567 0.118804 0.247050 0.164273 0.253423 0.207645 0.420776 0.278714 0.267387 0.271762 0.152727 0.112977 0.290619 0.074679 0.077303 0.010598 0.075788 -0.008912 0.082037 0.000485 0.165831 0.055238 0.203763 0.264432 0.271065 0.125327 0.198152 0.162125 0.088989 0.084283 0.078611 0.007083 0.017721 0.052875 -0.085052 -0.060778 0.045915 0.047166 0.210689 0.120143 0.149038 0.066271 0.098621 0.043008 0.022334 -0.069786 -0.005058 0.000227 -0.068062 -0.023167 -0.008162 0.024053 -0.027130 0.033042 0.070473 0.078751 0.202417 -0.004126 0.031455 0.026746 -0.022191 -0.001934 -0.020884 0.018474 0.068477 -0.029955 0.016419 0.038716 0.133170 0.025649 0.036852 0.085093 0.022365 0.044042 -0.018668 0.002985 -0.036229 0.022221 -0.010950 -0.028829 -0.015814 0.054968 -0.015755 0.028344 -0.022479 -0.052009 -0.054832 -0.084795 -0.021224 0.009306 0.043617 -0.024496 -0.004869 0.078213 -0.006673 0.040071 -0.016088 -0.018623 0.036464 -0.021080 0.022689 0.040708 0.017129 -0.007386 -0.019733 0.066220 0.078779 0.018046 0.018661 0.044885 -0.015035 0.028044 0.077310 0.022808 -0.001759 0.062570 0.031192 0.040804 0.056665 0.076563 0.021189 -0.020977 -0.077389 0.057683 0.099376 0.002755 0.008638 -0.011858 0.089495 -0.008614 -0.042775 0.025514 0.033075 0.008454 0.000443 -0.039719 0.010045 -0.041974 0.006308 -0.014394 -0.069700 0.036781 0.075585 0.095626 0.027204 0.015040 -0.006061 -0.021124 -0.021940 -0.028600 0.018038 0.040053 -0.095274 -0.081274 0.018533 0.008466 0.019290 -0.051895 -0.075633 0.004485 -0.038770 -0.051721 0.068880 -0.015031 -0.030500 -0.089967 -0.026358 0.051115 -0.032094 -0.021433 -0.015496 0.026199 0.045718 0.138358 0.023864 0.067745 0.077020 -0.127792 0.079512 0.008210 -0.040598 -0.014907 0.061518 0.015597 -0.021068 -0.010460 0.092506 0.200704 0.019111 0.098901 -0.105956 0.020266 0.094360 0.016407 0.184579 0.259416 0.225533 0.513545 0.642541 0.288014 0.094327 0.100244 -1.586011
0.072396 0.072906 0.074435 0.076983 0.080549 0.085133 0.090733 0.097347 0.104973 0.113609 0.123251 0.133894 0.145533 0.158161 0.171770 0.186351 0.201892 0.218380 0.235799 0.254132 0.273357 0.293451 0.314386 0.336132 0.358655 0.381916 0.405871 0.430474 0.455671 0.481404 0.507609 0.534218 0.561153 0.588334 0.615671 0.643070 0.670428 0.697636 0.724578 0.751130 0.777163 0.802540 0.827117 0.850743 0.873263 0.894514 0.914330 0.932537 0.948962 0.963424 0.975744 0.985739 0.993228 0.998030 0.999967 0.998867 0.994563 0.986894 0.975712 0.960878 0.942268 0.919773 0.893303 0.862789 0.828182 0.789461 0.746631 0.699725 0.648811 0.593987 0.535390 0.473192 0.407605 0.338881 0.267312 0.193232 0.117018 0.039085 0.040107 0.120063 0.200248 0.280093 0.358997 0.436331 0.511442 0.583661 0.652304 0.716682 0.776106 0.829898 0.877394 0.917959 0.950991 0.975936 0.992290 0.999617 0.997555 0.985825 0.964241 0.932721 0.891293 0.840099 0.779409 0.709618 0.631253 0.544974 0.451571 0.351966 0.247205 0.138450 0.026972 0.085862 0.198603 0.309741 0.417715 0.520947 0.617857 0.706889 0.786541 0.855392 0.912129 0.955577 0.984727 0.998761 0.997080 0.979326 0.945403 0.895490 0.830059 0.749875 0.656002 0.549800 0.432909 0.307237 0.174932 0.038354 0.099966 0.237362 0.371097 0.498399 0.616537 0.722867 0.814908 0.890399 0.947362 0.984163 0.999565 0.992779 0.963502 0.911948 0.838868 0.745560 0.633853 0.506096 0.365117 0.214172 0.056876 0.102871 0.260978 0.413268 0.555585 0.683914 0.794501 0.883966 0.949423 0.988581 0.999840 0.982367 0.936152 0.862048 0.761775 0.637909 0.493830 0.333652 0.162121 0.015518 0.193667 0.366552 0.528409 0.673675 0.797197 0.894418 0.961564 0.995806 0.995402 0.959797 0.889696 0.787078 0.655172 0.498393 0.322202 0.132948 0.062351 0.256255 0.441190 0.609733 0.754929 0.870585 0.951556 0.993994 0.995561 0.955575 0.875103 0.756977 0.605724 0.427434 0.229545 0.020543 0.190374 0.393698 0.580045 0.740582 0.867480 0.954301 0.996367 0.991039 0.937910 0.838905 0.698259 0.522372 0.319573 0.099738 0.126157 0.346571 0.549990 0.725538 0.863567 0.956222 0.997923 0.985738 0.919627 0.802536 0.640321 0.441505 0.216875 0.021069 0.258798 0.482499 0.678895 0.836042 0.944090 0.995939 0.987750 0.919281 0.794005 0.618996 0.404594 0.163844 0.088271 0.335730 0.562490 0.753542 0.895918 0.979623 0.998383 0.950171 0.837471 0.667217 0.450455 0.201669 0.062138 0.322564 0.561103 0.760459 0.905834 0.986071 0.994569 0.929899 0.796042 0.602229 0.362390 0.094213 0.182129 0.445447 0.675190 0.853043 0.964458 0.999884 0.955681 0.834545 0.645462 0.403123 0.126861 0.160841 0.436145 0.675835 0.859306 0.970367 0.998760 0.941183 0.801749 0.591800 0.329097 0.036374 0.260567 0.535095 0.762166 0.920636 0.995298 0.978428 0.870684 0.681234 0.427097 0.131708 0.177176 0.470052 0.718471 0.897858 0.989989 0.984952 0.882312 0.691373 0.430460 0.125264 0.193607 0.493657 0.743819 0.917703 0.996473 0.970974 0.842930 0.624993 0.339620 0.016884 0.308642 0.601551 0.829458 0.966661 0.997129 0.916498 0.732814 0.465895 0.145300 0.192819 0.509762 0.768699 0.939003 0.999975 0.943477 0.775173 0.514122 0.190778 0.156449 0.485701 0.756705 0.935749 0.999973 0.940438 0.763512 0.490386 0.154682 0.201554 0.533063 0.797118 0.959105 0.997162 0.905296 0.694474 0.391523 0.035854 0.325542 0.644259 0.876982
1.000000 1.000000 1.000000 1.000000 1.000000 1.000000 1.000000 1.000000 1.000000 1.000000 1.000000 1.000000 1.000000 1.000000 1.000000 1.000000 1.000000 1.000000 1.000000 1.000000 1.000000 1.000000 1.000000 1.000000 1.000000 1.000000 1.000000 1.000000 1.000000 1.000000 1.000000 1.000000 1.000000 1.000000 1.000000 1.000000 1.000000 1.000000 1.000000 1.000000 1.000000 1.000000 1.000000 1.000000 1.000000 1.000000 1.000000 1.000000 1.000000 1.000000 1.000000 1.000000 0.838417 0.838417 0.838417 0.845051 0.845051 0.845051 0.845051 0.845051 0.845051 0.845051 0.845051 0.845051 0.845051 0.845051 0.845051 0.845051 0.845051 0.845051 0.845051 0.845051 0.845051 0.845051 0.845051 0.845051 0.845051 0.845051 0.845051 0.845051 0.845051 0.845051 0.845051 0.845051 0.845051 0.845051 0.845051 0.845051 0.845051 0.845051 0.845051 0.845051 0.845051 0.845051 0.845051 0.845051 0.856595 0.862286 0.864818 0.867553 0.870587 0.867808 0.866684 0.866218 0.866404 0.867314 0.878296 0.903157 0.919847 0.925536 0.936816 0.940564 0.945928 0.947158 0.956033 0.959974 0.961743 0.958286 0.957647 0.959541 0.949956 0.939850 0.937754 0.934894 0.951465 0.940656 0.936512 0.932327 0.930464 0.927969 0.927988 0.929471 0.922489 0.923083 0.923854 0.923021 0.923562 0.921480 0.920312 0.903336 0.904450 0.903838 0.907010 0.885811 0.879002 0.869947 0.867012 0.878088 0.871056 0.863951 0.862751 0.851773 0.852197 0.851951 0.851919 0.837487 0.835470 0.832244 0.828352 0.827897 0.827260 0.832938 0.834377 0.835651 0.822857 0.798155 0.780534 0.756001 0.754509 0.755312 0.759306 0.753249 0.754418 0.750592 0.747548 0.740719 0.739352 0.732287 0.735464 0.731560 0.724090 0.718175 0.693554 0.686437 0.685753 0.659117 0.653459 0.657014 0.657914 0.627337 0.623118 0.625887 0.632273 0.637869 0.649616 0.643397 0.632618 0.600716 0.574728 0.556090 0.571646 0.589080 0.577859 0.581085 0.558092 0.594514 0.600435 0.620951 0.633386 0.636545 0.627382 0.591488 0.548997 0.549045 0.547127 0.549016 0.547440 0.546924 0.554220 0.580499 0.559696 0.542248 0.529764 0.524009 0.529647 0.543724 0.523214 0.516118 0.486998 0.462298 0.444706 0.451046 0.431846 0.417169 0.411607 0.402442 0.385841 0.390841 0.408109 0.401772 0.398885 0.402394 0.400108 0.411899 0.374887 0.326500 0.328272 0.321966 0.320112 0.307018 0.294683 0.300985 0.309814 0.319852 0.352443 0.324043 0.305628 0.279499 0.288384 0.274820 0.295525 0.282400 0.266362 0.246644 0.221472 0.195376 0.196209 0.223746 0.253717 0.222364 0.186845 0.166739 0.156762 0.132994 0.125849 0.067568 0.010383 -0.001869 0.007314 0.005901 0.012134 0.011264 -0.006216 0.016243 0.027548 0.073736 0.046607 0.041256 0.021172 0.033988 -0.002504 -0.011804 -0.037695 -0.038469 -0.023748 0.002404 -0.034810 -0.050818 -0.072639 -0.063039 -0.102655 -0.087372 -0.095573 -0.089038 -0.095068 -0.138649 -0.149025 -0.170698 -0.187116 -0.173884 -0.169312 -0.173328 -0.219799 -0.223125 -0.211748 -0.213609 -0.218487 -0.190615 -0.197098 -0.178376 -0.178832 -0.178747 -0.143787 -0.145309 -0.159132 -0.161625 -0.147805 -0.165443 -0.159511 -0.116231 -0.117228 -0.150095 -0.152388 -0.152388 -0.152388 -0.152388 -0.152388 -0.152388 -0.136071 -0.136071 -0.136071 -0.136071 -0.136071 -0.136071 -0.136071 -0.136071 -0.136071 -0.072103 -0.072103 -0.072103 -0.072103 -0.072103 -0.072103 -0.072103 -0.072103 -0.072103 -0.072103 -0.072103 -0.072103 -0.072103 -0.072103 -0.072103 -0.072103
0.000000 0.000000 0.000000 0.000000 0.000000 0.000000 0.000000 0.000000 0.000000 0.000000 0.000000 0.000000 0.000000 0.000000 0.000000 0.000000 0.000000 0.000000 0.000000 0.000000 0.000000 0.000000 0.000000 0.000000 0.000000 0.000000 0.000000 0.000000 0.000000 0.000000 0.000000 0.000000 0.000000 0.000000 0.000000 0.000000 0.000000 0.000000 0.000000 0.000000 0.000000 0.000000 0.000000 0.000000 0.000000 0.000000 0.000000 0.000000 0.000000 0.000000 0.000000 0.000000 0.180334 0.180334 0.180334 0.199007 0.199007 0.199007 0.199007 0.199007 0.199007 0.199007 0.199007 0.199007 0.199007 0.199007 0.199007 0.199007 0.199007 0.199007 0.199007 0.199007 0.199007 0.199007 0.199007 0.199007 0.199007 0.199007 0.199007 0.199007 0.199007 0.199007 0.199007 0.199007 0.199007 0.199007 0.199007 0.199007 0.199007 0.199007 0.199007 0.199007 0.199007 0.199007 0.199007 0.199007 0.230940 0.230940 0.230940 0.230940 0.230940 0.230940 0.230940 0.230940 0.230940 0.230940 0.230940 0.230940 0.230940 0.230940 0.230940 0.230940 0.230940 0.230940 0.230940 0.230940 0.230940 0.230940 0.230940 0.230940 0.230940 0.230940 0.230940 0.230940 0.244339 0.244339 0.244339 0.244339 0.244339 0.244339 0.244339 0.244339 0.244339 0.244339 0.244339 0.244339 0.244339 0.244339 0.244339 0.244339 0.244339 0.244339 0.244339 0.244339 0.244339 0.244339 0.244339 0.256074 0.256074 0.256074 0.256074 0.256074 0.256074 0.256074 0.256074 0.256074 0.256074 0.256074 0.256074 0.256074 0.256074 0.256074 0.256074 0.256074 0.256074 0.256074 0.256074 0.256074 0.256074 0.256074 0.256074 0.256074 0.256074 0.256074 0.256074 0.256074 0.256074 0.256074 0.256074 0.256074 0.256074 0.256074 0.256074 0.256074 0.264906 0.264906 0.264906 0.264906 0.264906 0.264906 0.264906 0.264906 0.264906 0.264906 0.264906 0.264906 0.264906 0.264906 0.264906 0.264906 0.264906 0.264906 0.264906 0.264906 0.264906 0.264906 0.264906 0.264906 0.264906 0.264906 0.264906 0.264906 0.264906 0.264906 0.264906 0.264906 0.264906 0.264906 0.264906 0.264906 0.264906 0.264906 0.264906 0.264906 0.264906 0.264906 0.264906 0.264906 0.264906 0.264906 0.264906 0.264906 0.264906 0.264906 0.264906 0.264906 0.264906 0.264906 0.264906 0.264906 0.264906 0.264906 0.269680 0.269680 0.269680 0.269680 0.269680 0.269680 0.269680 0.269680 0.269680 0.269680 0.269680 0.269680 0.264906 0.264906 0.264906 0.264906 0.264906 0.264906 0.264906 0.264906 0.264906 0.264906 0.264906 0.264906 0.269680 0.269680 0.269680 0.269680 0.269680 0.269680 0.269680 0.269680 0.269680 0.269680 0.269680 0.264906 0.264906 0.264906 0.264906 0.264906 0.264906 0.264906 0.264906 0.264906 0.264906 0.264906 0.256074 0.256074 0.256074 0.256074 0.256074 0.256074 0.256074 0.256074 0.256074 0.256074 0.256074 0.264906 0.264906 0.264906 0.264906 0.264906 0.264906 0.264906 0.264906 0.264906 0.264906 0.260378 0.260378 0.260378 0.260378 0.260378 0.260378 0.260378 0.260378 0.260378 0.260378 0.264906 0.264906 0.264906 0.264906 0.264906 0.264906 0.264906 0.264906 0.264906 0.251976 0.251976 0.251976 0.251976 0.251976 0.251976 0.251976 0.251976 0.251976 0.251976 0.256074 0.256074 0.256074 0.256074 0.256074 0.256074 0.256074 0.256074 0.256074 0.269680 0.269680 0.269680 0.269680 0.269680 0.269680 0.269680 0.269680 0.269680 0.269680 0.269680 0.269680 0.269680 0.269680 0.269680 0.269680
