# Output from CTFFind version 4.1.9, run on 2019-11-03 19:30:32
# Input file: stack16_bm3d_averaged_1_3.75_0_2500_half.mrc ; Number of micrographs: 1
# Pixel size: 3.000 Angstroms ; acceleration voltage: 300.0 keV ; spherical aberration: 0.00 mm ; amplitude contrast: 0.07
# Box size: 512 pixels ; min. res.: 30.0 Angstroms ; max. res.: 5.0 Angstroms ; min. def.: 5000.0 um; max. def. 50000.0 um; num. frames averaged: 1
# 6 lines per micrograph: #1 - spatial frequency (1/Angstroms); #2 - 1D rotational average of spectrum (assuming no astigmatism); #3 - 1D rotational average of spectrum; #4 - CTF fit; #5 - cross-correlation between spectrum and CTF fit; #6 - 2sigma of expected cross correlation of noise
0.000000 0.000651 0.001302 0.001953 0.002604 0.003255 0.003906 0.004557 0.005208 0.005859 0.006510 0.007161 0.007812 0.008464 0.009115 0.009766 0.010417 0.011068 0.011719 0.012370 0.013021 0.013672 0.014323 0.014974 0.015625 0.016276 0.016927 0.017578 0.018229 0.018880 0.019531 0.020182 0.020833 0.021484 0.022135 0.022786 0.023438 0.024089 0.024740 0.025391 0.026042 0.026693 0.027344 0.027995 0.028646 0.029297 0.029948 0.030599 0.031250 0.031901 0.032552 0.033203 0.033854 0.034505 0.035156 0.035807 0.036458 0.037109 0.037760 0.038411 0.039062 0.039714 0.040365 0.041016 0.041667 0.042318 0.042969 0.043620 0.044271 0.044922 0.045573 0.046224 0.046875 0.047526 0.048177 0.048828 0.049479 0.050130 0.050781 0.051432 0.052083 0.052734 0.053385 0.054036 0.054688 0.055339 0.055990 0.056641 0.057292 0.057943 0.058594 0.059245 0.059896 0.060547 0.061198 0.061849 0.062500 0.063151 0.063802 0.064453 0.065104 0.065755 0.066406 0.067057 0.067708 0.068359 0.069010 0.069661 0.070312 0.070964 0.071615 0.072266 0.072917 0.073568 0.074219 0.074870 0.075521 0.076172 0.076823 0.077474 0.078125 0.078776 0.079427 0.080078 0.080729 0.081380 0.082031 0.082682 0.083333 0.083984 0.084635 0.085286 0.085938 0.086589 0.087240 0.087891 0.088542 0.089193 0.089844 0.090495 0.091146 0.091797 0.092448 0.093099 0.093750 0.094401 0.095052 0.095703 0.096354 0.097005 0.097656 0.098307 0.098958 0.099609 0.100260 0.100911 0.101562 0.102214 0.102865 0.103516 0.104167 0.104818 0.105469 0.106120 0.106771 0.107422 0.108073 0.108724 0.109375 0.110026 0.110677 0.111328 0.111979 0.112630 0.113281 0.113932 0.114583 0.115234 0.115885 0.116536 0.117188 0.117839 0.118490 0.119141 0.119792 0.120443 0.121094 0.121745 0.122396 0.123047 0.123698 0.124349 0.125000 0.125651 0.126302 0.126953 0.127604 0.128255 0.128906 0.129557 0.130208 0.130859 0.131510 0.132161 0.132812 0.133464 0.134115 0.134766 0.135417 0.136068 0.136719 0.137370 0.138021 0.138672 0.139323 0.139974 0.140625 0.141276 0.141927 0.142578 0.143229 0.143880 0.144531 0.145182 0.145833 0.146484 0.147135 0.147786 0.148438 0.149089 0.149740 0.150391 0.151042 0.151693 0.152344 0.152995 0.153646 0.154297 0.154948 0.155599 0.156250 0.156901 0.157552 0.158203 0.158854 0.159505 0.160156 0.160807 0.161458 0.162109 0.162760 0.163411 0.164062 0.164714 0.165365 0.166016 0.166667 0.167318 0.167969 0.168620 0.169271 0.169922 0.170573 0.171224 0.171875 0.172526 0.173177 0.173828 0.174479 0.175130 0.175781 0.176432 0.177083 0.177734 0.178385 0.179036 0.179688 0.180339 0.180990 0.181641 0.182292 0.182943 0.183594 0.184245 0.184896 0.185547 0.186198 0.186849 0.187500 0.188151 0.188802 0.189453 0.190104 0.190755 0.191406 0.192057 0.192708 0.193359 0.194010 0.194661 0.195312 0.195964 0.196615 0.197266 0.197917 0.198568 0.199219 0.199870 0.200521 0.201172 0.201823 0.202474 0.203125 0.203776 0.204427 0.205078 0.205729 0.206380 0.207031 0.207682 0.208333 0.208984 0.209635 0.210286 0.210938 0.211589 0.212240 0.212891 0.213542 0.214193 0.214844 0.215495 0.216146 0.216797 0.217448 0.218099 0.218750 0.219401 0.220052 0.220703 0.221354 0.222005 0.222656 0.223307 0.223958 0.224609 0.225260 0.225911 0.226562 0.227214 0.227865 0.228516 0.229167 0.229818 0.230469 0.231120 0.231771 0.232422 0.233073 0.233724 0.234375 0.235026 0.235677
       0.33662        0.33662        0.33662        0.33662        0.33662        0.33662        0.33662        0.33662        0.33662        0.33662        0.33662        0.33662        0.33662        0.33662        0.33662        0.33662        0.33662        0.33662        0.33662        0.33662        0.33662        0.33662        0.33662        0.33662        0.33662        0.33662        0.33662        0.33662        0.33662        0.33662        0.33662        0.33662        0.33662        0.33662        0.33662        0.33662        0.33662        0.33662        0.33662        0.33662        0.33662        0.33662        0.33662        0.33662        0.33662        0.33662        0.33662        0.33662        0.33662        0.33662        0.33662        0.43195        0.59065        0.37910       -0.16158       -0.44506       -0.56199       -0.65498       -0.73132       -0.75449       -0.87632       -0.92115       -0.72595       -0.89778       -0.85769       -1.00810       -1.05117       -0.93937       -0.89536       -0.82726       -0.77017       -0.68083       -0.59550       -0.50353       -0.42374       -0.21022       -0.09499       -0.00625        0.22350        0.23831        0.30631        0.37286        0.40003        0.49640        0.55580        0.58794        0.55697        0.48970        0.52990        0.49697        0.41611        0.32098        0.18341        0.17389        0.11208       -0.04746       -0.06337       -0.05768        0.02468       -0.01180        0.03863        0.02958        0.14575        0.19182        0.40687        0.46905        0.56710        0.67244        0.73123        0.72962        0.66502        0.64370        0.54334        0.45497        0.38164        0.26865        0.20386        0.18632        0.07681        0.04323        0.02202        0.05284        0.08512        0.28894        0.41262        0.50865        0.56048        0.60056        0.65500        0.62100        0.62872        0.61307        0.57673        0.47655        0.28243        0.25258        0.20778        0.11654        0.05973        0.10565        0.12392        0.26404        0.35607        0.41187        0.48587        0.55001        0.62615        0.57576        0.52506        0.50145        0.36695        0.21677        0.21484        0.15725        0.12642        0.16772        0.22284        0.26633        0.32494        0.42500        0.43259        0.52456        0.47116        0.46317        0.47070        0.38106        0.32252        0.27204        0.21569        0.20527        0.22249        0.23173        0.31527        0.42883        0.43365        0.48552        0.54078        0.47454        0.43408        0.36482        0.29302        0.24397        0.23217        0.26132        0.27616        0.29362        0.32553        0.41628        0.47175        0.46019        0.45427        0.35489        0.36316        0.35523        0.21462        0.23307        0.25449        0.28724        0.34836        0.37146        0.40684        0.44276        0.44224        0.37393        0.35783        0.30828        0.32492        0.28236        0.26941        0.27750        0.32530        0.37841        0.38798        0.40323        0.37800        0.40193        0.36158        0.28862        0.28249        0.29352        0.32356        0.36136        0.34342        0.41871        0.35052        0.37810        0.37525        0.32254        0.32917        0.28211        0.29558        0.34069        0.32680        0.33007        0.33618        0.35436        0.31951        0.34632        0.29752        0.31421        0.27244        0.28604        0.29394        0.34709        0.38258        0.35762        0.34388        0.29901        0.27066        0.27100        0.30173        0.27207        0.30873        0.36384        0.37832        0.33648        0.30838        0.29818        0.29776        0.29098        0.28289        0.28677        0.33096        0.33796        0.30883        0.28245        0.33890        0.30625        0.29413        0.32495        0.32400        0.32712        0.34202        0.30772        0.32326        0.27398        0.30011        0.30162        0.32095        0.40200        0.32644        0.35088        0.30573        0.30007        0.30217        0.32468        0.29021        0.28207        0.30555        0.31595        0.34193        0.31107        0.31260        0.29502        0.29766        0.30259        0.33195        0.32070        0.33815        0.34433        0.31102        0.28194        0.28980        0.25203        0.32261        0.32909        0.31289        0.29835        0.27361        0.29539        0.32009        0.32385        0.29356        0.29405        0.30790        0.30290        0.23963        0.30680        0.29659        0.29263        0.30852        0.29748        0.34721        0.37690        0.28845        0.25174        0.24284        0.26822        0.27810        0.27063        0.27571        0.26063        0.25991        0.28912        0.29720        0.28060        0.24317        0.34514        0.30992        0.27801        0.25133        0.22702        0.25954        0.22862        0.25348        0.31191        0.34427        0.28091        0.25518        0.27402        0.25860        0.20537        0.30898        0.24082        0.18403        0.14461        0.21568        0.27557        0.23585       -0.00756        0.15824       -0.39911       -0.70108
2.936334 2.900083 2.864065 2.828278 2.792724 2.757401 2.722311 2.687453 2.652827 2.618434 2.584272 2.550343 2.516645 2.483180 2.449947 2.416946 2.384177 2.351641 2.319336 2.287264 2.255424 2.223816 2.192440 2.161296 2.130385 2.099705 2.069258 2.039043 2.009059 1.979309 1.949790 1.920503 1.891449 1.862626 1.834036 1.805678 1.777552 1.749658 1.721997 1.694567 1.667370 1.640404 1.613671 1.587170 1.560901 1.534865 1.509060 1.483488 1.458147 1.433039 1.408163 1.443871 1.564276 1.508032 0.865090 0.579677 0.423570 0.359739 0.271873 0.188460 0.128345 -0.068212 0.167158 0.027720 -0.061641 -0.129115 -0.251578 -0.175024 -0.094041 -0.096128 -0.103483 0.020854 0.017685 0.195585 0.100649 0.329562 0.442344 0.454115 0.721920 0.681628 0.672297 0.825391 0.794144 0.811861 0.920230 0.873418 0.910800 0.734563 0.823439 0.841561 0.652172 0.591747 0.449001 0.416663 0.385270 0.176045 0.159231 0.117207 0.217693 0.126829 0.215158 0.105172 0.259614 0.245753 0.478512 0.428020 0.612908 0.641330 0.711604 0.740370 0.663923 0.648805 0.496992 0.447415 0.328061 0.303726 0.127821 0.188987 0.003626 0.015420 -0.041614 -0.038500 -0.006742 0.053851 0.301606 0.337163 0.413416 0.364445 0.463275 0.491272 0.483824 0.466558 0.393784 0.395484 0.152943 0.118376 0.071363 0.019004 -0.139890 -0.026115 -0.090877 0.038940 0.143721 0.184815 0.278647 0.268805 0.368167 0.475834 0.359777 0.408034 0.307400 0.148426 0.055657 0.077771 0.023889 0.030960 0.070010 0.114446 0.135568 0.248184 0.261491 0.299334 0.357927 0.258251 0.278103 0.243042 0.127030 0.105146 0.036780 0.032917 0.018040 0.021985 0.051257 0.175460 0.207326 0.205222 0.317263 0.220010 0.248260 0.115574 0.097449 -0.014309 -0.005991 -0.003792 0.024745 0.032561 0.024369 0.095565 0.170458 0.177074 0.219297 0.119727 0.079801 0.102738 0.029837 -0.089568 -0.004611 0.018318 0.032464 0.051661 0.110384 0.159660 0.141440 0.160888 0.059568 0.066393 0.034014 0.050171 0.002208 -0.002450 0.015374 0.059298 0.094376 0.123872 0.092217 0.104980 0.114179 0.038753 -0.005453 0.005617 0.007977 0.066469 0.058550 0.081415 0.117867 0.064031 0.090694 0.060214 0.037521 0.037591 -0.021565 0.025176 0.062859 0.031308 0.037039 0.099340 0.025866 0.054164 0.028528 0.014242 0.023596 -0.035371 -0.004811 0.011816 0.059943 0.095915 0.064141 0.040354 -0.009580 -0.025714 -0.012317 0.005611 -0.013130 0.024553 0.075059 0.069979 0.010002 0.027179 -0.016537 0.007244 -0.008943 -0.022974 -0.001206 0.041374 -0.001570 0.002684 -0.006885 0.025268 -0.012592 0.001059 0.015320 0.020699 0.040134 -0.015003 0.007870 -0.000342 -0.053957 -0.001087 -0.009490 0.034110 0.094114 0.000163 0.032493 0.002331 0.002805 -0.024261 0.036197 -0.018762 -0.018252 -0.002820 0.045085 0.026745 0.013643 0.038387 -0.035813 0.003121 -0.003357 0.028707 0.041531 0.043848 0.024734 0.034315 0.003607 -0.022545 -0.021027 0.019275 0.038969 0.016004 0.010130 -0.022841 -0.002351 0.025516 0.029309 0.016513 0.007715 -0.000379 0.006304 -0.058850 0.010667 0.016704 0.003583 0.014537 0.026629 0.071759 0.087478 0.020926 -0.008428 -0.037877 -0.006633 0.035617 -0.039947 0.015572 -0.017009 -0.041196 0.026016 0.021412 -0.008287 -0.067859 0.043081 -0.011651 -0.050602 -0.061196 -0.056045 -0.016555 -0.064993 -0.026128 0.033069 0.086618 0.002211 -0.002527 0.138282 0.041740 -0.036751 0.168627 0.120457 0.132712 0.077852 0.199457 0.256964 0.213603 -0.159823 0.150060 -0.641546
0.072396 0.073047 0.075001 0.078256 0.082811 0.088665 0.095817 0.104262 0.113997 0.125016 0.137314 0.150882 0.165709 0.181783 0.199089 0.217607 0.237316 0.258189 0.280197 0.303302 0.327465 0.352638 0.378766 0.405790 0.433641 0.462242 0.491507 0.521343 0.551643 0.582295 0.613172 0.644138 0.675047 0.705740 0.736047 0.765785 0.794763 0.822777 0.849611 0.875041 0.898833 0.920744 0.940526 0.957922 0.972672 0.984514 0.993187 0.998428 0.999982 0.997601 0.991047 0.980095 0.964539 0.944194 0.918898 0.888521 0.852965 0.812170 0.766118 0.714836 0.658402 0.596949 0.530666 0.459804 0.384675 0.305660 0.223206 0.137826 0.050104 0.039312 0.129709 0.220312 0.310291 0.398765 0.484810 0.567468 0.645758 0.718685 0.785256 0.844491 0.895443 0.937210 0.968954 0.989920 0.999453 0.997016 0.982208 0.954782 0.914662 0.861952 0.796955 0.720181 0.632350 0.534398 0.427480 0.312958 0.192395 0.067541 0.059688 0.187233 0.312926 0.434519 0.549732 0.656287 0.751965 0.834648 0.902378 0.953404 0.986237 0.999702 0.992979 0.965652 0.917737 0.849714 0.762542 0.657668 0.537019 0.402983 0.258377 0.106404 0.049417 0.205317 0.357362 0.501561 0.633964 0.750779 0.848486 0.923958 0.974569 0.998306 0.993858 0.960696 0.899134 0.810361 0.696454 0.560354 0.405822 0.237349 0.060053 0.120472 0.298312 0.467436 0.621894 0.756036 0.864733 0.943589 0.989142 0.999041 0.972185 0.908832 0.810649 0.680714 0.523461 0.344563 0.150756 0.050392 0.250759 0.441995 0.615866 0.764623 0.881359 0.960365 0.997438 0.990133 0.937962 0.842497 0.707385 0.538263 0.342572 0.129264 0.091577 0.309193 0.512669 0.691483 0.836079 0.938396 0.992363 0.994302 0.943226 0.841000 0.692347 0.504705 0.287905 0.053703 0.184815 0.413964 0.620226 0.791074 0.915762 0.986046 0.996786 0.946382 0.837005 0.674597 0.468636 0.231646 0.021514 0.274533 0.510701 0.714004 0.870250 0.968097 0.999952 0.962624 0.857709 0.691644 0.475402 0.223860 0.045164 0.312136 0.557195 0.761663 0.909488 0.988582 0.991880 0.918067 0.771870 0.563875 0.309874 0.029737 0.254065 0.518255 0.740654 0.902089 0.988109 0.990385 0.907608 0.745837 0.518179 0.243859 0.053311 0.346956 0.610439 0.819315 0.953644 1.000000 0.952927 0.815693 0.600238 0.326281 0.019625 0.290183 0.572677 0.799478 0.947200 0.999974 0.951281 0.804887 0.574751 0.283849 0.037979 0.357034 0.639234 0.853786 0.976642 0.993307 0.900710 0.707859 0.435163 0.112430 0.224260 0.536551 0.788159 0.949169 0.999715 0.932598 0.754475 0.485433 0.156907 0.191850 0.518384 0.782193 0.949834 0.999288 0.923045 0.729425 0.441914 0.096528 0.262565 0.588616 0.838387 0.977989 0.987641 0.864687 0.624376 0.298227 0.069915 0.429630 0.730804 0.930664 0.999994 0.927625 0.722468 0.412702 0.042155 0.335741 0.665569 0.898098 0.997763 0.948324 0.755767 0.447914 0.070676 0.318617 0.659822 0.899313 0.998560 0.940549 0.732994 0.407645 0.015728 0.379933 0.714897 0.933674 0.999071 0.898793 0.648055 0.287623 0.122536 0.513060 0.816859 0.980787 0.975134 0.799344 0.482738 0.079957 0.338188 0.697095 0.931672 0.998368 0.883551 0.606639 0.217204 0.213574 0.605751 0.885468 0.998979 0.923302 0.671244 0.289665 0.148889 0.559739 0.862405 0.996511 0.934128 0.685991 0.300110 0.147110 0.565807 0.870630 0.998322 0.921159 0.653392 0.249116 0.208298 0.623131 0.907356 0.999498 0.878302 0.568077 0.134331 0.329716 0.722940
1.000000 1.000000 1.000000 1.000000 1.000000 1.000000 1.000000 1.000000 1.000000 1.000000 1.000000 1.000000 1.000000 1.000000 1.000000 1.000000 1.000000 1.000000 1.000000 1.000000 1.000000 1.000000 1.000000 1.000000 1.000000 1.000000 1.000000 1.000000 1.000000 1.000000 1.000000 1.000000 1.000000 1.000000 1.000000 1.000000 1.000000 1.000000 1.000000 1.000000 1.000000 1.000000 1.000000 1.000000 1.000000 1.000000 1.000000 1.000000 1.000000 1.000000 1.000000 1.000000 0.932729 0.932729 0.932729 0.932729 0.932729 0.932729 0.932729 0.932729 0.932729 0.932729 0.932729 0.932729 0.932729 0.932729 0.932729 0.932729 0.932729 0.932729 0.932729 0.932729 0.932729 0.932729 0.932729 0.932729 0.932729 0.932729 0.932729 0.932729 0.932729 0.932729 0.932729 0.932729 0.932729 0.920131 0.918185 0.921104 0.922113 0.922014 0.921531 0.921241 0.921536 0.923019 0.924869 0.946259 0.948571 0.949629 0.950699 0.949487 0.952000 0.949798 0.954195 0.969225 0.968543 0.969414 0.963705 0.964565 0.964173 0.963589 0.965481 0.965210 0.963919 0.962396 0.961234 0.960208 0.959871 0.961425 0.961880 0.962148 0.962521 0.962482 0.962379 0.959927 0.957739 0.957919 0.957256 0.956120 0.961561 0.960107 0.963155 0.964310 0.964999 0.965794 0.966016 0.966195 0.960196 0.958541 0.956337 0.942675 0.936228 0.931270 0.934273 0.937596 0.935408 0.930066 0.927849 0.930312 0.922318 0.921908 0.917641 0.918420 0.907098 0.902003 0.891849 0.893225 0.894936 0.894601 0.891950 0.879981 0.871990 0.870867 0.873861 0.868036 0.864727 0.880983 0.876621 0.878479 0.881895 0.884486 0.891336 0.876193 0.869363 0.865560 0.860961 0.860550 0.862609 0.866975 0.869372 0.865748 0.857626 0.861219 0.855883 0.863291 0.868693 0.865640 0.862278 0.860563 0.860142 0.860368 0.855911 0.861481 0.853873 0.851328 0.849557 0.843532 0.843670 0.840618 0.840496 0.841087 0.843540 0.836475 0.842557 0.829840 0.835292 0.830735 0.835168 0.831300 0.834655 0.835209 0.817011 0.812947 0.810311 0.817048 0.821802 0.793536 0.791739 0.786424 0.778700 0.782770 0.788963 0.784596 0.790221 0.786642 0.793602 0.792319 0.793305 0.789043 0.771671 0.777055 0.784544 0.790676 0.775709 0.764081 0.757983 0.755200 0.749988 0.714636 0.702004 0.689594 0.670568 0.674989 0.668166 0.657079 0.662495 0.664425 0.636827 0.638256 0.634931 0.597074 0.587439 0.576680 0.578910 0.568344 0.578417 0.575904 0.551340 0.566042 0.568293 0.571197 0.584688 0.462202 0.471711 0.452199 0.472665 0.483546 0.485962 0.472044 0.481260 0.474151 0.477770 0.477772 0.477059 0.493297 0.463980 0.456046 0.469884 0.445334 0.431087 0.443895 0.451078 0.455065 0.434312 0.434669 0.436764 0.435374 0.404094 0.404983 0.429457 0.429540 0.383476 0.387875 0.396397 0.377440 0.408036 0.405943 0.419367 0.434765 0.393020 0.396290 0.381536 0.392997 0.420918 0.391514 0.382263 0.384579 0.399623 0.348148 0.367371 0.393622 0.370969 0.442452 0.400026 0.386257 0.306537 0.346755 0.308239 0.316314 0.310830 0.244698 0.237156 0.209485 0.211725 0.186179 0.200224 0.173664 0.147847 0.117353 0.124860 0.096279 0.119816 0.127854 0.112841 0.102459 0.102459 0.102459 0.102459 0.095877 0.095877 0.095877 0.095877 0.095877 0.095877 0.095877 0.095877 0.095877 0.095877 0.095877 0.095877 0.095877 0.095877 0.025304 0.025304 0.025304 0.025304 0.025304 0.025304 0.025304 0.025304 0.025304 0.025304 0.025304 0.025304
0.000000 0.000000 0.000000 0.000000 0.000000 0.000000 0.000000 0.000000 0.000000 0.000000 0.000000 0.000000 0.000000 0.000000 0.000000 0.000000 0.000000 0.000000 0.000000 0.000000 0.000000 0.000000 0.000000 0.000000 0.000000 7.000000 4.000000 0.000000 0.000000 0.000000 0.000000 0.000000 0.000000 0.000000 0.000000 0.000000 0.000000 0.000000 0.000000 0.000000 0.000000 0.000000 0.000000 0.000000 0.000000 0.000000 0.000000 0.000000 0.000000 0.000000 0.000000 0.000000 0.209657 0.209657 0.209657 0.209657 0.209657 0.209657 0.209657 0.209657 0.209657 0.209657 0.209657 0.209657 0.209657 0.209657 0.209657 0.209657 0.209657 0.209657 0.209657 0.209657 0.209657 0.209657 0.209657 0.209657 0.209657 0.209657 0.209657 0.209657 0.209657 0.209657 0.209657 0.209657 0.209657 0.244339 0.244339 0.244339 0.244339 0.244339 0.244339 0.244339 0.244339 0.244339 0.244339 0.244339 0.244339 0.244339 0.244339 0.244339 0.244339 0.244339 0.244339 0.244339 0.244339 0.244339 0.244339 0.244339 0.244339 0.244339 0.260378 0.260378 0.260378 0.260378 0.260378 0.260378 0.260378 0.260378 0.260378 0.260378 0.260378 0.260378 0.260378 0.260378 0.260378 0.260378 0.260378 0.260378 0.260378 0.260378 0.269680 0.269680 0.269680 0.269680 0.269680 0.269680 0.269680 0.269680 0.269680 0.269680 0.269680 0.269680 0.269680 0.269680 0.269680 0.269680 0.269680 0.269680 0.269680 0.269680 0.269680 0.269680 0.269680 0.269680 0.269680 0.269680 0.269680 0.269680 0.269680 0.269680 0.269680 0.269680 0.269680 0.280056 0.280056 0.280056 0.280056 0.280056 0.280056 0.280056 0.280056 0.280056 0.280056 0.280056 0.280056 0.280056 0.280056 0.280056 0.280056 0.280056 0.280056 0.280056 0.280056 0.280056 0.280056 0.280056 0.280056 0.280056 0.280056 0.280056 0.285714 0.285714 0.285714 0.285714 0.285714 0.285714 0.285714 0.285714 0.285714 0.285714 0.285714 0.285714 0.274721 0.274721 0.274721 0.274721 0.274721 0.274721 0.274721 0.274721 0.274721 0.274721 0.274721 0.274721 0.280056 0.280056 0.280056 0.280056 0.280056 0.280056 0.280056 0.280056 0.280056 0.280056 0.280056 0.285714 0.285714 0.285714 0.285714 0.285714 0.285714 0.285714 0.285714 0.285714 0.285714 0.269680 0.269680 0.269680 0.269680 0.269680 0.269680 0.269680 0.269680 0.269680 0.269680 0.269680 0.285714 0.285714 0.285714 0.285714 0.285714 0.285714 0.285714 0.285714 0.285714 0.280056 0.280056 0.280056 0.280056 0.280056 0.280056 0.280056 0.280056 0.280056 0.274721 0.274721 0.274721 0.274721 0.274721 0.274721 0.274721 0.274721 0.274721 0.269680 0.269680 0.269680 0.269680 0.269680 0.269680 0.269680 0.269680 0.269680 0.280056 0.280056 0.280056 0.280056 0.280056 0.280056 0.280056 0.280056 0.260378 0.260378 0.260378 0.260378 0.260378 0.260378 0.260378 0.260378 0.260378 0.269680 0.269680 0.269680 0.269680 0.269680 0.269680 0.269680 0.269680 0.285714 0.285714 0.285714 0.285714 0.285714 0.285714 0.285714 0.264906 0.264906 0.264906 0.264906 0.264906 0.264906 0.264906 0.264906 0.274721 0.274721 0.274721 0.274721 0.274721 0.274721 0.274721 0.256074 0.256074 0.256074 0.256074 0.256074 0.256074 0.256074 0.256074 0.264906 0.264906 0.264906 0.264906 0.264906 0.264906 0.264906 0.264906 0.264906 0.264906 0.264906 0.264906 0.264906 0.264906 0.280056 0.280056 0.280056 0.280056 0.280056 0.280056 0.280056 0.280056 0.280056 0.280056 0.280056 0.280056
