# Output from CTFFind version 4.1.9, run on 2019-11-03 19:00:08
# Input file: stack1_bm3d_averaged_1_2.75_0_250_half.mrc ; Number of micrographs: 1
# Pixel size: 3.000 Angstroms ; acceleration voltage: 300.0 keV ; spherical aberration: 0.00 mm ; amplitude contrast: 0.07
# Box size: 512 pixels ; min. res.: 30.0 Angstroms ; max. res.: 5.0 Angstroms ; min. def.: 5000.0 um; max. def. 50000.0 um; num. frames averaged: 1
# 6 lines per micrograph: #1 - spatial frequency (1/Angstroms); #2 - 1D rotational average of spectrum (assuming no astigmatism); #3 - 1D rotational average of spectrum; #4 - CTF fit; #5 - cross-correlation between spectrum and CTF fit; #6 - 2sigma of expected cross correlation of noise
0.000000 0.000651 0.001302 0.001953 0.002604 0.003255 0.003906 0.004557 0.005208 0.005859 0.006510 0.007161 0.007812 0.008464 0.009115 0.009766 0.010417 0.011068 0.011719 0.012370 0.013021 0.013672 0.014323 0.014974 0.015625 0.016276 0.016927 0.017578 0.018229 0.018880 0.019531 0.020182 0.020833 0.021484 0.022135 0.022786 0.023438 0.024089 0.024740 0.025391 0.026042 0.026693 0.027344 0.027995 0.028646 0.029297 0.029948 0.030599 0.031250 0.031901 0.032552 0.033203 0.033854 0.034505 0.035156 0.035807 0.036458 0.037109 0.037760 0.038411 0.039062 0.039714 0.040365 0.041016 0.041667 0.042318 0.042969 0.043620 0.044271 0.044922 0.045573 0.046224 0.046875 0.047526 0.048177 0.048828 0.049479 0.050130 0.050781 0.051432 0.052083 0.052734 0.053385 0.054036 0.054688 0.055339 0.055990 0.056641 0.057292 0.057943 0.058594 0.059245 0.059896 0.060547 0.061198 0.061849 0.062500 0.063151 0.063802 0.064453 0.065104 0.065755 0.066406 0.067057 0.067708 0.068359 0.069010 0.069661 0.070312 0.070964 0.071615 0.072266 0.072917 0.073568 0.074219 0.074870 0.075521 0.076172 0.076823 0.077474 0.078125 0.078776 0.079427 0.080078 0.080729 0.081380 0.082031 0.082682 0.083333 0.083984 0.084635 0.085286 0.085938 0.086589 0.087240 0.087891 0.088542 0.089193 0.089844 0.090495 0.091146 0.091797 0.092448 0.093099 0.093750 0.094401 0.095052 0.095703 0.096354 0.097005 0.097656 0.098307 0.098958 0.099609 0.100260 0.100911 0.101562 0.102214 0.102865 0.103516 0.104167 0.104818 0.105469 0.106120 0.106771 0.107422 0.108073 0.108724 0.109375 0.110026 0.110677 0.111328 0.111979 0.112630 0.113281 0.113932 0.114583 0.115234 0.115885 0.116536 0.117188 0.117839 0.118490 0.119141 0.119792 0.120443 0.121094 0.121745 0.122396 0.123047 0.123698 0.124349 0.125000 0.125651 0.126302 0.126953 0.127604 0.128255 0.128906 0.129557 0.130208 0.130859 0.131510 0.132161 0.132812 0.133464 0.134115 0.134766 0.135417 0.136068 0.136719 0.137370 0.138021 0.138672 0.139323 0.139974 0.140625 0.141276 0.141927 0.142578 0.143229 0.143880 0.144531 0.145182 0.145833 0.146484 0.147135 0.147786 0.148438 0.149089 0.149740 0.150391 0.151042 0.151693 0.152344 0.152995 0.153646 0.154297 0.154948 0.155599 0.156250 0.156901 0.157552 0.158203 0.158854 0.159505 0.160156 0.160807 0.161458 0.162109 0.162760 0.163411 0.164062 0.164714 0.165365 0.166016 0.166667 0.167318 0.167969 0.168620 0.169271 0.169922 0.170573 0.171224 0.171875 0.172526 0.173177 0.173828 0.174479 0.175130 0.175781 0.176432 0.177083 0.177734 0.178385 0.179036 0.179688 0.180339 0.180990 0.181641 0.182292 0.182943 0.183594 0.184245 0.184896 0.185547 0.186198 0.186849 0.187500 0.188151 0.188802 0.189453 0.190104 0.190755 0.191406 0.192057 0.192708 0.193359 0.194010 0.194661 0.195312 0.195964 0.196615 0.197266 0.197917 0.198568 0.199219 0.199870 0.200521 0.201172 0.201823 0.202474 0.203125 0.203776 0.204427 0.205078 0.205729 0.206380 0.207031 0.207682 0.208333 0.208984 0.209635 0.210286 0.210938 0.211589 0.212240 0.212891 0.213542 0.214193 0.214844 0.215495 0.216146 0.216797 0.217448 0.218099 0.218750 0.219401 0.220052 0.220703 0.221354 0.222005 0.222656 0.223307 0.223958 0.224609 0.225260 0.225911 0.226562 0.227214 0.227865 0.228516 0.229167 0.229818 0.230469 0.231120 0.231771 0.232422 0.233073 0.233724 0.234375 0.235026 0.235677
       0.34259        0.34259        0.34259        0.34259        0.34259        0.34259        0.34259        0.34259        0.34259        0.34259        0.34259        0.34259        0.34259        0.34259        0.34259        0.34259        0.34259        0.34259        0.34259        0.34259        0.34259        0.34259        0.34259        0.34259        0.34259        0.34259        0.34259        0.34259        0.34259        0.34259        0.34259        0.34259        0.34259        0.34259        0.34259        0.34259        0.34259        0.34259        0.34259        0.34259        0.34259        0.34259        0.34259        0.34259        0.34259        0.34259        0.34259        0.34259        0.34259        0.34259        0.34259        0.49643        0.71347        0.41780        0.20890       -0.04870       -0.23027       -0.04683       -0.10430       -0.06621        0.01256       -0.12626       -0.09311       -0.04500       -0.02730       -0.12944       -0.16920       -0.30044       -0.46336       -0.56542       -0.50183       -0.44297       -0.35833       -0.56013       -0.42047       -0.55586       -0.46319       -0.46883       -0.37024       -0.34590       -0.30286       -0.21745       -0.13229       -0.12586        0.01845        0.00312        0.15602        0.18157        0.33200        0.43042        0.50098        0.55857        0.56675        0.58469        0.69587        0.63843        0.67372        0.59606        0.55108        0.62353        0.50388        0.45144        0.40506        0.31128        0.27717        0.29205        0.25944        0.10176        0.08109       -0.01218        0.02214        0.04747        0.00481        0.08839        0.14697        0.22416        0.29470        0.29016        0.41922        0.57103        0.56511        0.56959        0.66605        0.65443        0.62750        0.67930        0.64764        0.55323        0.54860        0.42802        0.35316        0.26546        0.18358        0.11630        0.14899        0.11801        0.13588        0.12609        0.22430        0.23812        0.32520        0.35495        0.41184        0.50779        0.53876        0.56649        0.55914        0.59333        0.53389        0.47421        0.48507        0.35447        0.27522        0.26907        0.24849        0.17226        0.17028        0.18419        0.22093        0.25835        0.35648        0.40012        0.41819        0.45246        0.45853        0.48897        0.44959        0.49856        0.44258        0.37522        0.35854        0.36042        0.32135        0.28446        0.21269        0.22556        0.22801        0.28048        0.28165        0.37515        0.41025        0.37281        0.42002        0.45632        0.44516        0.44646        0.46266        0.37825        0.34884        0.29186        0.25677        0.30139        0.28307        0.31408        0.32587        0.35040        0.33865        0.42033        0.40939        0.44287        0.41277        0.43612        0.38872        0.35676        0.30276        0.29357        0.29747        0.27856        0.27546        0.34105        0.35400        0.35425        0.36483        0.36566        0.36538        0.43897        0.40446        0.38433        0.35118        0.30980        0.30218        0.34043        0.32494        0.34313        0.30222        0.32215        0.35344        0.38255        0.36818        0.34447        0.34391        0.34947        0.33180        0.30722        0.32926        0.31813        0.35098        0.33538        0.34059        0.36120        0.32397        0.33179        0.34279        0.30798        0.29420        0.28689        0.28027        0.32243        0.33660        0.36089        0.29735        0.30824        0.33513        0.30651        0.32317        0.29797        0.31338        0.31015        0.30487        0.30475        0.33433        0.33246        0.33841        0.33199        0.36714        0.36308        0.31959        0.33235        0.34000        0.25287        0.25892        0.33132        0.28305        0.29134        0.35274        0.33245        0.34253        0.37285        0.34073        0.27575        0.26941        0.30356        0.33547        0.34322        0.36642        0.33201        0.30332        0.31242        0.31258        0.27817        0.30837        0.30612        0.33658        0.32341        0.29383        0.27607        0.33686        0.34436        0.33345        0.28868        0.28022        0.34575        0.39206        0.36215        0.34083        0.32619        0.29427        0.30618        0.29935        0.31594        0.32069        0.22372        0.26588        0.32655        0.30710        0.30906        0.27803        0.25823        0.22169        0.23312        0.30317        0.30460        0.31094        0.26303        0.29691        0.39784        0.33420        0.24802        0.29277        0.28991        0.25953        0.29648        0.36741        0.29381        0.31166        0.32581        0.24390        0.30690        0.32523        0.26226        0.23151        0.26421        0.20575        0.20369        0.30108        0.25951        0.35708        0.31455        0.25018        0.20881        0.16849        0.26033        0.31179        0.24846        0.17195        0.22125        0.30042        0.25889        0.25491        0.07399        0.07022       -0.46385       -1.02636
2.686726 2.658535 2.630495 2.602606 2.574869 2.547284 2.519849 2.492567 2.465435 2.438455 2.411626 2.384948 2.358422 2.332048 2.305824 2.279752 2.253831 2.228062 2.202444 2.176978 2.151663 2.126499 2.101486 2.076625 2.051916 2.027357 2.002950 1.978695 1.954590 1.930638 1.906836 1.883186 1.859687 1.836340 1.813144 1.790099 1.767206 1.744464 1.721873 1.699434 1.677146 1.655010 1.633025 1.611191 1.589509 1.567978 1.546598 1.525370 1.504293 1.483367 1.462593 1.509058 1.844487 1.491081 1.238696 0.957134 0.554246 0.924715 0.662943 0.845215 0.909502 0.626089 0.680704 0.785203 0.774281 0.624480 0.585895 0.399463 0.096543 0.042135 0.047412 0.050689 0.316582 -0.061490 0.059855 -0.064771 0.012098 -0.023435 0.090305 0.077928 0.144002 0.193883 0.308702 0.267932 0.455604 0.378433 0.596549 0.553137 0.782022 0.818388 0.914355 1.015553 0.962774 0.992742 1.122879 0.956950 1.137527 0.937052 0.893083 0.966991 0.829709 0.774046 0.667210 0.551928 0.518483 0.476897 0.500531 0.264072 0.197273 0.142255 0.038959 0.200679 0.017720 0.116768 0.228463 0.274332 0.325849 0.351377 0.466056 0.576487 0.701438 0.545346 0.736738 0.814328 0.620567 0.759896 0.702821 0.632972 0.493993 0.506851 0.310200 0.227857 0.106586 0.012904 0.007893 0.021856 -0.046779 -0.033138 0.088658 0.070925 0.129098 0.220821 0.240807 0.373514 0.414273 0.432934 0.470267 0.443132 0.456197 0.316525 0.339992 0.261353 0.081379 0.064625 0.034166 -0.043693 -0.058821 -0.079387 -0.010559 -0.047252 0.097851 0.149113 0.183566 0.236661 0.241761 0.265642 0.306196 0.245504 0.272492 0.200155 0.138554 0.111615 0.105816 0.034375 0.006821 -0.098549 -0.023583 0.016255 0.041429 0.021216 0.158892 0.128917 0.136939 0.191720 0.275617 0.165031 0.243397 0.123133 0.157990 0.035328 -0.033440 0.012824 0.003718 0.007259 0.027193 0.075834 0.045047 0.081914 0.170867 0.148084 0.147854 0.112188 0.165497 0.047215 0.050992 -0.020474 -0.024237 -0.022129 -0.061513 -0.019752 0.052084 0.076503 0.013670 0.060306 0.087432 0.078949 0.173393 0.077044 0.097413 0.039220 -0.026839 0.015389 0.048475 -0.000086 0.061242 -0.008221 0.011703 0.054074 0.070924 0.061655 0.040039 -0.000063 0.055915 -0.003695 0.003148 0.022293 -0.001614 0.072804 0.037840 0.034459 0.049079 0.015097 0.022425 0.027429 -0.004327 -0.029519 -0.020243 -0.023949 0.010303 0.045980 0.068859 -0.012909 0.026950 0.080059 -0.010616 0.056367 0.027298 0.037292 0.032187 0.048212 0.038514 0.067056 0.049923 0.092612 0.072581 0.142219 0.099018 0.067034 0.101623 0.050982 -0.023432 0.010244 0.083111 0.011883 0.047866 0.103162 0.013376 0.081620 0.087951 0.027528 0.005130 -0.061222 0.035788 0.069738 0.056191 0.084592 0.062344 -0.014096 0.028280 0.034497 -0.034290 0.038846 0.038885 0.060841 0.072681 -0.022615 -0.011605 0.075140 0.034728 0.014947 -0.017954 -0.025386 0.093806 0.104330 0.066127 0.009037 0.038667 -0.008586 -0.005354 -0.004037 0.002376 0.031845 -0.134364 -0.005992 0.028044 0.025505 -0.008053 0.005582 -0.041660 -0.079919 -0.026275 0.001055 0.050762 0.023804 -0.006894 0.022760 0.165907 0.057001 -0.011375 0.036760 0.016516 0.026868 0.034718 0.152819 0.040380 0.045207 0.099430 -0.030408 0.071960 0.089094 -0.007907 -0.051925 0.021273 -0.040879 -0.055615 0.059043 -0.023268 0.179632 0.052940 0.004258 -0.063689 -0.086774 -0.014585 0.093965 0.296878 0.186116 0.280466 0.361326 0.298306 0.318951 -0.004213 0.087214 -1.224929
0.072396 0.072910 0.074451 0.077019 0.080613 0.085233 0.090877 0.097543 0.105229 0.113933 0.123650 0.134376 0.146105 0.158832 0.172546 0.187240 0.202900 0.219514 0.237065 0.255536 0.274904 0.295145 0.316233 0.338135 0.360816 0.384237 0.408354 0.433118 0.458475 0.484365 0.510724 0.537480 0.564557 0.591869 0.619328 0.646834 0.674285 0.701569 0.728567 0.755154 0.781196 0.806554 0.831083 0.854627 0.877030 0.898125 0.917742 0.935708 0.951843 0.965967 0.977895 0.987445 0.994432 0.998675 0.999993 0.998215 0.993171 0.984702 0.972660 0.956907 0.937322 0.913798 0.886250 0.854611 0.818840 0.778920 0.734865 0.686716 0.634551 0.578478 0.518646 0.455239 0.388483 0.318645 0.246031 0.170993 0.093922 0.015254 0.064537 0.144937 0.225392 0.305319 0.384098 0.461085 0.535614 0.607002 0.674554 0.737572 0.795363 0.847244 0.892552 0.930656 0.960963 0.982928 0.996066 0.999963 0.994281 0.978773 0.953290 0.917790 0.872344 0.817149 0.752524 0.678924 0.596936 0.507280 0.410812 0.308517 0.201503 0.090995 0.021678 0.135097 0.247765 0.358131 0.464604 0.565582 0.659476 0.744732 0.819866 0.883485 0.934322 0.971264 0.993378 0.999939 0.990456 0.964693 0.922686 0.864762 0.791544 0.703960 0.603237 0.490897 0.368741 0.238829 0.103449 0.034914 0.173622 0.309932 0.441049 0.564182 0.676610 0.775738 0.859173 0.924776 0.970735 0.995616 0.998420 0.978624 0.936219 0.871736 0.786257 0.681412 0.559367 0.422792 0.274814 0.118955 0.040939 0.200794 0.356405 0.503544 0.638082 0.756107 0.854046 0.928782 0.977769 0.999127 0.991730 0.955273 0.890313 0.798290 0.681522 0.543163 0.387142 0.218063 0.041086 0.138219 0.314049 0.480546 0.631996 0.763043 0.868873 0.945414 0.989512 0.999074 0.973191 0.912216 0.817794 0.692857 0.541559 0.369164 0.181876 0.013349 0.209069 0.397624 0.571441 0.723338 0.846842 0.936475 0.988027 0.998771 0.967638 0.895321 0.784305 0.638826 0.464734 0.269303 0.060935 0.151170 0.357424 0.548271 0.714642 0.848401 0.942767 0.992682 0.995115 0.949283 0.856757 0.721470 0.549583 0.349256 0.130289 0.096338 0.318994 0.525987 0.706198 0.849682 0.948251 0.995972 0.989568 0.928679 0.815976 0.657101 0.460437 0.236707 0.001564 0.240745 0.466857 0.666396 0.827155 0.939001 0.994559 0.989737 0.924081 0.800910 0.627214 0.413323 0.172333 0.080646 0.329427 0.557763 0.750429 0.894255 0.979071 0.998479 0.950391 0.837296 0.666210 0.448318 0.198294 0.066627 0.327823 0.566584 0.765448 0.909531 0.987669 0.993363 0.925373 0.787956 0.590692 0.347890 0.077620 0.199608 0.462351 0.689907 0.863972 0.970158 0.999244 0.948056 0.819879 0.624353 0.376836 0.097268 0.191379 0.464954 0.700168 0.876579 0.978450 0.996204 0.927426 0.777243 0.558057 0.288622 0.007502 0.303936 0.573826 0.792288 0.938741 0.998924 0.966371 0.843208 0.640151 0.375685 0.074474 0.234861 0.522453 0.760061 0.923887 0.997042 0.971377 0.848510 0.639871 0.365778 0.053550 0.265134 0.557436 0.792731 0.945878 0.999990 0.948412 0.795652 0.557151 0.257843 0.070345 0.391838 0.671240 0.877279 0.986366 0.985410 0.873525 0.662380 0.375151 0.044080 0.293037 0.597137 0.832432 0.970685 0.994712 0.900652 0.698710 0.412215 0.075077 0.272141 0.587052 0.830630 0.972117 0.993024 0.889702 0.674101 0.372562 0.022761 0.330917 0.642947 0.872570 0.989181 0.976564 0.835302 0.583038 0.252453 0.112823 0.463882 0.753067 0.940493 0.999670
1.000000 1.000000 1.000000 1.000000 1.000000 1.000000 1.000000 1.000000 1.000000 1.000000 1.000000 1.000000 1.000000 1.000000 1.000000 1.000000 1.000000 1.000000 1.000000 1.000000 1.000000 1.000000 1.000000 1.000000 1.000000 1.000000 1.000000 1.000000 1.000000 1.000000 1.000000 1.000000 1.000000 1.000000 1.000000 1.000000 1.000000 1.000000 1.000000 1.000000 1.000000 1.000000 1.000000 1.000000 1.000000 1.000000 1.000000 1.000000 1.000000 1.000000 1.000000 1.000000 0.915587 0.915587 0.900877 0.900877 0.900877 0.900877 0.900877 0.900877 0.900877 0.900877 0.900877 0.900877 0.900877 0.900877 0.900877 0.900877 0.900877 0.900877 0.900877 0.900877 0.900877 0.900877 0.900877 0.900877 0.900877 0.900877 0.900877 0.900877 0.900877 0.900877 0.900877 0.900877 0.900877 0.900877 0.900877 0.900877 0.900877 0.900877 0.900877 0.900877 0.900877 0.900877 0.900877 0.894153 0.898976 0.901620 0.900047 0.903749 0.903833 0.901550 0.900576 0.900152 0.900458 0.901941 0.912585 0.927233 0.934812 0.937252 0.942286 0.949292 0.951463 0.951011 0.957131 0.964814 0.963312 0.962818 0.963581 0.965284 0.967577 0.966169 0.965961 0.968916 0.969697 0.968044 0.965934 0.965259 0.964585 0.964637 0.964381 0.964462 0.964765 0.965268 0.964978 0.964764 0.964910 0.964946 0.965968 0.967139 0.969469 0.970542 0.970344 0.969076 0.966874 0.968194 0.971485 0.968347 0.968304 0.967843 0.968185 0.953551 0.947289 0.947420 0.941191 0.939477 0.938228 0.936171 0.935205 0.935531 0.936813 0.938503 0.935815 0.928606 0.921579 0.901693 0.924319 0.919783 0.897695 0.880055 0.882553 0.883788 0.884279 0.882310 0.875457 0.871467 0.868217 0.869579 0.871831 0.875032 0.871216 0.865731 0.864491 0.862222 0.837136 0.812965 0.798704 0.794773 0.792170 0.792499 0.790012 0.790841 0.798605 0.796392 0.790099 0.779606 0.772694 0.737193 0.704812 0.708378 0.717606 0.721877 0.716319 0.687147 0.661228 0.675738 0.691603 0.699859 0.698099 0.683564 0.675450 0.670600 0.674757 0.662515 0.661221 0.662828 0.661082 0.670041 0.675708 0.676010 0.669481 0.650270 0.638235 0.610244 0.614263 0.634071 0.599434 0.591508 0.579413 0.565354 0.551083 0.521610 0.516103 0.511210 0.504874 0.504132 0.499644 0.503409 0.508112 0.508341 0.498549 0.517741 0.517606 0.544781 0.546184 0.537511 0.533982 0.528700 0.520380 0.505209 0.515956 0.515621 0.515389 0.539432 0.542864 0.552830 0.550611 0.544435 0.548396 0.513190 0.523826 0.537503 0.514088 0.471764 0.428926 0.429686 0.401922 0.400271 0.364757 0.344548 0.352767 0.340140 0.328877 0.308766 0.297434 0.205902 0.163413 0.146904 0.146091 0.151250 0.187669 0.192479 0.171116 0.187630 0.235081 0.223081 0.213514 0.233878 0.211582 0.178843 0.183645 0.173904 0.130365 0.123151 0.106415 0.107700 0.107267 0.086640 0.098013 0.028174 -0.027208 -0.024674 0.000432 0.046092 0.048524 0.051922 0.018011 0.006696 0.015532 0.018216 0.000364 -0.024214 0.015290 0.024910 0.007122 -0.030571 -0.053696 -0.045626 -0.051520 -0.055258 -0.046750 -0.011300 0.031471 0.036253 0.037142 0.079252 0.079402 0.075786 0.053833 0.041781 0.037289 0.004124 0.014632 -0.037678 -0.064221 -0.064221 -0.073909 -0.073909 -0.073909 -0.073909 -0.073909 -0.073909 -0.073909 -0.073909 -0.073909 -0.078873 -0.078873 -0.078873 -0.078873 -0.078873 -0.078873 -0.078873 -0.078873 -0.078873 -0.033048 -0.033048 -0.033048 -0.033048 -0.033048 -0.033048 -0.033048 -0.033048 -0.033048
0.000000 0.000000 0.000000 0.000000 0.000000 0.000000 0.000000 0.000000 0.000000 0.000000 0.000000 0.000000 0.000000 0.000000 0.000000 0.000000 0.000000 0.000000 0.000000 0.000000 0.000000 0.000000 0.000000 0.000000 0.000000 0.000000 0.000000 0.000000 0.000000 0.000000 0.000000 0.000000 0.000000 0.000000 0.000000 0.000000 0.000000 0.000000 0.000000 0.000000 0.000000 0.000000 0.000000 0.000000 0.000000 0.000000 0.000000 0.000000 0.000000 0.000000 0.000000 0.000000 0.181818 0.181818 0.199007 0.199007 0.199007 0.199007 0.199007 0.199007 0.199007 0.199007 0.199007 0.199007 0.199007 0.199007 0.199007 0.199007 0.199007 0.199007 0.199007 0.199007 0.199007 0.199007 0.199007 0.199007 0.199007 0.199007 0.199007 0.199007 0.199007 0.199007 0.199007 0.199007 0.199007 0.199007 0.199007 0.199007 0.199007 0.199007 0.199007 0.199007 0.199007 0.199007 0.199007 0.230940 0.230940 0.230940 0.230940 0.230940 0.230940 0.230940 0.230940 0.230940 0.230940 0.230940 0.230940 0.230940 0.230940 0.230940 0.230940 0.230940 0.230940 0.230940 0.230940 0.230940 0.230940 0.230940 0.230940 0.230940 0.230940 0.230940 0.230940 0.244339 0.244339 0.244339 0.244339 0.244339 0.244339 0.244339 0.244339 0.244339 0.244339 0.244339 0.244339 0.244339 0.244339 0.244339 0.244339 0.244339 0.244339 0.244339 0.244339 0.244339 0.244339 0.244339 0.251976 0.251976 0.251976 0.251976 0.251976 0.251976 0.251976 0.251976 0.251976 0.251976 0.251976 0.251976 0.251976 0.251976 0.251976 0.251976 0.251976 0.251976 0.251976 0.251976 0.264906 0.264906 0.264906 0.264906 0.264906 0.264906 0.264906 0.264906 0.264906 0.264906 0.264906 0.264906 0.264906 0.264906 0.264906 0.264906 0.264906 0.264906 0.264906 0.264906 0.264906 0.264906 0.264906 0.264906 0.264906 0.264906 0.264906 0.264906 0.264906 0.264906 0.264906 0.264906 0.264906 0.264906 0.264906 0.264906 0.264906 0.264906 0.264906 0.264906 0.264906 0.264906 0.264906 0.264906 0.264906 0.264906 0.264906 0.264906 0.264906 0.264906 0.264906 0.264906 0.264906 0.264906 0.264906 0.264906 0.264906 0.264906 0.264906 0.264906 0.264906 0.264906 0.264906 0.264906 0.264906 0.264906 0.264906 0.264906 0.264906 0.264906 0.264906 0.264906 0.264906 0.264906 0.264906 0.269680 0.269680 0.269680 0.269680 0.269680 0.269680 0.269680 0.269680 0.269680 0.269680 0.269680 0.269680 0.264906 0.264906 0.264906 0.264906 0.264906 0.264906 0.264906 0.264906 0.264906 0.264906 0.264906 0.264906 0.269680 0.269680 0.269680 0.269680 0.269680 0.269680 0.269680 0.269680 0.269680 0.269680 0.269680 0.264906 0.264906 0.264906 0.264906 0.264906 0.264906 0.264906 0.264906 0.264906 0.264906 0.264906 0.256074 0.256074 0.256074 0.256074 0.256074 0.256074 0.256074 0.256074 0.256074 0.256074 0.256074 0.264906 0.264906 0.264906 0.264906 0.264906 0.264906 0.264906 0.264906 0.264906 0.264906 0.260378 0.260378 0.260378 0.260378 0.260378 0.260378 0.260378 0.260378 0.260378 0.260378 0.264906 0.264906 0.264906 0.264906 0.264906 0.264906 0.264906 0.264906 0.264906 0.260378 0.260378 0.260378 0.260378 0.260378 0.260378 0.260378 0.260378 0.260378 0.256074 0.256074 0.256074 0.256074 0.256074 0.256074 0.256074 0.256074 0.256074 0.251976 0.251976 0.251976 0.251976 0.251976 0.251976 0.251976 0.251976 0.251976 0.264906 0.264906 0.264906 0.264906 0.264906 0.264906 0.264906 0.264906 0.264906
