# Output from CTFFind version 4.1.9, run on 2019-11-03 19:28:56
# Input file: stack11_bm3d_averaged_1_3.75_0_1500_half.mrc ; Number of micrographs: 1
# Pixel size: 3.000 Angstroms ; acceleration voltage: 300.0 keV ; spherical aberration: 0.00 mm ; amplitude contrast: 0.07
# Box size: 512 pixels ; min. res.: 30.0 Angstroms ; max. res.: 5.0 Angstroms ; min. def.: 5000.0 um; max. def. 50000.0 um; num. frames averaged: 1
# 6 lines per micrograph: #1 - spatial frequency (1/Angstroms); #2 - 1D rotational average of spectrum (assuming no astigmatism); #3 - 1D rotational average of spectrum; #4 - CTF fit; #5 - cross-correlation between spectrum and CTF fit; #6 - 2sigma of expected cross correlation of noise
0.000000 0.000651 0.001302 0.001953 0.002604 0.003255 0.003906 0.004557 0.005208 0.005859 0.006510 0.007161 0.007812 0.008464 0.009115 0.009766 0.010417 0.011068 0.011719 0.012370 0.013021 0.013672 0.014323 0.014974 0.015625 0.016276 0.016927 0.017578 0.018229 0.018880 0.019531 0.020182 0.020833 0.021484 0.022135 0.022786 0.023438 0.024089 0.024740 0.025391 0.026042 0.026693 0.027344 0.027995 0.028646 0.029297 0.029948 0.030599 0.031250 0.031901 0.032552 0.033203 0.033854 0.034505 0.035156 0.035807 0.036458 0.037109 0.037760 0.038411 0.039062 0.039714 0.040365 0.041016 0.041667 0.042318 0.042969 0.043620 0.044271 0.044922 0.045573 0.046224 0.046875 0.047526 0.048177 0.048828 0.049479 0.050130 0.050781 0.051432 0.052083 0.052734 0.053385 0.054036 0.054688 0.055339 0.055990 0.056641 0.057292 0.057943 0.058594 0.059245 0.059896 0.060547 0.061198 0.061849 0.062500 0.063151 0.063802 0.064453 0.065104 0.065755 0.066406 0.067057 0.067708 0.068359 0.069010 0.069661 0.070312 0.070964 0.071615 0.072266 0.072917 0.073568 0.074219 0.074870 0.075521 0.076172 0.076823 0.077474 0.078125 0.078776 0.079427 0.080078 0.080729 0.081380 0.082031 0.082682 0.083333 0.083984 0.084635 0.085286 0.085938 0.086589 0.087240 0.087891 0.088542 0.089193 0.089844 0.090495 0.091146 0.091797 0.092448 0.093099 0.093750 0.094401 0.095052 0.095703 0.096354 0.097005 0.097656 0.098307 0.098958 0.099609 0.100260 0.100911 0.101562 0.102214 0.102865 0.103516 0.104167 0.104818 0.105469 0.106120 0.106771 0.107422 0.108073 0.108724 0.109375 0.110026 0.110677 0.111328 0.111979 0.112630 0.113281 0.113932 0.114583 0.115234 0.115885 0.116536 0.117188 0.117839 0.118490 0.119141 0.119792 0.120443 0.121094 0.121745 0.122396 0.123047 0.123698 0.124349 0.125000 0.125651 0.126302 0.126953 0.127604 0.128255 0.128906 0.129557 0.130208 0.130859 0.131510 0.132161 0.132812 0.133464 0.134115 0.134766 0.135417 0.136068 0.136719 0.137370 0.138021 0.138672 0.139323 0.139974 0.140625 0.141276 0.141927 0.142578 0.143229 0.143880 0.144531 0.145182 0.145833 0.146484 0.147135 0.147786 0.148438 0.149089 0.149740 0.150391 0.151042 0.151693 0.152344 0.152995 0.153646 0.154297 0.154948 0.155599 0.156250 0.156901 0.157552 0.158203 0.158854 0.159505 0.160156 0.160807 0.161458 0.162109 0.162760 0.163411 0.164062 0.164714 0.165365 0.166016 0.166667 0.167318 0.167969 0.168620 0.169271 0.169922 0.170573 0.171224 0.171875 0.172526 0.173177 0.173828 0.174479 0.175130 0.175781 0.176432 0.177083 0.177734 0.178385 0.179036 0.179688 0.180339 0.180990 0.181641 0.182292 0.182943 0.183594 0.184245 0.184896 0.185547 0.186198 0.186849 0.187500 0.188151 0.188802 0.189453 0.190104 0.190755 0.191406 0.192057 0.192708 0.193359 0.194010 0.194661 0.195312 0.195964 0.196615 0.197266 0.197917 0.198568 0.199219 0.199870 0.200521 0.201172 0.201823 0.202474 0.203125 0.203776 0.204427 0.205078 0.205729 0.206380 0.207031 0.207682 0.208333 0.208984 0.209635 0.210286 0.210938 0.211589 0.212240 0.212891 0.213542 0.214193 0.214844 0.215495 0.216146 0.216797 0.217448 0.218099 0.218750 0.219401 0.220052 0.220703 0.221354 0.222005 0.222656 0.223307 0.223958 0.224609 0.225260 0.225911 0.226562 0.227214 0.227865 0.228516 0.229167 0.229818 0.230469 0.231120 0.231771 0.232422 0.233073 0.233724 0.234375 0.235026 0.235677
       0.32817        0.32817        0.32817        0.32817        0.32817        0.32817        0.32817        0.32817        0.32817        0.32817        0.32817        0.32817        0.32817        0.32817        0.32817        0.32817        0.32817        0.32817        0.32817        0.32817        0.32817        0.32817        0.32817        0.32817        0.32817        0.32817        0.32817        0.32817        0.32817        0.32817        0.32817        0.32817        0.32817        0.32817        0.32817        0.32817        0.32817        0.32817        0.32817        0.32817        0.32817        0.32817        0.32817        0.32817        0.32817        0.32817        0.32817        0.32817        0.32817        0.32817        0.32817        0.68804        0.86039        0.52846        0.09908       -0.04194       -0.40867       -0.18973       -0.29115       -0.11405       -0.06358       -0.11317       -0.05887       -0.18791       -0.21840       -0.23491       -0.31990       -0.33108       -0.46346       -0.37111       -0.44500       -0.43767       -0.40987       -0.43988       -0.48971       -0.53420       -0.57050       -0.58586       -0.55516       -0.38443       -0.35711       -0.31559       -0.29528       -0.19969       -0.19098        0.04022        0.11143        0.14331        0.24390        0.37439        0.45021        0.51379        0.57439        0.57233        0.56789        0.69105        0.80523        0.71640        0.73488        0.63747        0.56714        0.48165        0.41919        0.50456        0.38795        0.23656        0.09482        0.07658        0.05345       -0.04273        0.00094        0.01892       -0.02960        0.00588       -0.00169        0.23257        0.26031        0.28875        0.42290        0.44629        0.40516        0.56655        0.62457        0.66379        0.73972        0.68175        0.64979        0.67509        0.56709        0.47424        0.41698        0.29233        0.23099        0.16508        0.12316        0.04997        0.03320        0.03232        0.08291        0.13716        0.22190        0.27421        0.39735        0.44611        0.48874        0.58852        0.61587        0.63280        0.62070        0.55974        0.45193        0.46153        0.36757        0.24437        0.19195        0.15138        0.14472        0.13873        0.11922        0.14604        0.27839        0.29071        0.37304        0.40435        0.43066        0.50024        0.54699        0.55069        0.48354        0.44777        0.39519        0.34804        0.31484        0.27804        0.22448        0.22014        0.20290        0.22571        0.20571        0.29351        0.35025        0.38391        0.43415        0.45252        0.47435        0.41908        0.39494        0.40544        0.36087        0.29220        0.26496        0.23913        0.23985        0.21249        0.25515        0.25796        0.33482        0.37024        0.39552        0.47300        0.42085        0.42962        0.43011        0.40258        0.34325        0.31792        0.28546        0.29191        0.25972        0.29332        0.29116        0.31493        0.32116        0.33960        0.31910        0.40293        0.41673        0.38026        0.34544        0.37007        0.29823        0.28389        0.27759        0.30519        0.28429        0.29787        0.31128        0.32463        0.33799        0.36433        0.37069        0.37909        0.36656        0.31497        0.32926        0.28564        0.26151        0.31039        0.30429        0.31797        0.32103        0.32148        0.35404        0.32389        0.32054        0.30618        0.31828        0.28816        0.29847        0.26618        0.29465        0.30475        0.29017        0.31164        0.33076        0.33555        0.27500        0.30973        0.28063        0.29306        0.27289        0.22851        0.28537        0.29059        0.34205        0.32567        0.32401        0.31829        0.32855        0.28814        0.32853        0.32290        0.28448        0.26939        0.31182        0.29808        0.34582        0.32736        0.33035        0.33515        0.29105        0.27190        0.30031        0.24359        0.21834        0.31225        0.31485        0.31810        0.31221        0.32378        0.29812        0.34116        0.33389        0.26164        0.23455        0.29816        0.30261        0.29430        0.32017        0.33646        0.33427        0.30423        0.28987        0.33499        0.31552        0.28074        0.26162        0.31577        0.35315        0.39022        0.30472        0.27474        0.27128        0.30703        0.25326        0.28905        0.26526        0.24780        0.31507        0.33580        0.34141        0.32819        0.28522        0.26576        0.27463        0.24893        0.24054        0.24200        0.31509        0.29121        0.21680        0.32799        0.32186        0.26022        0.26580        0.20171        0.20394        0.24734        0.18279        0.23865        0.26667        0.22058        0.19689        0.28954        0.34473        0.33438        0.33613        0.24475        0.20479        0.18176        0.23134        0.21297        0.15466        0.19458        0.24542        0.22261        0.20937        0.15708        0.09742        0.11821        0.04685       -0.09579       -0.62800
2.657213 2.629379 2.601696 2.574164 2.546783 2.519553 2.492474 2.465546 2.438769 2.412143 2.385668 2.359344 2.333171 2.307149 2.281279 2.255559 2.229990 2.204572 2.179306 2.154190 2.129225 2.104412 2.079749 2.055238 2.030877 2.006668 1.982609 1.958702 1.934945 1.911340 1.887886 1.864582 1.841430 1.818429 1.795578 1.772879 1.750331 1.727934 1.705687 1.683592 1.661648 1.639855 1.618213 1.596722 1.575382 1.554193 1.533155 1.512268 1.491532 1.470947 1.450513 1.668505 2.086613 1.649583 1.154602 1.019755 0.425860 0.830510 0.556029 0.838562 0.789632 0.803167 0.752856 0.726062 0.579226 0.536655 0.489452 0.428026 0.229423 0.372652 0.199646 0.316837 0.225458 0.192261 0.160357 0.026421 0.024448 0.005442 -0.066943 0.120551 0.219124 0.186348 0.162954 0.332650 0.185776 0.506202 0.609097 0.598412 0.621846 0.876278 0.828402 0.941733 0.906777 1.006490 0.967713 1.082213 1.148370 1.051211 1.151493 0.927767 0.933810 0.792751 0.656531 0.794406 0.711647 0.479297 0.326722 0.251465 0.252560 0.149056 0.115180 0.153084 0.102129 0.138686 0.067077 0.266587 0.375720 0.354142 0.477966 0.557787 0.437078 0.582407 0.721378 0.712888 0.758160 0.717592 0.734010 0.683603 0.615287 0.537702 0.403264 0.284166 0.228582 0.085604 0.132157 -0.061956 -0.036089 -0.059408 -0.056794 -0.012722 0.152091 0.071114 0.264735 0.307281 0.353887 0.427002 0.521254 0.487631 0.520029 0.512611 0.329363 0.311829 0.295420 0.099245 0.052931 -0.038637 -0.005270 -0.041025 -0.073886 -0.085008 0.040645 0.078357 0.132821 0.201533 0.236977 0.281085 0.318980 0.425687 0.402671 0.294719 0.250504 0.227741 0.172699 0.140300 0.113083 0.013870 0.022417 0.055667 0.005391 0.078239 0.156862 0.155010 0.255020 0.253238 0.308812 0.189112 0.227998 0.157008 0.202416 0.117008 0.052782 0.006831 0.005150 -0.001160 -0.037075 0.049984 0.027748 0.140698 0.153883 0.185478 0.236704 0.169108 0.173281 0.179917 0.134233 0.066120 0.014778 0.053044 0.005244 -0.012181 0.022990 0.043151 0.059161 0.052330 0.062774 0.097544 0.130934 0.174765 0.072235 0.074921 0.066223 0.013936 -0.013475 0.015830 0.018665 0.012339 0.015401 0.035421 0.059841 0.070556 0.116906 0.067704 0.137715 0.067831 0.029695 0.054393 -0.024636 0.003206 0.050496 0.009116 0.055740 0.058835 0.032762 0.103334 0.059904 0.027872 0.057776 0.022189 0.034124 0.021292 -0.004606 0.056214 0.014035 0.022666 0.067715 0.076344 0.038723 0.047948 0.039979 0.041705 0.030183 -0.005648 -0.018633 0.038474 0.063154 0.098061 0.085256 0.085258 0.068978 0.098640 0.046146 0.107490 0.095885 0.023171 0.034211 0.090178 0.074389 0.103987 0.093354 0.124251 0.101576 0.063982 0.017450 0.087606 -0.030592 0.001556 0.097327 0.067303 0.099447 0.076013 0.076107 0.021441 0.118355 0.079005 -0.012605 -0.039060 0.053908 0.072366 0.038868 0.041143 0.089435 0.097190 0.014214 0.051409 0.076842 0.060022 0.029087 -0.019426 0.071203 0.110234 0.115064 0.008485 -0.005630 -0.012888 0.053023 -0.047395 0.024461 -0.026695 -0.023838 0.030433 0.074008 0.013213 0.015589 -0.028872 -0.033844 -0.055806 -0.031563 -0.080879 -0.073899 0.037414 0.036073 -0.088828 0.059112 0.006734 -0.050591 0.020054 -0.110146 -0.066308 -0.048894 -0.085421 -0.022099 0.015218 -0.014929 -0.111336 0.051073 0.175823 0.006868 0.132683 0.022463 0.223355 0.168158 0.252461 0.248385 0.157437 0.201716 0.286669 0.210382 0.237870 0.144702 0.151933 0.175134 0.046747 -0.672961
0.072396 0.072898 0.074405 0.076915 0.080429 0.084945 0.090462 0.096979 0.104493 0.113002 0.122502 0.132989 0.144457 0.156901 0.170312 0.184682 0.199999 0.216251 0.233422 0.251495 0.270451 0.290267 0.310916 0.332369 0.354593 0.377551 0.401202 0.425501 0.450395 0.475830 0.501745 0.528072 0.554739 0.581667 0.608772 0.635961 0.663137 0.690195 0.717023 0.743502 0.769507 0.794906 0.819560 0.843325 0.866050 0.887577 0.907745 0.926387 0.943333 0.958409 0.971439 0.982245 0.990650 0.996475 0.999547 0.999693 0.996749 0.990555 0.980959 0.967823 0.951018 0.930432 0.905967 0.877546 0.845112 0.808632 0.768097 0.723526 0.674970 0.622508 0.566256 0.506363 0.443017 0.376442 0.306903 0.234705 0.160193 0.083751 0.005806 0.073179 0.152702 0.232226 0.311183 0.388972 0.464971 0.538532 0.608995 0.675689 0.737940 0.795076 0.846439 0.891387 0.929309 0.959630 0.981823 0.995415 1.000000 0.995245 0.980905 0.956823 0.922948 0.879336 0.826158 0.763707 0.692401 0.612784 0.525531 0.431443 0.331449 0.226592 0.118034 0.007035 0.105053 0.216800 0.326720 0.433284 0.534946 0.630161 0.717414 0.795247 0.862279 0.917241 0.958999 0.986584 0.999215 0.996326 0.977585 0.942916 0.892512 0.826850 0.746693 0.653093 0.547388 0.431189 0.306367 0.175026 0.039472 0.097818 0.234243 0.367119 0.493742 0.611435 0.717611 0.809832 0.885872 0.943780 0.981930 0.999081 0.994422 0.967610 0.918804 0.848680 0.758443 0.649824 0.525052 0.386831 0.238287 0.082910 0.075527 0.233047 0.385573 0.529027 0.659449 0.773107 0.866612 0.937029 0.981983 0.999748 0.989327 0.950514 0.883928 0.791036 0.674139 0.536335 0.381458 0.213982 0.038909 0.138373 0.312252 0.477068 0.627293 0.757736 0.863723 0.941276 0.987288 0.999657 0.977407 0.920757 0.831165 0.711322 0.565096 0.397430 0.214199 0.022020 0.171975 0.360401 0.535896 0.691416 0.820527 0.917688 0.978513 0.999983 0.980630 0.920647 0.821939 0.688105 0.524333 0.337242 0.134619 0.074861 0.282022 0.477561 0.652485 0.798530 0.908569 0.976988 0.999998 0.975879 0.905131 0.790519 0.637014 0.451613 0.243060 0.021457 0.202204 0.416580 0.610556 0.773820 0.897446 0.974403 0.999991 0.972170 0.891750 0.762435 0.590703 0.385534 0.157972 0.079439 0.313320 0.530221 0.717384 0.863528 0.959555 0.999152 0.979258 0.900341 0.766473 0.585181 0.367080 0.125296 0.125293 0.368950 0.590068 0.774176 0.908922 0.984931 0.996518 0.942163 0.824730 0.651388 0.433246 0.184699 0.077489 0.335287 0.570617 0.766652 0.909039 0.986994 0.994183 0.929293 0.796270 0.604158 0.366556 0.100724 0.173638 0.435818 0.665660 0.845135 0.959793 0.999992 0.961776 0.847337 0.664987 0.428648 0.156861 0.128627 0.404550 0.648030 0.838493 0.959446 0.999983 0.955836 0.829911 0.632208 0.379116 0.092144 0.203855 0.482822 0.719761 0.893038 0.986395 0.990567 0.904292 0.734616 0.496420 0.211234 0.094665 0.392597 0.654191 0.854077 0.972432 0.997012 0.924526 0.761160 0.522175 0.230601 0.084913 0.392858 0.661984 0.864520 0.979089 0.993060 0.904051 0.720411 0.460561 0.151270 0.175023 0.483560 0.740970 0.918913 0.997288 0.966609 0.829284 0.599594 0.302348 0.029686 0.359323 0.649101 0.865561 0.983183 0.987509 0.877049 0.663727 0.371745 0.034972 0.306899 0.613003 0.846186 0.977597 0.990373 0.881947 0.664644 0.364463 0.018082 0.331500 0.640294 0.868848 0.987399 0.979851 0.846140 0.602539 0.279868 0.080293
1.000000 1.000000 1.000000 1.000000 1.000000 1.000000 1.000000 1.000000 1.000000 1.000000 1.000000 1.000000 1.000000 1.000000 1.000000 1.000000 1.000000 1.000000 1.000000 1.000000 1.000000 1.000000 1.000000 1.000000 1.000000 1.000000 1.000000 1.000000 1.000000 1.000000 1.000000 1.000000 1.000000 1.000000 1.000000 1.000000 1.000000 1.000000 1.000000 1.000000 1.000000 1.000000 1.000000 1.000000 1.000000 1.000000 1.000000 1.000000 1.000000 1.000000 1.000000 1.000000 0.922916 0.922916 0.922916 0.914355 0.914355 0.914355 0.914355 0.914355 0.914355 0.914355 0.914355 0.914355 0.914355 0.914355 0.914355 0.914355 0.914355 0.914355 0.914355 0.914355 0.914355 0.914355 0.914355 0.914355 0.914355 0.914355 0.914355 0.914355 0.914355 0.914355 0.914355 0.914355 0.914355 0.914355 0.914355 0.914355 0.914355 0.914355 0.914355 0.914355 0.914355 0.914355 0.914355 0.914355 0.941696 0.943204 0.951285 0.951112 0.950522 0.948256 0.947250 0.946749 0.946610 0.946912 0.947599 0.948550 0.957478 0.958669 0.961536 0.962467 0.963297 0.964064 0.964853 0.965754 0.961563 0.958732 0.955145 0.954999 0.957869 0.957478 0.957630 0.958724 0.958605 0.958297 0.958799 0.958552 0.957805 0.956928 0.956100 0.955716 0.955494 0.956195 0.956564 0.958024 0.961367 0.961873 0.961957 0.962110 0.962193 0.963510 0.961812 0.961610 0.957361 0.957857 0.957546 0.957874 0.961666 0.961416 0.961930 0.962454 0.963891 0.964149 0.954556 0.951669 0.941493 0.939944 0.934136 0.926679 0.922223 0.924018 0.926231 0.927721 0.928351 0.923877 0.923899 0.920783 0.916522 0.919767 0.918353 0.917994 0.919390 0.920104 0.920496 0.919235 0.917796 0.910887 0.900625 0.899773 0.902918 0.907569 0.909511 0.909830 0.908311 0.878641 0.878572 0.885059 0.879017 0.868424 0.864062 0.862710 0.867959 0.868289 0.871032 0.870447 0.861414 0.847621 0.833678 0.827112 0.828400 0.823290 0.823676 0.822601 0.819635 0.829981 0.826972 0.832793 0.831781 0.843382 0.844309 0.835459 0.831822 0.830403 0.824215 0.808234 0.811370 0.796163 0.796870 0.795998 0.792736 0.786554 0.792066 0.773547 0.767919 0.756432 0.758531 0.762192 0.756863 0.754128 0.755049 0.756411 0.761071 0.745941 0.735791 0.721007 0.725866 0.735749 0.735654 0.730734 0.708151 0.674634 0.634524 0.652405 0.677178 0.628402 0.651735 0.662278 0.641649 0.640019 0.631599 0.629654 0.631577 0.633533 0.638863 0.646640 0.646878 0.665457 0.644273 0.635003 0.643925 0.637253 0.640534 0.624358 0.627777 0.605869 0.598773 0.623510 0.598010 0.597278 0.594437 0.604882 0.631919 0.595423 0.598634 0.611652 0.600219 0.605640 0.604375 0.593612 0.594134 0.601849 0.590661 0.606503 0.621364 0.595075 0.565161 0.546343 0.523603 0.513451 0.559397 0.560447 0.548217 0.517515 0.521305 0.538944 0.542874 0.535325 0.504766 0.516918 0.519027 0.555069 0.542795 0.494961 0.514320 0.511390 0.510427 0.459810 0.454095 0.436982 0.420926 0.378042 0.378564 0.392169 0.378666 0.342844 0.321739 0.322353 0.321447 0.328346 0.316362 0.292208 0.288210 0.313586 0.318830 0.304805 0.267951 0.260879 0.245120 0.230798 0.229943 0.194689 0.228123 0.293559 0.295082 0.295082 0.295082 0.295082 0.295082 0.295082 0.299736 0.299736 0.299736 0.299736 0.299736 0.299736 0.299736 0.299736 0.299736 0.315276 0.315276 0.315276 0.315276 0.315276 0.315276 0.315276 0.315276 0.315276 0.315276 0.315276 0.315276 0.315276 0.315276
0.000000 0.000000 0.000000 0.000000 0.000000 0.000000 0.000000 0.000000 0.000000 0.000000 0.000000 0.000000 0.000000 0.000000 0.000000 0.000000 0.000000 0.000000 0.000000 0.000000 0.000000 0.000000 0.000000 0.000000 0.000000 7.000000 4.000000 0.000000 0.000000 0.000000 0.000000 0.000000 0.000000 0.000000 0.000000 0.000000 0.000000 0.000000 0.000000 0.000000 0.000000 0.000000 0.000000 0.000000 0.000000 0.000000 0.000000 0.000000 0.000000 0.000000 0.000000 0.000000 0.180334 0.180334 0.180334 0.199007 0.199007 0.199007 0.199007 0.199007 0.199007 0.199007 0.199007 0.199007 0.199007 0.199007 0.199007 0.199007 0.199007 0.199007 0.199007 0.199007 0.199007 0.199007 0.199007 0.199007 0.199007 0.199007 0.199007 0.199007 0.199007 0.199007 0.199007 0.199007 0.199007 0.199007 0.199007 0.199007 0.199007 0.199007 0.199007 0.199007 0.199007 0.199007 0.199007 0.199007 0.225018 0.225018 0.225018 0.225018 0.225018 0.225018 0.225018 0.225018 0.225018 0.225018 0.225018 0.225018 0.225018 0.225018 0.225018 0.225018 0.225018 0.225018 0.225018 0.225018 0.225018 0.225018 0.225018 0.225018 0.225018 0.225018 0.225018 0.225018 0.225018 0.244339 0.244339 0.244339 0.244339 0.244339 0.244339 0.244339 0.244339 0.244339 0.244339 0.244339 0.244339 0.244339 0.244339 0.244339 0.244339 0.244339 0.244339 0.244339 0.244339 0.244339 0.244339 0.244339 0.251976 0.251976 0.251976 0.251976 0.251976 0.251976 0.251976 0.251976 0.251976 0.251976 0.251976 0.251976 0.251976 0.251976 0.251976 0.251976 0.251976 0.251976 0.251976 0.251976 0.264906 0.264906 0.264906 0.264906 0.264906 0.264906 0.264906 0.264906 0.264906 0.264906 0.264906 0.264906 0.264906 0.264906 0.264906 0.264906 0.264906 0.256074 0.256074 0.256074 0.256074 0.256074 0.256074 0.256074 0.256074 0.256074 0.256074 0.256074 0.256074 0.256074 0.256074 0.256074 0.256074 0.256074 0.269680 0.269680 0.269680 0.269680 0.269680 0.269680 0.269680 0.269680 0.269680 0.269680 0.269680 0.269680 0.269680 0.269680 0.264906 0.264906 0.264906 0.264906 0.264906 0.264906 0.264906 0.264906 0.264906 0.264906 0.264906 0.264906 0.264906 0.264906 0.256074 0.256074 0.256074 0.256074 0.256074 0.256074 0.256074 0.256074 0.256074 0.256074 0.256074 0.256074 0.256074 0.256074 0.269680 0.269680 0.269680 0.269680 0.269680 0.269680 0.269680 0.269680 0.269680 0.269680 0.269680 0.269680 0.264906 0.264906 0.264906 0.264906 0.264906 0.264906 0.264906 0.264906 0.264906 0.264906 0.264906 0.264906 0.260378 0.260378 0.260378 0.260378 0.260378 0.260378 0.260378 0.260378 0.260378 0.260378 0.260378 0.260378 0.274721 0.274721 0.274721 0.274721 0.274721 0.274721 0.274721 0.274721 0.274721 0.274721 0.256074 0.256074 0.256074 0.256074 0.256074 0.256074 0.256074 0.256074 0.256074 0.256074 0.256074 0.264906 0.264906 0.264906 0.264906 0.264906 0.264906 0.264906 0.264906 0.264906 0.264906 0.260378 0.260378 0.260378 0.260378 0.260378 0.260378 0.260378 0.260378 0.260378 0.260378 0.256074 0.256074 0.256074 0.256074 0.256074 0.256074 0.256074 0.256074 0.256074 0.256074 0.260378 0.260378 0.260378 0.260378 0.260378 0.260378 0.260378 0.260378 0.260378 0.256074 0.256074 0.256074 0.256074 0.256074 0.256074 0.256074 0.256074 0.256074 0.251976 0.251976 0.251976 0.251976 0.251976 0.251976 0.251976 0.251976 0.251976 0.251976 0.251976 0.251976 0.251976 0.251976
