# Output from CTFFind version 4.1.9, run on 2019-11-03 19:00:54
# Input file: stack6_bm3d_averaged_1_2.25_0_750_half.mrc ; Number of micrographs: 1
# Pixel size: 3.000 Angstroms ; acceleration voltage: 300.0 keV ; spherical aberration: 0.00 mm ; amplitude contrast: 0.07
# Box size: 512 pixels ; min. res.: 30.0 Angstroms ; max. res.: 5.0 Angstroms ; min. def.: 5000.0 um; max. def. 50000.0 um; num. frames averaged: 1
# 6 lines per micrograph: #1 - spatial frequency (1/Angstroms); #2 - 1D rotational average of spectrum (assuming no astigmatism); #3 - 1D rotational average of spectrum; #4 - CTF fit; #5 - cross-correlation between spectrum and CTF fit; #6 - 2sigma of expected cross correlation of noise
0.000000 0.000651 0.001302 0.001953 0.002604 0.003255 0.003906 0.004557 0.005208 0.005859 0.006510 0.007161 0.007812 0.008464 0.009115 0.009766 0.010417 0.011068 0.011719 0.012370 0.013021 0.013672 0.014323 0.014974 0.015625 0.016276 0.016927 0.017578 0.018229 0.018880 0.019531 0.020182 0.020833 0.021484 0.022135 0.022786 0.023438 0.024089 0.024740 0.025391 0.026042 0.026693 0.027344 0.027995 0.028646 0.029297 0.029948 0.030599 0.031250 0.031901 0.032552 0.033203 0.033854 0.034505 0.035156 0.035807 0.036458 0.037109 0.037760 0.038411 0.039062 0.039714 0.040365 0.041016 0.041667 0.042318 0.042969 0.043620 0.044271 0.044922 0.045573 0.046224 0.046875 0.047526 0.048177 0.048828 0.049479 0.050130 0.050781 0.051432 0.052083 0.052734 0.053385 0.054036 0.054688 0.055339 0.055990 0.056641 0.057292 0.057943 0.058594 0.059245 0.059896 0.060547 0.061198 0.061849 0.062500 0.063151 0.063802 0.064453 0.065104 0.065755 0.066406 0.067057 0.067708 0.068359 0.069010 0.069661 0.070312 0.070964 0.071615 0.072266 0.072917 0.073568 0.074219 0.074870 0.075521 0.076172 0.076823 0.077474 0.078125 0.078776 0.079427 0.080078 0.080729 0.081380 0.082031 0.082682 0.083333 0.083984 0.084635 0.085286 0.085938 0.086589 0.087240 0.087891 0.088542 0.089193 0.089844 0.090495 0.091146 0.091797 0.092448 0.093099 0.093750 0.094401 0.095052 0.095703 0.096354 0.097005 0.097656 0.098307 0.098958 0.099609 0.100260 0.100911 0.101562 0.102214 0.102865 0.103516 0.104167 0.104818 0.105469 0.106120 0.106771 0.107422 0.108073 0.108724 0.109375 0.110026 0.110677 0.111328 0.111979 0.112630 0.113281 0.113932 0.114583 0.115234 0.115885 0.116536 0.117188 0.117839 0.118490 0.119141 0.119792 0.120443 0.121094 0.121745 0.122396 0.123047 0.123698 0.124349 0.125000 0.125651 0.126302 0.126953 0.127604 0.128255 0.128906 0.129557 0.130208 0.130859 0.131510 0.132161 0.132812 0.133464 0.134115 0.134766 0.135417 0.136068 0.136719 0.137370 0.138021 0.138672 0.139323 0.139974 0.140625 0.141276 0.141927 0.142578 0.143229 0.143880 0.144531 0.145182 0.145833 0.146484 0.147135 0.147786 0.148438 0.149089 0.149740 0.150391 0.151042 0.151693 0.152344 0.152995 0.153646 0.154297 0.154948 0.155599 0.156250 0.156901 0.157552 0.158203 0.158854 0.159505 0.160156 0.160807 0.161458 0.162109 0.162760 0.163411 0.164062 0.164714 0.165365 0.166016 0.166667 0.167318 0.167969 0.168620 0.169271 0.169922 0.170573 0.171224 0.171875 0.172526 0.173177 0.173828 0.174479 0.175130 0.175781 0.176432 0.177083 0.177734 0.178385 0.179036 0.179688 0.180339 0.180990 0.181641 0.182292 0.182943 0.183594 0.184245 0.184896 0.185547 0.186198 0.186849 0.187500 0.188151 0.188802 0.189453 0.190104 0.190755 0.191406 0.192057 0.192708 0.193359 0.194010 0.194661 0.195312 0.195964 0.196615 0.197266 0.197917 0.198568 0.199219 0.199870 0.200521 0.201172 0.201823 0.202474 0.203125 0.203776 0.204427 0.205078 0.205729 0.206380 0.207031 0.207682 0.208333 0.208984 0.209635 0.210286 0.210938 0.211589 0.212240 0.212891 0.213542 0.214193 0.214844 0.215495 0.216146 0.216797 0.217448 0.218099 0.218750 0.219401 0.220052 0.220703 0.221354 0.222005 0.222656 0.223307 0.223958 0.224609 0.225260 0.225911 0.226562 0.227214 0.227865 0.228516 0.229167 0.229818 0.230469 0.231120 0.231771 0.232422 0.233073 0.233724 0.234375 0.235026 0.235677
       0.30477        0.30477        0.30477        0.30477        0.30477        0.30477        0.30477        0.30477        0.30477        0.30477        0.30477        0.30477        0.30477        0.30477        0.30477        0.30477        0.30477        0.30477        0.30477        0.30477        0.30477        0.30477        0.30477        0.30477        0.30477        0.30477        0.30477        0.30477        0.30477        0.30477        0.30477        0.30477        0.30477        0.30477        0.30477        0.30477        0.30477        0.30477        0.30477        0.30477        0.30477        0.30477        0.30477        0.30477        0.30477        0.30477        0.30477        0.30477        0.30477        0.30477        0.30477        0.62386        0.78825        0.39685        0.28187        0.17009       -0.11439        0.11759        0.01534        0.03300        0.11083        0.34513        0.41045        0.37145        0.21192       -0.02311        0.03404        0.06829       -0.17578       -0.18063       -0.08421       -0.11458       -0.29291       -0.18633       -0.30926       -0.27018       -0.28784       -0.40080       -0.46266       -0.45696       -0.40342       -0.33934       -0.42035       -0.33677       -0.40466       -0.34700       -0.27309       -0.20209       -0.18757       -0.10761       -0.06008        0.04222        0.07958        0.23911        0.30594        0.37471        0.39293        0.51181        0.57360        0.60615        0.70992        0.67863        0.73824        0.63810        0.66075        0.67371        0.62108        0.61220        0.61752        0.41490        0.38179        0.35772        0.33256        0.20981        0.12487        0.06020        0.05955        0.01142       -0.07639       -0.00812       -0.03754       -0.07565        0.06007        0.16491        0.26450        0.31547        0.31749        0.40339        0.51590        0.55730        0.51078        0.66755        0.54978        0.52368        0.59562        0.59999        0.53325        0.48622        0.41409        0.37362        0.22594        0.18438        0.12408        0.12775        0.08953        0.05176        0.07762        0.14188        0.13091        0.15688        0.21857        0.24426        0.33161        0.44299        0.45840        0.47170        0.50888        0.56707        0.54595        0.51879        0.39973        0.39812        0.35253        0.27803        0.23751        0.21165        0.17228        0.18557        0.17790        0.16754        0.13865        0.20306        0.25226        0.34202        0.38583        0.40022        0.46781        0.50693        0.44485        0.46985        0.41820        0.41090        0.39363        0.36463        0.28187        0.25751        0.19375        0.21440        0.22075        0.20082        0.21401        0.20676        0.24958        0.32264        0.39669        0.38370        0.37272        0.38543        0.44324        0.43575        0.42425        0.34541        0.31554        0.27916        0.28542        0.25535        0.22160        0.28031        0.29103        0.28820        0.29714        0.32160        0.30892        0.37114        0.34872        0.34485        0.36722        0.33197        0.31838        0.30442        0.28359        0.27351        0.25647        0.22583        0.26820        0.26235        0.29839        0.30812        0.34968        0.36225        0.32414        0.31673        0.35064        0.35090        0.26107        0.28917        0.28487        0.24687        0.23070        0.28111        0.27203        0.26408        0.30420        0.30432        0.31994        0.33021        0.34586        0.29222        0.30262        0.31371        0.27889        0.26544        0.24842        0.23181        0.24906        0.27687        0.28718        0.27940        0.28473        0.31674        0.33775        0.27652        0.30388        0.27219        0.26113        0.25000        0.24701        0.24306        0.25041        0.29266        0.26233        0.29397        0.28099        0.28467        0.30911        0.26623        0.30000        0.31069        0.28883        0.24838        0.25730        0.24845        0.24892        0.30460        0.30514        0.33654        0.30516        0.30970        0.27645        0.30522        0.24008        0.20442        0.28269        0.26681        0.26399        0.26994        0.31076        0.30199        0.35291        0.28850        0.22643        0.22984        0.23817        0.28742        0.30971        0.28539        0.24648        0.26958        0.26910        0.29247        0.27777        0.25897        0.27269        0.25310        0.28239        0.23728        0.26439        0.33052        0.30249        0.23741        0.27250        0.27386        0.28729        0.20753        0.25164        0.24992        0.27287        0.28389        0.35138        0.26752        0.26212        0.25756        0.22702        0.21464        0.19066        0.23258        0.20785        0.21182        0.20171        0.20196        0.26489        0.24179        0.24640        0.22242        0.19935        0.22830        0.22802        0.16143        0.16133        0.15837        0.21632        0.18604        0.05164        0.21713        0.17202        0.06942        0.15876        0.09854        0.09665        0.13054       -0.13841       -0.55603       -0.97370
2.835669 2.807859 2.780193 2.752668 2.725286 2.698046 2.670949 2.643994 2.617182 2.590511 2.563983 2.537598 2.511355 2.485254 2.459295 2.433479 2.407805 2.382274 2.356885 2.331638 2.306534 2.281572 2.256752 2.232075 2.207540 2.183148 2.158898 2.134790 2.110824 2.087001 2.063321 2.039782 2.016386 1.993133 1.970021 1.947052 1.924226 1.901542 1.879000 1.856600 1.834343 1.812228 1.790256 1.768426 1.746738 1.725193 1.703790 1.682529 1.661411 1.640435 1.619602 1.928163 2.254058 1.685302 1.696885 1.358804 0.907046 1.191819 1.050026 1.081270 1.002896 1.523713 1.503625 1.515385 1.253207 0.927459 0.794248 1.011013 0.709288 0.456539 0.591416 0.664590 0.406952 0.473213 0.307748 0.320405 0.229382 0.165688 -0.058314 0.004525 0.034400 0.057724 0.038408 0.121639 -0.051888 0.009513 0.098446 0.216412 0.262213 0.254443 0.345329 0.577557 0.440061 0.700029 0.854987 0.895519 0.891339 1.145351 1.132246 1.202842 1.317959 1.203778 1.401718 1.182980 1.135575 1.314627 1.126123 1.071512 1.173663 0.873979 0.722753 0.682897 0.688292 0.466707 0.392426 0.260545 0.208104 0.128928 -0.021506 0.126314 0.000584 -0.057775 0.096881 0.253874 0.335479 0.472583 0.478200 0.527374 0.708291 0.777380 0.627992 0.968023 0.828980 0.654001 0.767662 0.768461 0.715426 0.697414 0.465366 0.535770 0.247134 0.175945 0.110363 -0.000894 0.027198 -0.083820 -0.048151 -0.014196 0.054512 -0.068950 0.233184 0.136734 0.192502 0.393596 0.417257 0.494387 0.411243 0.578739 0.642510 0.486378 0.389994 0.328681 0.305941 0.163898 0.113813 0.026467 0.050390 -0.026232 0.003148 -0.038794 -0.099257 -0.006737 0.013036 0.137778 0.272154 0.225351 0.363328 0.367262 0.378947 0.408310 0.429637 0.354017 0.237497 0.339068 0.162436 0.178386 -0.000901 0.060111 0.035575 0.016120 -0.005962 0.004753 0.057320 0.114013 0.247275 0.298980 0.231863 0.225636 0.374188 0.329986 0.343633 0.229887 0.152329 0.136408 0.098864 0.087802 0.021377 0.014860 0.140488 0.044114 0.131669 0.096094 0.121592 0.194281 0.208987 0.187127 0.176233 0.226061 0.132416 0.136830 0.093542 0.077411 0.101111 -0.038906 0.055331 0.080849 0.034716 0.136531 0.115957 0.208145 0.192051 0.131215 0.132090 0.224816 0.122611 0.051481 0.107516 0.045382 0.026806 0.011730 0.092186 0.058644 0.030009 0.144081 0.106927 0.124110 0.155978 0.147583 0.117323 0.081835 0.121709 0.057628 0.049088 0.012223 0.002737 0.017550 0.064886 0.086548 0.067739 0.051152 0.109451 0.130023 0.012250 0.091073 0.034793 -0.003059 0.000465 -0.012861 -0.027922 0.034782 0.047198 -0.031277 0.069368 0.030280 0.045984 0.062340 -0.005711 0.038290 0.077768 -0.013871 -0.016580 -0.027394 -0.020823 -0.035946 0.053820 0.067902 0.076128 0.002017 0.119915 -0.010399 0.060738 -0.087933 -0.065994 0.026291 -0.036127 0.024235 -0.037136 0.089480 0.042193 0.088163 -0.018333 -0.107272 -0.057617 -0.086157 0.060218 0.022058 0.013983 -0.055060 -0.028556 -0.023334 -0.006648 0.015943 -0.056991 0.010233 -0.104060 0.025859 -0.076908 0.005440 0.085031 0.004415 -0.028729 0.012889 0.039272 0.011003 -0.095606 0.020767 -0.038939 0.072979 0.089447 0.153262 0.024689 0.042160 0.035655 0.031623 -0.044021 -0.003031 0.036557 0.007173 0.009382 -0.001712 0.022291 0.149687 0.053504 0.127450 0.053007 0.086996 0.102835 0.144094 -0.038846 0.037902 -0.020518 0.197031 0.099736 -0.218617 0.312168 0.259409 0.102055 0.276320 0.161306 0.119274 0.268402 -0.196358 -1.399077
0.072396 0.072834 0.074149 0.076339 0.079405 0.083346 0.088161 0.093849 0.100408 0.107836 0.116131 0.125289 0.135308 0.146182 0.157906 0.170474 0.183877 0.198109 0.213157 0.229010 0.245654 0.263074 0.281252 0.300168 0.319799 0.340120 0.361104 0.382718 0.404927 0.427695 0.450980 0.474734 0.498910 0.523452 0.548302 0.573398 0.598670 0.624047 0.649451 0.674798 0.700001 0.724966 0.749595 0.773784 0.797425 0.820404 0.842602 0.863896 0.884159 0.903260 0.921063 0.937430 0.952221 0.965291 0.976498 0.985696 0.992739 0.997485 0.999792 0.999520 0.996535 0.990707 0.981915 0.970043 0.954985 0.936648 0.914949 0.889820 0.861207 0.829075 0.793405 0.754201 0.711487 0.665309 0.615740 0.562878 0.506848 0.447802 0.385924 0.321424 0.254546 0.185563 0.114780 0.042530 0.030822 0.104881 0.179227 0.253413 0.326965 0.399391 0.470180 0.538802 0.604719 0.667384 0.726247 0.780760 0.830383 0.874588 0.912869 0.944742 0.969757 0.987504 0.997616 0.999780 0.993742 0.979313 0.956377 0.924895 0.884911 0.836556 0.780054 0.715723 0.643977 0.565332 0.480396 0.389877 0.294575 0.195381 0.093266 0.010721 0.115465 0.219794 0.322493 0.422316 0.518004 0.608295 0.691948 0.767759 0.834578 0.891333 0.937043 0.970845 0.992007 0.999949 0.994259 0.974707 0.941262 0.894096 0.833598 0.760377 0.675261 0.579297 0.473740 0.360051 0.239870 0.115009 0.012582 0.140839 0.267611 0.390704 0.507911 0.617058 0.716043 0.802882 0.875752 0.933031 0.973342 0.995594 0.999011 0.983164 0.948000 0.893852 0.821455 0.731946 0.626856 0.508093 0.377920 0.238916 0.093933 0.053959 0.201530 0.345465 0.482429 0.609157 0.722524 0.819636 0.897903 0.955121 0.989540 0.999927 0.985618 0.946559 0.883328 0.797148 0.689878 0.563986 0.422508 0.268984 0.107380 0.058011 0.222670 0.381980 0.531359 0.666385 0.782937 0.877333 0.946449 0.987844 0.999848 0.981649 0.933348 0.855986 0.751545 0.622920 0.473852 0.308837 0.133008 0.048024 0.228336 0.401881 0.562703 0.705135 0.824010 0.914864 0.974114 0.999218 0.988801 0.942744 0.862227 0.749734 0.608994 0.444884 0.263279 0.070854 0.125142 0.317159 0.497638 0.659303 0.795474 0.900347 0.969264 0.998940 0.987642 0.935309 0.843604 0.715900 0.557178 0.373870 0.173609 0.035064 0.243054 0.441109 0.620228 0.772082 0.889417 0.966418 0.999024 0.985173 0.924952 0.820656 0.676743 0.499674 0.297656 0.080285 0.141892 0.357879 0.556773 0.728326 0.863482 0.954885 0.997299 0.987952 0.926739 0.816306 0.661979 0.471550 0.254915 0.023590 0.209880 0.432601 0.632037 0.796728 0.916971 0.985426 0.997594 0.952158 0.851137 0.699854 0.506708 0.282743 0.041051 0.203964 0.437444 0.644964 0.813464 0.932062 0.992824 0.991318 0.926991 0.803298 0.627576 0.410662 0.166270 0.089845 0.340882 0.570098 0.761920 0.903042 0.983377 0.996826 0.941799 0.821422 0.643438 0.419760 0.165734 0.100881 0.361136 0.596232 0.788886 0.924630 0.992953 0.988159 0.909901 0.763334 0.558848 0.311386 0.039420 0.236410 0.494839 0.715614 0.881128 0.977834 0.997441 0.937672 0.802588 0.602390 0.352724 0.073530 0.212535 0.481894 0.711995 0.883245 0.980702 0.995454 0.925508 0.776102 0.559402 0.293601 0.001441 0.291688 0.559929 0.779262 0.929684 0.997091 0.974676 0.863700 0.673535 0.420977 0.128823 0.176112 0.465438 0.711834 0.891642 0.987211 0.988695 0.895164 0.714866 0.464602 0.168255 0.145429 0.445587 0.702277 0.889491
1.000000 1.000000 1.000000 1.000000 1.000000 1.000000 1.000000 1.000000 1.000000 1.000000 1.000000 1.000000 1.000000 1.000000 1.000000 1.000000 1.000000 1.000000 1.000000 1.000000 1.000000 1.000000 1.000000 1.000000 1.000000 1.000000 1.000000 1.000000 1.000000 1.000000 1.000000 1.000000 1.000000 1.000000 1.000000 1.000000 1.000000 1.000000 1.000000 1.000000 1.000000 1.000000 1.000000 1.000000 1.000000 1.000000 1.000000 1.000000 1.000000 1.000000 1.000000 1.000000 0.833305 0.833305 0.833305 0.833305 0.833305 0.833305 0.833305 0.810577 0.810577 0.810577 0.810577 0.810577 0.810577 0.810577 0.810577 0.810577 0.810577 0.810577 0.810577 0.810577 0.810577 0.810577 0.810577 0.810577 0.810577 0.810577 0.810577 0.810577 0.810577 0.810577 0.810577 0.810577 0.810577 0.810577 0.810577 0.810577 0.810577 0.810577 0.810577 0.810577 0.810577 0.810577 0.810577 0.810577 0.810577 0.810577 0.810577 0.810577 0.810577 0.810577 0.810577 0.950143 0.950820 0.951042 0.949946 0.948264 0.944942 0.940635 0.940191 0.942686 0.942894 0.943502 0.944408 0.945391 0.947004 0.948003 0.949202 0.950014 0.958192 0.961947 0.961681 0.961364 0.959977 0.969557 0.968876 0.966716 0.967239 0.967442 0.967433 0.967315 0.967190 0.966663 0.966180 0.966717 0.966611 0.966048 0.965241 0.963273 0.963370 0.963010 0.963116 0.963942 0.964600 0.965234 0.965631 0.965549 0.965665 0.964177 0.963533 0.952342 0.950396 0.948443 0.948206 0.949384 0.949138 0.948249 0.946937 0.946991 0.946876 0.945669 0.945496 0.944452 0.929838 0.930024 0.928920 0.929729 0.923494 0.911823 0.905056 0.901395 0.902825 0.906583 0.911027 0.910053 0.906245 0.903690 0.892598 0.885243 0.870445 0.864889 0.856414 0.864804 0.865004 0.866454 0.864904 0.864236 0.862951 0.860813 0.849427 0.853860 0.846196 0.840588 0.837546 0.835668 0.834784 0.836897 0.840224 0.832475 0.819663 0.820725 0.805534 0.784230 0.782468 0.786610 0.796659 0.810578 0.807474 0.806748 0.792468 0.788167 0.776656 0.767205 0.768735 0.771748 0.769400 0.777819 0.783862 0.782926 0.772488 0.768252 0.769933 0.782294 0.794307 0.801286 0.802213 0.798811 0.800287 0.781794 0.782023 0.783400 0.757584 0.762395 0.762430 0.761316 0.762301 0.759639 0.756410 0.759021 0.756373 0.725715 0.734903 0.733704 0.737798 0.743633 0.722405 0.716181 0.678274 0.681805 0.686314 0.694971 0.697667 0.696336 0.685842 0.700242 0.713455 0.702357 0.708560 0.703513 0.696034 0.692186 0.697387 0.698615 0.668624 0.679890 0.678393 0.667078 0.663504 0.652292 0.666761 0.657747 0.635563 0.632841 0.585032 0.555032 0.545025 0.529625 0.511781 0.497127 0.495443 0.506024 0.493610 0.493029 0.472377 0.426039 0.433889 0.433025 0.419053 0.403563 0.389102 0.358410 0.379546 0.379857 0.379335 0.352534 0.339431 0.321755 0.260238 0.239071 0.208905 0.214615 0.216795 0.204345 0.189597 0.193698 0.195939 0.201856 0.229988 0.228918 0.253988 0.220444 0.184531 0.200754 0.209132 0.209598 0.191599 0.153036 0.195904 0.182124 0.194406 0.198944 0.161091 0.130296 0.091300 0.097941 0.096302 0.123027 0.153235 0.143878 0.120482 0.022132 0.053738 0.082938 0.082938 0.082938 0.082938 0.082938 0.082938 0.082938 0.082938 0.082938 0.082938 0.082938 0.019833 0.019833 0.019833 0.019833 0.019833 0.019833 0.019833 0.019833 0.019833 0.019833 0.019833 0.019833 0.019833 0.019833 0.019833 0.019833 0.019833 0.019833 0.019833
0.000000 0.000000 0.000000 0.000000 0.000000 0.000000 0.000000 0.000000 0.000000 0.000000 0.000000 0.000000 0.000000 0.000000 0.000000 0.000000 0.000000 0.000000 0.000000 0.000000 0.000000 0.000000 0.000000 0.000000 0.000000 0.000000 0.000000 0.000000 0.000000 0.000000 0.000000 0.000000 0.000000 0.000000 0.000000 0.000000 0.000000 0.000000 0.000000 0.000000 0.000000 0.000000 0.000000 0.000000 0.000000 0.000000 0.000000 0.000000 0.000000 0.000000 0.000000 0.000000 0.173422 0.173422 0.173422 0.173422 0.173422 0.173422 0.173422 0.191565 0.191565 0.191565 0.191565 0.191565 0.191565 0.191565 0.191565 0.191565 0.191565 0.191565 0.191565 0.191565 0.191565 0.191565 0.191565 0.191565 0.191565 0.191565 0.191565 0.191565 0.191565 0.191565 0.191565 0.191565 0.191565 0.191565 0.191565 0.191565 0.191565 0.191565 0.191565 0.191565 0.191565 0.191565 0.191565 0.191565 0.191565 0.191565 0.191565 0.191565 0.191565 0.191565 0.191565 0.219529 0.219529 0.219529 0.219529 0.219529 0.219529 0.219529 0.219529 0.219529 0.219529 0.219529 0.219529 0.219529 0.219529 0.219529 0.219529 0.219529 0.219529 0.219529 0.219529 0.219529 0.219529 0.219529 0.219529 0.219529 0.219529 0.219529 0.219529 0.219529 0.219529 0.219529 0.237356 0.237356 0.237356 0.237356 0.237356 0.237356 0.237356 0.237356 0.237356 0.237356 0.237356 0.237356 0.237356 0.237356 0.237356 0.237356 0.237356 0.237356 0.237356 0.237356 0.237356 0.237356 0.237356 0.237356 0.244339 0.244339 0.244339 0.244339 0.244339 0.244339 0.244339 0.244339 0.244339 0.244339 0.244339 0.244339 0.244339 0.244339 0.244339 0.244339 0.244339 0.244339 0.244339 0.244339 0.244339 0.248069 0.248069 0.248069 0.248069 0.248069 0.248069 0.248069 0.248069 0.248069 0.248069 0.248069 0.248069 0.248069 0.248069 0.248069 0.248069 0.248069 0.248069 0.248069 0.248069 0.248069 0.248069 0.248069 0.248069 0.248069 0.248069 0.248069 0.248069 0.248069 0.248069 0.248069 0.248069 0.248069 0.248069 0.248069 0.248069 0.248069 0.256074 0.256074 0.256074 0.256074 0.256074 0.256074 0.256074 0.256074 0.256074 0.256074 0.256074 0.256074 0.256074 0.256074 0.256074 0.256074 0.256074 0.256074 0.256074 0.256074 0.256074 0.256074 0.256074 0.256074 0.256074 0.256074 0.256074 0.256074 0.256074 0.256074 0.256074 0.256074 0.256074 0.256074 0.256074 0.256074 0.256074 0.256074 0.256074 0.256074 0.256074 0.256074 0.256074 0.256074 0.256074 0.260378 0.260378 0.260378 0.260378 0.260378 0.260378 0.260378 0.260378 0.260378 0.260378 0.260378 0.260378 0.260378 0.256074 0.256074 0.256074 0.256074 0.256074 0.256074 0.256074 0.256074 0.256074 0.256074 0.256074 0.256074 0.256074 0.260378 0.260378 0.260378 0.260378 0.260378 0.260378 0.260378 0.260378 0.260378 0.260378 0.260378 0.260378 0.251976 0.251976 0.251976 0.251976 0.251976 0.251976 0.251976 0.251976 0.251976 0.251976 0.251976 0.251976 0.256074 0.256074 0.256074 0.256074 0.256074 0.256074 0.256074 0.256074 0.256074 0.256074 0.256074 0.251976 0.251976 0.251976 0.251976 0.251976 0.251976 0.251976 0.251976 0.251976 0.251976 0.251976 0.248069 0.248069 0.248069 0.248069 0.248069 0.248069 0.248069 0.248069 0.248069 0.248069 0.248069 0.256074 0.256074 0.256074 0.256074 0.256074 0.256074 0.256074 0.256074 0.256074 0.256074 0.256074 0.256074 0.256074 0.256074 0.256074 0.256074 0.256074 0.256074 0.256074
