# Output from CTFFind version 4.1.9, run on 2019-11-03 20:08:56
# Input file: stack11_bm3d_averaged_1_7.0_0_2000_half.mrc ; Number of micrographs: 1
# Pixel size: 3.000 Angstroms ; acceleration voltage: 300.0 keV ; spherical aberration: 0.00 mm ; amplitude contrast: 0.07
# Box size: 512 pixels ; min. res.: 30.0 Angstroms ; max. res.: 5.0 Angstroms ; min. def.: 5000.0 um; max. def. 50000.0 um; num. frames averaged: 1
# 6 lines per micrograph: #1 - spatial frequency (1/Angstroms); #2 - 1D rotational average of spectrum (assuming no astigmatism); #3 - 1D rotational average of spectrum; #4 - CTF fit; #5 - cross-correlation between spectrum and CTF fit; #6 - 2sigma of expected cross correlation of noise
0.000000 0.000651 0.001302 0.001953 0.002604 0.003255 0.003906 0.004557 0.005208 0.005859 0.006510 0.007161 0.007812 0.008464 0.009115 0.009766 0.010417 0.011068 0.011719 0.012370 0.013021 0.013672 0.014323 0.014974 0.015625 0.016276 0.016927 0.017578 0.018229 0.018880 0.019531 0.020182 0.020833 0.021484 0.022135 0.022786 0.023438 0.024089 0.024740 0.025391 0.026042 0.026693 0.027344 0.027995 0.028646 0.029297 0.029948 0.030599 0.031250 0.031901 0.032552 0.033203 0.033854 0.034505 0.035156 0.035807 0.036458 0.037109 0.037760 0.038411 0.039062 0.039714 0.040365 0.041016 0.041667 0.042318 0.042969 0.043620 0.044271 0.044922 0.045573 0.046224 0.046875 0.047526 0.048177 0.048828 0.049479 0.050130 0.050781 0.051432 0.052083 0.052734 0.053385 0.054036 0.054688 0.055339 0.055990 0.056641 0.057292 0.057943 0.058594 0.059245 0.059896 0.060547 0.061198 0.061849 0.062500 0.063151 0.063802 0.064453 0.065104 0.065755 0.066406 0.067057 0.067708 0.068359 0.069010 0.069661 0.070312 0.070964 0.071615 0.072266 0.072917 0.073568 0.074219 0.074870 0.075521 0.076172 0.076823 0.077474 0.078125 0.078776 0.079427 0.080078 0.080729 0.081380 0.082031 0.082682 0.083333 0.083984 0.084635 0.085286 0.085938 0.086589 0.087240 0.087891 0.088542 0.089193 0.089844 0.090495 0.091146 0.091797 0.092448 0.093099 0.093750 0.094401 0.095052 0.095703 0.096354 0.097005 0.097656 0.098307 0.098958 0.099609 0.100260 0.100911 0.101562 0.102214 0.102865 0.103516 0.104167 0.104818 0.105469 0.106120 0.106771 0.107422 0.108073 0.108724 0.109375 0.110026 0.110677 0.111328 0.111979 0.112630 0.113281 0.113932 0.114583 0.115234 0.115885 0.116536 0.117188 0.117839 0.118490 0.119141 0.119792 0.120443 0.121094 0.121745 0.122396 0.123047 0.123698 0.124349 0.125000 0.125651 0.126302 0.126953 0.127604 0.128255 0.128906 0.129557 0.130208 0.130859 0.131510 0.132161 0.132812 0.133464 0.134115 0.134766 0.135417 0.136068 0.136719 0.137370 0.138021 0.138672 0.139323 0.139974 0.140625 0.141276 0.141927 0.142578 0.143229 0.143880 0.144531 0.145182 0.145833 0.146484 0.147135 0.147786 0.148438 0.149089 0.149740 0.150391 0.151042 0.151693 0.152344 0.152995 0.153646 0.154297 0.154948 0.155599 0.156250 0.156901 0.157552 0.158203 0.158854 0.159505 0.160156 0.160807 0.161458 0.162109 0.162760 0.163411 0.164062 0.164714 0.165365 0.166016 0.166667 0.167318 0.167969 0.168620 0.169271 0.169922 0.170573 0.171224 0.171875 0.172526 0.173177 0.173828 0.174479 0.175130 0.175781 0.176432 0.177083 0.177734 0.178385 0.179036 0.179688 0.180339 0.180990 0.181641 0.182292 0.182943 0.183594 0.184245 0.184896 0.185547 0.186198 0.186849 0.187500 0.188151 0.188802 0.189453 0.190104 0.190755 0.191406 0.192057 0.192708 0.193359 0.194010 0.194661 0.195312 0.195964 0.196615 0.197266 0.197917 0.198568 0.199219 0.199870 0.200521 0.201172 0.201823 0.202474 0.203125 0.203776 0.204427 0.205078 0.205729 0.206380 0.207031 0.207682 0.208333 0.208984 0.209635 0.210286 0.210938 0.211589 0.212240 0.212891 0.213542 0.214193 0.214844 0.215495 0.216146 0.216797 0.217448 0.218099 0.218750 0.219401 0.220052 0.220703 0.221354 0.222005 0.222656 0.223307 0.223958 0.224609 0.225260 0.225911 0.226562 0.227214 0.227865 0.228516 0.229167 0.229818 0.230469 0.231120 0.231771 0.232422 0.233073 0.233724 0.234375 0.235026 0.235677
       0.34504        0.34504        0.34504        0.34504        0.34504        0.34504        0.34504        0.34504        0.34504        0.34504        0.34504        0.34504        0.34504        0.34504        0.34504        0.34504        0.34504        0.34504        0.34504        0.34504        0.34504        0.34504        0.34504        0.34504        0.34504        0.34504        0.34504        0.34504        0.34504        0.34504        0.34504        0.34504        0.34504        0.34504        0.34504        0.34504        0.34504        0.34504        0.34504        0.34504        0.34504        0.34504        0.34504        0.34504        0.34504        0.34504        0.34504        0.34504        0.34504        0.34504        0.34504        0.69904        0.85735        0.53797        0.10525       -0.02910       -0.38546       -0.17996       -0.28835       -0.11623       -0.05522       -0.11294       -0.05343       -0.16624       -0.20555       -0.21356       -0.30689       -0.31833       -0.44360       -0.36191       -0.42574       -0.42074       -0.39338       -0.40619       -0.44609       -0.50696       -0.55836       -0.54914       -0.52324       -0.35610       -0.32539       -0.29061       -0.27060       -0.18581       -0.16961        0.06173        0.14256        0.17601        0.26668        0.38147        0.45776        0.52312        0.60127        0.59832        0.58459        0.70037        0.80328        0.70264        0.74411        0.61914        0.56842        0.48350        0.43289        0.51236        0.39798        0.27221        0.11716        0.11399        0.09443       -0.01284        0.04568        0.05328        0.01250        0.02808        0.03161        0.23692        0.27159        0.29645        0.43557        0.45378        0.41488        0.60046        0.61828        0.63482        0.72371        0.67574        0.64724        0.65605        0.56009        0.46036        0.41897        0.30398        0.27079        0.18523        0.13685        0.05257        0.06675        0.07663        0.10032        0.16072        0.24604        0.29889        0.42302        0.46568        0.48152        0.56406        0.60181        0.63651        0.61511        0.55824        0.46242        0.47345        0.37885        0.27813        0.21261        0.15655        0.17341        0.15396        0.16191        0.19148        0.32399        0.33870        0.40837        0.44726        0.42571        0.48000        0.56334        0.55545        0.50338        0.45750        0.41416        0.37369        0.34270        0.31015        0.26548        0.24730        0.25572        0.25717        0.22676        0.31072        0.36513        0.38487        0.43917        0.45615        0.46764        0.42797        0.41298        0.40218        0.36354        0.33844        0.27510        0.28214        0.26938        0.24773        0.29655        0.29407        0.35276        0.38333        0.43570        0.47679        0.40699        0.42254        0.43276        0.41215        0.35085        0.32953        0.29317        0.32723        0.27649        0.32433        0.31635        0.33394        0.34214        0.36534        0.31387        0.38830        0.41209        0.38123        0.35249        0.36964        0.31948        0.29593        0.30871        0.32027        0.30857        0.32085        0.34569        0.35813        0.34117        0.36446        0.36295        0.42396        0.39087        0.34048        0.34967        0.30038        0.29497        0.32706        0.32050        0.33114        0.34390        0.34386        0.38824        0.33129        0.33028        0.33918        0.34972        0.30522        0.31338        0.28292        0.30353        0.33197        0.30467        0.33249        0.35928        0.37133        0.29981        0.34396        0.30022        0.29325        0.27971        0.24748        0.30826        0.30791        0.34338        0.34033        0.34539        0.32828        0.34999        0.31551        0.34643        0.30641        0.32634        0.29310        0.33749        0.33145        0.37335        0.33191        0.33719        0.33764        0.29360        0.27651        0.31314        0.25085        0.22985        0.34149        0.32394        0.36814        0.34792        0.36387        0.33626        0.33434        0.35207        0.26666        0.26987        0.31976        0.30196        0.31143        0.31483        0.33953        0.32947        0.28899        0.29131        0.34618        0.32246        0.32277        0.29936        0.32213        0.33822        0.39330        0.36368        0.32045        0.28324        0.30360        0.29008        0.30802        0.27913        0.27203        0.31328        0.33000        0.34585        0.35660        0.33234        0.29593        0.30171        0.27169        0.27868        0.25702        0.30664        0.26095        0.24917        0.28959        0.28485        0.26319        0.29420        0.22009        0.21630        0.23885        0.19427        0.27409        0.34929        0.25394        0.24466        0.31903        0.30190        0.30944        0.31438        0.27409        0.25171        0.19471        0.21158        0.20815        0.28279        0.23716        0.28448        0.36434        0.37106        0.25538        0.17861        0.12620       -0.01564       -0.13106       -0.62560
2.808642 2.778833 2.749186 2.719701 2.690378 2.661218 2.632221 2.603385 2.574712 2.546202 2.517853 2.489667 2.461644 2.433783 2.406084 2.378547 2.351173 2.323961 2.296912 2.270025 2.243300 2.216738 2.190338 2.164100 2.138025 2.112112 2.086361 2.060773 2.035348 2.010084 1.984983 1.960044 1.935268 1.910654 1.886202 1.861912 1.837785 1.813821 1.790019 1.766379 1.742901 1.719586 1.696433 1.673442 1.650614 1.627949 1.605445 1.583104 1.560925 1.538909 1.517055 1.735554 2.162297 1.716857 1.194567 1.057343 0.455883 0.853164 0.563031 0.848354 0.818281 0.821428 0.760186 0.758645 0.599136 0.563128 0.503302 0.428659 0.250230 0.365643 0.199429 0.331281 0.219304 0.211421 0.185966 0.041724 0.001673 0.018873 -0.070225 0.133656 0.234047 0.189246 0.180199 0.325122 0.184410 0.524088 0.627920 0.637703 0.654787 0.881228 0.839648 0.948315 0.944960 1.041662 1.011598 1.094192 1.177373 1.049518 1.172430 0.914389 0.934264 0.800302 0.657222 0.813107 0.698603 0.499547 0.334978 0.252677 0.271226 0.149793 0.138369 0.167036 0.109815 0.119689 0.083229 0.249444 0.352002 0.342782 0.479120 0.547349 0.418653 0.597374 0.735070 0.648466 0.722888 0.713149 0.722143 0.648742 0.598504 0.492211 0.368777 0.277817 0.220650 0.092262 0.116789 -0.117116 -0.049371 -0.063528 -0.084753 -0.017977 0.128928 0.071673 0.243173 0.308629 0.337630 0.374408 0.497674 0.467019 0.480721 0.492067 0.306259 0.294485 0.287770 0.086734 0.046068 -0.082354 -0.015659 -0.063019 -0.097221 -0.070929 0.040466 0.095433 0.127014 0.226442 0.223844 0.221076 0.316301 0.342679 0.447027 0.257095 0.232935 0.227688 0.144055 0.145763 0.119788 -0.004558 0.014981 0.077092 -0.010478 0.045231 0.134206 0.135823 0.214101 0.233916 0.259013 0.161808 0.212068 0.128878 0.127342 0.114689 0.027457 -0.026347 -0.001200 -0.020446 -0.052180 0.055697 0.004477 0.106747 0.138599 0.194331 0.164617 0.118373 0.140790 0.160083 0.110374 0.036068 -0.025693 0.028770 0.028820 -0.043912 0.038034 0.020399 0.048152 0.039596 0.055658 0.020373 0.139954 0.119146 0.046893 0.037510 0.042328 0.005479 -0.030785 0.008760 0.004515 -0.004103 0.003267 0.057222 0.053873 0.038962 0.074051 0.061237 0.164257 0.063928 0.041671 0.043489 -0.034752 0.012172 0.047381 0.007787 0.032833 0.056078 0.081178 0.050015 0.041636 0.008059 0.079723 0.026956 0.020844 0.024495 -0.006377 0.032435 0.026542 0.020600 0.069412 0.075689 0.077797 0.041978 0.052894 0.022980 0.015396 -0.024042 -0.024914 0.036899 0.052756 0.080864 0.081542 0.067199 0.070821 0.097749 0.042805 0.090684 0.057401 0.044735 0.018425 0.104322 0.062714 0.125056 0.069711 0.061930 0.097772 0.031030 0.002770 0.085656 -0.040195 -0.028816 0.094016 0.043326 0.159434 0.092112 0.088869 0.065728 0.032169 0.090610 -0.026933 -0.024654 0.048039 0.033722 0.032977 0.018431 0.102129 0.031207 -0.013356 0.049638 0.041290 0.053641 0.056436 -0.009668 0.057444 0.050411 0.117337 0.056791 0.027471 -0.029610 -0.027659 -0.004944 0.008168 -0.057254 -0.021526 0.000868 0.016839 0.035155 0.059019 0.004987 -0.032819 -0.029692 -0.018785 -0.067467 -0.046331 -0.034438 -0.131203 -0.095656 -0.059109 -0.094432 -0.105485 -0.026887 -0.153878 -0.105039 -0.115206 -0.189015 -0.069785 0.061206 -0.074159 -0.136691 0.051330 0.029351 -0.027470 0.073074 -0.023570 -0.004127 -0.084532 -0.038675 0.047259 0.129578 0.054187 0.139144 0.169319 0.436349 0.238910 0.322997 0.161407 -0.021375 -0.700383
0.072396 0.072899 0.074408 0.076923 0.080442 0.084966 0.090493 0.097021 0.104548 0.113071 0.122587 0.133092 0.144580 0.157045 0.170479 0.184872 0.200215 0.216494 0.233693 0.251796 0.270783 0.290630 0.311312 0.332798 0.355057 0.378050 0.401736 0.426069 0.450998 0.476467 0.502415 0.528774 0.555472 0.582430 0.609561 0.636775 0.663972 0.691047 0.717889 0.744377 0.770386 0.795783 0.820430 0.844180 0.866882 0.888379 0.908508 0.927102 0.943990 0.958997 0.971948 0.982663 0.990964 0.996675 0.999619 0.999625 0.996528 0.990167 0.980393 0.967065 0.950056 0.929253 0.904561 0.875902 0.843221 0.806486 0.765690 0.720853 0.672027 0.619295 0.562774 0.502616 0.439011 0.372187 0.302412 0.229994 0.155282 0.078663 0.000568 0.078537 0.158145 0.237717 0.316679 0.394430 0.470340 0.543763 0.614034 0.680479 0.742423 0.799194 0.850131 0.894596 0.931975 0.961698 0.983239 0.996128 0.999965 0.994424 0.979263 0.954336 0.919600 0.875120 0.821078 0.757779 0.685652 0.605255 0.517276 0.422530 0.321957 0.216617 0.107683 0.003573 0.115786 0.227519 0.337274 0.443518 0.544698 0.639268 0.725715 0.802580 0.868491 0.922189 0.962552 0.988627 0.999652 0.995083 0.974616 0.938200 0.886061 0.818708 0.736935 0.641833 0.534772 0.417399 0.291615 0.159555 0.023555 0.113887 0.250150 0.382542 0.508346 0.624890 0.729593 0.820034 0.894013 0.949609 0.985238 0.999706 0.992256 0.962609 0.910985 0.838133 0.745329 0.634373 0.507565 0.367675 0.217888 0.061744 0.096940 0.254157 0.405814 0.547833 0.676265 0.787413 0.877933 0.944958 0.986190 0.999999 0.985495 0.942587 0.872020 0.775386 0.655109 0.514411 0.357235 0.188154 0.012249 0.165034 0.338048 0.501127 0.648771 0.775840 0.877742 0.950619 0.991501 0.998452 0.970678 0.908595 0.813863 0.689374 0.539185 0.368415 0.183095 0.010048 0.203801 0.390742 0.563523 0.715165 0.839349 0.930698 0.985032 0.999579 0.973145 0.906219 0.801008 0.661404 0.492878 0.302287 0.097625 0.112303 0.318239 0.510880 0.681313 0.821428 0.924330 0.984701 0.999108 0.966229 0.886984 0.764564 0.604347 0.413706 0.201693 0.021354 0.244310 0.455799 0.644782 0.801151 0.916284 0.983556 0.998755 0.960384 0.869829 0.731368 0.552022 0.341242 0.110456 0.127536 0.359243 0.571260 0.751038 0.887657 0.972525 0.999953 0.967591 0.876659 0.731983 0.541798 0.317332 0.072182 0.178474 0.418799 0.633307 0.807866 0.930669 0.993065 0.990231 0.921592 0.790982 0.606503 0.380087 0.126772 0.136243 0.390764 0.618837 0.804048 0.932723 0.994996 0.985626 0.904494 0.756759 0.552599 0.306589 0.036720 0.236889 0.493457 0.713138 0.878580 0.976333 0.998020 0.941116 0.809306 0.612335 0.365380 0.087955 0.197610 0.467897 0.700369 0.875236 0.977220 0.996946 0.931889 0.786757 0.573266 0.309265 0.017350 0.277057 0.547875 0.770688 0.924996 0.996161 0.976876 0.868016 0.678744 0.425852 0.132354 0.174524 0.465855 0.713713 0.893904 0.988377 0.987132 0.889375 0.703812 0.447985 0.146733 0.170159 0.470851 0.724649 0.905182 0.993199 0.978734 0.862347 0.655293 0.378565 0.060873 0.264256 0.561983 0.799908 0.951633 0.999798 0.938175 0.772598 0.520571 0.209544 0.125977 0.448195 0.720262 0.910557 0.996414 0.966965 0.824642 0.585167 0.275968 0.066854 0.402651 0.691042 0.896788 0.994195 0.970443 0.827425 0.581805 0.263239 0.089084 0.431169 0.719711 0.917596 0.998790 0.951896 0.781920 0.509926 0.170613 0.192011
1.000000 1.000000 1.000000 1.000000 1.000000 1.000000 1.000000 1.000000 1.000000 1.000000 1.000000 1.000000 1.000000 1.000000 1.000000 1.000000 1.000000 1.000000 1.000000 1.000000 1.000000 1.000000 1.000000 1.000000 1.000000 1.000000 1.000000 1.000000 1.000000 1.000000 1.000000 1.000000 1.000000 1.000000 1.000000 1.000000 1.000000 1.000000 1.000000 1.000000 1.000000 1.000000 1.000000 1.000000 1.000000 1.000000 1.000000 1.000000 1.000000 1.000000 1.000000 1.000000 0.915576 0.915576 0.915576 0.911174 0.911174 0.911174 0.911174 0.911174 0.911174 0.911174 0.911174 0.911174 0.911174 0.911174 0.911174 0.911174 0.911174 0.911174 0.911174 0.911174 0.911174 0.911174 0.911174 0.911174 0.911174 0.911174 0.911174 0.911174 0.911174 0.911174 0.911174 0.911174 0.911174 0.911174 0.911174 0.911174 0.911174 0.911174 0.911174 0.911174 0.911174 0.911174 0.911174 0.911174 0.939640 0.941078 0.949419 0.948957 0.948411 0.946419 0.945159 0.944945 0.944857 0.945209 0.945945 0.946941 0.953165 0.954103 0.958517 0.961234 0.961205 0.962941 0.964903 0.964541 0.956216 0.955973 0.954543 0.953812 0.955921 0.954550 0.953308 0.953778 0.953394 0.955827 0.955384 0.954164 0.952510 0.950903 0.949598 0.949043 0.948809 0.949614 0.949693 0.951269 0.954298 0.954457 0.954191 0.951427 0.951045 0.952250 0.951683 0.953508 0.941329 0.940681 0.939217 0.939214 0.941806 0.941705 0.941605 0.942506 0.942206 0.942127 0.942273 0.935619 0.935356 0.927815 0.924205 0.922730 0.917308 0.913252 0.915901 0.918522 0.919745 0.920200 0.911013 0.908072 0.909016 0.907843 0.909312 0.909234 0.910329 0.910739 0.910662 0.905503 0.895766 0.894128 0.886241 0.888961 0.885651 0.883007 0.880033 0.871190 0.862683 0.874810 0.861876 0.820705 0.824402 0.828859 0.820948 0.817081 0.817988 0.819508 0.824474 0.818451 0.817090 0.811203 0.798069 0.793267 0.785760 0.772019 0.769945 0.760988 0.750590 0.744717 0.768578 0.762171 0.773878 0.778288 0.777898 0.774444 0.765438 0.754692 0.754876 0.750281 0.746091 0.722796 0.714979 0.715125 0.712384 0.700129 0.703316 0.691444 0.691555 0.678891 0.683633 0.689263 0.692463 0.688520 0.682087 0.673629 0.669721 0.682951 0.697027 0.689116 0.685015 0.690758 0.681121 0.676273 0.668917 0.673057 0.665412 0.656891 0.659385 0.693071 0.665155 0.654716 0.661972 0.664852 0.659527 0.660237 0.639855 0.633703 0.610900 0.628195 0.633559 0.650227 0.651118 0.653421 0.664325 0.670114 0.680876 0.685469 0.684194 0.644285 0.648319 0.666942 0.674606 0.663200 0.653056 0.653001 0.646699 0.683238 0.668018 0.625780 0.621838 0.620862 0.576964 0.556301 0.554645 0.556974 0.584100 0.580441 0.562250 0.536105 0.537844 0.539229 0.537599 0.536093 0.521263 0.528937 0.513785 0.490022 0.502024 0.509805 0.508101 0.492164 0.485658 0.499225 0.477611 0.505553 0.481586 0.463063 0.479962 0.478532 0.466255 0.393149 0.403445 0.392687 0.378499 0.334072 0.343598 0.353396 0.335612 0.260591 0.254701 0.255422 0.251967 0.232249 0.209413 0.196091 0.185537 0.163129 0.102368 0.053573 0.055080 0.058879 0.085642 0.045168 0.099136 0.167160 0.165194 0.165194 0.165194 0.165194 0.165194 0.165194 0.165194 0.165194 0.141078 0.141078 0.141078 0.141078 0.141078 0.141078 0.141078 0.141078 0.141078 0.165194 0.165194 0.165194 0.165194 0.165194 0.165194 0.165194 0.165194 0.165194 0.165194 0.165194 0.165194 0.165194 0.165194
0.000000 0.000000 0.000000 0.000000 0.000000 0.000000 0.000000 0.000000 0.000000 0.000000 0.000000 0.000000 0.000000 0.000000 0.000000 0.000000 0.000000 0.000000 0.000000 0.000000 0.000000 0.000000 0.000000 0.000000 0.000000 0.000000 0.000000 0.000000 0.000000 0.000000 0.000000 0.000000 0.000000 0.000000 0.000000 0.000000 0.000000 0.000000 0.000000 0.000000 0.000000 0.000000 0.000000 0.000000 0.000000 0.000000 0.000000 0.000000 0.000000 0.000000 0.000000 0.000000 0.180334 0.180334 0.180334 0.199007 0.199007 0.199007 0.199007 0.199007 0.199007 0.199007 0.199007 0.199007 0.199007 0.199007 0.199007 0.199007 0.199007 0.199007 0.199007 0.199007 0.199007 0.199007 0.199007 0.199007 0.199007 0.199007 0.199007 0.199007 0.199007 0.199007 0.199007 0.199007 0.199007 0.199007 0.199007 0.199007 0.199007 0.199007 0.199007 0.199007 0.199007 0.199007 0.199007 0.199007 0.225018 0.225018 0.225018 0.225018 0.225018 0.225018 0.225018 0.225018 0.225018 0.225018 0.225018 0.225018 0.225018 0.225018 0.225018 0.225018 0.225018 0.225018 0.225018 0.225018 0.225018 0.225018 0.225018 0.225018 0.225018 0.225018 0.225018 0.225018 0.225018 0.244339 0.244339 0.244339 0.244339 0.244339 0.244339 0.244339 0.244339 0.244339 0.244339 0.244339 0.244339 0.244339 0.244339 0.244339 0.244339 0.244339 0.244339 0.244339 0.244339 0.244339 0.244339 0.244339 0.256074 0.256074 0.256074 0.256074 0.256074 0.256074 0.256074 0.256074 0.256074 0.256074 0.256074 0.256074 0.256074 0.256074 0.256074 0.256074 0.256074 0.256074 0.256074 0.256074 0.256074 0.256074 0.256074 0.256074 0.256074 0.256074 0.256074 0.256074 0.256074 0.256074 0.256074 0.256074 0.256074 0.256074 0.256074 0.256074 0.256074 0.264906 0.264906 0.264906 0.264906 0.264906 0.264906 0.264906 0.264906 0.264906 0.264906 0.264906 0.264906 0.264906 0.264906 0.264906 0.264906 0.264906 0.264906 0.264906 0.264906 0.264906 0.264906 0.264906 0.264906 0.264906 0.264906 0.264906 0.264906 0.264906 0.264906 0.264906 0.264906 0.264906 0.264906 0.264906 0.264906 0.264906 0.264906 0.264906 0.264906 0.264906 0.264906 0.264906 0.264906 0.264906 0.264906 0.264906 0.264906 0.264906 0.264906 0.264906 0.264906 0.264906 0.264906 0.264906 0.264906 0.264906 0.264906 0.260378 0.260378 0.260378 0.260378 0.260378 0.260378 0.260378 0.260378 0.260378 0.260378 0.260378 0.260378 0.260378 0.264906 0.264906 0.264906 0.264906 0.264906 0.264906 0.264906 0.264906 0.264906 0.264906 0.264906 0.264906 0.269680 0.269680 0.269680 0.269680 0.269680 0.269680 0.269680 0.269680 0.269680 0.269680 0.269680 0.264906 0.264906 0.264906 0.264906 0.264906 0.264906 0.264906 0.264906 0.264906 0.264906 0.264906 0.256074 0.256074 0.256074 0.256074 0.256074 0.256074 0.256074 0.256074 0.256074 0.256074 0.256074 0.264906 0.264906 0.264906 0.264906 0.264906 0.264906 0.264906 0.264906 0.264906 0.264906 0.260378 0.260378 0.260378 0.260378 0.260378 0.260378 0.260378 0.260378 0.260378 0.260378 0.264906 0.264906 0.264906 0.264906 0.264906 0.264906 0.264906 0.264906 0.264906 0.251976 0.251976 0.251976 0.251976 0.251976 0.251976 0.251976 0.251976 0.251976 0.251976 0.256074 0.256074 0.256074 0.256074 0.256074 0.256074 0.256074 0.256074 0.256074 0.251976 0.251976 0.251976 0.251976 0.251976 0.251976 0.251976 0.251976 0.251976 0.251976 0.251976 0.251976 0.251976 0.251976
