# Output from CTFFind version 4.1.9, run on 2019-11-02 17:58:25
# Input file: stack1_bm3d_averaged_1_1.75_0_2500_half.mrc ; Number of micrographs: 1
# Pixel size: 3.000 Angstroms ; acceleration voltage: 300.0 keV ; spherical aberration: 0.00 mm ; amplitude contrast: 0.07
# Box size: 512 pixels ; min. res.: 30.0 Angstroms ; max. res.: 5.0 Angstroms ; min. def.: 5000.0 um; max. def. 50000.0 um; num. frames averaged: 1
# 6 lines per micrograph: #1 - spatial frequency (1/Angstroms); #2 - 1D rotational average of spectrum (assuming no astigmatism); #3 - 1D rotational average of spectrum; #4 - CTF fit; #5 - cross-correlation between spectrum and CTF fit; #6 - 2sigma of expected cross correlation of noise
0.000000 0.000651 0.001302 0.001953 0.002604 0.003255 0.003906 0.004557 0.005208 0.005859 0.006510 0.007161 0.007812 0.008464 0.009115 0.009766 0.010417 0.011068 0.011719 0.012370 0.013021 0.013672 0.014323 0.014974 0.015625 0.016276 0.016927 0.017578 0.018229 0.018880 0.019531 0.020182 0.020833 0.021484 0.022135 0.022786 0.023438 0.024089 0.024740 0.025391 0.026042 0.026693 0.027344 0.027995 0.028646 0.029297 0.029948 0.030599 0.031250 0.031901 0.032552 0.033203 0.033854 0.034505 0.035156 0.035807 0.036458 0.037109 0.037760 0.038411 0.039062 0.039714 0.040365 0.041016 0.041667 0.042318 0.042969 0.043620 0.044271 0.044922 0.045573 0.046224 0.046875 0.047526 0.048177 0.048828 0.049479 0.050130 0.050781 0.051432 0.052083 0.052734 0.053385 0.054036 0.054688 0.055339 0.055990 0.056641 0.057292 0.057943 0.058594 0.059245 0.059896 0.060547 0.061198 0.061849 0.062500 0.063151 0.063802 0.064453 0.065104 0.065755 0.066406 0.067057 0.067708 0.068359 0.069010 0.069661 0.070312 0.070964 0.071615 0.072266 0.072917 0.073568 0.074219 0.074870 0.075521 0.076172 0.076823 0.077474 0.078125 0.078776 0.079427 0.080078 0.080729 0.081380 0.082031 0.082682 0.083333 0.083984 0.084635 0.085286 0.085938 0.086589 0.087240 0.087891 0.088542 0.089193 0.089844 0.090495 0.091146 0.091797 0.092448 0.093099 0.093750 0.094401 0.095052 0.095703 0.096354 0.097005 0.097656 0.098307 0.098958 0.099609 0.100260 0.100911 0.101562 0.102214 0.102865 0.103516 0.104167 0.104818 0.105469 0.106120 0.106771 0.107422 0.108073 0.108724 0.109375 0.110026 0.110677 0.111328 0.111979 0.112630 0.113281 0.113932 0.114583 0.115234 0.115885 0.116536 0.117188 0.117839 0.118490 0.119141 0.119792 0.120443 0.121094 0.121745 0.122396 0.123047 0.123698 0.124349 0.125000 0.125651 0.126302 0.126953 0.127604 0.128255 0.128906 0.129557 0.130208 0.130859 0.131510 0.132161 0.132812 0.133464 0.134115 0.134766 0.135417 0.136068 0.136719 0.137370 0.138021 0.138672 0.139323 0.139974 0.140625 0.141276 0.141927 0.142578 0.143229 0.143880 0.144531 0.145182 0.145833 0.146484 0.147135 0.147786 0.148438 0.149089 0.149740 0.150391 0.151042 0.151693 0.152344 0.152995 0.153646 0.154297 0.154948 0.155599 0.156250 0.156901 0.157552 0.158203 0.158854 0.159505 0.160156 0.160807 0.161458 0.162109 0.162760 0.163411 0.164062 0.164714 0.165365 0.166016 0.166667 0.167318 0.167969 0.168620 0.169271 0.169922 0.170573 0.171224 0.171875 0.172526 0.173177 0.173828 0.174479 0.175130 0.175781 0.176432 0.177083 0.177734 0.178385 0.179036 0.179688 0.180339 0.180990 0.181641 0.182292 0.182943 0.183594 0.184245 0.184896 0.185547 0.186198 0.186849 0.187500 0.188151 0.188802 0.189453 0.190104 0.190755 0.191406 0.192057 0.192708 0.193359 0.194010 0.194661 0.195312 0.195964 0.196615 0.197266 0.197917 0.198568 0.199219 0.199870 0.200521 0.201172 0.201823 0.202474 0.203125 0.203776 0.204427 0.205078 0.205729 0.206380 0.207031 0.207682 0.208333 0.208984 0.209635 0.210286 0.210938 0.211589 0.212240 0.212891 0.213542 0.214193 0.214844 0.215495 0.216146 0.216797 0.217448 0.218099 0.218750 0.219401 0.220052 0.220703 0.221354 0.222005 0.222656 0.223307 0.223958 0.224609 0.225260 0.225911 0.226562 0.227214 0.227865 0.228516 0.229167 0.229818 0.230469 0.231120 0.231771 0.232422 0.233073 0.233724 0.234375 0.235026 0.235677
       0.33365        0.33365        0.33365        0.33365        0.33365        0.33365        0.33365        0.33365        0.33365        0.33365        0.33365        0.33365        0.33365        0.33365        0.33365        0.33365        0.33365        0.33365        0.33365        0.33365        0.33365        0.33365        0.33365        0.33365        0.33365        0.33365        0.33365        0.33365        0.33365        0.33365        0.33365        0.33365        0.33365        0.33365        0.33365        0.33365        0.33365        0.33365        0.33365        0.33365        0.33365        0.33365        0.33365        0.33365        0.33365        0.33365        0.33365        0.33365        0.33365        0.33365        0.33365        0.49989        0.71595        0.42474        0.19213       -0.07744       -0.26019       -0.06798       -0.12794       -0.06089       -0.00082       -0.14595       -0.09946       -0.04393        0.00214       -0.15131       -0.22149       -0.33915       -0.46537       -0.56887       -0.52214       -0.45601       -0.37215       -0.55376       -0.45071       -0.62131       -0.50472       -0.47352       -0.39438       -0.37871       -0.33742       -0.24266       -0.16366       -0.14183        0.02952       -0.01491        0.11826        0.17129        0.30806        0.41450        0.46692        0.49707        0.54209        0.55015        0.69655        0.64726        0.68162        0.58779        0.55683        0.65203        0.52672        0.43367        0.39443        0.31520        0.23494        0.26595        0.25482        0.10137        0.08576        0.00033       -0.00829        0.03388       -0.00828        0.07211        0.08935        0.22951        0.28406        0.30492        0.39249        0.56467        0.54219        0.57703        0.66892        0.68938        0.62935        0.63983        0.63779        0.54245        0.56973        0.39211        0.35309        0.26636        0.18679        0.07591        0.14399        0.11602        0.10119        0.11419        0.20526        0.19854        0.31365        0.35293        0.41259        0.49356        0.57122        0.54681        0.55907        0.60737        0.54150        0.46828        0.48172        0.32423        0.25038        0.25501        0.24546        0.14411        0.14680        0.15353        0.22599        0.25631        0.33406        0.37449        0.39805        0.46117        0.44863        0.47719        0.44386        0.47471        0.44572        0.39925        0.37122        0.36507        0.32530        0.29008        0.20934        0.21110        0.22798        0.27156        0.26171        0.34482        0.37606        0.35439        0.41140        0.45862        0.44887        0.42597        0.43779        0.35722        0.33540        0.28308        0.25903        0.28947        0.26341        0.29421        0.30218        0.34589        0.33316        0.40504        0.39713        0.42586        0.40722        0.43937        0.40732        0.37110        0.28463        0.29080        0.29891        0.27981        0.26151        0.33689        0.36993        0.33536        0.36009        0.36940        0.34921        0.40656        0.40067        0.36255        0.34469        0.30985        0.31292        0.31881        0.30786        0.30219        0.28816        0.33991        0.35804        0.37435        0.33834        0.33141        0.33404        0.35155        0.31006        0.28238        0.30909        0.32280        0.32821        0.32475        0.33597        0.35712        0.33395        0.32212        0.33853        0.30350        0.26017        0.25012        0.26652        0.30338        0.32229        0.35585        0.29810        0.30732        0.33112        0.29539        0.32500        0.29919        0.28158        0.28554        0.29363        0.30557        0.34630        0.31653        0.32698        0.32465        0.33376        0.33826        0.31703        0.32364        0.32231        0.27362        0.29560        0.31085        0.28692        0.32502        0.32731        0.33699        0.31690        0.35018        0.33492        0.27956        0.24157        0.27275        0.33558        0.36334        0.35457        0.31912        0.29518        0.29886        0.31724        0.25661        0.28961        0.30061        0.31941        0.29485        0.29947        0.26785        0.33257        0.33849        0.33824        0.32078        0.30113        0.30721        0.39198        0.34092        0.32476        0.31287        0.30887        0.28823        0.29759        0.29186        0.29723        0.23145        0.27285        0.30023        0.31269        0.29921        0.28017        0.28330        0.23823        0.23445        0.27839        0.31734        0.30359        0.31855        0.29220        0.33454        0.24990        0.22196        0.29453        0.25168        0.27296        0.27753        0.35321        0.27095        0.29263        0.27382        0.22844        0.26051        0.25505        0.23034        0.17020        0.22425        0.23417        0.24783        0.30385        0.27761        0.33606        0.31420        0.28350        0.27506        0.22302        0.25108        0.26342        0.21618        0.14638        0.20379        0.24222        0.20793        0.31361        0.26423        0.07356       -0.41747       -0.94156
2.690126 2.661747 2.633521 2.605448 2.577527 2.549759 2.522143 2.494680 2.467370 2.440212 2.413208 2.386356 2.359656 2.333109 2.306715 2.280474 2.254385 2.228448 2.202665 2.177034 2.151556 2.126230 2.101058 2.076037 2.051170 2.026455 2.001893 1.977483 1.953227 1.929122 1.905171 1.881372 1.857726 1.834232 1.810892 1.787703 1.764668 1.741785 1.719055 1.696477 1.674052 1.651780 1.629661 1.607694 1.585880 1.564218 1.542709 1.521353 1.500150 1.479099 1.458201 1.524681 1.829261 1.510395 1.196266 0.941235 0.541389 0.911573 0.640139 0.862270 0.923167 0.593768 0.696422 0.786397 0.828198 0.622184 0.535592 0.354430 0.097188 0.065441 0.037813 0.063042 0.298160 -0.041409 0.072547 -0.135550 -0.024275 -0.015004 0.068235 0.070187 0.100434 0.181601 0.280938 0.244999 0.476873 0.396606 0.546876 0.531715 0.775370 0.792209 0.883115 0.932163 0.937136 0.954659 1.124946 0.946208 1.150881 0.947424 0.855063 1.019346 0.849908 0.766488 0.636729 0.591266 0.462243 0.425186 0.512753 0.264068 0.204980 0.162702 0.009658 0.205090 -0.007455 0.122391 0.172151 0.254613 0.340645 0.351676 0.443516 0.548644 0.678190 0.540940 0.744792 0.855191 0.637185 0.711368 0.680546 0.585149 0.541311 0.459894 0.312797 0.218792 0.124697 -0.034023 -0.011642 0.051112 -0.078945 -0.053651 0.061306 0.044701 0.107545 0.217245 0.243440 0.317682 0.442307 0.450713 0.451973 0.466282 0.464560 0.340012 0.338230 0.250089 0.052421 0.064711 0.020563 -0.037154 -0.095962 -0.085989 -0.015535 -0.031922 0.087975 0.134629 0.137244 0.263391 0.230742 0.244793 0.279283 0.242950 0.241279 0.217671 0.149407 0.119451 0.119976 0.029556 0.015383 -0.108785 -0.037955 0.009061 -0.002772 0.019373 0.102614 0.078505 0.125053 0.212187 0.273939 0.173141 0.197137 0.110549 0.138384 0.028710 -0.035093 0.022445 -0.016911 0.012182 -0.001893 0.043540 0.076396 0.064519 0.167346 0.105323 0.182421 0.088768 0.171344 0.109136 0.016038 -0.041375 -0.008576 -0.018919 -0.049749 -0.048134 0.087927 0.069631 -0.001644 0.106491 0.086117 0.076444 0.157352 0.086871 0.089160 0.070975 -0.005161 0.046748 0.011504 0.020880 0.022693 0.015208 0.064915 0.072166 0.084565 0.048764 0.056121 0.031872 0.083204 0.000192 -0.004188 0.034732 0.034180 0.060617 0.051803 0.069234 0.063678 0.060465 0.032056 0.047624 0.000825 -0.047534 -0.033172 -0.015011 0.021812 0.038336 0.112809 -0.010320 0.058306 0.047780 0.009224 0.070606 0.027205 0.002880 0.030208 0.044580 0.037989 0.092859 0.036794 0.074293 0.075002 0.096652 0.068608 0.080764 0.095972 0.052395 -0.007384 0.065381 0.048134 0.039301 0.090584 0.082920 0.038806 0.064602 0.102921 0.036381 0.013812 -0.067363 0.002155 0.119273 0.099708 0.083257 0.044101 0.004984 0.060763 0.041207 -0.048735 0.048461 0.036614 0.062808 0.049531 -0.008681 -0.008165 0.081734 0.038784 0.030324 0.045113 -0.035708 0.065181 0.116105 0.028555 0.009582 0.009401 0.019609 -0.039502 -0.017811 -0.023076 -0.038796 -0.102097 -0.035151 -0.026608 0.006420 -0.032360 -0.066007 0.017002 -0.075799 -0.034089 -0.067553 0.061367 0.013173 0.043357 -0.000950 0.058317 -0.052069 -0.059513 0.023730 -0.047711 0.012508 -0.011972 0.133799 -0.067883 0.024957 0.012873 -0.062741 -0.006841 -0.016557 -0.039140 -0.161323 -0.027728 -0.034874 -0.022797 0.019662 -0.000937 0.120409 0.053402 0.033960 0.015958 -0.034283 -0.020058 -0.015715 0.262219 0.178772 0.253719 0.249664 0.289023 0.335561 0.275827 0.089288 -1.109110
0.072396 0.072910 0.074453 0.077023 0.080621 0.085246 0.090895 0.097568 0.105262 0.113974 0.123700 0.134437 0.146178 0.158917 0.172645 0.187352 0.203028 0.219658 0.237226 0.255713 0.275100 0.295360 0.316467 0.338388 0.361090 0.384531 0.408669 0.433453 0.458830 0.484740 0.511119 0.537894 0.564988 0.592317 0.619790 0.647311 0.674773 0.702066 0.729071 0.755662 0.781705 0.807061 0.831582 0.855117 0.877503 0.898578 0.918170 0.936104 0.952202 0.966282 0.978161 0.987654 0.994577 0.998747 0.999987 0.998121 0.992983 0.984412 0.972260 0.956390 0.936681 0.913026 0.885341 0.853558 0.817639 0.777568 0.733357 0.685051 0.632727 0.576497 0.516508 0.452950 0.386047 0.316068 0.243324 0.168167 0.090990 0.012231 0.067632 0.148084 0.228570 0.308502 0.387260 0.464199 0.538648 0.609925 0.677333 0.740173 0.797750 0.849382 0.894406 0.932192 0.962147 0.983729 0.996455 0.999913 0.993768 0.977779 0.951800 0.915794 0.869841 0.814140 0.749021 0.674944 0.592503 0.502428 0.405583 0.302960 0.195676 0.084962 0.027845 0.141318 0.253956 0.364201 0.470460 0.571130 0.664617 0.749371 0.823909 0.886843 0.936913 0.973013 0.994221 0.999824 0.989345 0.962564 0.919535 0.860604 0.786413 0.697909 0.596343 0.483257 0.360470 0.230062 0.094340 0.044197 0.182900 0.319015 0.449741 0.572287 0.683933 0.782094 0.864387 0.928693 0.973220 0.996562 0.997750 0.976299 0.932236 0.866135 0.779117 0.672858 0.549565 0.411947 0.263169 0.106786 0.053331 0.213088 0.368267 0.514637 0.648076 0.764689 0.860929 0.933716 0.980552 0.999610 0.989829 0.950972 0.883669 0.789437 0.670667 0.530587 0.373192 0.203147 0.025660 0.153664 0.329001 0.494489 0.644432 0.773499 0.876930 0.950724 0.991810 0.998194 0.969077 0.904929 0.807517 0.679894 0.526326 0.352178 0.163751 0.031941 0.227409 0.414975 0.587080 0.736586 0.857095 0.943231 0.990913 0.997567 0.962291 0.885957 0.771232 0.622522 0.445846 0.248609 0.039329 0.172726 0.377935 0.566756 0.730186 0.860197 0.950160 0.995209 0.992539 0.941611 0.844250 0.704641 0.529183 0.326243 0.105787 0.121090 0.342702 0.547377 0.724075 0.863006 0.956196 0.997983 0.985403 0.918433 0.800091 0.636354 0.435907 0.209731 0.029474 0.267973 0.491776 0.687470 0.843035 0.948617 0.997189 0.985073 0.912260 0.782524 0.603290 0.385269 0.141866 0.111604 0.358865 0.583715 0.771105 0.908165 0.985146 0.996149 0.939648 0.818714 0.640925 0.417971 0.164928 0.100704 0.360180 0.594851 0.787495 0.923617 0.992607 0.988610 0.911101 0.765063 0.560759 0.313078 0.040520 0.236148 0.495456 0.716906 0.882607 0.978783 0.996981 0.934890 0.796691 0.592871 0.339521 0.057135 0.231004 0.500704 0.728925 0.895750 0.986207 0.991672 0.910786 0.749755 0.521978 0.247032 0.050949 0.345327 0.609348 0.818569 0.953193 0.999999 0.953744 0.817841 0.604240 0.332494 0.028046 0.280081 0.562032 0.790014 0.941095 0.999583 0.958759 0.821757 0.601469 0.319460 0.003951 0.312941 0.598447 0.822540 0.961166 0.998907 0.930814 0.763172 0.513061 0.206755 0.122951 0.440193 0.709929 0.901841 0.993831 0.974674 0.845526 0.620054 0.323135 0.011761 0.346270 0.641504 0.862582 0.982841 0.987157 0.873997 0.655881 0.358161 0.016214 0.328672 0.634251 0.862514 0.984486 0.984046 0.860200 0.627518 0.314596 0.039322 0.389166 0.689754 0.901666 0.996499 0.960830 0.798280 0.529363 0.189097 0.177457 0.521047 0.794863 0.960978 0.995726
1.000000 1.000000 1.000000 1.000000 1.000000 1.000000 1.000000 1.000000 1.000000 1.000000 1.000000 1.000000 1.000000 1.000000 1.000000 1.000000 1.000000 1.000000 1.000000 1.000000 1.000000 1.000000 1.000000 1.000000 1.000000 1.000000 1.000000 1.000000 1.000000 1.000000 1.000000 1.000000 1.000000 1.000000 1.000000 1.000000 1.000000 1.000000 1.000000 1.000000 1.000000 1.000000 1.000000 1.000000 1.000000 1.000000 1.000000 1.000000 1.000000 1.000000 1.000000 1.000000 0.915602 0.915602 0.904110 0.904110 0.904110 0.904110 0.904110 0.904110 0.904110 0.904110 0.904110 0.904110 0.904110 0.904110 0.904110 0.904110 0.904110 0.904110 0.904110 0.904110 0.904110 0.904110 0.904110 0.904110 0.904110 0.904110 0.904110 0.904110 0.904110 0.904110 0.904110 0.904110 0.904110 0.904110 0.904110 0.904110 0.904110 0.904110 0.904110 0.904110 0.904110 0.904110 0.904110 0.902477 0.907432 0.909591 0.908111 0.911619 0.911680 0.909781 0.909271 0.908942 0.909292 0.910694 0.921165 0.932141 0.943118 0.943651 0.948847 0.953053 0.955537 0.956312 0.957905 0.968050 0.965407 0.964952 0.965652 0.967110 0.969218 0.968032 0.967495 0.969999 0.970667 0.969135 0.966763 0.966108 0.965469 0.965557 0.965197 0.965076 0.964944 0.965472 0.965709 0.965356 0.965508 0.965568 0.964216 0.963907 0.966525 0.967781 0.967688 0.966468 0.961029 0.964475 0.965092 0.964571 0.964587 0.964278 0.964603 0.948318 0.945130 0.945050 0.940153 0.938982 0.935544 0.934101 0.933153 0.934157 0.933671 0.934240 0.931556 0.918522 0.905367 0.891152 0.912116 0.900614 0.886171 0.863129 0.864180 0.857398 0.857882 0.851171 0.843682 0.838838 0.836192 0.838386 0.839357 0.843986 0.840782 0.825979 0.830018 0.825243 0.790446 0.778561 0.765838 0.762947 0.760123 0.761286 0.758798 0.752463 0.761220 0.752096 0.750184 0.739362 0.719444 0.688408 0.677991 0.688184 0.696520 0.703468 0.699569 0.683999 0.639344 0.653594 0.681479 0.676156 0.676443 0.672460 0.666380 0.675190 0.672596 0.669772 0.665282 0.664786 0.664325 0.672897 0.678438 0.669409 0.663751 0.652264 0.641828 0.623027 0.635558 0.637402 0.614338 0.607755 0.602623 0.596742 0.593159 0.577806 0.579991 0.557648 0.540804 0.540283 0.541672 0.545686 0.554795 0.553868 0.531538 0.553125 0.545980 0.576338 0.544590 0.541761 0.542959 0.554281 0.536552 0.529448 0.521697 0.522664 0.534277 0.563795 0.595660 0.585203 0.575844 0.568781 0.580689 0.564547 0.573949 0.601366 0.579282 0.514141 0.471052 0.468182 0.434857 0.423845 0.411598 0.391619 0.401734 0.389300 0.382240 0.368968 0.357373 0.309507 0.274878 0.257553 0.237689 0.252607 0.270423 0.265673 0.273612 0.317288 0.360667 0.365464 0.357907 0.315390 0.307095 0.265175 0.263399 0.286943 0.247424 0.252983 0.248014 0.226363 0.210337 0.171813 0.210690 0.122440 0.114950 0.115598 0.140342 0.134862 0.137312 0.136425 0.100810 0.117209 0.113007 0.083388 0.069219 0.083217 0.066803 0.043340 0.049944 0.056441 0.039604 0.006146 0.008699 -0.002778 -0.001053 -0.015618 -0.014208 0.022340 0.050782 0.041120 0.043891 0.033577 0.036803 0.021706 0.013198 -0.007443 -0.014901 -0.060761 -0.087236 -0.087236 -0.079288 -0.079288 -0.079288 -0.079288 -0.079288 -0.079288 -0.079288 -0.079288 -0.079288 -0.080653 -0.080653 -0.080653 -0.080653 -0.080653 -0.080653 -0.080653 -0.080653 -0.080653 -0.060241 -0.060241 -0.060241 -0.060241 -0.060241 -0.060241 -0.060241 -0.060241 -0.060241
0.000000 0.000000 0.000000 0.000000 0.000000 0.000000 0.000000 0.000000 0.000000 0.000000 0.000000 0.000000 0.000000 0.000000 0.000000 0.000000 0.000000 0.000000 0.000000 0.000000 0.000000 0.000000 0.000000 0.000000 0.000000 0.000000 0.000000 0.000000 0.000000 0.000000 0.000000 0.000000 0.000000 0.000000 0.000000 0.000000 0.000000 0.000000 0.000000 0.000000 0.000000 0.000000 0.000000 0.000000 0.000000 0.000000 0.000000 0.000000 0.000000 0.000000 0.000000 0.000000 0.181818 0.181818 0.199007 0.199007 0.199007 0.199007 0.199007 0.199007 0.199007 0.199007 0.199007 0.199007 0.199007 0.199007 0.199007 0.199007 0.199007 0.199007 0.199007 0.199007 0.199007 0.199007 0.199007 0.199007 0.199007 0.199007 0.199007 0.199007 0.199007 0.199007 0.199007 0.199007 0.199007 0.199007 0.199007 0.199007 0.199007 0.199007 0.199007 0.199007 0.199007 0.199007 0.199007 0.230940 0.230940 0.230940 0.230940 0.230940 0.230940 0.230940 0.230940 0.230940 0.230940 0.230940 0.230940 0.230940 0.230940 0.230940 0.230940 0.230940 0.230940 0.230940 0.230940 0.230940 0.230940 0.230940 0.230940 0.230940 0.230940 0.230940 0.230940 0.244339 0.244339 0.244339 0.244339 0.244339 0.244339 0.244339 0.244339 0.244339 0.244339 0.244339 0.244339 0.244339 0.244339 0.244339 0.244339 0.244339 0.244339 0.244339 0.244339 0.244339 0.244339 0.244339 0.251976 0.251976 0.251976 0.251976 0.251976 0.251976 0.251976 0.251976 0.251976 0.251976 0.251976 0.251976 0.251976 0.251976 0.251976 0.251976 0.251976 0.251976 0.251976 0.251976 0.264906 0.264906 0.264906 0.264906 0.264906 0.264906 0.264906 0.264906 0.264906 0.264906 0.264906 0.264906 0.264906 0.264906 0.264906 0.264906 0.264906 0.264906 0.264906 0.264906 0.264906 0.264906 0.264906 0.264906 0.264906 0.264906 0.264906 0.264906 0.264906 0.264906 0.264906 0.264906 0.264906 0.264906 0.264906 0.264906 0.264906 0.264906 0.264906 0.264906 0.264906 0.264906 0.264906 0.264906 0.264906 0.264906 0.264906 0.264906 0.264906 0.264906 0.264906 0.264906 0.264906 0.264906 0.264906 0.264906 0.264906 0.264906 0.264906 0.264906 0.264906 0.264906 0.264906 0.264906 0.264906 0.264906 0.264906 0.264906 0.264906 0.264906 0.264906 0.264906 0.264906 0.264906 0.264906 0.269680 0.269680 0.269680 0.269680 0.269680 0.269680 0.269680 0.269680 0.269680 0.269680 0.269680 0.269680 0.264906 0.264906 0.264906 0.264906 0.264906 0.264906 0.264906 0.264906 0.264906 0.264906 0.264906 0.264906 0.269680 0.269680 0.269680 0.269680 0.269680 0.269680 0.269680 0.269680 0.269680 0.269680 0.269680 0.264906 0.264906 0.264906 0.264906 0.264906 0.264906 0.264906 0.264906 0.264906 0.264906 0.264906 0.256074 0.256074 0.256074 0.256074 0.256074 0.256074 0.256074 0.256074 0.256074 0.256074 0.256074 0.264906 0.264906 0.264906 0.264906 0.264906 0.264906 0.264906 0.264906 0.264906 0.264906 0.269680 0.269680 0.269680 0.269680 0.269680 0.269680 0.269680 0.269680 0.269680 0.256074 0.256074 0.256074 0.256074 0.256074 0.256074 0.256074 0.256074 0.256074 0.256074 0.260378 0.260378 0.260378 0.260378 0.260378 0.260378 0.260378 0.260378 0.260378 0.256074 0.256074 0.256074 0.256074 0.256074 0.256074 0.256074 0.256074 0.256074 0.251976 0.251976 0.251976 0.251976 0.251976 0.251976 0.251976 0.251976 0.251976 0.264906 0.264906 0.264906 0.264906 0.264906 0.264906 0.264906 0.264906 0.264906
