# Output from CTFFind version 4.1.9, run on 2019-11-03 20:06:33
# Input file: stack16_bm3d_averaged_1_10_0_1000_half.mrc ; Number of micrographs: 1
# Pixel size: 3.000 Angstroms ; acceleration voltage: 300.0 keV ; spherical aberration: 0.00 mm ; amplitude contrast: 0.07
# Box size: 512 pixels ; min. res.: 30.0 Angstroms ; max. res.: 5.0 Angstroms ; min. def.: 5000.0 um; max. def. 50000.0 um; num. frames averaged: 1
# 6 lines per micrograph: #1 - spatial frequency (1/Angstroms); #2 - 1D rotational average of spectrum (assuming no astigmatism); #3 - 1D rotational average of spectrum; #4 - CTF fit; #5 - cross-correlation between spectrum and CTF fit; #6 - 2sigma of expected cross correlation of noise
0.000000 0.000651 0.001302 0.001953 0.002604 0.003255 0.003906 0.004557 0.005208 0.005859 0.006510 0.007161 0.007812 0.008464 0.009115 0.009766 0.010417 0.011068 0.011719 0.012370 0.013021 0.013672 0.014323 0.014974 0.015625 0.016276 0.016927 0.017578 0.018229 0.018880 0.019531 0.020182 0.020833 0.021484 0.022135 0.022786 0.023438 0.024089 0.024740 0.025391 0.026042 0.026693 0.027344 0.027995 0.028646 0.029297 0.029948 0.030599 0.031250 0.031901 0.032552 0.033203 0.033854 0.034505 0.035156 0.035807 0.036458 0.037109 0.037760 0.038411 0.039062 0.039714 0.040365 0.041016 0.041667 0.042318 0.042969 0.043620 0.044271 0.044922 0.045573 0.046224 0.046875 0.047526 0.048177 0.048828 0.049479 0.050130 0.050781 0.051432 0.052083 0.052734 0.053385 0.054036 0.054688 0.055339 0.055990 0.056641 0.057292 0.057943 0.058594 0.059245 0.059896 0.060547 0.061198 0.061849 0.062500 0.063151 0.063802 0.064453 0.065104 0.065755 0.066406 0.067057 0.067708 0.068359 0.069010 0.069661 0.070312 0.070964 0.071615 0.072266 0.072917 0.073568 0.074219 0.074870 0.075521 0.076172 0.076823 0.077474 0.078125 0.078776 0.079427 0.080078 0.080729 0.081380 0.082031 0.082682 0.083333 0.083984 0.084635 0.085286 0.085938 0.086589 0.087240 0.087891 0.088542 0.089193 0.089844 0.090495 0.091146 0.091797 0.092448 0.093099 0.093750 0.094401 0.095052 0.095703 0.096354 0.097005 0.097656 0.098307 0.098958 0.099609 0.100260 0.100911 0.101562 0.102214 0.102865 0.103516 0.104167 0.104818 0.105469 0.106120 0.106771 0.107422 0.108073 0.108724 0.109375 0.110026 0.110677 0.111328 0.111979 0.112630 0.113281 0.113932 0.114583 0.115234 0.115885 0.116536 0.117188 0.117839 0.118490 0.119141 0.119792 0.120443 0.121094 0.121745 0.122396 0.123047 0.123698 0.124349 0.125000 0.125651 0.126302 0.126953 0.127604 0.128255 0.128906 0.129557 0.130208 0.130859 0.131510 0.132161 0.132812 0.133464 0.134115 0.134766 0.135417 0.136068 0.136719 0.137370 0.138021 0.138672 0.139323 0.139974 0.140625 0.141276 0.141927 0.142578 0.143229 0.143880 0.144531 0.145182 0.145833 0.146484 0.147135 0.147786 0.148438 0.149089 0.149740 0.150391 0.151042 0.151693 0.152344 0.152995 0.153646 0.154297 0.154948 0.155599 0.156250 0.156901 0.157552 0.158203 0.158854 0.159505 0.160156 0.160807 0.161458 0.162109 0.162760 0.163411 0.164062 0.164714 0.165365 0.166016 0.166667 0.167318 0.167969 0.168620 0.169271 0.169922 0.170573 0.171224 0.171875 0.172526 0.173177 0.173828 0.174479 0.175130 0.175781 0.176432 0.177083 0.177734 0.178385 0.179036 0.179688 0.180339 0.180990 0.181641 0.182292 0.182943 0.183594 0.184245 0.184896 0.185547 0.186198 0.186849 0.187500 0.188151 0.188802 0.189453 0.190104 0.190755 0.191406 0.192057 0.192708 0.193359 0.194010 0.194661 0.195312 0.195964 0.196615 0.197266 0.197917 0.198568 0.199219 0.199870 0.200521 0.201172 0.201823 0.202474 0.203125 0.203776 0.204427 0.205078 0.205729 0.206380 0.207031 0.207682 0.208333 0.208984 0.209635 0.210286 0.210938 0.211589 0.212240 0.212891 0.213542 0.214193 0.214844 0.215495 0.216146 0.216797 0.217448 0.218099 0.218750 0.219401 0.220052 0.220703 0.221354 0.222005 0.222656 0.223307 0.223958 0.224609 0.225260 0.225911 0.226562 0.227214 0.227865 0.228516 0.229167 0.229818 0.230469 0.231120 0.231771 0.232422 0.233073 0.233724 0.234375 0.235026 0.235677
       0.37331        0.37331        0.37331        0.37331        0.37331        0.37331        0.37331        0.37331        0.37331        0.37331        0.37331        0.37331        0.37331        0.37331        0.37331        0.37331        0.37331        0.37331        0.37331        0.37331        0.37331        0.37331        0.37331        0.37331        0.37331        0.37331        0.37331        0.37331        0.37331        0.37331        0.37331        0.37331        0.37331        0.37331        0.37331        0.37331        0.37331        0.37331        0.37331        0.37331        0.37331        0.37331        0.37331        0.37331        0.37331        0.37331        0.37331        0.37331        0.37331        0.37331        0.37331        0.44771        0.56358        0.34994       -0.21564       -0.43379       -0.52056       -0.62879       -0.69259       -0.69299       -0.78133       -0.86326       -0.64968       -0.79761       -0.78815       -0.91962       -0.96402       -0.84565       -0.80677       -0.77090       -0.67208       -0.60484       -0.51334       -0.42336       -0.36175       -0.13622       -0.03610        0.07687        0.28993        0.27719        0.33987        0.38314        0.42126        0.55465        0.55552        0.58851        0.54427        0.49098        0.51910        0.55641        0.48194        0.35078        0.24532        0.20860        0.13225        0.05335        0.03462        0.02385        0.09336        0.06142        0.11116        0.08386        0.20279        0.22212        0.42546        0.47516        0.55370        0.66021        0.68430        0.71590        0.65543        0.61901        0.57269        0.46518        0.40572        0.31057        0.24428        0.24505        0.13373        0.15165        0.16400        0.12016        0.12077        0.32123        0.44046        0.54682        0.54447        0.56666        0.61005        0.59591        0.57371        0.59761        0.58108        0.49051        0.33632        0.28970        0.29146        0.19801        0.12155        0.20221        0.25754        0.31660        0.37215        0.44753        0.49397        0.54746        0.61305        0.56286        0.51163        0.53377        0.37781        0.32107        0.29064        0.20578        0.24899        0.27710        0.31197        0.30825        0.36278        0.45206        0.48424        0.51048        0.46855        0.45969        0.50747        0.41999        0.34336        0.30861        0.29067        0.26016        0.24294        0.25985        0.36388        0.47327        0.45756        0.49483        0.56019        0.48045        0.43748        0.37829        0.35274        0.30647        0.30686        0.29190        0.31553        0.39589        0.40361        0.46762        0.48478        0.46349        0.49007        0.40647        0.39695        0.36607        0.30065        0.28021        0.28490        0.37312        0.39664        0.37886        0.40183        0.44521        0.46414        0.41386        0.35621        0.34746        0.37796        0.34549        0.31383        0.32502        0.38640        0.40134        0.42108        0.40831        0.42091        0.44269        0.42812        0.35031        0.31398        0.32476        0.35921        0.41970        0.39288        0.42193        0.37521        0.38872        0.40870        0.36614        0.36922        0.34100        0.33073        0.35981        0.37396        0.35603        0.39566        0.40567        0.35164        0.37001        0.35083        0.33789        0.33289        0.34503        0.35885        0.34724        0.38859        0.40057        0.38861        0.32864        0.32719        0.30988        0.35323        0.34301        0.33786        0.39070        0.37679        0.35864        0.34012        0.33050        0.31838        0.30028        0.34498        0.36198        0.38403        0.38786        0.37736        0.35051        0.36694        0.39150        0.36460        0.36867        0.36658        0.34208        0.35197        0.31572        0.33687        0.33304        0.33832        0.30451        0.34912        0.37586        0.34383        0.38350        0.34323        0.36214        0.37306        0.35680        0.33937        0.36247        0.39929        0.36725        0.39744        0.35683        0.33584        0.35417        0.33885        0.35610        0.35415        0.39263        0.33703        0.34202        0.32307        0.32616        0.29599        0.31382        0.38903        0.34258        0.33037        0.30625        0.28818        0.29607        0.37705        0.32364        0.30982        0.35326        0.33367        0.29925        0.26732        0.30974        0.30334        0.33244        0.33589        0.36909        0.36162        0.34988        0.34115        0.28627        0.31996        0.32539        0.32172        0.33274        0.36463        0.32554        0.24671        0.32093        0.33830        0.35864        0.31140        0.31669        0.26624        0.31741        0.28755        0.27055        0.29939        0.25855        0.32055        0.32227        0.31282        0.29345        0.36042        0.30505        0.25932        0.26411        0.33103        0.25022        0.15408        0.11741        0.19168        0.36300        0.34395        0.21546        0.19902       -0.30403       -0.57705
3.350291 3.307189 3.264368 3.221829 3.179573 3.137598 3.095906 3.054495 3.013367 2.972521 2.931957 2.891674 2.851674 2.811957 2.772521 2.733367 2.694495 2.655906 2.617598 2.579573 2.541830 2.504368 2.467189 2.430292 2.393677 2.357344 2.321293 2.285524 2.250037 2.214833 2.179910 2.145270 2.110911 2.076835 2.043041 2.009528 1.976298 1.943350 1.910684 1.878300 1.846198 1.814379 1.782841 1.751585 1.720612 1.689920 1.659511 1.629384 1.599539 1.569975 1.540694 1.579085 1.632258 1.571183 0.847838 0.616063 0.476966 0.403425 0.304897 0.236860 0.208699 -0.043321 0.226101 0.094508 -0.017313 -0.087819 -0.230354 -0.134167 -0.038158 -0.093788 -0.060615 0.047507 0.051904 0.245322 0.114778 0.366366 0.469033 0.516544 0.788618 0.680810 0.710769 0.819278 0.795498 0.860932 0.921063 0.857347 0.881985 0.728466 0.777202 0.846541 0.701318 0.603328 0.429295 0.431413 0.312050 0.200204 0.191709 0.107664 0.207282 0.119830 0.203849 0.103624 0.213072 0.222195 0.421102 0.387702 0.550148 0.585366 0.592087 0.702426 0.591805 0.546061 0.450251 0.406355 0.267898 0.250141 0.076810 0.135220 -0.040625 0.027965 -0.030088 -0.054835 -0.079427 0.007877 0.237002 0.277452 0.330992 0.264791 0.353483 0.357145 0.378838 0.358545 0.339934 0.304753 0.102115 0.050016 0.053521 -0.037256 -0.153336 -0.081045 -0.066685 0.022828 0.058418 0.126993 0.186015 0.204847 0.297605 0.388841 0.251065 0.352537 0.206796 0.147185 0.055803 0.023339 -0.001112 0.055633 0.064949 0.080774 0.115015 0.161073 0.228175 0.288742 0.253266 0.197077 0.245417 0.216988 0.102764 0.035903 0.058779 0.014754 0.003301 -0.047008 0.027776 0.159974 0.201563 0.175317 0.281418 0.184896 0.196872 0.072535 0.063374 0.030635 -0.002428 -0.014985 -0.009102 0.049121 0.099441 0.111385 0.160481 0.138170 0.226720 0.147719 0.078270 0.097965 0.031492 -0.040713 -0.010126 0.036270 0.080858 0.066254 0.059556 0.145983 0.105815 0.153812 0.042903 0.039872 0.048703 0.045956 0.027197 -0.010003 0.041650 0.061460 0.092671 0.098759 0.080197 0.116765 0.115006 0.077527 0.006439 -0.016301 0.004817 0.069297 0.090507 0.085991 0.081508 0.053359 0.089656 0.062752 0.038697 0.057500 -0.004170 0.006566 0.071055 0.039889 0.041269 0.087663 0.088013 0.044382 0.067890 0.025268 0.017432 0.021995 0.055883 0.031851 0.033137 0.078087 0.083891 0.049741 -0.002027 0.001838 -0.019588 0.051840 0.005338 0.014663 0.074819 0.041935 0.009032 0.020994 -0.016055 -0.002401 -0.029790 0.015082 0.038349 0.063923 0.037775 0.038992 0.016236 0.011844 0.063696 0.018066 0.027804 0.019198 -0.005644 0.018817 -0.038146 -0.035380 -0.037166 -0.011079 -0.070699 0.017607 0.021212 -0.010384 -0.008904 0.002225 -0.006152 0.025291 -0.001367 -0.012495 0.019657 0.036927 0.012583 0.052066 -0.006345 0.007737 0.017012 -0.007955 0.019005 0.000716 0.095499 0.020080 0.010241 0.004873 -0.005287 -0.022213 0.013793 0.069347 0.023115 0.029002 -0.028075 -0.020738 -0.018905 0.078639 0.006083 -0.025053 0.070798 0.045558 -0.009821 -0.007718 -0.002953 0.027200 0.043220 0.041042 0.117023 0.040622 0.067857 0.046406 -0.005783 0.040140 0.025758 0.000522 0.040153 0.066031 0.010344 -0.056038 0.021943 0.045069 0.056971 -0.011495 0.007942 -0.036415 -0.006354 -0.010789 -0.043669 0.013757 -0.067889 0.053114 0.013800 0.049348 -0.076357 0.080202 0.048004 0.007663 -0.023529 0.110135 0.018383 -0.054961 -0.155904 0.166480 0.337578 0.335763 0.135127 0.198995 -0.563091
0.072396 0.073047 0.074998 0.078250 0.082801 0.088650 0.095794 0.104232 0.113957 0.124967 0.137253 0.150808 0.165621 0.181680 0.198969 0.217471 0.237162 0.258016 0.280004 0.303089 0.327230 0.352381 0.378488 0.405490 0.433319 0.461898 0.491142 0.520956 0.551237 0.581870 0.612730 0.643682 0.674578 0.705261 0.735561 0.765296 0.794275 0.822293 0.849138 0.874583 0.898397 0.920337 0.940153 0.957591 0.972392 0.984293 0.993033 0.998350 0.999990 0.997703 0.991253 0.980415 0.964981 0.944767 0.919610 0.889381 0.853979 0.813345 0.767458 0.716345 0.660083 0.598801 0.532687 0.461990 0.387021 0.308156 0.225841 0.140585 0.052970 0.036359 0.126693 0.217259 0.307230 0.395729 0.481834 0.564590 0.643016 0.716121 0.782912 0.842410 0.893667 0.935782 0.967914 0.989306 0.999299 0.997352 0.983060 0.956169 0.916594 0.864434 0.799982 0.723738 0.636411 0.538929 0.432432 0.318273 0.198005 0.073367 0.053736 0.181253 0.307024 0.428807 0.544326 0.651304 0.747522 0.830859 0.899350 0.951235 0.985014 0.999495 0.993840 0.967611 0.920802 0.853866 0.767736 0.663830 0.544047 0.410745 0.266717 0.115140 0.040488 0.196413 0.348717 0.493414 0.626553 0.744336 0.843229 0.920082 0.972240 0.997652 0.994964 0.963599 0.903815 0.816746 0.704408 0.569688 0.416288 0.248650 0.071848 0.108557 0.286678 0.456492 0.612044 0.747667 0.858197 0.939187 0.987111 0.999538 0.975280 0.914495 0.818747 0.691013 0.535627 0.358168 0.165293 0.035492 0.236108 0.428219 0.603585 0.754415 0.873740 0.955756 0.996140 0.992309 0.943620 0.851480 0.719371 0.552773 0.358979 0.146823 0.073700 0.291882 0.496816 0.677944 0.825621 0.931657 0.989807 0.996187 0.949576 0.851593 0.706719 0.522155 0.307533 0.074448 0.164123 0.394532 0.603239 0.777610 0.906728 0.982112 0.998331 0.953454 0.849306 0.691484 0.489145 0.254541 0.002332 0.251291 0.489629 0.696580 0.857751 0.961509 0.999880 0.969236 0.870704 0.710248 0.498409 0.249700 0.018323 0.286264 0.534258 0.743467 0.897538 0.983946 0.995094 0.929062 0.789957 0.587770 0.337782 0.059479 0.224896 0.492092 0.719757 0.888340 0.982842 0.994242 0.920461 0.766759 0.545503 0.275296 0.020498 0.315706 0.583641 0.799532 0.942865 0.999431 0.962838 0.835363 0.627983 0.359586 0.055353 0.255501 0.542503 0.776927 0.934706 0.999014 0.962189 0.826779 0.605566 0.320537 0.000807 0.320240 0.608430 0.832431 0.967256 0.997159 0.917632 0.736216 0.471984 0.153698 0.183182 0.500401 0.761227 0.934783 0.999812 0.947440 0.782566 0.523636 0.200771 0.147588 0.479171 0.752989 0.934474 0.999964 0.939964 0.760722 0.483824 0.143808 0.215991 0.548881 0.810877 0.966591 0.994172 0.888581 0.662687 0.345952 0.019197 0.382920 0.694709 0.910453 0.998812 0.945969 0.758032 0.460635 0.095675 0.284392 0.624015 0.872682 0.992565 0.964463 0.791153 0.497462 0.127004 0.264111 0.615652 0.872577 0.993757 0.958801 0.771755 0.461018 0.075312 0.323744 0.671367 0.910184 0.999836 0.924072 0.693991 0.346767 0.060042 0.457849 0.778570 0.966313 0.987368 0.836553 0.538741 0.145095 0.275421 0.648004 0.905352 0.999950 0.913167 0.659260 0.283431 0.145869 0.549249 0.850974 0.993363 0.948064 0.722078 0.357147 0.077612 0.498518 0.823413 0.987765 0.957807 0.737829 0.370109 0.072843 0.502285 0.830984 0.991039 0.948201 0.709632 0.323205 0.131661 0.560101 0.871515 0.998875 0.913522 0.632030 0.213526 0.252350 0.664410
1.000000 1.000000 1.000000 1.000000 1.000000 1.000000 1.000000 1.000000 1.000000 1.000000 1.000000 1.000000 1.000000 1.000000 1.000000 1.000000 1.000000 1.000000 1.000000 1.000000 1.000000 1.000000 1.000000 1.000000 1.000000 1.000000 1.000000 1.000000 1.000000 1.000000 1.000000 1.000000 1.000000 1.000000 1.000000 1.000000 1.000000 1.000000 1.000000 1.000000 1.000000 1.000000 1.000000 1.000000 1.000000 1.000000 1.000000 1.000000 1.000000 1.000000 1.000000 1.000000 0.923645 0.923645 0.923645 0.923645 0.923645 0.923645 0.923645 0.923645 0.923645 0.923645 0.923645 0.923645 0.923645 0.923645 0.923645 0.923645 0.923645 0.923645 0.923645 0.923645 0.923645 0.923645 0.923645 0.923645 0.923645 0.923645 0.923645 0.923645 0.923645 0.923645 0.923645 0.923645 0.923645 0.913420 0.911504 0.912668 0.911235 0.909757 0.909170 0.908780 0.909822 0.911430 0.913499 0.935118 0.936949 0.938225 0.939550 0.941125 0.943361 0.941176 0.945130 0.951140 0.950015 0.951332 0.951581 0.952151 0.951517 0.950792 0.953055 0.952255 0.950585 0.948595 0.946924 0.946371 0.946146 0.949786 0.950270 0.950439 0.951027 0.950976 0.951694 0.949589 0.947957 0.950250 0.931731 0.929965 0.934826 0.932210 0.933114 0.933083 0.933745 0.934655 0.935071 0.935353 0.931943 0.931382 0.930230 0.924498 0.917027 0.917341 0.919430 0.921623 0.919001 0.917924 0.919165 0.919976 0.917626 0.920573 0.913290 0.910774 0.886337 0.873515 0.867869 0.868627 0.873706 0.877696 0.875477 0.871615 0.865154 0.862772 0.861081 0.862614 0.852590 0.854258 0.853571 0.847236 0.850006 0.852783 0.858221 0.857648 0.853969 0.848834 0.842074 0.827636 0.827673 0.827920 0.831661 0.812136 0.795800 0.828725 0.823063 0.819544 0.826916 0.828701 0.826535 0.824953 0.825321 0.823301 0.815346 0.806315 0.810021 0.819163 0.823623 0.815958 0.811390 0.813191 0.813019 0.808868 0.813794 0.816317 0.813052 0.803878 0.819269 0.800781 0.815768 0.816252 0.793956 0.779485 0.766606 0.773293 0.780146 0.768175 0.768965 0.781054 0.780893 0.777303 0.767815 0.740889 0.748247 0.746296 0.738548 0.729845 0.736196 0.728348 0.727562 0.727577 0.732105 0.731640 0.709453 0.723526 0.730019 0.730527 0.741345 0.742114 0.734079 0.737351 0.742439 0.729445 0.724433 0.705733 0.708248 0.641626 0.635109 0.613964 0.609694 0.605302 0.549713 0.550814 0.534548 0.518875 0.517596 0.484765 0.526341 0.426920 0.420756 0.437284 0.377001 0.371960 0.391934 0.392932 0.408756 0.380945 0.379670 0.386875 0.363136 0.334795 0.311122 0.334760 0.342929 0.335268 0.337215 0.307297 0.300230 0.249707 0.267856 0.272202 0.298359 0.296211 0.281872 0.300235 0.353570 0.287881 0.274513 0.252392 0.278738 0.282102 0.267240 0.257864 0.284857 0.229069 0.247713 0.252323 0.253873 0.310942 0.336075 0.337275 0.332984 0.341205 0.370640 0.337916 0.344524 0.358259 0.350049 0.367305 0.370209 0.383244 0.385949 0.430844 0.454314 0.460639 0.471325 0.487223 0.487333 0.464882 0.471782 0.427559 0.452917 0.430234 0.439032 0.400155 0.385877 0.383769 0.348543 0.305462 0.306343 0.301824 0.256688 0.256503 0.245782 0.212267 0.211819 0.224254 0.234489 0.204108 0.210897 0.223226 0.223226 0.223226 0.223226 0.223226 0.223226 0.223226 0.223226 0.223226 0.223226 0.223226 0.223226 0.223226 0.223226 0.243411 0.243411 0.243411 0.243411 0.243411 0.243411 0.243411 0.243411 0.243411 0.243411 0.243411 0.243411
0.000000 0.000000 0.000000 0.000000 0.000000 0.000000 0.000000 0.000000 0.000000 0.000000 0.000000 0.000000 0.000000 0.000000 0.000000 0.000000 0.000000 0.000000 0.000000 0.000000 0.000000 0.000000 0.000000 0.000000 0.000000 0.000000 0.000000 0.000000 0.000000 0.000000 0.000000 0.000000 0.000000 0.000000 0.000000 0.000000 0.000000 0.000000 0.000000 0.000000 0.000000 0.000000 0.000000 0.000000 0.000000 0.000000 0.000000 0.000000 0.000000 0.000000 0.000000 0.000000 0.209657 0.209657 0.209657 0.209657 0.209657 0.209657 0.209657 0.209657 0.209657 0.209657 0.209657 0.209657 0.209657 0.209657 0.209657 0.209657 0.209657 0.209657 0.209657 0.209657 0.209657 0.209657 0.209657 0.209657 0.209657 0.209657 0.209657 0.209657 0.209657 0.209657 0.209657 0.209657 0.209657 0.244339 0.244339 0.244339 0.244339 0.244339 0.244339 0.244339 0.244339 0.244339 0.244339 0.244339 0.244339 0.244339 0.244339 0.244339 0.244339 0.244339 0.244339 0.244339 0.244339 0.244339 0.244339 0.244339 0.244339 0.244339 0.260378 0.260378 0.260378 0.260378 0.260378 0.260378 0.260378 0.260378 0.260378 0.260378 0.260378 0.260378 0.260378 0.260378 0.260378 0.260378 0.260378 0.260378 0.260378 0.260378 0.269680 0.269680 0.269680 0.269680 0.269680 0.269680 0.269680 0.269680 0.269680 0.269680 0.269680 0.269680 0.269680 0.269680 0.269680 0.269680 0.269680 0.269680 0.269680 0.269680 0.269680 0.269680 0.269680 0.269680 0.269680 0.269680 0.269680 0.269680 0.269680 0.269680 0.269680 0.269680 0.269680 0.280056 0.280056 0.280056 0.280056 0.280056 0.280056 0.280056 0.280056 0.280056 0.280056 0.280056 0.280056 0.280056 0.280056 0.280056 0.280056 0.280056 0.280056 0.280056 0.280056 0.280056 0.280056 0.280056 0.280056 0.280056 0.280056 0.280056 0.274721 0.274721 0.274721 0.274721 0.274721 0.274721 0.274721 0.274721 0.274721 0.274721 0.274721 0.274721 0.274721 0.285714 0.285714 0.285714 0.285714 0.285714 0.285714 0.285714 0.285714 0.285714 0.285714 0.285714 0.280056 0.280056 0.280056 0.280056 0.280056 0.280056 0.280056 0.280056 0.280056 0.280056 0.280056 0.274721 0.274721 0.274721 0.274721 0.274721 0.274721 0.274721 0.274721 0.274721 0.274721 0.274721 0.280056 0.280056 0.280056 0.280056 0.280056 0.280056 0.280056 0.280056 0.280056 0.280056 0.285714 0.285714 0.285714 0.285714 0.285714 0.285714 0.285714 0.285714 0.285714 0.269680 0.269680 0.269680 0.269680 0.269680 0.269680 0.269680 0.269680 0.269680 0.269680 0.274721 0.274721 0.274721 0.274721 0.274721 0.274721 0.274721 0.274721 0.274721 0.285714 0.285714 0.285714 0.285714 0.285714 0.285714 0.285714 0.285714 0.264906 0.264906 0.264906 0.264906 0.264906 0.264906 0.264906 0.264906 0.264906 0.274721 0.274721 0.274721 0.274721 0.274721 0.274721 0.274721 0.274721 0.269680 0.269680 0.269680 0.269680 0.269680 0.269680 0.269680 0.269680 0.269680 0.269680 0.269680 0.269680 0.269680 0.269680 0.269680 0.269680 0.280056 0.280056 0.280056 0.280056 0.280056 0.280056 0.280056 0.260378 0.260378 0.260378 0.260378 0.260378 0.260378 0.260378 0.260378 0.269680 0.269680 0.269680 0.269680 0.269680 0.269680 0.269680 0.264906 0.264906 0.264906 0.264906 0.264906 0.264906 0.264906 0.264906 0.264906 0.264906 0.264906 0.264906 0.264906 0.264906 0.260378 0.260378 0.260378 0.260378 0.260378 0.260378 0.260378 0.260378 0.260378 0.260378 0.260378 0.260378
