# Output from CTFFind version 4.1.9, run on 2019-11-03 19:33:23
# Input file: stack16_bm3d_averaged_1_4.25_0_750_half.mrc ; Number of micrographs: 1
# Pixel size: 3.000 Angstroms ; acceleration voltage: 300.0 keV ; spherical aberration: 0.00 mm ; amplitude contrast: 0.07
# Box size: 512 pixels ; min. res.: 30.0 Angstroms ; max. res.: 5.0 Angstroms ; min. def.: 5000.0 um; max. def. 50000.0 um; num. frames averaged: 1
# 6 lines per micrograph: #1 - spatial frequency (1/Angstroms); #2 - 1D rotational average of spectrum (assuming no astigmatism); #3 - 1D rotational average of spectrum; #4 - CTF fit; #5 - cross-correlation between spectrum and CTF fit; #6 - 2sigma of expected cross correlation of noise
0.000000 0.000651 0.001302 0.001953 0.002604 0.003255 0.003906 0.004557 0.005208 0.005859 0.006510 0.007161 0.007812 0.008464 0.009115 0.009766 0.010417 0.011068 0.011719 0.012370 0.013021 0.013672 0.014323 0.014974 0.015625 0.016276 0.016927 0.017578 0.018229 0.018880 0.019531 0.020182 0.020833 0.021484 0.022135 0.022786 0.023438 0.024089 0.024740 0.025391 0.026042 0.026693 0.027344 0.027995 0.028646 0.029297 0.029948 0.030599 0.031250 0.031901 0.032552 0.033203 0.033854 0.034505 0.035156 0.035807 0.036458 0.037109 0.037760 0.038411 0.039062 0.039714 0.040365 0.041016 0.041667 0.042318 0.042969 0.043620 0.044271 0.044922 0.045573 0.046224 0.046875 0.047526 0.048177 0.048828 0.049479 0.050130 0.050781 0.051432 0.052083 0.052734 0.053385 0.054036 0.054688 0.055339 0.055990 0.056641 0.057292 0.057943 0.058594 0.059245 0.059896 0.060547 0.061198 0.061849 0.062500 0.063151 0.063802 0.064453 0.065104 0.065755 0.066406 0.067057 0.067708 0.068359 0.069010 0.069661 0.070312 0.070964 0.071615 0.072266 0.072917 0.073568 0.074219 0.074870 0.075521 0.076172 0.076823 0.077474 0.078125 0.078776 0.079427 0.080078 0.080729 0.081380 0.082031 0.082682 0.083333 0.083984 0.084635 0.085286 0.085938 0.086589 0.087240 0.087891 0.088542 0.089193 0.089844 0.090495 0.091146 0.091797 0.092448 0.093099 0.093750 0.094401 0.095052 0.095703 0.096354 0.097005 0.097656 0.098307 0.098958 0.099609 0.100260 0.100911 0.101562 0.102214 0.102865 0.103516 0.104167 0.104818 0.105469 0.106120 0.106771 0.107422 0.108073 0.108724 0.109375 0.110026 0.110677 0.111328 0.111979 0.112630 0.113281 0.113932 0.114583 0.115234 0.115885 0.116536 0.117188 0.117839 0.118490 0.119141 0.119792 0.120443 0.121094 0.121745 0.122396 0.123047 0.123698 0.124349 0.125000 0.125651 0.126302 0.126953 0.127604 0.128255 0.128906 0.129557 0.130208 0.130859 0.131510 0.132161 0.132812 0.133464 0.134115 0.134766 0.135417 0.136068 0.136719 0.137370 0.138021 0.138672 0.139323 0.139974 0.140625 0.141276 0.141927 0.142578 0.143229 0.143880 0.144531 0.145182 0.145833 0.146484 0.147135 0.147786 0.148438 0.149089 0.149740 0.150391 0.151042 0.151693 0.152344 0.152995 0.153646 0.154297 0.154948 0.155599 0.156250 0.156901 0.157552 0.158203 0.158854 0.159505 0.160156 0.160807 0.161458 0.162109 0.162760 0.163411 0.164062 0.164714 0.165365 0.166016 0.166667 0.167318 0.167969 0.168620 0.169271 0.169922 0.170573 0.171224 0.171875 0.172526 0.173177 0.173828 0.174479 0.175130 0.175781 0.176432 0.177083 0.177734 0.178385 0.179036 0.179688 0.180339 0.180990 0.181641 0.182292 0.182943 0.183594 0.184245 0.184896 0.185547 0.186198 0.186849 0.187500 0.188151 0.188802 0.189453 0.190104 0.190755 0.191406 0.192057 0.192708 0.193359 0.194010 0.194661 0.195312 0.195964 0.196615 0.197266 0.197917 0.198568 0.199219 0.199870 0.200521 0.201172 0.201823 0.202474 0.203125 0.203776 0.204427 0.205078 0.205729 0.206380 0.207031 0.207682 0.208333 0.208984 0.209635 0.210286 0.210938 0.211589 0.212240 0.212891 0.213542 0.214193 0.214844 0.215495 0.216146 0.216797 0.217448 0.218099 0.218750 0.219401 0.220052 0.220703 0.221354 0.222005 0.222656 0.223307 0.223958 0.224609 0.225260 0.225911 0.226562 0.227214 0.227865 0.228516 0.229167 0.229818 0.230469 0.231120 0.231771 0.232422 0.233073 0.233724 0.234375 0.235026 0.235677
       0.33284        0.33284        0.33284        0.33284        0.33284        0.33284        0.33284        0.33284        0.33284        0.33284        0.33284        0.33284        0.33284        0.33284        0.33285        0.33284        0.33284        0.33284        0.33284        0.33285        0.33284        0.33284        0.33284        0.33285        0.33284        0.33285        0.33284        0.33285        0.33284        0.33285        0.33284        0.33284        0.33284        0.33284        0.33284        0.33284        0.33285        0.33284        0.33285        0.33284        0.33284        0.33285        0.33285        0.33284        0.33285        0.33285        0.33284        0.33285        0.33284        0.33285        0.33284        0.42063        0.56533        0.35286       -0.19348       -0.45516       -0.55940       -0.65604       -0.72899       -0.74795       -0.85444       -0.91357       -0.71209       -0.87500       -0.84672       -0.99751       -1.03467       -0.91829       -0.87681       -0.82002       -0.75006       -0.67279       -0.58647       -0.49373       -0.42217       -0.19795       -0.08802        0.00503        0.23374        0.24228        0.30115        0.36653        0.39331        0.49841        0.53804        0.57211        0.53459        0.47371        0.51098        0.50142        0.42331        0.31771        0.18863        0.16554        0.10107       -0.02881       -0.04274       -0.04677        0.03088       -0.00762        0.04933        0.02789        0.14231        0.18553        0.40241        0.45694        0.55352        0.65696        0.69794        0.71793        0.64083        0.61820        0.52836        0.43827        0.37811        0.25774        0.20354        0.19141        0.07902        0.07152        0.05398        0.06233        0.08086        0.29355        0.40527        0.50633        0.54057        0.58072        0.61793        0.59388        0.58947        0.58748        0.56302        0.46455        0.28546        0.24648        0.22056        0.11988        0.06762        0.12875        0.15403        0.26558        0.34835        0.40795        0.47092        0.53561        0.60744        0.55365        0.51094        0.48974        0.35447        0.23636        0.22818        0.15704        0.14403        0.19273        0.24109        0.26408        0.30775        0.41353        0.43772        0.50630        0.45965        0.45116        0.47022        0.37283        0.31615        0.27150        0.23153        0.20939        0.21795        0.22866        0.32065        0.42341        0.41660        0.48536        0.54468        0.44678        0.41514        0.35443        0.29509        0.24218        0.24914        0.26498        0.27948        0.31129        0.32695        0.40999        0.46634        0.43568        0.44729        0.35155        0.36675        0.34868        0.23754        0.22749        0.23199        0.29090        0.35714        0.36527        0.38806        0.43342        0.43215        0.36160        0.33819        0.30915        0.33107        0.29146        0.26885        0.26685        0.32513        0.35827        0.37048        0.39526        0.37415        0.40038        0.37474        0.29025        0.27598        0.30488        0.33180        0.35392        0.35349        0.40417        0.33573        0.36805        0.38006        0.31939        0.33889        0.29212        0.28646        0.33448        0.32204        0.31576        0.32958        0.35266        0.31529        0.33376        0.29692        0.30405        0.27522        0.29498        0.29081        0.33251        0.36918        0.35407        0.33635        0.29034        0.27482        0.27759        0.31490        0.28739        0.30199        0.35514        0.36683        0.33080        0.30283        0.30436        0.30097        0.26659        0.27977        0.28553        0.31257        0.34447        0.31828        0.27910        0.32378        0.30336        0.29756        0.34516        0.33387        0.30639        0.32980        0.28875        0.31670        0.27617        0.29848        0.29371        0.30943        0.37833        0.32366        0.34059        0.30051        0.30502        0.31292        0.31499        0.28787        0.28469        0.31624        0.31139        0.31534        0.30109        0.30669        0.28856        0.29366        0.31278        0.32539        0.32197        0.32982        0.32476        0.28913        0.26955        0.27132        0.26031        0.34527        0.31214        0.35266        0.29494        0.26679        0.29285        0.34519        0.30186        0.28457        0.26736        0.30447        0.27805        0.25978        0.30608        0.27153        0.26803        0.30416        0.30159        0.33058        0.33363        0.29519        0.26238        0.24666        0.25087        0.26617        0.27659        0.31919        0.27235        0.21229        0.28552        0.26595        0.28468        0.22928        0.30538        0.29485        0.29254        0.26411        0.26076        0.26904        0.22567        0.28039        0.32555        0.36242        0.25347        0.26370        0.23172        0.23424        0.20373        0.32068        0.22922        0.22517        0.14073        0.24628        0.23652        0.22295        0.11030        0.02444       -0.61722       -0.97675
3.039165 3.001192 2.963463 2.925979 2.888739 2.851745 2.814995 2.778490 2.742229 2.706214 2.670443 2.634917 2.599636 2.564599 2.529807 2.495260 2.460958 2.426901 2.393088 2.359520 2.326197 2.293118 2.260284 2.227696 2.195351 2.163252 2.131397 2.099787 2.068422 2.037302 2.006426 1.975795 1.945409 1.915268 1.885371 1.855720 1.826313 1.797150 1.768233 1.739560 1.711132 1.682949 1.655010 1.627316 1.599867 1.572663 1.545704 1.518989 1.492519 1.466294 1.440313 1.475172 1.577842 1.518470 0.851867 0.583097 0.437264 0.370543 0.280212 0.195945 0.151852 -0.062857 0.182318 0.045499 -0.048241 -0.128007 -0.247995 -0.161882 -0.079004 -0.095448 -0.093130 0.025617 0.018360 0.208157 0.097815 0.339266 0.451447 0.469235 0.745183 0.684990 0.679087 0.828046 0.796810 0.822468 0.916461 0.868818 0.896838 0.729756 0.810382 0.841512 0.668847 0.598685 0.441961 0.418123 0.362175 0.178475 0.173897 0.117378 0.214022 0.119423 0.215419 0.104928 0.235006 0.237971 0.468034 0.417779 0.598909 0.633211 0.669788 0.732353 0.648909 0.619562 0.476740 0.429534 0.314640 0.280953 0.113493 0.177081 -0.012735 0.033430 -0.036339 -0.037070 -0.026804 0.045208 0.295810 0.313788 0.394512 0.343621 0.423597 0.465611 0.436289 0.445548 0.377080 0.370797 0.148027 0.099304 0.069619 0.003571 -0.146040 -0.032266 -0.075587 0.045843 0.111595 0.178105 0.254876 0.255680 0.348697 0.444636 0.334057 0.389124 0.277758 0.147141 0.065972 0.062839 0.011384 0.037097 0.076575 0.112491 0.122567 0.209123 0.254914 0.302660 0.333875 0.246710 0.272629 0.239230 0.115475 0.097838 0.042703 0.041575 0.010800 0.013663 0.048389 0.176065 0.196905 0.196076 0.327314 0.202507 0.230334 0.101503 0.088532 -0.007904 -0.006358 0.006963 0.015966 0.041946 0.045702 0.089574 0.160779 0.166390 0.212258 0.117487 0.078662 0.104984 0.041130 -0.075482 -0.024961 0.008679 0.047091 0.066236 0.088327 0.159491 0.125428 0.163812 0.041348 0.060225 0.045923 0.047472 0.020440 -0.014255 0.027871 0.042208 0.084244 0.105107 0.108699 0.106411 0.124761 0.062748 0.000825 0.005497 0.027187 0.079672 0.057521 0.110074 0.115015 0.046567 0.105096 0.068055 0.036894 0.068371 -0.030934 0.026915 0.060193 0.030750 0.027110 0.106004 0.043504 0.047677 0.046800 0.007944 0.023562 -0.017648 0.019975 0.001112 0.077080 0.075952 0.052961 0.037268 -0.015280 -0.014304 -0.007834 0.024907 -0.002753 0.015200 0.070876 0.075951 -0.008677 0.019736 -0.002323 0.007628 -0.035897 -0.019318 -0.010437 0.036317 0.006590 0.019499 -0.016887 0.016160 -0.010186 0.002296 0.047071 0.024936 0.030537 -0.036731 0.003190 0.004116 -0.043986 -0.004938 -0.011031 0.027695 0.082525 0.012396 0.017306 0.004318 0.017720 0.001240 0.032023 -0.013554 -0.006583 0.022630 0.004631 0.026427 0.003343 0.054400 -0.026002 -0.002361 0.027869 0.033725 0.029217 0.059260 0.016193 0.014327 -0.001628 -0.028228 -0.000386 0.066375 0.039348 0.056128 0.002290 -0.012615 -0.001635 0.079922 0.000573 0.016492 -0.017630 0.021476 -0.015144 -0.011689 0.011074 0.003414 -0.026739 0.025415 0.026906 0.078718 0.045314 0.018422 -0.002247 -0.037469 -0.025381 0.006695 -0.004616 0.078517 -0.029114 -0.086614 0.038457 -0.023209 -0.077500 -0.067177 -0.003194 -0.035069 -0.045304 -0.066154 -0.053326 -0.037518 -0.101790 -0.020611 0.009257 0.051705 -0.114098 -0.016694 -0.020921 -0.037794 -0.102872 0.107034 0.003575 0.055665 -0.057221 0.283162 0.214633 0.215999 0.039803 0.028864 -0.913331
0.072396 0.073048 0.075001 0.078257 0.082814 0.088670 0.095823 0.104271 0.114009 0.125032 0.137333 0.150904 0.165736 0.181814 0.199125 0.217648 0.237363 0.258242 0.280255 0.303367 0.327536 0.352715 0.378851 0.405881 0.433739 0.462346 0.491618 0.521459 0.551766 0.582423 0.613305 0.644276 0.675189 0.705885 0.736194 0.765934 0.794911 0.822923 0.849754 0.875179 0.898965 0.920868 0.940638 0.958021 0.972756 0.984581 0.993233 0.998451 0.999980 0.997570 0.990984 0.979998 0.964405 0.944019 0.918681 0.888260 0.852657 0.811813 0.765711 0.714378 0.657893 0.596388 0.530054 0.459141 0.383964 0.304904 0.222407 0.136990 0.049235 0.040207 0.130623 0.221237 0.311217 0.399683 0.485710 0.568339 0.646587 0.719460 0.785963 0.845119 0.895978 0.937639 0.969266 0.990103 0.999496 0.996910 0.981946 0.954359 0.914072 0.861196 0.796034 0.719100 0.631116 0.533023 0.425978 0.311346 0.190694 0.065775 0.061491 0.189043 0.314711 0.436246 0.551365 0.657791 0.753304 0.835788 0.903286 0.954051 0.986597 0.999754 0.992708 0.965047 0.916797 0.848445 0.760959 0.655793 0.534883 0.400626 0.255847 0.103756 0.052121 0.208009 0.359974 0.504020 0.636197 0.752716 0.850062 0.925114 0.975255 0.998483 0.993501 0.959795 0.897695 0.808407 0.694026 0.557513 0.402641 0.233919 0.056478 0.124077 0.301828 0.470738 0.624859 0.758547 0.866684 0.944890 0.989723 0.998855 0.971213 0.907083 0.808164 0.677567 0.519754 0.340428 0.146346 0.054903 0.255186 0.446148 0.619558 0.767677 0.883622 0.961713 0.997779 0.989421 0.936196 0.839728 0.703712 0.533837 0.337582 0.123937 0.096987 0.314418 0.517436 0.695537 0.839188 0.940370 0.993064 0.993657 0.941231 0.837725 0.687938 0.499378 0.281934 0.047415 0.191069 0.419814 0.625315 0.795079 0.918411 0.987141 0.996219 0.944144 0.833192 0.669410 0.462374 0.224684 0.028735 0.281542 0.517025 0.719198 0.873930 0.969973 0.999847 0.960496 0.853661 0.685916 0.468367 0.216000 0.053289 0.319928 0.564062 0.767060 0.912969 0.989831 0.990748 0.914587 0.766262 0.556541 0.301365 0.020722 0.262856 0.526087 0.746848 0.906084 0.989516 0.989023 0.903536 0.739348 0.509793 0.234288 0.063242 0.356347 0.618424 0.825125 0.956692 0.999940 0.949700 0.809539 0.591686 0.316108 0.008796 0.300617 0.581671 0.806097 0.950730 0.999991 0.947711 0.798027 0.565248 0.272652 0.049721 0.368076 0.648370 0.859990 0.979177 0.991820 0.895289 0.699034 0.423860 0.099890 0.236628 0.547316 0.796036 0.953182 0.999317 0.927752 0.745679 0.473674 0.143557 0.205186 0.530056 0.790722 0.954093 0.998661 0.917523 0.719623 0.429020 0.082158 0.276561 0.600386 0.846330 0.980979 0.985188 0.857026 0.612460 0.283614 0.085249 0.443563 0.741362 0.936295 0.999814 0.921560 0.711290 0.397944 0.025910 0.351107 0.677772 0.905269 0.998740 0.942856 0.744579 0.432617 0.053558 0.334934 0.672779 0.906825 0.999350 0.934384 0.720744 0.391187 0.002341 0.396690 0.727577 0.940114 0.998100 0.890460 0.633642 0.269473 0.141390 0.529389 0.827815 0.984383 0.970629 0.787405 0.465354 0.060147 0.356931 0.711366 0.938829 0.996998 0.873776 0.590129 0.196932 0.233889 0.622310 0.895077 0.999713 0.914893 0.655171 0.268911 0.170346 0.577723 0.873330 0.998113 0.925957 0.669539 0.278567 0.169468 0.584436 0.881668 0.999391 0.911898 0.635583 0.226358 0.231288 0.641488 0.917116 0.998452 0.866525 0.547971 0.110146 0.352750 0.739745
1.000000 1.000000 1.000000 1.000000 1.000000 1.000000 1.000000 1.000000 1.000000 1.000000 1.000000 1.000000 1.000000 1.000000 1.000000 1.000000 1.000000 1.000000 1.000000 1.000000 1.000000 1.000000 1.000000 1.000000 1.000000 1.000000 1.000000 1.000000 1.000000 1.000000 1.000000 1.000000 1.000000 1.000000 1.000000 1.000000 1.000000 1.000000 1.000000 1.000000 1.000000 1.000000 1.000000 1.000000 1.000000 1.000000 1.000000 1.000000 1.000000 1.000000 1.000000 1.000000 0.935606 0.935606 0.935606 0.935606 0.935606 0.935606 0.935606 0.935606 0.935606 0.935606 0.935606 0.935606 0.935606 0.935606 0.935606 0.935606 0.935606 0.935606 0.935606 0.935606 0.935606 0.935606 0.935606 0.935606 0.935606 0.935606 0.935606 0.935606 0.935606 0.935606 0.935606 0.935606 0.935606 0.922716 0.920685 0.923482 0.924440 0.924337 0.923872 0.923601 0.923901 0.925368 0.927167 0.948499 0.950772 0.951366 0.952509 0.953957 0.956592 0.954986 0.959737 0.970456 0.969835 0.970699 0.965140 0.965891 0.965561 0.965016 0.966942 0.966582 0.965365 0.963921 0.962824 0.962533 0.962328 0.963850 0.964277 0.964587 0.964918 0.964886 0.964800 0.964805 0.965072 0.967372 0.966701 0.965828 0.971489 0.970454 0.972686 0.972685 0.973376 0.974138 0.974306 0.974441 0.969190 0.968357 0.967153 0.953692 0.947932 0.944762 0.947051 0.949610 0.946493 0.941336 0.939840 0.942520 0.935394 0.934965 0.926389 0.925205 0.908944 0.901523 0.891533 0.892773 0.894061 0.894710 0.892143 0.882135 0.870780 0.866603 0.869576 0.863805 0.860177 0.876324 0.871868 0.873537 0.876770 0.878904 0.884538 0.878261 0.874082 0.870169 0.866217 0.864187 0.866217 0.869580 0.872802 0.859729 0.851960 0.855450 0.847208 0.845237 0.850815 0.851229 0.845093 0.842323 0.843627 0.844530 0.840418 0.846115 0.833132 0.828209 0.828351 0.825414 0.822807 0.816236 0.815552 0.815969 0.818583 0.806721 0.811223 0.772390 0.783775 0.777668 0.786686 0.787071 0.779446 0.780701 0.761420 0.750053 0.746154 0.758177 0.768772 0.754602 0.751684 0.748491 0.724485 0.732043 0.740457 0.734097 0.727614 0.713438 0.723753 0.724533 0.727697 0.718476 0.700305 0.705112 0.716196 0.724140 0.702250 0.698551 0.692050 0.692942 0.691852 0.685783 0.692766 0.666756 0.657073 0.625269 0.626162 0.638600 0.629649 0.603520 0.584081 0.530759 0.529552 0.528327 0.526667 0.507754 0.512366 0.498895 0.503600 0.539020 0.526036 0.539091 0.541362 0.535376 0.543554 0.428683 0.435984 0.422281 0.422740 0.431297 0.422138 0.383956 0.397348 0.401166 0.414819 0.406444 0.390330 0.406901 0.394168 0.396125 0.412793 0.393356 0.384802 0.391356 0.404714 0.403306 0.390288 0.380783 0.388851 0.417494 0.355184 0.342316 0.363163 0.321196 0.303830 0.279227 0.293358 0.280905 0.296872 0.286031 0.295292 0.302404 0.266470 0.282829 0.267603 0.294187 0.302272 0.302285 0.280250 0.276580 0.292018 0.220172 0.232422 0.262173 0.254524 0.323468 0.265663 0.251472 0.167420 0.230698 0.205358 0.212611 0.178019 0.135597 0.128093 0.130579 0.101811 0.101738 0.092706 0.078251 0.051036 0.007080 0.010175 0.005868 0.015169 0.031838 0.005742 0.004895 0.004895 0.004895 0.004895 -0.022100 -0.022100 -0.022100 -0.022100 -0.022100 -0.022100 -0.022100 -0.022100 -0.022100 -0.022100 -0.022100 -0.022100 -0.022100 -0.022100 -0.129003 -0.129003 -0.129003 -0.129003 -0.129003 -0.129003 -0.129003 -0.129003 -0.129003 -0.129003 -0.129003 -0.129003
0.000000 0.000000 0.000000 0.000000 0.000000 0.000000 0.000000 0.000000 0.000000 0.000000 0.000000 0.000000 0.000000 0.000000 0.000000 0.000000 0.000000 0.000000 0.000000 0.000000 0.000000 0.000000 0.000000 0.000000 0.000000 0.000000 0.000000 0.000000 0.000000 0.000000 0.000000 0.000000 0.000000 0.000000 0.000000 0.000000 0.000000 0.000000 0.000000 0.000000 0.000000 0.000000 0.000000 0.000000 0.000000 0.000000 0.000000 0.000000 0.000000 0.000000 0.000000 0.000000 0.209657 0.209657 0.209657 0.209657 0.209657 0.209657 0.209657 0.209657 0.209657 0.209657 0.209657 0.209657 0.209657 0.209657 0.209657 0.209657 0.209657 0.209657 0.209657 0.209657 0.209657 0.209657 0.209657 0.209657 0.209657 0.209657 0.209657 0.209657 0.209657 0.209657 0.209657 0.209657 0.209657 0.244339 0.244339 0.244339 0.244339 0.244339 0.244339 0.244339 0.244339 0.244339 0.244339 0.244339 0.244339 0.244339 0.244339 0.244339 0.244339 0.244339 0.244339 0.244339 0.244339 0.244339 0.244339 0.244339 0.244339 0.244339 0.260378 0.260378 0.260378 0.260378 0.260378 0.260378 0.260378 0.260378 0.260378 0.260378 0.260378 0.260378 0.260378 0.260378 0.260378 0.260378 0.260378 0.260378 0.260378 0.260378 0.269680 0.269680 0.269680 0.269680 0.269680 0.269680 0.269680 0.269680 0.269680 0.269680 0.269680 0.269680 0.269680 0.269680 0.269680 0.269680 0.269680 0.269680 0.269680 0.269680 0.269680 0.269680 0.269680 0.269680 0.269680 0.269680 0.269680 0.269680 0.269680 0.269680 0.269680 0.269680 0.269680 0.280056 0.280056 0.280056 0.280056 0.280056 0.280056 0.280056 0.280056 0.280056 0.280056 0.280056 0.280056 0.280056 0.280056 0.280056 0.280056 0.280056 0.280056 0.280056 0.280056 0.280056 0.280056 0.280056 0.280056 0.280056 0.280056 0.280056 0.285714 0.285714 0.285714 0.285714 0.285714 0.285714 0.285714 0.285714 0.285714 0.285714 0.285714 0.285714 0.274721 0.274721 0.274721 0.274721 0.274721 0.274721 0.274721 0.274721 0.274721 0.274721 0.274721 0.274721 0.280056 0.280056 0.280056 0.280056 0.280056 0.280056 0.280056 0.280056 0.280056 0.280056 0.280056 0.285714 0.285714 0.285714 0.285714 0.285714 0.285714 0.285714 0.285714 0.285714 0.285714 0.280056 0.280056 0.280056 0.280056 0.280056 0.280056 0.280056 0.280056 0.280056 0.280056 0.274721 0.274721 0.274721 0.274721 0.274721 0.274721 0.274721 0.274721 0.274721 0.274721 0.280056 0.280056 0.280056 0.280056 0.280056 0.280056 0.280056 0.280056 0.280056 0.274721 0.274721 0.274721 0.274721 0.274721 0.274721 0.274721 0.274721 0.274721 0.269680 0.269680 0.269680 0.269680 0.269680 0.269680 0.269680 0.269680 0.269680 0.280056 0.280056 0.280056 0.280056 0.280056 0.280056 0.280056 0.280056 0.260378 0.260378 0.260378 0.260378 0.260378 0.260378 0.260378 0.260378 0.260378 0.269680 0.269680 0.269680 0.269680 0.269680 0.269680 0.269680 0.269680 0.285714 0.285714 0.285714 0.285714 0.285714 0.285714 0.285714 0.264906 0.264906 0.264906 0.264906 0.264906 0.264906 0.264906 0.264906 0.274721 0.274721 0.274721 0.274721 0.274721 0.274721 0.274721 0.256074 0.256074 0.256074 0.256074 0.256074 0.256074 0.256074 0.256074 0.264906 0.264906 0.264906 0.264906 0.264906 0.264906 0.264906 0.264906 0.264906 0.264906 0.264906 0.264906 0.264906 0.264906 0.280056 0.280056 0.280056 0.280056 0.280056 0.280056 0.280056 0.280056 0.280056 0.280056 0.280056 0.280056
