# Output from CTFFind version 4.1.9, run on 2019-11-03 20:09:34
# Input file: stack6_bm3d_averaged_1_7.0_0_2500_half.mrc ; Number of micrographs: 1
# Pixel size: 3.000 Angstroms ; acceleration voltage: 300.0 keV ; spherical aberration: 0.00 mm ; amplitude contrast: 0.07
# Box size: 512 pixels ; min. res.: 30.0 Angstroms ; max. res.: 5.0 Angstroms ; min. def.: 5000.0 um; max. def. 50000.0 um; num. frames averaged: 1
# 6 lines per micrograph: #1 - spatial frequency (1/Angstroms); #2 - 1D rotational average of spectrum (assuming no astigmatism); #3 - 1D rotational average of spectrum; #4 - CTF fit; #5 - cross-correlation between spectrum and CTF fit; #6 - 2sigma of expected cross correlation of noise
0.000000 0.000651 0.001302 0.001953 0.002604 0.003255 0.003906 0.004557 0.005208 0.005859 0.006510 0.007161 0.007812 0.008464 0.009115 0.009766 0.010417 0.011068 0.011719 0.012370 0.013021 0.013672 0.014323 0.014974 0.015625 0.016276 0.016927 0.017578 0.018229 0.018880 0.019531 0.020182 0.020833 0.021484 0.022135 0.022786 0.023438 0.024089 0.024740 0.025391 0.026042 0.026693 0.027344 0.027995 0.028646 0.029297 0.029948 0.030599 0.031250 0.031901 0.032552 0.033203 0.033854 0.034505 0.035156 0.035807 0.036458 0.037109 0.037760 0.038411 0.039062 0.039714 0.040365 0.041016 0.041667 0.042318 0.042969 0.043620 0.044271 0.044922 0.045573 0.046224 0.046875 0.047526 0.048177 0.048828 0.049479 0.050130 0.050781 0.051432 0.052083 0.052734 0.053385 0.054036 0.054688 0.055339 0.055990 0.056641 0.057292 0.057943 0.058594 0.059245 0.059896 0.060547 0.061198 0.061849 0.062500 0.063151 0.063802 0.064453 0.065104 0.065755 0.066406 0.067057 0.067708 0.068359 0.069010 0.069661 0.070312 0.070964 0.071615 0.072266 0.072917 0.073568 0.074219 0.074870 0.075521 0.076172 0.076823 0.077474 0.078125 0.078776 0.079427 0.080078 0.080729 0.081380 0.082031 0.082682 0.083333 0.083984 0.084635 0.085286 0.085938 0.086589 0.087240 0.087891 0.088542 0.089193 0.089844 0.090495 0.091146 0.091797 0.092448 0.093099 0.093750 0.094401 0.095052 0.095703 0.096354 0.097005 0.097656 0.098307 0.098958 0.099609 0.100260 0.100911 0.101562 0.102214 0.102865 0.103516 0.104167 0.104818 0.105469 0.106120 0.106771 0.107422 0.108073 0.108724 0.109375 0.110026 0.110677 0.111328 0.111979 0.112630 0.113281 0.113932 0.114583 0.115234 0.115885 0.116536 0.117188 0.117839 0.118490 0.119141 0.119792 0.120443 0.121094 0.121745 0.122396 0.123047 0.123698 0.124349 0.125000 0.125651 0.126302 0.126953 0.127604 0.128255 0.128906 0.129557 0.130208 0.130859 0.131510 0.132161 0.132812 0.133464 0.134115 0.134766 0.135417 0.136068 0.136719 0.137370 0.138021 0.138672 0.139323 0.139974 0.140625 0.141276 0.141927 0.142578 0.143229 0.143880 0.144531 0.145182 0.145833 0.146484 0.147135 0.147786 0.148438 0.149089 0.149740 0.150391 0.151042 0.151693 0.152344 0.152995 0.153646 0.154297 0.154948 0.155599 0.156250 0.156901 0.157552 0.158203 0.158854 0.159505 0.160156 0.160807 0.161458 0.162109 0.162760 0.163411 0.164062 0.164714 0.165365 0.166016 0.166667 0.167318 0.167969 0.168620 0.169271 0.169922 0.170573 0.171224 0.171875 0.172526 0.173177 0.173828 0.174479 0.175130 0.175781 0.176432 0.177083 0.177734 0.178385 0.179036 0.179688 0.180339 0.180990 0.181641 0.182292 0.182943 0.183594 0.184245 0.184896 0.185547 0.186198 0.186849 0.187500 0.188151 0.188802 0.189453 0.190104 0.190755 0.191406 0.192057 0.192708 0.193359 0.194010 0.194661 0.195312 0.195964 0.196615 0.197266 0.197917 0.198568 0.199219 0.199870 0.200521 0.201172 0.201823 0.202474 0.203125 0.203776 0.204427 0.205078 0.205729 0.206380 0.207031 0.207682 0.208333 0.208984 0.209635 0.210286 0.210938 0.211589 0.212240 0.212891 0.213542 0.214193 0.214844 0.215495 0.216146 0.216797 0.217448 0.218099 0.218750 0.219401 0.220052 0.220703 0.221354 0.222005 0.222656 0.223307 0.223958 0.224609 0.225260 0.225911 0.226562 0.227214 0.227865 0.228516 0.229167 0.229818 0.230469 0.231120 0.231771 0.232422 0.233073 0.233724 0.234375 0.235026 0.235677
       0.33118        0.33118        0.33118        0.33118        0.33118        0.33118        0.33118        0.33118        0.33118        0.33118        0.33118        0.33118        0.33118        0.33118        0.33118        0.33118        0.33118        0.33118        0.33118        0.33118        0.33118        0.33118        0.33118        0.33118        0.33118        0.33118        0.33118        0.33118        0.33118        0.33118        0.33118        0.33118        0.33118        0.33118        0.33118        0.33118        0.33118        0.33118        0.33118        0.33118        0.33118        0.33118        0.33118        0.33118        0.33118        0.33118        0.33118        0.33118        0.33118        0.33118        0.33118        0.59630        0.70976        0.36493        0.17340        0.13872       -0.12987        0.11267        0.04058        0.04318        0.09382        0.30935        0.30844        0.23693        0.14242       -0.03726       -0.01005        0.05134       -0.09204       -0.09840       -0.06932       -0.07666       -0.17663       -0.11290       -0.22226       -0.24111       -0.23887       -0.29786       -0.36919       -0.29851       -0.20716       -0.17245       -0.27908       -0.20334       -0.24459       -0.18594       -0.12486       -0.06678       -0.03815        0.01804        0.06552        0.14975        0.19112        0.23317        0.34638        0.41118        0.36098        0.48192        0.54579        0.55430        0.63076        0.55588        0.58546        0.60331        0.60497        0.59658        0.55941        0.59502        0.54260        0.39810        0.35297        0.37712        0.34443        0.21164        0.20096        0.17157        0.11540        0.11357        0.04104        0.10660        0.08538        0.05144        0.13321        0.18833        0.27610        0.35014        0.36501        0.39614        0.44866        0.48223        0.42228        0.63881        0.54968        0.48239        0.56999        0.50304        0.55685        0.51666        0.38942        0.32708        0.31229        0.26600        0.25600        0.21499        0.19653        0.17338        0.26412        0.24201        0.26358        0.23351        0.27521        0.33759        0.33845        0.45011        0.44531        0.43076        0.41817        0.48082        0.43579        0.41800        0.40692        0.39838        0.33719        0.28452        0.27941        0.27004        0.26881        0.21449        0.20140        0.25124        0.26697        0.28961        0.35202        0.38504        0.42741        0.41549        0.43000        0.48855        0.47322        0.43043        0.38416        0.41799        0.38071        0.33074        0.33998        0.33059        0.27198        0.28432        0.28101        0.25576        0.32104        0.29915        0.31792        0.33751        0.39848        0.42181        0.41268        0.44158        0.39015        0.43255        0.40458        0.33226        0.30033        0.27288        0.28475        0.25630        0.22596        0.31358        0.37546        0.33784        0.30972        0.36583        0.29094        0.34923        0.40207        0.38757        0.36612        0.38103        0.34731        0.36330        0.33659        0.30616        0.28867        0.26809        0.32018        0.33189        0.35061        0.36548        0.38900        0.37284        0.37060        0.32708        0.35650        0.36355        0.34445        0.32969        0.29256        0.28943        0.27009        0.34060        0.33711        0.34741        0.31676        0.34913        0.36970        0.33954        0.35733        0.34836        0.31446        0.31059        0.30956        0.28179        0.27155        0.26215        0.25425        0.27458        0.26737        0.30485        0.27805        0.31907        0.35857        0.26410        0.29662        0.28361        0.24627        0.30094        0.28346        0.28431        0.31052        0.32800        0.32864        0.31695        0.31529        0.31238        0.35703        0.35836        0.30318        0.32830        0.32034        0.37046        0.28178        0.27862        0.29380        0.30771        0.33213        0.36422        0.35847        0.29863        0.23429        0.29828        0.26657        0.25870        0.26036        0.27384        0.30696        0.23751        0.30595        0.33089        0.36652        0.31271        0.31380        0.28110        0.29536        0.29234        0.26388        0.28677        0.27183        0.28860        0.35200        0.34707        0.28598        0.32235        0.33185        0.26336        0.23240        0.18812        0.33048        0.33098        0.36006        0.34341        0.29521        0.23107        0.21992        0.27379        0.26945        0.26985        0.29052        0.29222        0.24616        0.27953        0.27887        0.30987        0.28092        0.27755        0.27337        0.24871        0.22657        0.28266        0.25017        0.21875        0.26589        0.25629        0.26269        0.22480        0.20442        0.27168        0.29595        0.27539        0.19863        0.14650        0.29569        0.22733        0.25447        0.27558        0.17018        0.16469        0.19802        0.24456        0.28920        0.10157       -0.10648       -0.60396       -0.96062
2.413277 2.392835 2.372483 2.352222 2.332051 2.311971 2.291982 2.272083 2.252274 2.232556 2.212929 2.193392 2.173946 2.154590 2.135324 2.116149 2.097065 2.078071 2.059168 2.040355 2.021633 2.003001 1.984460 1.966010 1.947650 1.929380 1.911201 1.893112 1.875114 1.857207 1.839390 1.821663 1.804027 1.786482 1.769027 1.751663 1.734389 1.717205 1.700113 1.683110 1.666198 1.649377 1.632647 1.616006 1.599457 1.582997 1.566629 1.550351 1.534163 1.518066 1.502059 1.860344 2.201242 1.527251 1.329853 1.102626 0.518882 0.932613 0.805138 0.844683 0.700941 1.420091 1.195644 1.211554 0.986212 0.599180 0.470755 0.747675 0.599885 0.279792 0.274088 0.487179 0.245226 0.263346 0.109404 -0.002367 -0.016406 -0.009867 -0.319459 -0.146187 0.012040 0.004950 -0.082690 -0.014174 -0.107209 -0.087321 0.068381 0.194751 0.258317 0.280781 0.383785 0.629521 0.562623 0.665775 0.829155 1.060311 0.804539 1.264335 1.193276 1.269143 1.369797 1.261997 1.164468 1.370699 1.236737 1.349263 1.204087 1.199690 1.220950 0.964389 0.711639 0.748776 0.795555 0.484404 0.444327 0.371721 0.238250 0.197585 0.036194 0.230035 0.173786 0.057049 0.138328 0.236839 0.361932 0.607973 0.610681 0.624640 0.697578 0.880812 0.593539 1.028720 1.052114 0.775378 0.927275 0.770050 0.883882 0.917162 0.649345 0.406860 0.436019 0.382901 0.222204 0.240083 0.164328 -0.014516 0.249857 0.227439 0.260800 0.154724 0.251487 0.333975 0.278889 0.501431 0.603424 0.552608 0.365431 0.653642 0.559908 0.424676 0.538535 0.437151 0.272230 0.316465 0.136978 0.213872 0.026441 0.216252 -0.056342 0.057676 0.065080 0.259078 0.053383 0.399489 0.349670 0.404318 0.383006 0.417526 0.588496 0.409658 0.349751 0.403884 0.199303 0.358612 0.112631 0.268786 0.066013 0.093400 0.083617 0.064072 0.047291 0.159554 0.060218 0.158094 0.241975 0.287224 0.330907 0.265268 0.346419 0.264078 0.293674 0.183911 0.104580 0.019820 -0.008943 0.018272 -0.066495 -0.070220 0.126286 0.218601 0.056143 0.108931 0.127043 0.008956 0.188257 0.257490 0.188710 0.186179 0.131680 0.167415 0.108860 0.099476 0.047157 -0.086237 -0.004832 0.135678 0.049407 0.152663 0.132433 0.221766 0.184380 0.159582 0.108470 0.188831 0.101847 0.142822 0.095293 0.015272 -0.011349 -0.009338 0.130872 0.124876 0.128354 0.060322 0.152713 0.157063 0.048132 0.144213 0.052235 -0.007668 0.027243 0.008084 -0.058654 -0.062734 -0.115247 -0.047651 -0.054440 -0.095226 0.013830 -0.040665 0.050305 0.100191 -0.108926 0.027664 -0.050368 -0.100243 0.047673 -0.029164 -0.063825 0.042411 0.097405 0.030569 0.060114 -0.044214 0.029556 0.194868 0.008199 -0.041640 0.083533 0.042216 0.115917 -0.104342 -0.047080 -0.009814 0.049746 0.057220 0.097669 0.134164 -0.043256 -0.106796 0.008303 -0.063434 -0.066547 -0.047610 -0.049600 0.047293 -0.176440 0.123589 0.120878 0.183702 0.038204 0.044839 0.026101 0.030016 0.091554 -0.033665 0.037118 0.008179 0.058827 0.138041 0.186930 0.043456 0.158483 0.173878 -0.039457 -0.007704 -0.162289 0.231220 0.139390 0.212738 0.167733 0.034054 -0.062484 -0.090295 0.007724 0.007359 -0.015385 0.041755 0.052419 -0.076108 0.012396 0.101825 0.073793 0.041700 0.012816 0.057749 -0.093706 -0.022030 0.051704 -0.022716 -0.106165 0.053143 -0.004578 -0.035050 -0.027520 -0.103923 0.084216 0.125027 0.005416 -0.086990 -0.333215 0.215574 0.511343 0.442220 0.573441 0.269666 0.324863 0.388853 0.514329 0.553984 0.075779 0.042931 -0.917243
0.072396 0.072838 0.074163 0.076371 0.079462 0.083435 0.088289 0.094022 0.100634 0.108122 0.116484 0.125716 0.135815 0.146776 0.158594 0.171262 0.184772 0.199116 0.214282 0.230259 0.247032 0.264586 0.282903 0.301961 0.321739 0.342209 0.363344 0.385111 0.407474 0.430396 0.453833 0.477738 0.502061 0.526747 0.551735 0.576960 0.602354 0.627843 0.653346 0.678779 0.704051 0.729069 0.753731 0.777931 0.801559 0.824499 0.846629 0.867825 0.887956 0.906890 0.924488 0.940610 0.955112 0.967851 0.978680 0.987451 0.994019 0.998237 0.999964 0.999060 0.995388 0.988821 0.979236 0.966518 0.950564 0.931282 0.908590 0.882425 0.852736 0.819493 0.782682 0.742313 0.698416 0.651047 0.600285 0.546238 0.489041 0.428857 0.365881 0.300336 0.232478 0.162594 0.091002 0.018050 0.055883 0.130388 0.205031 0.279348 0.352856 0.425047 0.495396 0.563366 0.628407 0.689964 0.747479 0.800402 0.848190 0.890315 0.926273 0.955588 0.977820 0.992569 0.999485 0.998277 0.988713 0.970632 0.943948 0.908657 0.864842 0.812675 0.752424 0.684454 0.609231 0.527317 0.439375 0.346165 0.248540 0.147440 0.043885 0.061028 0.166143 0.270251 0.372106 0.470437 0.563965 0.651424 0.731572 0.803218 0.865233 0.916578 0.956321 0.983654 0.997916 0.998607 0.985407 0.958192 0.917039 0.862242 0.794319 0.714007 0.622269 0.520285 0.409446 0.291336 0.167716 0.040506 0.088250 0.216406 0.341757 0.462066 0.575119 0.678750 0.770902 0.849658 0.913296 0.960323 0.989521 0.999980 0.991137 0.962795 0.915150 0.848800 0.764752 0.664419 0.549605 0.422480 0.285552 0.141622 0.006269 0.154897 0.300927 0.440980 0.571721 0.689935 0.792613 0.877034 0.940842 0.982127 0.999484 0.992074 0.959665 0.902665 0.822136 0.719788 0.597962 0.459586 0.308120 0.147478 0.018066 0.183983 0.345614 0.498297 0.637510 0.759000 0.858929 0.934004 0.981593 0.999836 0.987727 0.945176 0.873050 0.773168 0.648289 0.502048 0.338864 0.163824 0.017463 0.199040 0.374797 0.538674 0.684877 0.808085 0.903659 0.967832 0.997874 0.992225 0.950588 0.873990 0.764777 0.626575 0.464192 0.283467 0.091080 0.105682 0.299199 0.481803 0.646095 0.785242 0.893285 0.965408 0.998170 0.989698 0.939809 0.850073 0.723801 0.565943 0.382939 0.182460 0.026882 0.235900 0.435226 0.615737 0.768976 0.887568 0.965597 0.998919 0.985421 0.925170 0.820481 0.675864 0.497862 0.294798 0.076395 0.146661 0.363236 0.562304 0.733521 0.867767 0.957665 0.998014 0.986118 0.922006 0.808499 0.651135 0.457938 0.239048 0.006209 0.227834 0.450029 0.647754 0.809529 0.925727 0.989163 0.995583 0.943987 0.836772 0.679681 0.481538 0.253798 0.009912 0.235431 0.467203 0.670938 0.833664 0.944749 0.996643 0.985427 0.911160 0.777971 0.593885 0.370404 0.121820 0.135662 0.384967 0.609279 0.793179 0.923751 0.991510 0.991152 0.922021 0.788260 0.598637 0.366026 0.106581 0.161341 0.418481 0.646035 0.827068 0.947796 0.998685 0.975268 0.878586 0.715243 0.497021 0.240102 0.036101 0.310362 0.561273 0.768927 0.916516 0.991754 0.987952 0.904681 0.747947 0.529842 0.267673 0.017345 0.301778 0.561874 0.775578 0.924413 0.995148 0.981031 0.882517 0.707374 0.470168 0.191118 0.105567 0.393759 0.647693 0.844311 0.965377 0.999256 0.942097 0.798357 0.580554 0.308267 0.006448 0.296823 0.572914 0.795383 0.942524 0.999570 0.960250 0.827572 0.613716 0.339009 0.030078 0.282680 0.568056 0.797160 0.946401 0.999962
1.000000 1.000000 1.000000 1.000000 1.000000 1.000000 1.000000 1.000000 1.000000 1.000000 1.000000 1.000000 1.000000 1.000000 1.000000 1.000000 1.000000 1.000000 1.000000 1.000000 1.000000 1.000000 1.000000 1.000000 1.000000 1.000000 1.000000 1.000000 1.000000 1.000000 1.000000 1.000000 1.000000 1.000000 1.000000 1.000000 1.000000 1.000000 1.000000 1.000000 1.000000 1.000000 1.000000 1.000000 1.000000 1.000000 1.000000 1.000000 1.000000 1.000000 1.000000 1.000000 0.770986 0.770986 0.770986 0.770986 0.770986 0.770986 0.770986 0.759826 0.759826 0.759826 0.759826 0.759826 0.759826 0.759826 0.759826 0.759826 0.759826 0.759826 0.759826 0.759826 0.759826 0.759826 0.759826 0.759826 0.759826 0.759826 0.759826 0.759826 0.759826 0.759826 0.759826 0.759826 0.759826 0.759826 0.759826 0.759826 0.759826 0.759826 0.759826 0.759826 0.759826 0.759826 0.759826 0.759826 0.759826 0.759826 0.759826 0.759826 0.759826 0.759826 0.759826 0.900521 0.901985 0.905033 0.900449 0.902378 0.900222 0.893789 0.896717 0.896532 0.896353 0.897424 0.899079 0.901086 0.908421 0.917329 0.919218 0.926195 0.929628 0.929611 0.931125 0.929739 0.937214 0.934715 0.932944 0.921038 0.924450 0.926352 0.925361 0.924202 0.921027 0.927448 0.926042 0.923964 0.918681 0.914762 0.912850 0.914491 0.912280 0.912477 0.912655 0.913277 0.911483 0.912092 0.908245 0.909189 0.908089 0.904537 0.901526 0.901243 0.902631 0.900940 0.897564 0.891289 0.897250 0.897407 0.896771 0.895680 0.895890 0.896684 0.897458 0.898125 0.895685 0.895736 0.893126 0.894900 0.891165 0.886385 0.880221 0.880425 0.882912 0.890108 0.892168 0.890900 0.888122 0.879935 0.869302 0.867249 0.855208 0.820679 0.822478 0.826374 0.828576 0.829253 0.828374 0.824607 0.820009 0.811326 0.802175 0.806989 0.807597 0.799903 0.795523 0.796440 0.797042 0.804432 0.807933 0.799738 0.796773 0.800022 0.796065 0.797290 0.801183 0.794898 0.791231 0.797726 0.805921 0.806134 0.790685 0.786353 0.783989 0.771714 0.778788 0.785378 0.786051 0.787425 0.784439 0.772831 0.771273 0.764351 0.775022 0.782445 0.781701 0.776846 0.759574 0.716556 0.703406 0.671772 0.671151 0.672733 0.638913 0.638975 0.640578 0.645277 0.589957 0.568327 0.554479 0.555186 0.563804 0.568754 0.562890 0.536095 0.554339 0.551119 0.536728 0.532730 0.512579 0.498202 0.478491 0.481190 0.480490 0.472280 0.442316 0.442257 0.461714 0.470820 0.466408 0.462938 0.434930 0.414202 0.414522 0.407398 0.407407 0.412947 0.421687 0.366072 0.342789 0.328196 0.356988 0.356291 0.354716 0.370773 0.363353 0.356912 0.332287 0.311689 0.284716 0.297164 0.317667 0.321647 0.325522 0.293124 0.282830 0.265978 0.270353 0.315259 0.303413 0.324505 0.328728 0.333706 0.360762 0.333825 0.310136 0.287096 0.330023 0.333898 0.308517 0.298583 0.312382 0.326886 0.326577 0.322523 0.316636 0.364080 0.372086 0.352021 0.352650 0.319565 0.341897 0.374521 0.371017 0.376019 0.386606 0.391622 0.359031 0.289874 0.262860 0.265878 0.241983 0.241422 0.227022 0.211893 0.203722 0.215726 0.237842 0.243969 0.276691 0.246014 0.202906 0.111085 0.178686 0.096184 0.108064 0.108064 0.108064 0.108064 0.108064 0.108064 0.108064 0.108064 0.142138 0.142138 0.142138 0.142138 0.142138 0.142138 0.142138 0.142138 0.142138 0.142138 0.142138 0.142138 0.142138 0.142138 0.142138 0.142138 0.142138 0.142138 0.142138 0.142138 0.142138
0.000000 0.000000 0.000000 0.000000 0.000000 0.000000 0.000000 0.000000 0.000000 0.000000 0.000000 0.000000 0.000000 0.000000 0.000000 0.000000 0.000000 0.000000 0.000000 0.000000 0.000000 0.000000 0.000000 0.000000 0.000000 0.000000 0.000000 0.000000 0.000000 0.000000 0.000000 0.000000 0.000000 0.000000 0.000000 0.000000 0.000000 0.000000 0.000000 0.000000 0.000000 0.000000 0.000000 0.000000 0.000000 0.000000 0.000000 0.000000 0.000000 0.000000 0.000000 0.000000 0.173422 0.173422 0.173422 0.173422 0.173422 0.173422 0.173422 0.191565 0.191565 0.191565 0.191565 0.191565 0.191565 0.191565 0.191565 0.191565 0.191565 0.191565 0.191565 0.191565 0.191565 0.191565 0.191565 0.191565 0.191565 0.191565 0.191565 0.191565 0.191565 0.191565 0.191565 0.191565 0.191565 0.191565 0.191565 0.191565 0.191565 0.191565 0.191565 0.191565 0.191565 0.191565 0.191565 0.191565 0.191565 0.191565 0.191565 0.191565 0.191565 0.191565 0.191565 0.222222 0.222222 0.222222 0.222222 0.222222 0.222222 0.222222 0.222222 0.222222 0.222222 0.222222 0.222222 0.222222 0.222222 0.222222 0.222222 0.222222 0.222222 0.222222 0.222222 0.222222 0.222222 0.222222 0.222222 0.222222 0.222222 0.222222 0.222222 0.222222 0.222222 0.234082 0.234082 0.234082 0.234082 0.234082 0.234082 0.234082 0.234082 0.234082 0.234082 0.234082 0.234082 0.234082 0.234082 0.234082 0.234082 0.234082 0.234082 0.234082 0.234082 0.234082 0.234082 0.234082 0.234082 0.234082 0.244339 0.244339 0.244339 0.244339 0.244339 0.244339 0.244339 0.244339 0.244339 0.244339 0.244339 0.244339 0.244339 0.244339 0.244339 0.244339 0.244339 0.244339 0.244339 0.244339 0.244339 0.248069 0.248069 0.248069 0.248069 0.248069 0.248069 0.248069 0.248069 0.248069 0.248069 0.248069 0.248069 0.248069 0.248069 0.248069 0.248069 0.248069 0.248069 0.248069 0.256074 0.256074 0.256074 0.256074 0.256074 0.256074 0.256074 0.256074 0.256074 0.256074 0.256074 0.256074 0.256074 0.256074 0.256074 0.256074 0.256074 0.256074 0.256074 0.256074 0.256074 0.256074 0.256074 0.256074 0.256074 0.256074 0.256074 0.256074 0.256074 0.256074 0.256074 0.256074 0.256074 0.256074 0.256074 0.256074 0.256074 0.256074 0.256074 0.256074 0.256074 0.256074 0.256074 0.256074 0.256074 0.256074 0.256074 0.256074 0.256074 0.256074 0.256074 0.256074 0.256074 0.256074 0.256074 0.256074 0.256074 0.256074 0.256074 0.256074 0.256074 0.256074 0.260378 0.260378 0.260378 0.260378 0.260378 0.260378 0.260378 0.260378 0.260378 0.260378 0.260378 0.260378 0.260378 0.256074 0.256074 0.256074 0.256074 0.256074 0.256074 0.256074 0.256074 0.256074 0.256074 0.256074 0.256074 0.256074 0.260378 0.260378 0.260378 0.260378 0.260378 0.260378 0.260378 0.260378 0.260378 0.260378 0.260378 0.260378 0.251976 0.251976 0.251976 0.251976 0.251976 0.251976 0.251976 0.251976 0.251976 0.251976 0.251976 0.251976 0.256074 0.256074 0.256074 0.256074 0.256074 0.256074 0.256074 0.256074 0.256074 0.256074 0.256074 0.251976 0.251976 0.251976 0.251976 0.251976 0.251976 0.251976 0.251976 0.251976 0.251976 0.251976 0.260378 0.260378 0.260378 0.260378 0.260378 0.260378 0.260378 0.260378 0.260378 0.260378 0.244339 0.244339 0.244339 0.244339 0.244339 0.244339 0.244339 0.244339 0.244339 0.244339 0.244339 0.244339 0.244339 0.244339 0.244339 0.244339 0.244339 0.244339 0.244339 0.244339 0.244339
