# Output from CTFFind version 4.1.9, run on 2019-11-03 19:29:17
# Input file: stack1_bm3d_averaged_1_3.75_0_2000_half.mrc ; Number of micrographs: 1
# Pixel size: 3.000 Angstroms ; acceleration voltage: 300.0 keV ; spherical aberration: 0.00 mm ; amplitude contrast: 0.07
# Box size: 512 pixels ; min. res.: 30.0 Angstroms ; max. res.: 5.0 Angstroms ; min. def.: 5000.0 um; max. def. 50000.0 um; num. frames averaged: 1
# 6 lines per micrograph: #1 - spatial frequency (1/Angstroms); #2 - 1D rotational average of spectrum (assuming no astigmatism); #3 - 1D rotational average of spectrum; #4 - CTF fit; #5 - cross-correlation between spectrum and CTF fit; #6 - 2sigma of expected cross correlation of noise
0.000000 0.000651 0.001302 0.001953 0.002604 0.003255 0.003906 0.004557 0.005208 0.005859 0.006510 0.007161 0.007812 0.008464 0.009115 0.009766 0.010417 0.011068 0.011719 0.012370 0.013021 0.013672 0.014323 0.014974 0.015625 0.016276 0.016927 0.017578 0.018229 0.018880 0.019531 0.020182 0.020833 0.021484 0.022135 0.022786 0.023438 0.024089 0.024740 0.025391 0.026042 0.026693 0.027344 0.027995 0.028646 0.029297 0.029948 0.030599 0.031250 0.031901 0.032552 0.033203 0.033854 0.034505 0.035156 0.035807 0.036458 0.037109 0.037760 0.038411 0.039062 0.039714 0.040365 0.041016 0.041667 0.042318 0.042969 0.043620 0.044271 0.044922 0.045573 0.046224 0.046875 0.047526 0.048177 0.048828 0.049479 0.050130 0.050781 0.051432 0.052083 0.052734 0.053385 0.054036 0.054688 0.055339 0.055990 0.056641 0.057292 0.057943 0.058594 0.059245 0.059896 0.060547 0.061198 0.061849 0.062500 0.063151 0.063802 0.064453 0.065104 0.065755 0.066406 0.067057 0.067708 0.068359 0.069010 0.069661 0.070312 0.070964 0.071615 0.072266 0.072917 0.073568 0.074219 0.074870 0.075521 0.076172 0.076823 0.077474 0.078125 0.078776 0.079427 0.080078 0.080729 0.081380 0.082031 0.082682 0.083333 0.083984 0.084635 0.085286 0.085938 0.086589 0.087240 0.087891 0.088542 0.089193 0.089844 0.090495 0.091146 0.091797 0.092448 0.093099 0.093750 0.094401 0.095052 0.095703 0.096354 0.097005 0.097656 0.098307 0.098958 0.099609 0.100260 0.100911 0.101562 0.102214 0.102865 0.103516 0.104167 0.104818 0.105469 0.106120 0.106771 0.107422 0.108073 0.108724 0.109375 0.110026 0.110677 0.111328 0.111979 0.112630 0.113281 0.113932 0.114583 0.115234 0.115885 0.116536 0.117188 0.117839 0.118490 0.119141 0.119792 0.120443 0.121094 0.121745 0.122396 0.123047 0.123698 0.124349 0.125000 0.125651 0.126302 0.126953 0.127604 0.128255 0.128906 0.129557 0.130208 0.130859 0.131510 0.132161 0.132812 0.133464 0.134115 0.134766 0.135417 0.136068 0.136719 0.137370 0.138021 0.138672 0.139323 0.139974 0.140625 0.141276 0.141927 0.142578 0.143229 0.143880 0.144531 0.145182 0.145833 0.146484 0.147135 0.147786 0.148438 0.149089 0.149740 0.150391 0.151042 0.151693 0.152344 0.152995 0.153646 0.154297 0.154948 0.155599 0.156250 0.156901 0.157552 0.158203 0.158854 0.159505 0.160156 0.160807 0.161458 0.162109 0.162760 0.163411 0.164062 0.164714 0.165365 0.166016 0.166667 0.167318 0.167969 0.168620 0.169271 0.169922 0.170573 0.171224 0.171875 0.172526 0.173177 0.173828 0.174479 0.175130 0.175781 0.176432 0.177083 0.177734 0.178385 0.179036 0.179688 0.180339 0.180990 0.181641 0.182292 0.182943 0.183594 0.184245 0.184896 0.185547 0.186198 0.186849 0.187500 0.188151 0.188802 0.189453 0.190104 0.190755 0.191406 0.192057 0.192708 0.193359 0.194010 0.194661 0.195312 0.195964 0.196615 0.197266 0.197917 0.198568 0.199219 0.199870 0.200521 0.201172 0.201823 0.202474 0.203125 0.203776 0.204427 0.205078 0.205729 0.206380 0.207031 0.207682 0.208333 0.208984 0.209635 0.210286 0.210938 0.211589 0.212240 0.212891 0.213542 0.214193 0.214844 0.215495 0.216146 0.216797 0.217448 0.218099 0.218750 0.219401 0.220052 0.220703 0.221354 0.222005 0.222656 0.223307 0.223958 0.224609 0.225260 0.225911 0.226562 0.227214 0.227865 0.228516 0.229167 0.229818 0.230469 0.231120 0.231771 0.232422 0.233073 0.233724 0.234375 0.235026 0.235677
       0.35007        0.35007        0.35007        0.35007        0.35007        0.35007        0.35007        0.35007        0.35007        0.35007        0.35007        0.35007        0.35007        0.35007        0.35007        0.35007        0.35007        0.35007        0.35007        0.35007        0.35007        0.35007        0.35007        0.35007        0.35007        0.35007        0.35007        0.35007        0.35007        0.35007        0.35007        0.35007        0.35007        0.35007        0.35007        0.35007        0.35007        0.35007        0.35007        0.35007        0.35007        0.35007        0.35007        0.35007        0.35007        0.35007        0.35007        0.35007        0.35007        0.35007        0.35007        0.47490        0.68533        0.36867        0.19228       -0.03612       -0.24319       -0.05401       -0.13644       -0.11509        0.01257       -0.10876       -0.11516       -0.04504       -0.03019       -0.12926       -0.16181       -0.30307       -0.46924       -0.55506       -0.51585       -0.43299       -0.32982       -0.50993       -0.38562       -0.51323       -0.42238       -0.44689       -0.31980       -0.29928       -0.28322       -0.18168       -0.10635       -0.08916        0.05208        0.02436        0.18703        0.17286        0.31810        0.39635        0.51609        0.54051        0.56220        0.59603        0.73686        0.64623        0.63571        0.55180        0.53678        0.61840        0.50690        0.48542        0.41512        0.31838        0.28549        0.29724        0.25314        0.13492        0.13568        0.00798        0.06937        0.06942        0.04002        0.09250        0.13052        0.21881        0.28915        0.29650        0.36096        0.49902        0.51782        0.53813        0.65736        0.63279        0.60959        0.64049        0.62645        0.50174        0.50183        0.40169        0.35817        0.28184        0.21980        0.18603        0.16521        0.13330        0.19562        0.20454        0.24210        0.25358        0.32570        0.37751        0.39630        0.49406        0.53877        0.55604        0.52639        0.59854        0.51776        0.49201        0.50173        0.38345        0.32186        0.29090        0.28994        0.21241        0.23231        0.21526        0.22558        0.23984        0.32249        0.37444        0.41520        0.44171        0.44607        0.47140        0.44365        0.48229        0.41996        0.38407        0.34944        0.38920        0.36007        0.34481        0.25974        0.31009        0.26603        0.26872        0.28487        0.36394        0.37875        0.41890        0.43856        0.46313        0.43696        0.43342        0.46955        0.36673        0.35618        0.34569        0.29866        0.34247        0.28827        0.32298        0.33313        0.32587        0.37146        0.41056        0.39086        0.43354        0.38743        0.41363        0.38454        0.41016        0.31275        0.30921        0.28359        0.25017        0.31620        0.34496        0.36131        0.36323        0.38364        0.39022        0.36560        0.43667        0.40037        0.37285        0.36203        0.31785        0.28771        0.31232        0.31543        0.36640        0.33150        0.35442        0.34179        0.39790        0.38208        0.37244        0.38475        0.38437        0.35406        0.31928        0.35193        0.34041        0.34862        0.31584        0.36254        0.36846        0.33579        0.33963        0.36246        0.33113        0.29202        0.30451        0.30680        0.31980        0.31420        0.35603        0.32939        0.33123        0.33597        0.33151        0.32152        0.29937        0.31628        0.32118        0.30916        0.31317        0.32204        0.31510        0.34043        0.32400        0.38300        0.37882        0.33586        0.37382        0.31929        0.26044        0.28922        0.33260        0.33270        0.30393        0.34187        0.32452        0.31817        0.34588        0.35937        0.33710        0.31092        0.29170        0.34266        0.36536        0.37521        0.30391        0.31080        0.28865        0.26083        0.26301        0.33013        0.31651        0.31292        0.30362        0.29403        0.29028        0.33997        0.36684        0.35374        0.30502        0.32574        0.33049        0.34857        0.38920        0.32860        0.33324        0.32959        0.35195        0.32233        0.32128        0.33277        0.26474        0.29523        0.32850        0.30382        0.33437        0.30606        0.25662        0.24368        0.29440        0.29222        0.35793        0.31645        0.30798        0.27710        0.31906        0.33172        0.28570        0.28356        0.24974        0.28912        0.30879        0.35077        0.29119        0.31845        0.32343        0.29321        0.33547        0.26239        0.20951        0.20742        0.26297        0.24359        0.25524        0.21526        0.20774        0.34767        0.31486        0.25249        0.24534        0.19803        0.27658        0.37269        0.22602        0.10132        0.18137        0.15454        0.17716        0.25453        0.13019        0.10538       -0.47292       -1.09111
2.775733 2.746097 2.716623 2.687309 2.658157 2.629166 2.600336 2.571668 2.543161 2.514815 2.486630 2.458607 2.430745 2.403044 2.375504 2.348126 2.320908 2.293852 2.266958 2.240224 2.213652 2.187241 2.160992 2.134903 2.108976 2.083210 2.057606 2.032163 2.006880 1.981760 1.956800 1.932002 1.907365 1.882889 1.858574 1.834421 1.810429 1.786598 1.762928 1.739420 1.716073 1.692887 1.669863 1.646999 1.624297 1.601757 1.579377 1.557159 1.535102 1.513206 1.491472 1.513226 1.868576 1.696272 1.118227 1.058078 0.497655 0.922833 0.598638 0.772376 0.877823 0.666319 0.611542 0.773299 0.743514 0.599588 0.570868 0.360588 0.052823 0.010997 -0.008706 -0.028838 0.328292 -0.063302 0.053558 -0.058529 -0.004235 -0.029843 0.091922 0.103148 0.114909 0.194851 0.309617 0.283842 0.452534 0.384325 0.625870 0.519544 0.763300 0.753626 0.927774 1.017013 0.954912 1.004447 1.136130 1.112495 1.053017 0.882622 0.871717 0.970017 0.815048 0.815621 0.659499 0.552732 0.496801 0.475746 0.457475 0.243010 0.271203 0.109600 0.063979 0.171370 0.041782 0.084757 0.171402 0.210009 0.319885 0.335016 0.414244 0.460596 0.620000 0.481420 0.745042 0.749718 0.616234 0.719100 0.690435 0.543737 0.436598 0.423104 0.285478 0.238427 0.087604 0.079069 -0.001062 -0.007540 -0.031846 0.038588 0.078001 0.071912 0.097373 0.220562 0.242255 0.290179 0.413453 0.418949 0.356793 0.452335 0.405445 0.322459 0.320601 0.283054 0.079797 0.080644 0.022078 -0.023411 -0.043305 -0.069689 -0.051123 -0.058308 -0.008613 0.084037 0.162310 0.204912 0.174317 0.207361 0.269626 0.221636 0.213002 0.209715 0.095943 0.088773 0.150911 0.060123 0.010373 -0.007469 0.029318 -0.034138 -0.005340 0.029539 0.110627 0.110509 0.151110 0.203736 0.229408 0.111778 0.202957 0.164323 0.097190 0.052467 0.011305 0.051831 -0.006666 0.013228 0.000877 0.046766 0.026577 0.100905 0.130459 0.080472 0.159868 0.089171 0.104358 0.121727 0.087925 -0.042990 -0.000757 -0.056688 -0.068273 0.019764 0.052426 0.079372 0.034808 0.107556 0.042057 0.114257 0.168544 0.067810 0.089236 0.080776 -0.053474 0.000419 0.004456 0.023960 0.073684 0.048774 0.037319 0.082920 0.088083 0.081195 0.099807 0.091342 0.077471 0.047063 0.033300 0.053104 0.032874 0.064862 0.016376 0.084654 0.048117 0.012918 0.039755 0.061853 -0.010585 -0.052611 0.009773 -0.031463 -0.013991 -0.009414 0.049498 0.013565 -0.002435 0.026949 0.007879 0.008853 -0.010452 -0.008598 -0.008171 0.017032 -0.009585 0.003768 -0.021634 0.040386 0.024594 0.103551 0.077175 0.052801 0.071089 -0.007120 -0.087099 0.000980 0.028890 0.046415 -0.006251 0.048161 0.005421 0.005113 0.043384 0.053394 0.036732 -0.055589 -0.006151 0.056486 0.048680 0.061561 -0.038378 -0.008473 -0.035992 -0.062019 -0.052494 0.012073 0.038618 -0.014803 0.003812 -0.039599 -0.030732 0.016489 0.099100 -0.029314 0.015614 -0.046546 0.025633 0.029101 0.072819 -0.019275 -0.030438 0.020603 -0.011671 -0.048480 -0.044778 -0.015502 -0.120269 -0.053081 -0.021808 -0.038629 -0.015288 -0.107049 -0.086411 -0.080427 -0.035828 -0.130314 0.062103 -0.052496 -0.013562 -0.064843 -0.003988 0.028322 -0.040745 -0.024498 -0.105554 0.028623 0.005589 0.085495 -0.033321 0.035304 0.065735 0.006704 0.136784 -0.019477 -0.075782 -0.047720 0.027893 0.009974 0.058794 -0.015146 -0.025691 0.178620 0.126589 0.093899 0.029920 0.027962 0.091240 0.296901 0.434966 0.104191 0.223347 0.243221 0.160825 0.332890 0.099646 0.135994 -1.370325
0.072396 0.072908 0.074442 0.077000 0.080579 0.085180 0.090801 0.097439 0.105094 0.113762 0.123439 0.134121 0.145803 0.158478 0.172137 0.186771 0.202368 0.218915 0.236397 0.254795 0.274087 0.294251 0.315258 0.337078 0.359676 0.383012 0.407044 0.431723 0.456996 0.482803 0.509081 0.535760 0.562762 0.590005 0.617400 0.644850 0.672252 0.699496 0.726465 0.753034 0.779072 0.804440 0.828995 0.852583 0.875048 0.896227 0.915949 0.934044 0.950332 0.964636 0.976772 0.986558 0.993811 0.998350 0.999997 0.998577 0.993925 0.985880 0.974293 0.959026 0.939957 0.916977 0.889999 0.858954 0.823798 0.784512 0.741103 0.693610 0.642104 0.586690 0.527508 0.464738 0.398597 0.329344 0.257278 0.182742 0.106118 0.027833 0.051648 0.131820 0.212140 0.292030 0.370884 0.448063 0.522909 0.594746 0.662884 0.726631 0.785295 0.838195 0.884669 0.924082 0.955838 0.979385 0.994230 0.999945 0.996179 0.982670 0.959248 0.925849 0.882523 0.829435 0.766881 0.695281 0.615192 0.527303 0.432433 0.331536 0.225685 0.116073 0.003999 0.109146 0.221890 0.332701 0.440007 0.542217 0.637744 0.725033 0.802592 0.869009 0.922995 0.963401 0.989254 0.999778 0.994425 0.972894 0.935150 0.881441 0.812310 0.728599 0.631448 0.522293 0.402853 0.275105 0.141267 0.003756 0.134842 0.271826 0.404426 0.529863 0.645405 0.748431 0.836497 0.907398 0.959231 0.990454 0.999940 0.987023 0.951537 0.893846 0.814853 0.716016 0.599321 0.467272 0.322838 0.169403 0.010695 0.149299 0.306429 0.456489 0.595330 0.718980 0.823764 0.906419 0.964214 0.995047 0.997536 0.971093 0.915974 0.833307 0.725095 0.594188 0.444229 0.279567 0.105155 0.073604 0.251004 0.421220 0.578500 0.717364 0.832809 0.920492 0.976922 0.999607 0.987191 0.939543 0.857807 0.744413 0.603034 0.438487 0.256603 0.064028 0.132003 0.323926 0.504143 0.665324 0.800717 0.904448 0.971788 0.999406 0.985549 0.930175 0.835020 0.703580 0.541022 0.354010 0.150457 0.060782 0.270290 0.468503 0.646144 0.794677 0.906726 0.976475 0.999999 0.975514 0.903541 0.786953 0.630905 0.442658 0.231260 0.007161 0.218304 0.433470 0.626949 0.788242 0.908335 0.980237 0.999413 0.964124 0.875601 0.738072 0.558611 0.346830 0.114388 0.125602 0.359318 0.573001 0.753793 0.890523 0.974436 0.999797 0.964332 0.869469 0.720358 0.525655 0.297072 0.048720 0.203736 0.444046 0.656428 0.826613 0.942848 0.996747 0.983953 0.904547 0.763164 0.568803 0.334315 0.075613 0.189388 0.441966 0.663930 0.838955 0.953815 0.999430 0.971665 0.871755 0.706358 0.487203 0.230316 0.045086 0.318015 0.567277 0.773143 0.918942 0.992473 0.987085 0.902359 0.744309 0.525035 0.261900 0.023799 0.308503 0.568320 0.781042 0.928082 0.996162 0.978589 0.876008 0.696509 0.455108 0.172576 0.126297 0.414813 0.666769 0.858851 0.972841 0.997437 0.929462 0.774353 0.545854 0.264897 0.042228 0.346277 0.617837 0.830166 0.961893 0.999258 0.937645 0.782252 0.547798 0.257236 0.060397 0.372828 0.647807 0.856461 0.976392 0.994173 0.906973 0.723088 0.461303 0.149075 0.180230 0.490882 0.748639 0.924582 0.998438 0.961032 0.815563 0.577502 0.273090 0.063442 0.393650 0.679249 0.886581 0.990671 0.978339 0.850029 0.620020 0.315018 0.028840 0.370172 0.667291 0.883351 0.990981 0.975888 0.838911 0.596213 0.277554 0.077227 0.423119 0.715606 0.916452 0.998799 0.950900 0.777966 0.501805 0.158256 0.207351 0.546081 0.811967 0.968311
1.000000 1.000000 1.000000 1.000000 1.000000 1.000000 1.000000 1.000000 1.000000 1.000000 1.000000 1.000000 1.000000 1.000000 1.000000 1.000000 1.000000 1.000000 1.000000 1.000000 1.000000 1.000000 1.000000 1.000000 1.000000 1.000000 1.000000 1.000000 1.000000 1.000000 1.000000 1.000000 1.000000 1.000000 1.000000 1.000000 1.000000 1.000000 1.000000 1.000000 1.000000 1.000000 1.000000 1.000000 1.000000 1.000000 1.000000 1.000000 1.000000 1.000000 1.000000 1.000000 0.906059 0.906059 0.906059 0.889830 0.889830 0.889830 0.889830 0.889830 0.889830 0.889830 0.889830 0.889830 0.889830 0.889830 0.889830 0.889830 0.889830 0.889830 0.889830 0.889830 0.889830 0.889830 0.889830 0.889830 0.889830 0.889830 0.889830 0.889830 0.889830 0.889830 0.889830 0.889830 0.889830 0.889830 0.889830 0.889830 0.889830 0.889830 0.889830 0.889830 0.889830 0.889830 0.889830 0.889830 0.895254 0.897532 0.898917 0.901579 0.902967 0.902359 0.901769 0.901412 0.901880 0.903002 0.913563 0.924911 0.936704 0.952345 0.957572 0.963444 0.965260 0.965562 0.971830 0.977281 0.975861 0.975271 0.975613 0.976890 0.978672 0.976162 0.976382 0.976253 0.979422 0.979818 0.976731 0.975419 0.974660 0.973942 0.973949 0.973489 0.973606 0.974450 0.974917 0.975321 0.975616 0.975773 0.974327 0.972759 0.968127 0.968458 0.968223 0.967509 0.964380 0.960379 0.960067 0.957039 0.957114 0.957347 0.957718 0.958132 0.957080 0.957309 0.939826 0.938902 0.938264 0.935219 0.932472 0.931877 0.930041 0.932085 0.930568 0.918510 0.908379 0.882768 0.875598 0.862336 0.855497 0.848823 0.852970 0.852110 0.853371 0.850455 0.845181 0.844721 0.840758 0.844792 0.843604 0.840684 0.839330 0.838624 0.828726 0.830841 0.824562 0.815965 0.791195 0.798492 0.798119 0.798528 0.798625 0.792222 0.798626 0.791815 0.788504 0.783360 0.777153 0.769282 0.755935 0.761870 0.774578 0.779368 0.777276 0.763531 0.773741 0.762279 0.763044 0.768845 0.756357 0.756315 0.748450 0.707914 0.703560 0.715609 0.716130 0.714726 0.710446 0.702843 0.688961 0.685885 0.682923 0.668172 0.650616 0.654778 0.651184 0.680000 0.675994 0.670871 0.655215 0.643345 0.646590 0.609223 0.620997 0.627358 0.598958 0.597684 0.581980 0.580014 0.586590 0.589982 0.585702 0.604605 0.599963 0.583632 0.595783 0.585669 0.581645 0.566236 0.558969 0.570773 0.552415 0.530015 0.537734 0.529287 0.532879 0.504810 0.484729 0.476422 0.434534 0.425557 0.395650 0.363279 0.347806 0.317717 0.262012 0.246361 0.266138 0.248523 0.235742 0.228011 0.194083 0.204495 0.179161 0.170137 0.178624 0.146732 0.128550 0.108575 0.088276 0.114016 0.133798 0.141622 0.128149 0.123921 0.156313 0.160585 0.147517 0.134732 0.123453 0.127724 0.104212 0.069663 0.046054 0.015502 0.011991 -0.041179 -0.034986 -0.038493 -0.039425 -0.056378 -0.070930 -0.066956 -0.054292 -0.067268 -0.082445 -0.094741 -0.096474 -0.106856 -0.091630 -0.080409 -0.074979 -0.079994 -0.044761 -0.014697 -0.011002 -0.025127 -0.033858 -0.072605 -0.062579 -0.042110 0.016220 0.035714 0.039350 0.108550 0.104422 0.092736 0.086781 0.096030 0.074815 0.118441 0.129905 0.129641 0.122600 0.038883 0.027210 0.027210 0.027210 0.026185 0.026185 0.026185 0.026185 0.026185 0.026185 0.026185 0.026185 0.026185 0.013768 0.013768 0.013768 0.013768 0.013768 0.013768 0.013768 0.013768 0.013768 0.013768 0.013768 0.013768 0.013768 0.013768 0.013768 0.013768 0.013768
0.000000 0.000000 0.000000 0.000000 0.000000 0.000000 0.000000 0.000000 0.000000 0.000000 0.000000 0.000000 0.000000 0.000000 0.000000 0.000000 0.000000 0.000000 0.000000 0.000000 0.000000 0.000000 0.000000 0.000000 0.000000 0.000000 0.000000 0.000000 0.000000 0.000000 0.000000 0.000000 0.000000 0.000000 0.000000 0.000000 0.000000 0.000000 0.000000 0.000000 0.000000 0.000000 0.000000 0.000000 0.000000 0.000000 0.000000 0.000000 0.000000 0.000000 0.000000 0.000000 0.180334 0.180334 0.180334 0.199007 0.199007 0.199007 0.199007 0.199007 0.199007 0.199007 0.199007 0.199007 0.199007 0.199007 0.199007 0.199007 0.199007 0.199007 0.199007 0.199007 0.199007 0.199007 0.199007 0.199007 0.199007 0.199007 0.199007 0.199007 0.199007 0.199007 0.199007 0.199007 0.199007 0.199007 0.199007 0.199007 0.199007 0.199007 0.199007 0.199007 0.199007 0.199007 0.199007 0.199007 0.230940 0.230940 0.230940 0.230940 0.230940 0.230940 0.230940 0.230940 0.230940 0.230940 0.230940 0.230940 0.230940 0.230940 0.230940 0.230940 0.230940 0.230940 0.230940 0.230940 0.230940 0.230940 0.230940 0.230940 0.230940 0.230940 0.230940 0.230940 0.248069 0.248069 0.248069 0.248069 0.248069 0.248069 0.248069 0.248069 0.248069 0.248069 0.248069 0.248069 0.248069 0.248069 0.248069 0.248069 0.248069 0.248069 0.248069 0.248069 0.248069 0.248069 0.251976 0.251976 0.251976 0.251976 0.251976 0.251976 0.251976 0.251976 0.251976 0.251976 0.251976 0.251976 0.251976 0.251976 0.251976 0.251976 0.251976 0.251976 0.251976 0.251976 0.256074 0.256074 0.256074 0.256074 0.256074 0.256074 0.256074 0.256074 0.256074 0.256074 0.256074 0.256074 0.256074 0.256074 0.256074 0.256074 0.256074 0.256074 0.264906 0.264906 0.264906 0.264906 0.264906 0.264906 0.264906 0.264906 0.264906 0.264906 0.264906 0.264906 0.264906 0.264906 0.264906 0.264906 0.269680 0.269680 0.269680 0.269680 0.269680 0.269680 0.269680 0.269680 0.269680 0.269680 0.269680 0.269680 0.269680 0.269680 0.264906 0.264906 0.264906 0.264906 0.264906 0.264906 0.264906 0.264906 0.264906 0.264906 0.264906 0.264906 0.264906 0.264906 0.264906 0.264906 0.264906 0.264906 0.264906 0.264906 0.264906 0.264906 0.264906 0.264906 0.264906 0.264906 0.264906 0.260378 0.260378 0.260378 0.260378 0.260378 0.260378 0.260378 0.260378 0.260378 0.260378 0.260378 0.260378 0.260378 0.264906 0.264906 0.264906 0.264906 0.264906 0.264906 0.264906 0.264906 0.264906 0.264906 0.264906 0.264906 0.269680 0.269680 0.269680 0.269680 0.269680 0.269680 0.269680 0.269680 0.269680 0.269680 0.269680 0.264906 0.264906 0.264906 0.264906 0.264906 0.264906 0.264906 0.264906 0.264906 0.264906 0.264906 0.269680 0.269680 0.269680 0.269680 0.269680 0.269680 0.269680 0.269680 0.269680 0.269680 0.264906 0.264906 0.264906 0.264906 0.264906 0.264906 0.264906 0.264906 0.264906 0.264906 0.260378 0.260378 0.260378 0.260378 0.260378 0.260378 0.260378 0.260378 0.260378 0.260378 0.256074 0.256074 0.256074 0.256074 0.256074 0.256074 0.256074 0.256074 0.256074 0.256074 0.260378 0.260378 0.260378 0.260378 0.260378 0.260378 0.260378 0.260378 0.260378 0.256074 0.256074 0.256074 0.256074 0.256074 0.256074 0.256074 0.256074 0.256074 0.251976 0.251976 0.251976 0.251976 0.251976 0.251976 0.251976 0.251976 0.251976 0.251976 0.251976 0.251976 0.251976 0.251976 0.251976 0.251976 0.251976
