# Output from CTFFind version 4.1.9, run on 2019-11-03 19:42:22
# Input file: stack11_bm3d_averaged_1_4.75_0_2000_half.mrc ; Number of micrographs: 1
# Pixel size: 3.000 Angstroms ; acceleration voltage: 300.0 keV ; spherical aberration: 0.00 mm ; amplitude contrast: 0.07
# Box size: 512 pixels ; min. res.: 30.0 Angstroms ; max. res.: 5.0 Angstroms ; min. def.: 5000.0 um; max. def. 50000.0 um; num. frames averaged: 1
# 6 lines per micrograph: #1 - spatial frequency (1/Angstroms); #2 - 1D rotational average of spectrum (assuming no astigmatism); #3 - 1D rotational average of spectrum; #4 - CTF fit; #5 - cross-correlation between spectrum and CTF fit; #6 - 2sigma of expected cross correlation of noise
0.000000 0.000651 0.001302 0.001953 0.002604 0.003255 0.003906 0.004557 0.005208 0.005859 0.006510 0.007161 0.007812 0.008464 0.009115 0.009766 0.010417 0.011068 0.011719 0.012370 0.013021 0.013672 0.014323 0.014974 0.015625 0.016276 0.016927 0.017578 0.018229 0.018880 0.019531 0.020182 0.020833 0.021484 0.022135 0.022786 0.023438 0.024089 0.024740 0.025391 0.026042 0.026693 0.027344 0.027995 0.028646 0.029297 0.029948 0.030599 0.031250 0.031901 0.032552 0.033203 0.033854 0.034505 0.035156 0.035807 0.036458 0.037109 0.037760 0.038411 0.039062 0.039714 0.040365 0.041016 0.041667 0.042318 0.042969 0.043620 0.044271 0.044922 0.045573 0.046224 0.046875 0.047526 0.048177 0.048828 0.049479 0.050130 0.050781 0.051432 0.052083 0.052734 0.053385 0.054036 0.054688 0.055339 0.055990 0.056641 0.057292 0.057943 0.058594 0.059245 0.059896 0.060547 0.061198 0.061849 0.062500 0.063151 0.063802 0.064453 0.065104 0.065755 0.066406 0.067057 0.067708 0.068359 0.069010 0.069661 0.070312 0.070964 0.071615 0.072266 0.072917 0.073568 0.074219 0.074870 0.075521 0.076172 0.076823 0.077474 0.078125 0.078776 0.079427 0.080078 0.080729 0.081380 0.082031 0.082682 0.083333 0.083984 0.084635 0.085286 0.085938 0.086589 0.087240 0.087891 0.088542 0.089193 0.089844 0.090495 0.091146 0.091797 0.092448 0.093099 0.093750 0.094401 0.095052 0.095703 0.096354 0.097005 0.097656 0.098307 0.098958 0.099609 0.100260 0.100911 0.101562 0.102214 0.102865 0.103516 0.104167 0.104818 0.105469 0.106120 0.106771 0.107422 0.108073 0.108724 0.109375 0.110026 0.110677 0.111328 0.111979 0.112630 0.113281 0.113932 0.114583 0.115234 0.115885 0.116536 0.117188 0.117839 0.118490 0.119141 0.119792 0.120443 0.121094 0.121745 0.122396 0.123047 0.123698 0.124349 0.125000 0.125651 0.126302 0.126953 0.127604 0.128255 0.128906 0.129557 0.130208 0.130859 0.131510 0.132161 0.132812 0.133464 0.134115 0.134766 0.135417 0.136068 0.136719 0.137370 0.138021 0.138672 0.139323 0.139974 0.140625 0.141276 0.141927 0.142578 0.143229 0.143880 0.144531 0.145182 0.145833 0.146484 0.147135 0.147786 0.148438 0.149089 0.149740 0.150391 0.151042 0.151693 0.152344 0.152995 0.153646 0.154297 0.154948 0.155599 0.156250 0.156901 0.157552 0.158203 0.158854 0.159505 0.160156 0.160807 0.161458 0.162109 0.162760 0.163411 0.164062 0.164714 0.165365 0.166016 0.166667 0.167318 0.167969 0.168620 0.169271 0.169922 0.170573 0.171224 0.171875 0.172526 0.173177 0.173828 0.174479 0.175130 0.175781 0.176432 0.177083 0.177734 0.178385 0.179036 0.179688 0.180339 0.180990 0.181641 0.182292 0.182943 0.183594 0.184245 0.184896 0.185547 0.186198 0.186849 0.187500 0.188151 0.188802 0.189453 0.190104 0.190755 0.191406 0.192057 0.192708 0.193359 0.194010 0.194661 0.195312 0.195964 0.196615 0.197266 0.197917 0.198568 0.199219 0.199870 0.200521 0.201172 0.201823 0.202474 0.203125 0.203776 0.204427 0.205078 0.205729 0.206380 0.207031 0.207682 0.208333 0.208984 0.209635 0.210286 0.210938 0.211589 0.212240 0.212891 0.213542 0.214193 0.214844 0.215495 0.216146 0.216797 0.217448 0.218099 0.218750 0.219401 0.220052 0.220703 0.221354 0.222005 0.222656 0.223307 0.223958 0.224609 0.225260 0.225911 0.226562 0.227214 0.227865 0.228516 0.229167 0.229818 0.230469 0.231120 0.231771 0.232422 0.233073 0.233724 0.234375 0.235026 0.235677
       0.33697        0.33697        0.33697        0.33697        0.33697        0.33697        0.33697        0.33697        0.33697        0.33697        0.33697        0.33697        0.33697        0.33697        0.33697        0.33697        0.33697        0.33697        0.33697        0.33697        0.33697        0.33697        0.33697        0.33697        0.33697        0.33697        0.33697        0.33697        0.33697        0.33697        0.33697        0.33697        0.33697        0.33697        0.33697        0.33697        0.33697        0.33697        0.33697        0.33697        0.33697        0.33697        0.33697        0.33697        0.33697        0.33697        0.33697        0.33697        0.33697        0.33697        0.33697        0.69425        0.85922        0.53362        0.10374       -0.03311       -0.39720       -0.18376       -0.28903       -0.11397       -0.05754       -0.11095       -0.05457       -0.17658       -0.21132       -0.22450       -0.31298       -0.32446       -0.45291       -0.36595       -0.43436       -0.42906       -0.40194       -0.42414       -0.46784       -0.51898       -0.56296       -0.56733       -0.54044       -0.36926       -0.34210       -0.30335       -0.28284       -0.19130       -0.17989        0.05203        0.12921        0.16034        0.25509        0.37881        0.45500        0.51981        0.58804        0.58615        0.57639        0.69575        0.80517        0.71029        0.74031        0.62906        0.56746        0.48234        0.42473        0.50882        0.39181        0.25206        0.10733        0.09606        0.07327       -0.02801        0.02202        0.03566       -0.00857        0.01783        0.01310        0.23661        0.26710        0.29274        0.42844        0.45015        0.40986        0.58168        0.62595        0.65177        0.73192        0.67969        0.64999        0.66690        0.56385        0.46768        0.41804        0.29896        0.24884        0.17264        0.13127        0.05321        0.05013        0.05440        0.09142        0.14896        0.23568        0.28439        0.40711        0.45792        0.48339        0.57786        0.60959        0.63758        0.62065        0.56171        0.45652        0.46928        0.37524        0.26156        0.20240        0.15715        0.16117        0.14493        0.13963        0.16706        0.30198        0.31425        0.39124        0.43003        0.42878        0.49196        0.55626        0.55220        0.49271        0.45327        0.40600        0.35791        0.32847        0.29433        0.24303        0.23629        0.22943        0.24200        0.21723        0.30232        0.35990        0.38776        0.43932        0.45565        0.47234        0.42402        0.40226        0.40283        0.35933        0.31347        0.27019        0.26143        0.25808        0.22698        0.27606        0.27751        0.34393        0.37482        0.41521        0.47497        0.41381        0.42663        0.43171        0.40520        0.34470        0.32195        0.29133        0.31094        0.26755        0.30792        0.30220        0.32136        0.32908        0.35277        0.31771        0.39730        0.41611        0.37829        0.34484        0.37123        0.31023        0.28848        0.29387        0.31902        0.30001        0.31250        0.32967        0.34260        0.34030        0.36757        0.36924        0.40142        0.37855        0.32898        0.33640        0.29370        0.28031        0.31973        0.31462        0.32454        0.33236        0.32941        0.37196        0.32703        0.32715        0.32784        0.33312        0.29918        0.30742        0.27160        0.29811        0.31989        0.30119        0.32195        0.34325        0.35005        0.28604        0.32217        0.28939        0.30106        0.27971        0.23952        0.29471        0.29615        0.34118        0.33261        0.33194        0.32251        0.34523        0.30559        0.34208        0.31821        0.30469        0.27704        0.32489        0.31057        0.35498        0.32283        0.33397        0.34179        0.29460        0.27428        0.30952        0.24510        0.22338        0.33180        0.31724        0.34677        0.33395        0.34921        0.32089        0.34046        0.34222        0.26224        0.24802        0.30684        0.30350        0.30701        0.31973        0.33850        0.33334        0.30012        0.29159        0.34068        0.31708        0.29902        0.27619        0.31984        0.34690        0.39372        0.33419        0.29826        0.27572        0.30419        0.27535        0.29162        0.26756        0.25244        0.31091        0.33281        0.34419        0.34785        0.31388        0.28303        0.29204        0.25906        0.26415        0.24721        0.31662        0.27907        0.22819        0.31659        0.31026        0.26561        0.28716        0.20875        0.21443        0.25274        0.18673        0.25180        0.31598        0.23560        0.21596        0.31113        0.32472        0.32236        0.31873        0.25610        0.22542        0.18450        0.21656        0.19061        0.21098        0.21897        0.26136        0.30790        0.28448        0.21754        0.11019        0.06221       -0.01359       -0.09924       -0.61454
2.720921 2.692112 2.663460 2.634965 2.606628 2.578448 2.550425 2.522560 2.494852 2.467301 2.439908 2.412672 2.385594 2.358673 2.331909 2.305303 2.278854 2.252562 2.226428 2.200451 2.174631 2.148969 2.123465 2.098117 2.072927 2.047894 2.023019 1.998301 1.973741 1.949337 1.925092 1.901003 1.877072 1.853298 1.829682 1.806223 1.782921 1.759777 1.736790 1.713961 1.691288 1.668774 1.646416 1.624216 1.602173 1.580288 1.558560 1.536990 1.515576 1.494320 1.473222 1.689172 2.105650 1.668788 1.168592 1.034824 0.440753 0.839915 0.559356 0.840514 0.800913 0.810860 0.754340 0.737945 0.588193 0.547681 0.494989 0.428091 0.241298 0.369509 0.201602 0.324683 0.223667 0.200708 0.173580 0.038567 0.017914 0.016091 -0.066958 0.128050 0.226382 0.186729 0.170975 0.329453 0.184597 0.510783 0.614997 0.613212 0.631019 0.869700 0.826136 0.935770 0.914621 1.013024 0.978525 1.071255 1.156210 1.039594 1.145627 0.910471 0.923146 0.787208 0.646325 0.792740 0.697804 0.477284 0.327914 0.249430 0.257282 0.147774 0.121954 0.156627 0.103756 0.127715 0.071817 0.254681 0.360594 0.343220 0.469583 0.545920 0.420103 0.580568 0.720058 0.675026 0.739053 0.701955 0.718664 0.657939 0.598391 0.509346 0.379439 0.277199 0.220349 0.081933 0.120752 -0.085879 -0.044399 -0.059759 -0.071589 -0.018728 0.141027 0.069146 0.242331 0.304626 0.338684 0.395103 0.502424 0.478198 0.482632 0.492998 0.308540 0.292755 0.283892 0.087134 0.043723 -0.065598 -0.008415 -0.059492 -0.089314 -0.085665 0.037207 0.080297 0.122838 0.210950 0.228935 0.244984 0.290953 0.436359 0.390207 0.266970 0.240627 0.220960 0.151678 0.143473 0.113167 0.002959 0.019498 0.064396 -0.000079 0.061445 0.144435 0.148036 0.235130 0.246660 0.286397 0.181988 0.215996 0.145952 0.169265 0.116328 0.050026 -0.005939 0.012218 -0.001745 -0.043473 0.060624 0.024510 0.124885 0.151114 0.190080 0.193365 0.158054 0.159575 0.177675 0.127583 0.059546 0.001615 0.053015 0.025007 -0.017958 0.034327 0.039879 0.057550 0.050650 0.062592 0.075703 0.129470 0.151352 0.055902 0.056461 0.055550 0.015467 -0.024048 0.015399 0.021937 0.006096 0.015323 0.043770 0.059116 0.054069 0.091297 0.061611 0.141273 0.060141 0.027643 0.038413 -0.033105 0.003010 0.042410 0.003717 0.036948 0.050393 0.022347 0.116781 0.030758 0.007325 0.055065 0.004590 0.014577 0.004930 -0.022059 0.028261 0.007864 0.006680 0.056579 0.056541 0.051855 0.033769 0.035627 0.034573 0.024803 -0.013021 -0.024518 0.032219 0.053484 0.083086 0.086486 0.062524 0.078182 0.117021 0.057294 0.116125 0.089387 0.037062 0.038928 0.102346 0.074895 0.116272 0.096332 0.070184 0.134835 0.059739 0.021094 0.097633 -0.026518 -0.003036 0.110926 0.059240 0.149467 0.092829 0.104273 0.048985 0.095408 0.093172 -0.011644 -0.028883 0.059934 0.070245 0.039151 0.045899 0.106648 0.070061 0.002917 0.049394 0.071049 0.056836 0.047191 -0.020405 0.074511 0.083559 0.134403 0.024449 0.010921 -0.021574 0.014019 -0.022121 0.004414 -0.043489 -0.033595 0.012052 0.047772 0.018256 0.035681 -0.010523 -0.037090 -0.043916 -0.030909 -0.072159 -0.064083 0.006093 0.012005 -0.096295 0.017835 -0.027936 -0.064337 0.006354 -0.129781 -0.076422 -0.079036 -0.177066 -0.035087 0.045336 -0.045027 -0.151467 0.048935 0.082288 -0.031183 0.075610 -0.042069 0.244923 0.151017 0.227438 0.242134 0.240412 0.233349 0.294667 0.297511 0.323983 0.197779 0.197517 0.089454 -0.019103 -0.664636
0.072396 0.072899 0.074407 0.076919 0.080436 0.084956 0.090478 0.097001 0.104522 0.113038 0.122546 0.133043 0.144521 0.156976 0.170400 0.184782 0.200112 0.216378 0.233564 0.251653 0.270625 0.290457 0.311123 0.332594 0.354836 0.377813 0.401482 0.425798 0.450711 0.476164 0.502096 0.528440 0.555123 0.582067 0.609186 0.636388 0.663575 0.690642 0.717477 0.743960 0.769968 0.795366 0.820016 0.843773 0.866486 0.887998 0.908145 0.926762 0.943678 0.958718 0.971707 0.982465 0.990815 0.996580 0.999585 0.999659 0.996634 0.990352 0.980663 0.967427 0.950515 0.929815 0.905231 0.876686 0.844122 0.807508 0.766836 0.722126 0.673428 0.620825 0.564432 0.504400 0.440918 0.374212 0.304550 0.232236 0.157619 0.081084 0.003060 0.075988 0.155556 0.235106 0.314066 0.391835 0.467788 0.541277 0.611640 0.678204 0.740295 0.797240 0.848380 0.893075 0.930713 0.960721 0.982573 0.995797 0.999990 0.994823 0.980052 0.955528 0.921202 0.877134 0.823503 0.760607 0.688870 0.608843 0.521209 0.426775 0.326476 0.221366 0.112609 0.001474 0.110681 0.222423 0.332259 0.438657 0.540067 0.634947 0.721779 0.799106 0.865552 0.919853 0.960881 0.987676 0.999466 0.995697 0.976051 0.940466 0.889152 0.822603 0.741597 0.647208 0.540789 0.423972 0.298642 0.166920 0.031128 0.106246 0.242590 0.375217 0.501417 0.618512 0.723919 0.815212 0.890175 0.946874 0.983705 0.999452 0.993331 0.965032 0.914748 0.843191 0.751606 0.641756 0.515911 0.376808 0.227605 0.071817 0.086758 0.244129 0.396208 0.538919 0.668308 0.780658 0.872606 0.941250 0.984258 0.999951 0.987391 0.946429 0.877753 0.782893 0.664217 0.524885 0.368790 0.200459 0.024934 0.152364 0.325806 0.489727 0.638614 0.767303 0.871161 0.946272 0.989601 0.999134 0.973987 0.914484 0.822189 0.699898 0.551578 0.382267 0.197917 0.005209 0.188685 0.376358 0.550455 0.703964 0.830512 0.924643 0.982076 0.999922 0.976856 0.913226 0.811095 0.674216 0.507929 0.318970 0.115245 0.094507 0.301062 0.495119 0.667723 0.810689 0.917010 0.981225 0.999733 0.971019 0.895805 0.777077 0.620022 0.431835 0.221423 0.000987 0.224331 0.437245 0.628650 0.788341 0.907549 0.979450 0.999601 0.966245 0.880494 0.746352 0.570582 0.362416 0.133099 0.104683 0.337496 0.551901 0.735252 0.876451 0.966661 0.999895 0.973460 0.888221 0.748645 0.562631 0.341119 0.097485 0.153229 0.395228 0.612964 0.792138 0.920677 0.989582 0.993617 0.931755 0.807369 0.628118 0.405547 0.154399 0.108341 0.364531 0.596165 0.786614 0.921881 0.991655 0.990169 0.916736 0.775937 0.577415 0.335288 0.067202 0.206903 0.466280 0.690922 0.863138 0.968999 0.999518 0.951487 0.827876 0.637758 0.395716 0.120808 0.164890 0.438032 0.675891 0.858301 0.969390 0.999044 0.943907 0.807832 0.601718 0.342736 0.052970 0.242402 0.517296 0.747003 0.910464 0.992257 0.984136 0.885957 0.705875 0.459788 0.170019 0.136641 0.431356 0.685964 0.875694 0.981629 0.992691 0.906893 0.731743 0.483717 0.186803 0.129724 0.434150 0.695493 0.886686 0.987443 0.986517 0.883066 0.686966 0.418002 0.103988 0.222033 0.525226 0.772694 0.937082 0.999700 0.952759 0.800467 0.558803 0.253988 0.080259 0.406390 0.687226 0.890224 0.991329 0.977947 0.850639 0.623331 0.321946 0.018433 0.357565 0.654783 0.873884 0.987636 0.981271 0.854549 0.622091 0.311839 0.038152 0.384308 0.682929 0.895732 0.994864 0.966664 0.813722 0.554851 0.222937 0.139078
1.000000 1.000000 1.000000 1.000000 1.000000 1.000000 1.000000 1.000000 1.000000 1.000000 1.000000 1.000000 1.000000 1.000000 1.000000 1.000000 1.000000 1.000000 1.000000 1.000000 1.000000 1.000000 1.000000 1.000000 1.000000 1.000000 1.000000 1.000000 1.000000 1.000000 1.000000 1.000000 1.000000 1.000000 1.000000 1.000000 1.000000 1.000000 1.000000 1.000000 1.000000 1.000000 1.000000 1.000000 1.000000 1.000000 1.000000 1.000000 1.000000 1.000000 1.000000 1.000000 0.919911 0.919911 0.919911 0.912046 0.912046 0.912046 0.912046 0.912046 0.912046 0.912046 0.912046 0.912046 0.912046 0.912046 0.912046 0.912046 0.912046 0.912046 0.912046 0.912046 0.912046 0.912046 0.912046 0.912046 0.912046 0.912046 0.912046 0.912046 0.912046 0.912046 0.912046 0.912046 0.912046 0.912046 0.912046 0.912046 0.912046 0.912046 0.912046 0.912046 0.912046 0.912046 0.912046 0.912046 0.941272 0.942729 0.950884 0.950543 0.949938 0.947831 0.946665 0.946300 0.946191 0.946517 0.947222 0.948186 0.954454 0.955683 0.960138 0.961793 0.962536 0.963174 0.963817 0.963395 0.954649 0.954450 0.953090 0.952498 0.955025 0.954041 0.953224 0.954191 0.954064 0.954856 0.954754 0.954037 0.952927 0.951806 0.950843 0.950414 0.950197 0.950932 0.951350 0.952841 0.956165 0.956740 0.956866 0.957022 0.957122 0.958418 0.957304 0.956836 0.952863 0.953075 0.952645 0.952898 0.956434 0.956383 0.956941 0.957503 0.959086 0.959375 0.951528 0.949368 0.940215 0.937737 0.933785 0.928008 0.923570 0.925414 0.926788 0.927601 0.928090 0.923475 0.923270 0.920737 0.918586 0.921184 0.920532 0.921285 0.922671 0.921317 0.920393 0.919603 0.917636 0.909601 0.897359 0.896400 0.896738 0.901430 0.902715 0.901724 0.904104 0.892280 0.875914 0.859748 0.861658 0.865160 0.856060 0.853473 0.854024 0.854864 0.858440 0.851100 0.848278 0.844237 0.834538 0.826514 0.820102 0.813085 0.816451 0.811882 0.802206 0.800047 0.809531 0.803034 0.817670 0.822730 0.821593 0.820695 0.817518 0.811743 0.788730 0.787502 0.774883 0.753856 0.754327 0.752546 0.751131 0.748696 0.755246 0.745081 0.742152 0.726357 0.725899 0.729624 0.732194 0.730948 0.725920 0.729193 0.733945 0.715957 0.704111 0.692345 0.696556 0.699566 0.699158 0.697264 0.673650 0.642202 0.620477 0.640059 0.644570 0.613813 0.638060 0.651546 0.631929 0.629028 0.620255 0.622942 0.615332 0.618985 0.619334 0.620985 0.623615 0.638566 0.626541 0.621724 0.629738 0.631815 0.643713 0.641941 0.643009 0.612059 0.611606 0.633876 0.637474 0.619971 0.633352 0.621104 0.636982 0.672711 0.673476 0.644350 0.638466 0.617507 0.577020 0.567700 0.562557 0.573525 0.605228 0.589986 0.557513 0.532503 0.537284 0.553440 0.560119 0.562299 0.546368 0.554104 0.545910 0.522479 0.529148 0.540416 0.540938 0.529257 0.513771 0.523045 0.526241 0.546538 0.536299 0.494810 0.509995 0.506510 0.498631 0.440385 0.453911 0.438469 0.427038 0.381562 0.391304 0.401317 0.388762 0.316530 0.298085 0.298359 0.298255 0.294108 0.277306 0.252447 0.243350 0.218361 0.219414 0.207182 0.183358 0.180613 0.166587 0.155882 0.157335 0.123609 0.170132 0.231736 0.232975 0.232975 0.232975 0.232975 0.232975 0.232975 0.226205 0.226205 0.226205 0.226205 0.226205 0.226205 0.226205 0.226205 0.226205 0.249846 0.249846 0.249846 0.249846 0.249846 0.249846 0.249846 0.249846 0.249846 0.249846 0.249846 0.249846 0.249846 0.249846
0.000000 0.000000 0.000000 0.000000 0.000000 0.000000 0.000000 0.000000 0.000000 0.000000 0.000000 0.000000 0.000000 0.000000 0.000000 0.000000 0.000000 0.000000 0.000000 0.000000 0.000000 0.000000 0.000000 0.000000 0.000000 7.000000 4.000000 0.000000 0.000000 0.000000 0.000000 0.000000 0.000000 0.000000 0.000000 0.000000 0.000000 0.000000 0.000000 0.000000 0.000000 0.000000 0.000000 0.000000 0.000000 0.000000 0.000000 0.000000 0.000000 0.000000 0.000000 0.000000 0.180334 0.180334 0.180334 0.199007 0.199007 0.199007 0.199007 0.199007 0.199007 0.199007 0.199007 0.199007 0.199007 0.199007 0.199007 0.199007 0.199007 0.199007 0.199007 0.199007 0.199007 0.199007 0.199007 0.199007 0.199007 0.199007 0.199007 0.199007 0.199007 0.199007 0.199007 0.199007 0.199007 0.199007 0.199007 0.199007 0.199007 0.199007 0.199007 0.199007 0.199007 0.199007 0.199007 0.199007 0.225018 0.225018 0.225018 0.225018 0.225018 0.225018 0.225018 0.225018 0.225018 0.225018 0.225018 0.225018 0.225018 0.225018 0.225018 0.225018 0.225018 0.225018 0.225018 0.225018 0.225018 0.225018 0.225018 0.225018 0.225018 0.225018 0.225018 0.225018 0.225018 0.244339 0.244339 0.244339 0.244339 0.244339 0.244339 0.244339 0.244339 0.244339 0.244339 0.244339 0.244339 0.244339 0.244339 0.244339 0.244339 0.244339 0.244339 0.244339 0.244339 0.244339 0.244339 0.244339 0.251976 0.251976 0.251976 0.251976 0.251976 0.251976 0.251976 0.251976 0.251976 0.251976 0.251976 0.251976 0.251976 0.251976 0.251976 0.251976 0.251976 0.251976 0.251976 0.251976 0.264906 0.264906 0.264906 0.264906 0.264906 0.264906 0.264906 0.264906 0.264906 0.264906 0.264906 0.264906 0.264906 0.264906 0.264906 0.264906 0.264906 0.264906 0.264906 0.264906 0.264906 0.264906 0.264906 0.264906 0.264906 0.264906 0.264906 0.264906 0.264906 0.264906 0.264906 0.264906 0.264906 0.264906 0.264906 0.264906 0.264906 0.264906 0.264906 0.264906 0.264906 0.264906 0.264906 0.264906 0.264906 0.264906 0.264906 0.264906 0.264906 0.264906 0.264906 0.264906 0.264906 0.264906 0.264906 0.264906 0.264906 0.264906 0.264906 0.264906 0.264906 0.264906 0.256074 0.256074 0.256074 0.256074 0.256074 0.256074 0.256074 0.256074 0.256074 0.256074 0.256074 0.256074 0.256074 0.256074 0.269680 0.269680 0.269680 0.269680 0.269680 0.269680 0.269680 0.269680 0.269680 0.269680 0.269680 0.269680 0.264906 0.264906 0.264906 0.264906 0.264906 0.264906 0.264906 0.264906 0.264906 0.264906 0.264906 0.264906 0.269680 0.269680 0.269680 0.269680 0.269680 0.269680 0.269680 0.269680 0.269680 0.269680 0.269680 0.264906 0.264906 0.264906 0.264906 0.264906 0.264906 0.264906 0.264906 0.264906 0.264906 0.264906 0.256074 0.256074 0.256074 0.256074 0.256074 0.256074 0.256074 0.256074 0.256074 0.256074 0.256074 0.264906 0.264906 0.264906 0.264906 0.264906 0.264906 0.264906 0.264906 0.264906 0.264906 0.260378 0.260378 0.260378 0.260378 0.260378 0.260378 0.260378 0.260378 0.260378 0.260378 0.256074 0.256074 0.256074 0.256074 0.256074 0.256074 0.256074 0.256074 0.256074 0.256074 0.260378 0.260378 0.260378 0.260378 0.260378 0.260378 0.260378 0.260378 0.260378 0.256074 0.256074 0.256074 0.256074 0.256074 0.256074 0.256074 0.256074 0.256074 0.251976 0.251976 0.251976 0.251976 0.251976 0.251976 0.251976 0.251976 0.251976 0.251976 0.251976 0.251976 0.251976 0.251976
