# Output from CTFFind version 4.1.9, run on 2019-11-03 20:07:13
# Input file: stack11_bm3d_averaged_1_10_0_1250_half.mrc ; Number of micrographs: 1
# Pixel size: 3.000 Angstroms ; acceleration voltage: 300.0 keV ; spherical aberration: 0.00 mm ; amplitude contrast: 0.07
# Box size: 512 pixels ; min. res.: 30.0 Angstroms ; max. res.: 5.0 Angstroms ; min. def.: 5000.0 um; max. def. 50000.0 um; num. frames averaged: 1
# 6 lines per micrograph: #1 - spatial frequency (1/Angstroms); #2 - 1D rotational average of spectrum (assuming no astigmatism); #3 - 1D rotational average of spectrum; #4 - CTF fit; #5 - cross-correlation between spectrum and CTF fit; #6 - 2sigma of expected cross correlation of noise
0.000000 0.000651 0.001302 0.001953 0.002604 0.003255 0.003906 0.004557 0.005208 0.005859 0.006510 0.007161 0.007812 0.008464 0.009115 0.009766 0.010417 0.011068 0.011719 0.012370 0.013021 0.013672 0.014323 0.014974 0.015625 0.016276 0.016927 0.017578 0.018229 0.018880 0.019531 0.020182 0.020833 0.021484 0.022135 0.022786 0.023438 0.024089 0.024740 0.025391 0.026042 0.026693 0.027344 0.027995 0.028646 0.029297 0.029948 0.030599 0.031250 0.031901 0.032552 0.033203 0.033854 0.034505 0.035156 0.035807 0.036458 0.037109 0.037760 0.038411 0.039062 0.039714 0.040365 0.041016 0.041667 0.042318 0.042969 0.043620 0.044271 0.044922 0.045573 0.046224 0.046875 0.047526 0.048177 0.048828 0.049479 0.050130 0.050781 0.051432 0.052083 0.052734 0.053385 0.054036 0.054688 0.055339 0.055990 0.056641 0.057292 0.057943 0.058594 0.059245 0.059896 0.060547 0.061198 0.061849 0.062500 0.063151 0.063802 0.064453 0.065104 0.065755 0.066406 0.067057 0.067708 0.068359 0.069010 0.069661 0.070312 0.070964 0.071615 0.072266 0.072917 0.073568 0.074219 0.074870 0.075521 0.076172 0.076823 0.077474 0.078125 0.078776 0.079427 0.080078 0.080729 0.081380 0.082031 0.082682 0.083333 0.083984 0.084635 0.085286 0.085938 0.086589 0.087240 0.087891 0.088542 0.089193 0.089844 0.090495 0.091146 0.091797 0.092448 0.093099 0.093750 0.094401 0.095052 0.095703 0.096354 0.097005 0.097656 0.098307 0.098958 0.099609 0.100260 0.100911 0.101562 0.102214 0.102865 0.103516 0.104167 0.104818 0.105469 0.106120 0.106771 0.107422 0.108073 0.108724 0.109375 0.110026 0.110677 0.111328 0.111979 0.112630 0.113281 0.113932 0.114583 0.115234 0.115885 0.116536 0.117188 0.117839 0.118490 0.119141 0.119792 0.120443 0.121094 0.121745 0.122396 0.123047 0.123698 0.124349 0.125000 0.125651 0.126302 0.126953 0.127604 0.128255 0.128906 0.129557 0.130208 0.130859 0.131510 0.132161 0.132812 0.133464 0.134115 0.134766 0.135417 0.136068 0.136719 0.137370 0.138021 0.138672 0.139323 0.139974 0.140625 0.141276 0.141927 0.142578 0.143229 0.143880 0.144531 0.145182 0.145833 0.146484 0.147135 0.147786 0.148438 0.149089 0.149740 0.150391 0.151042 0.151693 0.152344 0.152995 0.153646 0.154297 0.154948 0.155599 0.156250 0.156901 0.157552 0.158203 0.158854 0.159505 0.160156 0.160807 0.161458 0.162109 0.162760 0.163411 0.164062 0.164714 0.165365 0.166016 0.166667 0.167318 0.167969 0.168620 0.169271 0.169922 0.170573 0.171224 0.171875 0.172526 0.173177 0.173828 0.174479 0.175130 0.175781 0.176432 0.177083 0.177734 0.178385 0.179036 0.179688 0.180339 0.180990 0.181641 0.182292 0.182943 0.183594 0.184245 0.184896 0.185547 0.186198 0.186849 0.187500 0.188151 0.188802 0.189453 0.190104 0.190755 0.191406 0.192057 0.192708 0.193359 0.194010 0.194661 0.195312 0.195964 0.196615 0.197266 0.197917 0.198568 0.199219 0.199870 0.200521 0.201172 0.201823 0.202474 0.203125 0.203776 0.204427 0.205078 0.205729 0.206380 0.207031 0.207682 0.208333 0.208984 0.209635 0.210286 0.210938 0.211589 0.212240 0.212891 0.213542 0.214193 0.214844 0.215495 0.216146 0.216797 0.217448 0.218099 0.218750 0.219401 0.220052 0.220703 0.221354 0.222005 0.222656 0.223307 0.223958 0.224609 0.225260 0.225911 0.226562 0.227214 0.227865 0.228516 0.229167 0.229818 0.230469 0.231120 0.231771 0.232422 0.233073 0.233724 0.234375 0.235026 0.235677
       0.34933        0.34933        0.34933        0.34933        0.34933        0.34933        0.34933        0.34933        0.34933        0.34933        0.34933        0.34933        0.34933        0.34933        0.34933        0.34933        0.34933        0.34933        0.34933        0.34933        0.34933        0.34933        0.34933        0.34933        0.34933        0.34933        0.34933        0.34933        0.34933        0.34933        0.34933        0.34933        0.34933        0.34933        0.34933        0.34933        0.34933        0.34933        0.34933        0.34933        0.34933        0.34933        0.34933        0.34933        0.34933        0.34933        0.34933        0.34933        0.34933        0.34933        0.34933        0.70149        0.85798        0.54068        0.10659       -0.02790       -0.37921       -0.17743       -0.28756       -0.11652       -0.05302       -0.11259       -0.05225       -0.16033       -0.20191       -0.20950       -0.30312       -0.31392       -0.43860       -0.35992       -0.42005       -0.41613       -0.38877       -0.39811       -0.43754       -0.50039       -0.55475       -0.54152       -0.51465       -0.35011       -0.31786       -0.28417       -0.26399       -0.18153       -0.16468        0.06561        0.14870        0.18309        0.27172        0.38222        0.45960        0.52546        0.60669        0.60391        0.58894        0.70352        0.80123        0.70177        0.74723        0.61750        0.56998        0.48681        0.43820        0.51432        0.40220        0.28177        0.12256        0.12182        0.10392       -0.00425        0.05716        0.06109        0.02121        0.03165        0.04040        0.23703        0.27374        0.29830        0.43884        0.45665        0.41791        0.60757        0.61540        0.62875        0.72101        0.67553        0.64849        0.65348        0.56059        0.45909        0.42030        0.30901        0.28104        0.19226        0.14099        0.05394        0.07420        0.08725        0.10491        0.16753        0.25201        0.30680        0.43371        0.46850        0.48305        0.56136        0.60198        0.63797        0.61137        0.55553        0.46615        0.47409        0.37956        0.28520        0.21858        0.15807        0.17951        0.15795        0.17306        0.20361        0.33108        0.34656        0.41555        0.45332        0.42495        0.47800        0.56603        0.55877        0.50898        0.45933        0.41842        0.38014        0.34941        0.31760        0.27550        0.25268        0.26732        0.26303        0.23130        0.31559        0.37088        0.38570        0.44144        0.45678        0.46628        0.43195        0.41744        0.40490        0.36867        0.34952        0.27854        0.29056        0.27504        0.25713        0.30396        0.30088        0.35796        0.39146        0.44365        0.47808        0.40735        0.42372        0.43341        0.41634        0.35445        0.33521        0.29446        0.33414        0.28322        0.33167        0.32270        0.34066        0.34875        0.37084        0.31125        0.38710        0.41297        0.38472        0.35572        0.37051        0.32336        0.30157        0.31489        0.32091        0.31126        0.32328        0.35271        0.36587        0.34557        0.36421        0.36198        0.43248        0.39799        0.34547        0.35386        0.30317        0.30206        0.33230        0.32398        0.33432        0.34866        0.35115        0.39354        0.33393        0.33352        0.34093        0.35667        0.30571        0.31497        0.28770        0.30534        0.33858        0.30563        0.33840        0.36582        0.38044        0.30549        0.35331        0.30516        0.29200        0.28200        0.25307        0.31585        0.31508        0.34493        0.34245        0.35168        0.33241        0.35180        0.32138        0.34799        0.30474        0.33244        0.30211        0.34323        0.34327        0.38418        0.34026        0.33919        0.33612        0.29680        0.28223        0.31853        0.25707        0.23664        0.34046        0.32897        0.37466        0.35220        0.36950        0.34354        0.33549        0.35910        0.27247        0.27913        0.32429        0.30178        0.31471        0.31174        0.34191        0.33001        0.28971        0.29708        0.34682        0.32615        0.33120        0.31204        0.32109        0.33802        0.38932        0.37263        0.32919        0.29064        0.30680        0.29392        0.31748        0.28736        0.28112        0.31281        0.32539        0.34881        0.35851        0.33761        0.30211        0.30675        0.27878        0.28748        0.26049        0.30600        0.25640        0.25859        0.28244        0.27538        0.25828        0.29327        0.22837        0.22930        0.23463        0.20053        0.28258        0.35944        0.25976        0.25793        0.32073        0.29631        0.30590        0.31743        0.28400        0.26416        0.20037        0.21381        0.22752        0.30921        0.23909        0.28193        0.37397        0.39423        0.27080        0.21326        0.16567       -0.01316       -0.16871       -0.63885
2.722233 2.693314 2.664553 2.635949 2.607503 2.579215 2.551083 2.523110 2.495294 2.467635 2.440134 2.412790 2.385604 2.358575 2.331704 2.304990 2.278433 2.252034 2.225793 2.199709 2.173783 2.148014 2.122402 2.096948 2.071652 2.046513 2.021531 1.996707 1.972041 1.947531 1.923180 1.898986 1.874949 1.851070 1.827348 1.803784 1.780377 1.757128 1.734036 1.711102 1.688325 1.665706 1.643244 1.620939 1.598792 1.576803 1.554971 1.533297 1.511779 1.490420 1.469218 1.679122 2.092873 1.663124 1.152694 1.018422 0.442398 0.820818 0.538822 0.813608 0.790219 0.789545 0.728461 0.734578 0.577956 0.542451 0.484304 0.410714 0.242284 0.346394 0.191097 0.318863 0.207024 0.205895 0.180806 0.040204 -0.004395 0.017637 -0.068834 0.128956 0.225933 0.182856 0.175699 0.310347 0.175941 0.506126 0.605307 0.620722 0.635751 0.846988 0.808701 0.913159 0.917107 1.008239 0.981730 1.044427 1.155193 1.008945 1.135038 0.879828 0.899101 0.773231 0.636181 0.786668 0.670128 0.488240 0.324736 0.243785 0.265389 0.146194 0.140386 0.164039 0.107933 0.109956 0.084696 0.237562 0.332651 0.327648 0.462926 0.526180 0.401932 0.577826 0.710635 0.610388 0.698292 0.681444 0.695982 0.620073 0.575218 0.465842 0.349982 0.269067 0.213880 0.095249 0.111362 -0.121839 -0.048897 -0.060856 -0.084312 -0.016232 0.122761 0.070423 0.239322 0.298392 0.325043 0.354376 0.474452 0.432759 0.466657 0.467846 0.292430 0.280769 0.274199 0.081579 0.045035 -0.082547 -0.019096 -0.062066 -0.095711 -0.058469 0.040008 0.093242 0.123701 0.222415 0.211503 0.211814 0.299904 0.325042 0.434429 0.244099 0.223504 0.221411 0.138014 0.141679 0.119076 -0.003850 0.014818 0.080941 -0.013773 0.040856 0.129866 0.129075 0.201673 0.225386 0.237628 0.156387 0.203568 0.124915 0.111456 0.118135 0.021638 -0.026493 -0.001958 -0.021323 -0.048084 0.054614 0.000255 0.104422 0.134307 0.190584 0.145380 0.117691 0.132484 0.149365 0.104436 0.030124 -0.027189 0.020760 0.032397 -0.046447 0.042523 0.016199 0.045710 0.038893 0.051150 0.011635 0.121413 0.107967 0.042571 0.031185 0.037602 0.002090 -0.028467 0.006223 -0.001761 -0.007856 -0.001793 0.062153 0.052345 0.035654 0.063392 0.059286 0.165862 0.064301 0.041821 0.043110 -0.035036 0.015318 0.048568 0.007296 0.030478 0.056016 0.074131 0.066121 0.040342 0.007563 0.077336 0.033082 0.014829 0.026806 -0.003317 0.029003 0.029011 0.018106 0.071297 0.077021 0.081073 0.041958 0.057124 0.017138 0.015288 -0.028854 -0.022249 0.040016 0.051448 0.074830 0.074675 0.064021 0.067547 0.088903 0.037822 0.078088 0.046051 0.046748 0.014811 0.103132 0.064309 0.128233 0.062822 0.059343 0.076596 0.021312 0.001506 0.080053 -0.037876 -0.034545 0.077726 0.040396 0.150981 0.089325 0.074345 0.063919 0.016033 0.078458 -0.020809 -0.023566 0.037356 0.020891 0.023575 0.001961 0.103143 0.013438 -0.019849 0.046342 0.028962 0.049192 0.051306 -0.002807 0.041560 0.038356 0.100058 0.064920 0.030157 -0.028734 -0.038595 -0.003515 0.014272 -0.056325 -0.016056 -0.006582 0.020607 0.024680 0.062814 0.003974 -0.030019 -0.022370 -0.015869 -0.055790 -0.042952 -0.044558 -0.126137 -0.087497 -0.073667 -0.108669 -0.116479 -0.036528 -0.148536 -0.089125 -0.123543 -0.199535 -0.069248 0.062146 -0.079673 -0.121218 0.045017 0.004216 -0.036724 0.060777 -0.024430 -0.002967 -0.078053 -0.048396 0.057269 0.146326 0.043060 0.121466 0.148201 0.502596 0.305434 0.361361 0.200246 -0.017128 -0.695086
0.072396 0.072899 0.074409 0.076924 0.080445 0.084970 0.090498 0.097028 0.104557 0.113083 0.122602 0.133110 0.144601 0.157070 0.170508 0.184906 0.200253 0.216537 0.233741 0.251849 0.270841 0.290694 0.311382 0.332874 0.355139 0.378138 0.401830 0.426169 0.451104 0.476579 0.502533 0.528898 0.555602 0.582564 0.609701 0.636919 0.664120 0.691198 0.718042 0.744531 0.770541 0.795938 0.820583 0.844330 0.867029 0.888520 0.908642 0.927228 0.944105 0.959101 0.972037 0.982736 0.991020 0.996710 0.999631 0.999613 0.996488 0.990098 0.980292 0.966930 0.949885 0.929044 0.904311 0.875611 0.842886 0.806106 0.765263 0.720380 0.671506 0.618726 0.562157 0.501953 0.438302 0.371435 0.301618 0.229162 0.154414 0.077764 0.000358 0.079483 0.159107 0.238687 0.317650 0.395393 0.471287 0.544685 0.614921 0.681323 0.743212 0.799918 0.850780 0.895158 0.932441 0.962058 0.983483 0.996248 0.999953 0.994272 0.978966 0.953890 0.919001 0.874368 0.820174 0.756725 0.684453 0.603919 0.515812 0.420950 0.320277 0.214852 0.105853 0.005448 0.117682 0.229410 0.339135 0.445321 0.546414 0.640868 0.727170 0.803863 0.869575 0.923048 0.963163 0.988970 0.999711 0.994845 0.974072 0.937348 0.884903 0.817251 0.735195 0.639829 0.532530 0.414952 0.289001 0.156818 0.020742 0.116723 0.252954 0.385256 0.510912 0.627248 0.731687 0.821811 0.895422 0.950607 0.985788 0.999780 0.991837 0.961688 0.909568 0.836236 0.742982 0.631616 0.504454 0.364274 0.214273 0.058001 0.100719 0.257875 0.409370 0.551127 0.679201 0.789898 0.879885 0.946305 0.986875 0.999983 0.984757 0.941127 0.869860 0.772569 0.651702 0.510501 0.352929 0.183576 0.007537 0.169732 0.342580 0.505340 0.652515 0.778975 0.880146 0.952187 0.992158 0.998149 0.969400 0.906359 0.810727 0.685427 0.534551 0.363252 0.177577 0.015714 0.209403 0.396059 0.568341 0.719280 0.842576 0.932886 0.986063 0.999382 0.971698 0.903550 0.797201 0.656595 0.487252 0.296068 0.091072 0.118904 0.324591 0.516691 0.686302 0.825345 0.926966 0.985902 0.998783 0.964358 0.883621 0.759840 0.598465 0.406931 0.194344 0.028918 0.251704 0.462640 0.650702 0.805817 0.919423 0.984966 0.998321 0.958090 0.865760 0.725711 0.545056 0.333334 0.102031 0.136006 0.367272 0.578371 0.756794 0.891692 0.974560 0.999826 0.965264 0.872229 0.725680 0.533974 0.308444 0.062770 0.187821 0.427483 0.640752 0.813568 0.934215 0.994180 0.988791 0.917645 0.784747 0.598358 0.370554 0.116485 0.146583 0.400430 0.627133 0.810353 0.936551 0.996021 0.983721 0.899746 0.749461 0.543253 0.295855 0.025388 0.247970 0.503431 0.721214 0.884095 0.978808 0.997205 0.937018 0.802191 0.602724 0.354012 0.075724 0.209706 0.478861 0.709259 0.881270 0.979838 0.995865 0.927137 0.778685 0.562515 0.296734 0.004110 0.289839 0.559052 0.779225 0.930078 0.997266 0.973837 0.861044 0.668423 0.413088 0.118313 0.188535 0.478495 0.723749 0.900321 0.990494 0.984672 0.882508 0.693146 0.434525 0.131786 0.185108 0.484284 0.735165 0.911654 0.994892 0.975398 0.854254 0.643221 0.363734 0.044828 0.279812 0.575363 0.809622 0.956564 0.999328 0.932274 0.761843 0.506095 0.192920 0.142896 0.463480 0.732142 0.917604 0.997741 0.962332 0.814508 0.570645 0.258721 0.084807 0.419160 0.704093 0.904742 0.996008 0.965805 0.816815 0.566461 0.245006 0.107950 0.448292 0.732889 0.925089 0.999556 0.945742 0.769547 0.492869 0.151042 0.211536
1.000000 1.000000 1.000000 1.000000 1.000000 1.000000 1.000000 1.000000 1.000000 1.000000 1.000000 1.000000 1.000000 1.000000 1.000000 1.000000 1.000000 1.000000 1.000000 1.000000 1.000000 1.000000 1.000000 1.000000 1.000000 1.000000 1.000000 1.000000 1.000000 1.000000 1.000000 1.000000 1.000000 1.000000 1.000000 1.000000 1.000000 1.000000 1.000000 1.000000 1.000000 1.000000 1.000000 1.000000 1.000000 1.000000 1.000000 1.000000 1.000000 1.000000 1.000000 1.000000 0.914357 0.914357 0.914357 0.911667 0.911667 0.911667 0.911667 0.911667 0.911667 0.911667 0.911667 0.911667 0.911667 0.911667 0.911667 0.911667 0.911667 0.911667 0.911667 0.911667 0.911667 0.911667 0.911667 0.911667 0.911667 0.911667 0.911667 0.911667 0.911667 0.911667 0.911667 0.911667 0.911667 0.911667 0.911667 0.911667 0.911667 0.911667 0.911667 0.911667 0.911667 0.911667 0.911667 0.911667 0.940008 0.941410 0.949802 0.949287 0.948752 0.946814 0.945531 0.945332 0.945253 0.945609 0.946345 0.947337 0.953532 0.954465 0.958846 0.961581 0.961557 0.963322 0.965325 0.964982 0.956813 0.956551 0.955093 0.954396 0.956520 0.955211 0.954029 0.954522 0.952224 0.956386 0.955984 0.954817 0.953225 0.951676 0.948153 0.947734 0.947486 0.948297 0.948386 0.949964 0.952989 0.951319 0.951431 0.948765 0.948325 0.949539 0.949198 0.950908 0.938923 0.938049 0.936396 0.936338 0.938926 0.938712 0.938609 0.939561 0.939273 0.939198 0.939215 0.933464 0.933362 0.926681 0.922101 0.921135 0.915150 0.911011 0.913786 0.916826 0.917864 0.918287 0.907925 0.905130 0.906210 0.904886 0.906176 0.907569 0.908817 0.909168 0.909104 0.904101 0.895268 0.893849 0.882779 0.885464 0.880616 0.877847 0.875124 0.867326 0.859077 0.870546 0.857640 0.811909 0.815470 0.820095 0.813110 0.809011 0.813130 0.813987 0.818931 0.813467 0.812692 0.805841 0.791020 0.789308 0.784194 0.769272 0.763167 0.753278 0.742819 0.736817 0.759747 0.753424 0.765519 0.769105 0.768442 0.764047 0.753382 0.741016 0.741720 0.742548 0.737936 0.713703 0.705915 0.705422 0.704807 0.690193 0.692311 0.681493 0.681910 0.667095 0.672767 0.678910 0.682433 0.676876 0.669372 0.660931 0.655752 0.669992 0.682349 0.672846 0.669599 0.683722 0.675160 0.670951 0.661504 0.663904 0.654557 0.655036 0.652985 0.688927 0.663620 0.653540 0.659841 0.661433 0.656576 0.654321 0.631995 0.626575 0.602039 0.619978 0.624538 0.639587 0.643775 0.649079 0.660391 0.667554 0.677917 0.683409 0.678717 0.637578 0.643710 0.663716 0.671837 0.663743 0.654497 0.644211 0.627105 0.663947 0.642539 0.604797 0.598782 0.603628 0.560341 0.543162 0.540653 0.539114 0.567965 0.568521 0.554662 0.530999 0.532883 0.529528 0.520750 0.519719 0.506437 0.510708 0.493829 0.473121 0.489286 0.496975 0.495961 0.479929 0.471165 0.483834 0.468584 0.486329 0.471159 0.458192 0.473634 0.473904 0.466122 0.392813 0.400368 0.396548 0.377668 0.337365 0.345449 0.356116 0.333701 0.259936 0.255890 0.256618 0.252317 0.224356 0.198707 0.184494 0.177671 0.156882 0.092154 0.040902 0.044751 0.048023 0.074458 0.037601 0.096169 0.168732 0.160841 0.160841 0.160841 0.160841 0.160841 0.160841 0.160841 0.160841 0.140687 0.140687 0.140687 0.140687 0.140687 0.140687 0.140687 0.140687 0.140687 0.160841 0.160841 0.160841 0.160841 0.160841 0.160841 0.160841 0.160841 0.160841 0.160841 0.160841 0.160841 0.160841 0.160841
0.000000 0.000000 0.000000 0.000000 0.000000 0.000000 0.000000 0.000000 0.000000 0.000000 0.000000 0.000000 0.000000 0.000000 0.000000 0.000000 0.000000 0.000000 0.000000 0.000000 0.000000 0.000000 0.000000 0.000000 0.000000 0.000000 0.000000 0.000000 0.000000 0.000000 0.000000 0.000000 0.000000 0.000000 0.000000 0.000000 0.000000 0.000000 0.000000 0.000000 0.000000 0.000000 0.000000 0.000000 0.000000 0.000000 0.000000 0.000000 0.000000 0.000000 0.000000 0.000000 0.180334 0.180334 0.180334 0.199007 0.199007 0.199007 0.199007 0.199007 0.199007 0.199007 0.199007 0.199007 0.199007 0.199007 0.199007 0.199007 0.199007 0.199007 0.199007 0.199007 0.199007 0.199007 0.199007 0.199007 0.199007 0.199007 0.199007 0.199007 0.199007 0.199007 0.199007 0.199007 0.199007 0.199007 0.199007 0.199007 0.199007 0.199007 0.199007 0.199007 0.199007 0.199007 0.199007 0.199007 0.225018 0.225018 0.225018 0.225018 0.225018 0.225018 0.225018 0.225018 0.225018 0.225018 0.225018 0.225018 0.225018 0.225018 0.225018 0.225018 0.225018 0.225018 0.225018 0.225018 0.225018 0.225018 0.225018 0.225018 0.225018 0.225018 0.225018 0.225018 0.225018 0.244339 0.244339 0.244339 0.244339 0.244339 0.244339 0.244339 0.244339 0.244339 0.244339 0.244339 0.244339 0.244339 0.244339 0.244339 0.244339 0.244339 0.244339 0.244339 0.244339 0.244339 0.244339 0.244339 0.256074 0.256074 0.256074 0.256074 0.256074 0.256074 0.256074 0.256074 0.256074 0.256074 0.256074 0.256074 0.256074 0.256074 0.256074 0.256074 0.256074 0.256074 0.256074 0.256074 0.256074 0.256074 0.256074 0.256074 0.256074 0.256074 0.256074 0.256074 0.256074 0.256074 0.256074 0.256074 0.256074 0.256074 0.256074 0.256074 0.256074 0.264906 0.264906 0.264906 0.264906 0.264906 0.264906 0.264906 0.264906 0.264906 0.264906 0.264906 0.264906 0.264906 0.264906 0.264906 0.264906 0.264906 0.264906 0.264906 0.264906 0.264906 0.264906 0.264906 0.264906 0.264906 0.264906 0.264906 0.264906 0.264906 0.264906 0.264906 0.264906 0.264906 0.264906 0.264906 0.264906 0.264906 0.264906 0.264906 0.264906 0.264906 0.264906 0.264906 0.264906 0.264906 0.264906 0.264906 0.264906 0.264906 0.264906 0.264906 0.264906 0.264906 0.264906 0.264906 0.264906 0.264906 0.264906 0.260378 0.260378 0.260378 0.260378 0.260378 0.260378 0.260378 0.260378 0.260378 0.260378 0.260378 0.260378 0.260378 0.264906 0.264906 0.264906 0.264906 0.264906 0.264906 0.264906 0.264906 0.264906 0.264906 0.264906 0.264906 0.269680 0.269680 0.269680 0.269680 0.269680 0.269680 0.269680 0.269680 0.269680 0.269680 0.269680 0.264906 0.264906 0.264906 0.264906 0.264906 0.264906 0.264906 0.264906 0.264906 0.264906 0.264906 0.256074 0.256074 0.256074 0.256074 0.256074 0.256074 0.256074 0.256074 0.256074 0.256074 0.256074 0.264906 0.264906 0.264906 0.264906 0.264906 0.264906 0.264906 0.264906 0.264906 0.264906 0.260378 0.260378 0.260378 0.260378 0.260378 0.260378 0.260378 0.260378 0.260378 0.260378 0.264906 0.264906 0.264906 0.264906 0.264906 0.264906 0.264906 0.264906 0.264906 0.251976 0.251976 0.251976 0.251976 0.251976 0.251976 0.251976 0.251976 0.251976 0.251976 0.256074 0.256074 0.256074 0.256074 0.256074 0.256074 0.256074 0.256074 0.256074 0.251976 0.251976 0.251976 0.251976 0.251976 0.251976 0.251976 0.251976 0.251976 0.251976 0.251976 0.251976 0.251976 0.251976
