# Output from CTFFind version 4.1.9, run on 2019-11-02 17:49:28
# Input file: stack11_bm3d_averaged_1_1.25_0_2500_half.mrc ; Number of micrographs: 1
# Pixel size: 3.000 Angstroms ; acceleration voltage: 300.0 keV ; spherical aberration: 0.00 mm ; amplitude contrast: 0.07
# Box size: 512 pixels ; min. res.: 30.0 Angstroms ; max. res.: 5.0 Angstroms ; min. def.: 5000.0 um; max. def. 50000.0 um; num. frames averaged: 1
# 6 lines per micrograph: #1 - spatial frequency (1/Angstroms); #2 - 1D rotational average of spectrum (assuming no astigmatism); #3 - 1D rotational average of spectrum; #4 - CTF fit; #5 - cross-correlation between spectrum and CTF fit; #6 - 2sigma of expected cross correlation of noise
0.000000 0.000651 0.001302 0.001953 0.002604 0.003255 0.003906 0.004557 0.005208 0.005859 0.006510 0.007161 0.007812 0.008464 0.009115 0.009766 0.010417 0.011068 0.011719 0.012370 0.013021 0.013672 0.014323 0.014974 0.015625 0.016276 0.016927 0.017578 0.018229 0.018880 0.019531 0.020182 0.020833 0.021484 0.022135 0.022786 0.023438 0.024089 0.024740 0.025391 0.026042 0.026693 0.027344 0.027995 0.028646 0.029297 0.029948 0.030599 0.031250 0.031901 0.032552 0.033203 0.033854 0.034505 0.035156 0.035807 0.036458 0.037109 0.037760 0.038411 0.039062 0.039714 0.040365 0.041016 0.041667 0.042318 0.042969 0.043620 0.044271 0.044922 0.045573 0.046224 0.046875 0.047526 0.048177 0.048828 0.049479 0.050130 0.050781 0.051432 0.052083 0.052734 0.053385 0.054036 0.054688 0.055339 0.055990 0.056641 0.057292 0.057943 0.058594 0.059245 0.059896 0.060547 0.061198 0.061849 0.062500 0.063151 0.063802 0.064453 0.065104 0.065755 0.066406 0.067057 0.067708 0.068359 0.069010 0.069661 0.070312 0.070964 0.071615 0.072266 0.072917 0.073568 0.074219 0.074870 0.075521 0.076172 0.076823 0.077474 0.078125 0.078776 0.079427 0.080078 0.080729 0.081380 0.082031 0.082682 0.083333 0.083984 0.084635 0.085286 0.085938 0.086589 0.087240 0.087891 0.088542 0.089193 0.089844 0.090495 0.091146 0.091797 0.092448 0.093099 0.093750 0.094401 0.095052 0.095703 0.096354 0.097005 0.097656 0.098307 0.098958 0.099609 0.100260 0.100911 0.101562 0.102214 0.102865 0.103516 0.104167 0.104818 0.105469 0.106120 0.106771 0.107422 0.108073 0.108724 0.109375 0.110026 0.110677 0.111328 0.111979 0.112630 0.113281 0.113932 0.114583 0.115234 0.115885 0.116536 0.117188 0.117839 0.118490 0.119141 0.119792 0.120443 0.121094 0.121745 0.122396 0.123047 0.123698 0.124349 0.125000 0.125651 0.126302 0.126953 0.127604 0.128255 0.128906 0.129557 0.130208 0.130859 0.131510 0.132161 0.132812 0.133464 0.134115 0.134766 0.135417 0.136068 0.136719 0.137370 0.138021 0.138672 0.139323 0.139974 0.140625 0.141276 0.141927 0.142578 0.143229 0.143880 0.144531 0.145182 0.145833 0.146484 0.147135 0.147786 0.148438 0.149089 0.149740 0.150391 0.151042 0.151693 0.152344 0.152995 0.153646 0.154297 0.154948 0.155599 0.156250 0.156901 0.157552 0.158203 0.158854 0.159505 0.160156 0.160807 0.161458 0.162109 0.162760 0.163411 0.164062 0.164714 0.165365 0.166016 0.166667 0.167318 0.167969 0.168620 0.169271 0.169922 0.170573 0.171224 0.171875 0.172526 0.173177 0.173828 0.174479 0.175130 0.175781 0.176432 0.177083 0.177734 0.178385 0.179036 0.179688 0.180339 0.180990 0.181641 0.182292 0.182943 0.183594 0.184245 0.184896 0.185547 0.186198 0.186849 0.187500 0.188151 0.188802 0.189453 0.190104 0.190755 0.191406 0.192057 0.192708 0.193359 0.194010 0.194661 0.195312 0.195964 0.196615 0.197266 0.197917 0.198568 0.199219 0.199870 0.200521 0.201172 0.201823 0.202474 0.203125 0.203776 0.204427 0.205078 0.205729 0.206380 0.207031 0.207682 0.208333 0.208984 0.209635 0.210286 0.210938 0.211589 0.212240 0.212891 0.213542 0.214193 0.214844 0.215495 0.216146 0.216797 0.217448 0.218099 0.218750 0.219401 0.220052 0.220703 0.221354 0.222005 0.222656 0.223307 0.223958 0.224609 0.225260 0.225911 0.226562 0.227214 0.227865 0.228516 0.229167 0.229818 0.230469 0.231120 0.231771 0.232422 0.233073 0.233724 0.234375 0.235026 0.235677
       0.31657        0.31657        0.31657        0.31657        0.31657        0.31657        0.31657        0.31657        0.31657        0.31657        0.31657        0.31657        0.31657        0.31657        0.31657        0.31657        0.31657        0.31657        0.31657        0.31657        0.31657        0.31657        0.31657        0.31657        0.31657        0.31657        0.31657        0.31657        0.31657        0.31657        0.31657        0.31657        0.31657        0.31657        0.31657        0.31657        0.31657        0.31657        0.31657        0.31657        0.31657        0.31657        0.31657        0.31657        0.31657        0.31657        0.31657        0.31657        0.31657        0.31657        0.31657        0.68394        0.87048        0.52153        0.08641       -0.06713       -0.42787       -0.20685       -0.29690       -0.11934       -0.07838       -0.11857       -0.07082       -0.20958       -0.23722       -0.25882       -0.33209       -0.33846       -0.49370       -0.38472       -0.46759       -0.45143       -0.42302       -0.47099       -0.54687       -0.56449       -0.58900       -0.62581       -0.57959       -0.41574       -0.37911       -0.33226       -0.31772       -0.21187       -0.19902        0.01880        0.06862        0.10315        0.22396        0.37235        0.44280        0.51695        0.55884        0.55291        0.57283        0.69835        0.81347        0.74556        0.73355        0.67212        0.58054        0.48630        0.40562        0.49313        0.37249        0.19886        0.07724        0.04357        0.00686       -0.06119       -0.04113       -0.02513       -0.07468       -0.00696       -0.02298        0.21137        0.24984        0.29100        0.42922        0.46459        0.40299        0.53223        0.62831        0.70138        0.76687        0.69035        0.66144        0.69951        0.58684        0.50322        0.41935        0.29045        0.18732        0.15672        0.10920        0.03502        0.01173       -0.00105        0.07536        0.13239        0.20263        0.28156        0.40210        0.41529        0.50655        0.59958        0.63535        0.61298        0.63113        0.55203        0.44528        0.44387        0.35201        0.22808        0.18626        0.14986        0.10547        0.12167        0.06714        0.10063        0.22134        0.26321        0.33912        0.34839        0.45211        0.51227        0.53743        0.54976        0.46986        0.42782        0.39058        0.37347        0.30862        0.25063        0.20143        0.18426        0.16282        0.19470        0.17686        0.26786        0.33278        0.36359        0.42150        0.46131        0.47723        0.44357        0.39244        0.41083        0.37583        0.28932        0.27437        0.22734        0.21154        0.19393        0.21261        0.22906        0.32683        0.37344        0.36877        0.45896        0.43668        0.43988        0.43032        0.39402        0.34335        0.32951        0.27978        0.23560        0.23590        0.26856        0.27107        0.29942        0.29899        0.33922        0.32959        0.40836        0.41415        0.37468        0.34413        0.36328        0.28077        0.27996        0.26256        0.27642        0.26060        0.28209        0.29337        0.31502        0.34961        0.35726        0.35906        0.33290        0.35181        0.28773        0.32551        0.26899        0.24765        0.28240        0.28404        0.30654        0.31383        0.32984        0.32416        0.31284        0.31887        0.28700        0.28401        0.25769        0.28177        0.27143        0.31078        0.28347        0.26211        0.30632        0.30933        0.31294        0.28843        0.29733        0.29038        0.24571        0.24065        0.21737        0.27630        0.27393        0.31097        0.31496        0.32159        0.31488        0.30432        0.27672        0.28349        0.33234        0.27143        0.26395        0.29431        0.29391        0.34318        0.33876        0.36071        0.33387        0.31139        0.28179        0.26313        0.25931        0.22524        0.26578        0.30248        0.29779        0.27868        0.29505        0.26819        0.32337        0.33740        0.25206        0.21959        0.26844        0.33906        0.27757        0.31140        0.32648        0.32622        0.29582        0.32107        0.34500        0.29507        0.29198        0.25827        0.27641        0.34738        0.35087        0.25825        0.26898        0.25504        0.27644        0.22405        0.29408        0.22396        0.24942        0.33001        0.31974        0.35016        0.30015        0.23619        0.23586        0.24195        0.24034        0.17834        0.21936        0.26348        0.29100        0.27710        0.30620        0.29233        0.27445        0.28287        0.21017        0.17832        0.18814        0.23010        0.19668        0.21955        0.23254        0.20584        0.25208        0.33861        0.29524        0.30965        0.22076        0.26700        0.23046        0.27620        0.29688        0.14576        0.22361        0.22779        0.12820        0.23026        0.11400        0.16940        0.21439        0.13807       -0.14061       -0.66791
2.578493 2.551612 2.524878 2.498289 2.471845 2.445547 2.419395 2.393388 2.367527 2.341811 2.316242 2.290817 2.265538 2.240405 2.215418 2.190576 2.165879 2.141329 2.116923 2.092664 2.068550 2.044581 2.020759 1.997081 1.973550 1.950164 1.926924 1.903829 1.880879 1.858076 1.835418 1.812905 1.790539 1.768317 1.746242 1.724312 1.702527 1.680888 1.659395 1.638048 1.616846 1.595789 1.574878 1.554113 1.533493 1.513019 1.492691 1.472508 1.452471 1.432579 1.412833 1.634780 2.040290 1.612741 1.125305 0.985107 0.417204 0.810666 0.558756 0.831985 0.769739 0.785466 0.748760 0.708472 0.559265 0.511239 0.482496 0.443273 0.202171 0.376200 0.201344 0.304898 0.234728 0.178782 0.129287 0.002019 0.040822 -0.015029 -0.055889 0.104542 0.205676 0.193725 0.151132 0.332787 0.197834 0.497432 0.573546 0.547393 0.591122 0.878283 0.809116 0.945687 0.888691 0.972924 0.940886 1.080872 1.139615 1.079151 1.126522 0.953867 0.941975 0.786847 0.650503 0.769228 0.704640 0.457982 0.307350 0.253039 0.210516 0.148229 0.088833 0.127842 0.065746 0.155484 0.050801 0.261984 0.378876 0.361548 0.478788 0.583368 0.468056 0.542998 0.698308 0.746527 0.782805 0.734095 0.737568 0.717340 0.627639 0.570620 0.431264 0.287553 0.209143 0.079156 0.134936 -0.043571 -0.029943 -0.079191 -0.036685 0.006564 0.146463 0.089620 0.303889 0.278558 0.363328 0.451101 0.525229 0.511323 0.518647 0.504233 0.333914 0.308720 0.279549 0.100135 0.049771 0.000298 -0.034251 -0.039898 -0.089622 -0.100480 -0.014349 0.054610 0.137270 0.137416 0.228670 0.333552 0.308944 0.411598 0.398386 0.285386 0.231419 0.251130 0.210126 0.103240 0.075379 0.019744 0.001180 0.012796 -0.014137 0.057742 0.148137 0.143254 0.227063 0.253281 0.307062 0.257001 0.220915 0.182654 0.212132 0.149057 0.046400 0.049230 -0.011086 -0.012099 -0.029874 0.014657 0.016682 0.168911 0.127804 0.184688 0.235611 0.201108 0.194800 0.196585 0.137164 0.104830 0.066670 0.047825 -0.039859 0.008761 0.021661 0.054510 0.049098 0.075838 0.098870 0.119549 0.134232 0.181842 0.076989 0.094347 0.071042 -0.002781 0.002796 0.009117 -0.012099 0.016791 0.005102 0.031160 0.067492 0.083640 0.105999 0.048671 0.097219 0.054420 0.014008 0.063276 -0.036266 -0.015564 0.021144 0.002184 0.050022 0.053903 0.044756 0.060649 0.048771 0.048596 0.018744 -0.003751 0.005446 0.017881 -0.008552 0.069926 -0.014829 0.008896 0.054754 0.045957 0.032788 0.043039 0.038163 0.019458 -0.021986 -0.039678 -0.020202 0.018500 0.024418 0.064569 0.060795 0.057223 0.087137 0.062415 0.025544 0.064801 0.089643 0.018973 0.023735 0.060683 0.056926 0.106162 0.113008 0.117592 0.117542 0.066774 0.047032 0.032458 0.005416 -0.000765 0.048514 0.083060 0.051424 0.031584 0.032051 0.023333 0.091303 0.070415 -0.046231 -0.052622 0.030172 0.096643 0.008022 0.028793 0.064673 0.084473 0.018453 0.058628 0.084389 0.028922 0.037356 -0.033878 0.010854 0.103736 0.066259 -0.056544 -0.020002 -0.049241 0.008882 -0.105537 0.039428 -0.109507 -0.037730 0.052126 0.026489 0.034834 -0.046116 -0.072892 -0.096942 -0.085411 -0.070941 -0.140540 -0.098515 -0.036732 0.011489 -0.035785 0.036680 -0.026927 -0.051648 0.052549 -0.113611 -0.100250 -0.096810 -0.013164 -0.065216 -0.024306 -0.017125 0.004898 0.017280 0.179716 -0.013950 0.144345 -0.002332 0.274610 0.241356 0.318065 0.270835 0.110932 0.226307 0.271570 0.047045 0.254842 0.121035 0.144062 0.283308 0.141243 -0.690055
0.072396 0.072899 0.074406 0.076917 0.080432 0.084950 0.090469 0.096988 0.104505 0.113018 0.122521 0.133012 0.144485 0.156934 0.170351 0.184726 0.200049 0.216307 0.233485 0.251565 0.270528 0.290351 0.311007 0.332468 0.354700 0.377666 0.401326 0.425632 0.450534 0.475977 0.501899 0.528234 0.554908 0.581844 0.608954 0.636150 0.663330 0.690392 0.717223 0.743704 0.769710 0.795109 0.819761 0.843523 0.866242 0.887762 0.907921 0.926553 0.943485 0.958546 0.971557 0.982342 0.990723 0.996522 0.999564 0.999678 0.996699 0.990466 0.980829 0.967649 0.950797 0.930160 0.905643 0.877167 0.844676 0.808137 0.767541 0.722910 0.674291 0.621767 0.565452 0.505498 0.442092 0.375459 0.305866 0.233617 0.159058 0.082576 0.004595 0.074417 0.153960 0.233496 0.312454 0.390235 0.466213 0.539742 0.610162 0.676799 0.738979 0.796031 0.847296 0.892132 0.929929 0.960113 0.982156 0.995586 0.999998 0.995061 0.980531 0.956255 0.922181 0.878368 0.824990 0.762343 0.690846 0.611049 0.523627 0.429387 0.329258 0.224289 0.115643 0.004584 0.107534 0.219279 0.329163 0.435655 0.537206 0.632273 0.719342 0.796952 0.863727 0.918397 0.959834 0.987071 0.999332 0.996055 0.976915 0.941842 0.891037 0.824983 0.744452 0.650503 0.544483 0.428011 0.302965 0.171454 0.035794 0.101534 0.237925 0.370692 0.497130 0.614561 0.720399 0.812212 0.887778 0.945154 0.982724 0.999256 0.993953 0.966486 0.917027 0.846271 0.755440 0.646276 0.521030 0.382419 0.233582 0.078021 0.080479 0.237936 0.390268 0.533397 0.663366 0.776449 0.869270 0.938907 0.983005 0.999857 0.988494 0.948733 0.881225 0.787464 0.669780 0.531300 0.375882 0.208026 0.032750 0.144544 0.318234 0.482660 0.632301 0.761975 0.867025 0.943505 0.988336 0.999456 0.975929 0.918020 0.827234 0.706309 0.559155 0.390758 0.207028 0.014610 0.179347 0.367449 0.542333 0.696973 0.824960 0.920790 0.980123 0.999997 0.979008 0.917415 0.817194 0.682013 0.517125 0.329203 0.126085 0.083526 0.290429 0.485325 0.659236 0.803932 0.912338 0.978908 0.999936 0.973791 0.901071 0.784639 0.629561 0.442921 0.233537 0.011565 0.211971 0.425716 0.618572 0.780273 0.901961 0.976695 0.999889 0.969628 0.886853 0.755401 0.581878 0.375372 0.147019 0.090574 0.324003 0.539821 0.725321 0.869299 0.962771 0.999567 0.976789 0.895079 0.758684 0.575295 0.355670 0.113047 0.137621 0.380572 0.600221 0.782175 0.914199 0.987086 0.995347 0.937678 0.817167 0.641203 0.421084 0.171362 0.091101 0.348218 0.581949 0.775549 0.914816 0.989175 0.992542 0.923879 0.787413 0.592451 0.352821 0.085961 0.188329 0.449309 0.676894 0.853197 0.963996 0.999935 0.957388 0.838891 0.653090 0.414198 0.140992 0.144638 0.419378 0.660424 0.847371 0.963999 0.999747 0.950749 0.820328 0.618881 0.363148 0.074890 0.220891 0.498117 0.731915 0.900901 0.989180 0.987936 0.896397 0.722099 0.480376 0.193107 0.113195 0.409775 0.668346 0.863803 0.976713 0.995341 0.916972 0.748373 0.505347 0.211348 0.104694 0.411164 0.676928 0.874519 0.983030 0.990440 0.895042 0.705862 0.441924 0.130465 0.195801 0.502071 0.755175 0.927195 0.998648 0.960793 0.816830 0.581791 0.281117 0.051998 0.380192 0.666121 0.876720 0.987101 0.983624 0.865701 0.646141 0.349916 0.011435 0.329353 0.631647 0.858708 0.982384 0.986728 0.870198 0.646131 0.341396 0.006709 0.354921 0.659350 0.881056 0.991093 0.974439 0.832197 0.581760 0.254881 0.106256
1.000000 1.000000 1.000000 1.000000 1.000000 1.000000 1.000000 1.000000 1.000000 1.000000 1.000000 1.000000 1.000000 1.000000 1.000000 1.000000 1.000000 1.000000 1.000000 1.000000 1.000000 1.000000 1.000000 1.000000 1.000000 1.000000 1.000000 1.000000 1.000000 1.000000 1.000000 1.000000 1.000000 1.000000 1.000000 1.000000 1.000000 1.000000 1.000000 1.000000 1.000000 1.000000 1.000000 1.000000 1.000000 1.000000 1.000000 1.000000 1.000000 1.000000 1.000000 1.000000 0.929379 0.929379 0.929379 0.919421 0.919421 0.919421 0.919421 0.919421 0.919421 0.919421 0.919421 0.919421 0.919421 0.919421 0.919421 0.919421 0.919421 0.919421 0.919421 0.919421 0.919421 0.919421 0.919421 0.919421 0.919421 0.919421 0.919421 0.919421 0.919421 0.919421 0.919421 0.919421 0.919421 0.919421 0.919421 0.919421 0.919421 0.919421 0.919421 0.919421 0.919421 0.919421 0.919421 0.919421 0.949886 0.951143 0.959041 0.958881 0.958380 0.956272 0.955361 0.954227 0.953776 0.954047 0.954651 0.955483 0.964212 0.965285 0.966868 0.967693 0.968405 0.969042 0.968858 0.969565 0.968754 0.968172 0.967641 0.963616 0.964266 0.964818 0.964907 0.965936 0.965809 0.967830 0.968029 0.967407 0.966499 0.965731 0.964993 0.964556 0.964268 0.964778 0.965077 0.966397 0.969594 0.969004 0.968722 0.968879 0.968978 0.969157 0.969594 0.971300 0.967498 0.968143 0.966447 0.964235 0.968456 0.965555 0.965347 0.966711 0.967094 0.967497 0.966052 0.962028 0.955500 0.954820 0.952128 0.942909 0.941739 0.942296 0.944827 0.945377 0.943836 0.936559 0.937124 0.930731 0.931919 0.935258 0.930037 0.930222 0.931376 0.930924 0.930079 0.929482 0.926749 0.924198 0.922719 0.922221 0.925190 0.924851 0.926006 0.925962 0.920654 0.912304 0.900585 0.899113 0.894142 0.897208 0.887127 0.886950 0.887135 0.882619 0.886012 0.885168 0.886136 0.883000 0.868018 0.851764 0.845048 0.849858 0.854635 0.852066 0.849430 0.842629 0.854183 0.829722 0.842056 0.852760 0.848632 0.849137 0.848036 0.846448 0.840199 0.841340 0.843720 0.845027 0.842483 0.839545 0.839288 0.819296 0.818853 0.757535 0.739919 0.731622 0.736710 0.743671 0.744624 0.743571 0.751642 0.756559 0.753229 0.737305 0.729877 0.722958 0.727661 0.725163 0.729153 0.712659 0.686246 0.681325 0.651682 0.669410 0.681778 0.643513 0.667178 0.677904 0.676509 0.675651 0.669075 0.666840 0.661927 0.664555 0.670119 0.682353 0.701315 0.724544 0.719862 0.710219 0.707831 0.687053 0.679057 0.671553 0.688626 0.666910 0.662996 0.682057 0.681001 0.665616 0.643321 0.630321 0.622066 0.619178 0.629347 0.617770 0.613013 0.603007 0.581749 0.574997 0.609726 0.625249 0.645719 0.615059 0.601764 0.591115 0.575425 0.587971 0.528525 0.528513 0.548032 0.555650 0.534546 0.518195 0.528620 0.534145 0.534688 0.525257 0.515845 0.505090 0.521259 0.553341 0.542027 0.522233 0.524825 0.524230 0.519252 0.428338 0.422891 0.395506 0.364232 0.305575 0.290007 0.281484 0.263390 0.247019 0.210498 0.207411 0.216568 0.224066 0.239400 0.241533 0.225473 0.233183 0.226066 0.212535 0.150675 0.139503 0.132376 0.121945 0.121399 0.094775 0.119957 0.190782 0.193507 0.193507 0.193507 0.193507 0.193507 0.193507 0.201899 0.201899 0.201899 0.201899 0.201899 0.201899 0.201899 0.201899 0.201899 0.213555 0.213555 0.213555 0.213555 0.213555 0.213555 0.213555 0.213555 0.213555 0.213555 0.213555 0.213555 0.213555 0.213555
0.000000 0.000000 0.000000 0.000000 0.000000 0.000000 0.000000 0.000000 0.000000 0.000000 0.000000 0.000000 0.000000 0.000000 0.000000 0.000000 0.000000 0.000000 0.000000 0.000000 0.000000 0.000000 0.000000 0.000000 0.000000 7.000000 4.000000 0.000000 0.000000 0.000000 0.000000 0.000000 0.000000 0.000000 0.000000 0.000000 0.000000 0.000000 0.000000 0.000000 0.000000 0.000000 0.000000 0.000000 0.000000 0.000000 0.000000 0.000000 0.000000 0.000000 0.000000 0.000000 0.180334 0.180334 0.180334 0.199007 0.199007 0.199007 0.199007 0.199007 0.199007 0.199007 0.199007 0.199007 0.199007 0.199007 0.199007 0.199007 0.199007 0.199007 0.199007 0.199007 0.199007 0.199007 0.199007 0.199007 0.199007 0.199007 0.199007 0.199007 0.199007 0.199007 0.199007 0.199007 0.199007 0.199007 0.199007 0.199007 0.199007 0.199007 0.199007 0.199007 0.199007 0.199007 0.199007 0.199007 0.225018 0.225018 0.225018 0.225018 0.225018 0.225018 0.225018 0.225018 0.225018 0.225018 0.225018 0.225018 0.225018 0.225018 0.225018 0.225018 0.225018 0.225018 0.225018 0.225018 0.225018 0.225018 0.225018 0.225018 0.225018 0.225018 0.225018 0.225018 0.225018 0.244339 0.244339 0.244339 0.244339 0.244339 0.244339 0.244339 0.244339 0.244339 0.244339 0.244339 0.244339 0.244339 0.244339 0.244339 0.244339 0.244339 0.244339 0.244339 0.244339 0.244339 0.244339 0.244339 0.251976 0.251976 0.251976 0.251976 0.251976 0.251976 0.251976 0.251976 0.251976 0.251976 0.251976 0.251976 0.251976 0.251976 0.251976 0.251976 0.251976 0.251976 0.251976 0.251976 0.264906 0.264906 0.264906 0.264906 0.264906 0.264906 0.264906 0.264906 0.264906 0.264906 0.264906 0.264906 0.264906 0.264906 0.264906 0.264906 0.264906 0.264906 0.264906 0.264906 0.264906 0.264906 0.264906 0.264906 0.264906 0.264906 0.264906 0.264906 0.264906 0.264906 0.264906 0.264906 0.264906 0.264906 0.264906 0.264906 0.264906 0.264906 0.264906 0.264906 0.264906 0.264906 0.264906 0.264906 0.264906 0.264906 0.264906 0.264906 0.264906 0.264906 0.264906 0.264906 0.264906 0.264906 0.264906 0.264906 0.264906 0.264906 0.264906 0.264906 0.264906 0.264906 0.256074 0.256074 0.256074 0.256074 0.256074 0.256074 0.256074 0.256074 0.256074 0.256074 0.256074 0.256074 0.256074 0.256074 0.269680 0.269680 0.269680 0.269680 0.269680 0.269680 0.269680 0.269680 0.269680 0.269680 0.269680 0.269680 0.264906 0.264906 0.264906 0.264906 0.264906 0.264906 0.264906 0.264906 0.264906 0.264906 0.264906 0.264906 0.269680 0.269680 0.269680 0.269680 0.269680 0.269680 0.269680 0.269680 0.269680 0.269680 0.269680 0.264906 0.264906 0.264906 0.264906 0.264906 0.264906 0.264906 0.264906 0.264906 0.264906 0.264906 0.256074 0.256074 0.256074 0.256074 0.256074 0.256074 0.256074 0.256074 0.256074 0.256074 0.256074 0.264906 0.264906 0.264906 0.264906 0.264906 0.264906 0.264906 0.264906 0.264906 0.264906 0.260378 0.260378 0.260378 0.260378 0.260378 0.260378 0.260378 0.260378 0.260378 0.260378 0.256074 0.256074 0.256074 0.256074 0.256074 0.256074 0.256074 0.256074 0.256074 0.256074 0.260378 0.260378 0.260378 0.260378 0.260378 0.260378 0.260378 0.260378 0.260378 0.256074 0.256074 0.256074 0.256074 0.256074 0.256074 0.256074 0.256074 0.256074 0.251976 0.251976 0.251976 0.251976 0.251976 0.251976 0.251976 0.251976 0.251976 0.251976 0.251976 0.251976 0.251976 0.251976
