# Output from CTFFind version 4.1.9, run on 2019-11-03 19:01:42
# Input file: stack11_bm3d_averaged_1_2.25_0_50_half.mrc ; Number of micrographs: 1
# Pixel size: 3.000 Angstroms ; acceleration voltage: 300.0 keV ; spherical aberration: 0.00 mm ; amplitude contrast: 0.07
# Box size: 512 pixels ; min. res.: 30.0 Angstroms ; max. res.: 5.0 Angstroms ; min. def.: 5000.0 um; max. def. 50000.0 um; num. frames averaged: 1
# 6 lines per micrograph: #1 - spatial frequency (1/Angstroms); #2 - 1D rotational average of spectrum (assuming no astigmatism); #3 - 1D rotational average of spectrum; #4 - CTF fit; #5 - cross-correlation between spectrum and CTF fit; #6 - 2sigma of expected cross correlation of noise
0.000000 0.000651 0.001302 0.001953 0.002604 0.003255 0.003906 0.004557 0.005208 0.005859 0.006510 0.007161 0.007812 0.008464 0.009115 0.009766 0.010417 0.011068 0.011719 0.012370 0.013021 0.013672 0.014323 0.014974 0.015625 0.016276 0.016927 0.017578 0.018229 0.018880 0.019531 0.020182 0.020833 0.021484 0.022135 0.022786 0.023438 0.024089 0.024740 0.025391 0.026042 0.026693 0.027344 0.027995 0.028646 0.029297 0.029948 0.030599 0.031250 0.031901 0.032552 0.033203 0.033854 0.034505 0.035156 0.035807 0.036458 0.037109 0.037760 0.038411 0.039062 0.039714 0.040365 0.041016 0.041667 0.042318 0.042969 0.043620 0.044271 0.044922 0.045573 0.046224 0.046875 0.047526 0.048177 0.048828 0.049479 0.050130 0.050781 0.051432 0.052083 0.052734 0.053385 0.054036 0.054688 0.055339 0.055990 0.056641 0.057292 0.057943 0.058594 0.059245 0.059896 0.060547 0.061198 0.061849 0.062500 0.063151 0.063802 0.064453 0.065104 0.065755 0.066406 0.067057 0.067708 0.068359 0.069010 0.069661 0.070312 0.070964 0.071615 0.072266 0.072917 0.073568 0.074219 0.074870 0.075521 0.076172 0.076823 0.077474 0.078125 0.078776 0.079427 0.080078 0.080729 0.081380 0.082031 0.082682 0.083333 0.083984 0.084635 0.085286 0.085938 0.086589 0.087240 0.087891 0.088542 0.089193 0.089844 0.090495 0.091146 0.091797 0.092448 0.093099 0.093750 0.094401 0.095052 0.095703 0.096354 0.097005 0.097656 0.098307 0.098958 0.099609 0.100260 0.100911 0.101562 0.102214 0.102865 0.103516 0.104167 0.104818 0.105469 0.106120 0.106771 0.107422 0.108073 0.108724 0.109375 0.110026 0.110677 0.111328 0.111979 0.112630 0.113281 0.113932 0.114583 0.115234 0.115885 0.116536 0.117188 0.117839 0.118490 0.119141 0.119792 0.120443 0.121094 0.121745 0.122396 0.123047 0.123698 0.124349 0.125000 0.125651 0.126302 0.126953 0.127604 0.128255 0.128906 0.129557 0.130208 0.130859 0.131510 0.132161 0.132812 0.133464 0.134115 0.134766 0.135417 0.136068 0.136719 0.137370 0.138021 0.138672 0.139323 0.139974 0.140625 0.141276 0.141927 0.142578 0.143229 0.143880 0.144531 0.145182 0.145833 0.146484 0.147135 0.147786 0.148438 0.149089 0.149740 0.150391 0.151042 0.151693 0.152344 0.152995 0.153646 0.154297 0.154948 0.155599 0.156250 0.156901 0.157552 0.158203 0.158854 0.159505 0.160156 0.160807 0.161458 0.162109 0.162760 0.163411 0.164062 0.164714 0.165365 0.166016 0.166667 0.167318 0.167969 0.168620 0.169271 0.169922 0.170573 0.171224 0.171875 0.172526 0.173177 0.173828 0.174479 0.175130 0.175781 0.176432 0.177083 0.177734 0.178385 0.179036 0.179688 0.180339 0.180990 0.181641 0.182292 0.182943 0.183594 0.184245 0.184896 0.185547 0.186198 0.186849 0.187500 0.188151 0.188802 0.189453 0.190104 0.190755 0.191406 0.192057 0.192708 0.193359 0.194010 0.194661 0.195312 0.195964 0.196615 0.197266 0.197917 0.198568 0.199219 0.199870 0.200521 0.201172 0.201823 0.202474 0.203125 0.203776 0.204427 0.205078 0.205729 0.206380 0.207031 0.207682 0.208333 0.208984 0.209635 0.210286 0.210938 0.211589 0.212240 0.212891 0.213542 0.214193 0.214844 0.215495 0.216146 0.216797 0.217448 0.218099 0.218750 0.219401 0.220052 0.220703 0.221354 0.222005 0.222656 0.223307 0.223958 0.224609 0.225260 0.225911 0.226562 0.227214 0.227865 0.228516 0.229167 0.229818 0.230469 0.231120 0.231771 0.232422 0.233073 0.233724 0.234375 0.235026 0.235677
       0.32082        0.32082        0.32082        0.32082        0.32082        0.32082        0.32082        0.32082        0.32082        0.32082        0.32082        0.32082        0.32082        0.32082        0.32082        0.32082        0.32082        0.32081        0.32082        0.32082        0.32082        0.32082        0.32082        0.32082        0.32082        0.32082        0.32082        0.32082        0.32082        0.32082        0.32082        0.32082        0.32082        0.32082        0.32082        0.32082        0.32082        0.32082        0.32082        0.32081        0.32082        0.32082        0.32082        0.32082        0.32082        0.32082        0.32082        0.32082        0.32082        0.32082        0.32082        0.68273        0.86289        0.52516        0.09311       -0.05293       -0.41579       -0.19773       -0.29424       -0.11526       -0.06940       -0.11700       -0.06296       -0.19611       -0.22493       -0.24630       -0.32447       -0.33550       -0.47420       -0.37693       -0.45470       -0.44288       -0.41562       -0.45404       -0.51383       -0.54773       -0.57891       -0.60611       -0.56603       -0.39976       -0.37018       -0.32184       -0.30266       -0.20607       -0.19773        0.02585        0.09529        0.12629        0.23351        0.36909        0.44350        0.50941        0.56477        0.56270        0.56420        0.69084        0.80521        0.72234        0.73018        0.64601        0.56734        0.47978        0.41450        0.49835        0.38186        0.22243        0.08299        0.06271        0.03423       -0.05402       -0.01773        0.00143       -0.05172       -0.00372       -0.01010        0.22057        0.25383        0.28422        0.42448        0.44882        0.40489        0.55513        0.62231        0.67858        0.74467        0.68149        0.64734        0.68509        0.57364        0.48567        0.41722        0.29094        0.20996        0.15725        0.10987        0.04336        0.01861        0.01340        0.07557        0.12899        0.21144        0.27498        0.39422        0.43412        0.49458        0.59694        0.62277        0.63088        0.62233        0.55752        0.44826        0.45739        0.35837        0.23442        0.17921        0.14677        0.12971        0.12938        0.09801        0.12469        0.25755        0.27447        0.35852        0.38088        0.43770        0.50844        0.54036        0.54776        0.47522        0.44154        0.38927        0.34867        0.30512        0.26317        0.21000        0.20085        0.18232        0.20770        0.19008        0.28333        0.34230        0.37362        0.43218        0.45248        0.47717        0.42460        0.38998        0.40883        0.36401        0.28345        0.26135        0.22317        0.22500        0.19805        0.23420        0.24096        0.32885        0.36656        0.37970        0.46878        0.42880        0.43189        0.42993        0.39907        0.34295        0.31617        0.27862        0.26989        0.24574        0.28262        0.27932        0.30459        0.31354        0.33246        0.32107        0.40394        0.41831        0.37769        0.34709        0.36907        0.28845        0.28529        0.26336        0.29037        0.26922        0.28426        0.29684        0.31345        0.34218        0.36637        0.36827        0.35694        0.36007        0.29952        0.32267        0.27606        0.24484        0.30242        0.29447        0.31130        0.31065        0.32081        0.34113        0.32089        0.31855        0.29158        0.30530        0.27655        0.28815        0.25972        0.29256        0.29141        0.27936        0.30586        0.32059        0.32778        0.27195        0.30480        0.27325        0.27512        0.25987        0.22286        0.28219        0.28342        0.33794        0.31407        0.31648        0.31834        0.31939        0.27688        0.30946        0.32627        0.27084        0.26365        0.30443        0.29157        0.33727        0.32643        0.32789        0.32504        0.29277        0.27500        0.28636        0.24737        0.22224        0.29434        0.31399        0.30180        0.29222        0.30487        0.28022        0.33397        0.32465        0.25287        0.22421        0.28887        0.30607        0.27599        0.30964        0.32818        0.33492        0.31399        0.30175        0.33290        0.30926        0.28151        0.25847        0.30553        0.35480        0.37601        0.28238        0.26545        0.26496        0.30000        0.23286        0.28374        0.24727        0.24587        0.32795        0.32339        0.33864        0.30903        0.26837        0.24762        0.24835        0.23813        0.21797        0.23737        0.30413        0.30041        0.22261        0.32119        0.32216        0.26178        0.25478        0.20046        0.17523        0.23267        0.20611        0.22631        0.23068        0.22073        0.18791        0.26646        0.34831        0.33707        0.34176        0.24106        0.19515        0.18593        0.26076        0.25357        0.13145        0.18104        0.23942        0.14657        0.18326        0.14156        0.11817        0.18909        0.07370       -0.10880       -0.58851
2.627928 2.600358 2.572937 2.545667 2.518546 2.491575 2.464755 2.438084 2.411563 2.385192 2.358972 2.332901 2.306980 2.281209 2.255588 2.230117 2.204796 2.179625 2.154603 2.129732 2.105011 2.080440 2.056018 2.031747 2.007626 1.983654 1.959833 1.936161 1.912639 1.889268 1.866046 1.842975 1.820053 1.797281 1.774659 1.752187 1.729865 1.707693 1.685671 1.663799 1.642077 1.620505 1.599083 1.577811 1.556689 1.535716 1.514894 1.494222 1.473699 1.453327 1.433104 1.649778 2.063750 1.634877 1.144186 1.004393 0.427937 0.822856 0.561311 0.837761 0.783753 0.797689 0.752101 0.720965 0.574865 0.528219 0.488685 0.435497 0.222044 0.377976 0.203117 0.313793 0.232351 0.188986 0.147865 0.018557 0.035604 -0.005890 -0.060512 0.114466 0.211704 0.190988 0.162711 0.331326 0.191474 0.494882 0.595863 0.577131 0.607276 0.870438 0.815448 0.936558 0.893000 0.988016 0.951586 1.066458 1.150561 1.059489 1.128232 0.929110 0.930293 0.781597 0.654820 0.780746 0.707246 0.470828 0.315257 0.247613 0.237820 0.144388 0.102655 0.140926 0.086617 0.138924 0.061312 0.260808 0.375437 0.347509 0.477463 0.560261 0.447270 0.568095 0.705584 0.721763 0.760747 0.720228 0.723316 0.693391 0.619266 0.548996 0.411267 0.284275 0.216169 0.081005 0.124418 -0.056909 -0.038281 -0.071126 -0.051634 -0.013855 0.147150 0.076462 0.273123 0.293330 0.353203 0.442558 0.518087 0.506665 0.507581 0.507864 0.326156 0.308945 0.282258 0.097087 0.044162 -0.034829 -0.017652 -0.045483 -0.081852 -0.096991 0.017985 0.067966 0.125351 0.173939 0.228513 0.300920 0.319817 0.421295 0.392723 0.278371 0.239489 0.223985 0.176519 0.119629 0.092353 0.006676 0.007748 0.029449 -0.012561 0.070423 0.151836 0.142275 0.245949 0.249400 0.309870 0.218991 0.214936 0.162410 0.209871 0.118498 0.045599 0.011957 -0.008521 -0.008747 -0.040434 0.030667 0.020572 0.149649 0.140604 0.178621 0.231336 0.188102 0.181458 0.194858 0.145490 0.082835 0.040158 0.058167 -0.008378 0.001470 0.028237 0.053433 0.060786 0.071212 0.075454 0.114220 0.140962 0.182782 0.082579 0.089791 0.071801 0.015522 -0.000994 0.009879 0.008585 0.015837 0.008869 0.029722 0.061316 0.081585 0.123258 0.060300 0.122100 0.063917 0.022280 0.058157 -0.031341 -0.009415 0.048005 0.004496 0.058149 0.049694 0.039700 0.097765 0.054346 0.030815 0.037824 0.015794 0.025300 0.010208 -0.011218 0.056891 -0.001732 0.021218 0.060739 0.058732 0.052411 0.040659 0.043091 0.028214 0.015491 -0.016600 -0.013345 0.035220 0.053715 0.093433 0.074871 0.068833 0.092196 0.084110 0.043308 0.095855 0.100311 0.018519 0.037963 0.080769 0.068126 0.108029 0.103855 0.076570 0.135137 0.075898 0.033142 0.075782 -0.009565 0.016328 0.090015 0.089621 0.072955 0.064854 0.050958 0.031851 0.120039 0.069499 -0.019352 -0.033295 0.048707 0.082365 0.013921 0.048273 0.097470 0.096339 0.052602 0.050351 0.081819 0.058275 0.033694 -0.025850 0.069082 0.121877 0.112347 -0.010993 -0.008071 -0.018476 0.061211 -0.073230 0.029379 -0.042218 -0.030847 0.059240 0.056274 0.037099 0.003329 -0.032257 -0.041115 -0.070600 -0.033863 -0.073726 -0.069564 0.024940 0.078349 -0.066901 0.073033 0.020858 -0.040480 0.029131 -0.099138 -0.088455 -0.035232 -0.053044 -0.007202 -0.026829 0.015448 -0.069435 0.041333 0.207412 0.021964 0.187129 0.037006 0.204465 0.191284 0.288439 0.271888 0.120501 0.182299 0.287532 0.118372 0.196522 0.138195 0.130699 0.278215 0.075260 -0.618808
0.072396 0.072899 0.074407 0.076919 0.080436 0.084956 0.090478 0.097001 0.104522 0.113039 0.122547 0.133044 0.144522 0.156977 0.170401 0.184783 0.200114 0.216380 0.233566 0.251656 0.270628 0.290460 0.311126 0.332597 0.354840 0.377817 0.401486 0.425803 0.450716 0.476169 0.502101 0.528446 0.555129 0.582073 0.609192 0.636395 0.663582 0.690649 0.717484 0.743968 0.769975 0.795373 0.820023 0.843781 0.866493 0.888004 0.908152 0.926768 0.943683 0.958723 0.971711 0.982468 0.990818 0.996582 0.999586 0.999658 0.996632 0.990349 0.980659 0.967420 0.950507 0.929805 0.905219 0.876672 0.844107 0.807490 0.766816 0.722104 0.673404 0.620798 0.564403 0.504369 0.440885 0.374177 0.304512 0.232197 0.157578 0.081042 0.003016 0.076032 0.155601 0.235151 0.314111 0.391880 0.467832 0.541320 0.611682 0.678244 0.740332 0.797274 0.848410 0.893101 0.930735 0.960738 0.982584 0.995803 0.999989 0.994816 0.980039 0.955507 0.921174 0.877099 0.823461 0.760558 0.688814 0.608781 0.521140 0.426702 0.326398 0.221283 0.112523 0.001386 0.110771 0.222512 0.332346 0.438741 0.540148 0.635022 0.721847 0.799167 0.865604 0.919894 0.960911 0.987693 0.999470 0.995687 0.976026 0.940427 0.889099 0.822535 0.741516 0.647114 0.540685 0.423858 0.298520 0.166792 0.030996 0.106379 0.242723 0.375345 0.501538 0.618623 0.724018 0.815296 0.890243 0.946923 0.983733 0.999457 0.993313 0.964990 0.914683 0.843103 0.751497 0.641628 0.515767 0.376649 0.227436 0.071642 0.086935 0.244304 0.396376 0.539075 0.668447 0.780777 0.872699 0.941316 0.984292 0.999953 0.987359 0.946364 0.877654 0.782763 0.664058 0.524703 0.368590 0.200245 0.024713 0.152584 0.326021 0.489927 0.638793 0.767453 0.871277 0.946350 0.989636 0.999124 0.973931 0.914383 0.822046 0.699716 0.551363 0.382025 0.197659 0.004944 0.188947 0.376609 0.550684 0.704161 0.830668 0.924751 0.982130 0.999919 0.976794 0.913106 0.810921 0.673995 0.507667 0.318681 0.114938 0.094818 0.301362 0.495396 0.667963 0.810878 0.917140 0.981289 0.999725 0.970939 0.895654 0.776862 0.619751 0.431521 0.221081 0.001342 0.224680 0.437569 0.628935 0.788568 0.907704 0.979526 0.999591 0.966147 0.880312 0.746093 0.570262 0.362048 0.132706 0.105084 0.337877 0.552242 0.735531 0.876650 0.966768 0.999901 0.973363 0.888024 0.748358 0.562272 0.340706 0.097044 0.153670 0.395642 0.613323 0.792417 0.920856 0.989649 0.993564 0.931583 0.807088 0.627747 0.405107 0.153916 0.108826 0.364990 0.596564 0.786925 0.922078 0.991721 0.990097 0.916530 0.775609 0.576988 0.334789 0.066673 0.207429 0.466759 0.691314 0.863415 0.969135 0.999500 0.951314 0.827559 0.637320 0.395191 0.120236 0.165462 0.438557 0.676324 0.858604 0.969536 0.999018 0.943708 0.807472 0.601227 0.342156 0.052349 0.243009 0.517835 0.747424 0.910729 0.992337 0.984021 0.885655 0.705412 0.459202 0.169365 0.137302 0.431965 0.686458 0.876022 0.981760 0.992607 0.906600 0.731267 0.483099 0.186110 0.130431 0.434796 0.696013 0.887021 0.987558 0.986397 0.882719 0.686423 0.417319 0.103237 0.222773 0.525879 0.773181 0.937350 0.999718 0.952522 0.799993 0.558144 0.253217 0.081057 0.407128 0.687814 0.890595 0.991437 0.977774 0.850201 0.622677 0.321151 0.019276 0.358359 0.655428 0.874302 0.987772 0.981103 0.854095 0.621401 0.310998 0.039040 0.385135 0.683587 0.896136 0.994955 0.966429 0.813185 0.554083 0.222030 0.140007
1.000000 1.000000 1.000000 1.000000 1.000000 1.000000 1.000000 1.000000 1.000000 1.000000 1.000000 1.000000 1.000000 1.000000 1.000000 1.000000 1.000000 1.000000 1.000000 1.000000 1.000000 1.000000 1.000000 1.000000 1.000000 1.000000 1.000000 1.000000 1.000000 1.000000 1.000000 1.000000 1.000000 1.000000 1.000000 1.000000 1.000000 1.000000 1.000000 1.000000 1.000000 1.000000 1.000000 1.000000 1.000000 1.000000 1.000000 1.000000 1.000000 1.000000 1.000000 1.000000 0.923941 0.923941 0.923941 0.914528 0.914528 0.914528 0.914528 0.914528 0.914528 0.914528 0.914528 0.914528 0.914528 0.914528 0.914528 0.914528 0.914528 0.914528 0.914528 0.914528 0.914528 0.914528 0.914528 0.914528 0.914528 0.914528 0.914528 0.914528 0.914528 0.914528 0.914528 0.914528 0.914528 0.914528 0.914528 0.914528 0.914528 0.914528 0.914528 0.914528 0.914528 0.914528 0.914528 0.914528 0.942216 0.943646 0.951731 0.951581 0.951031 0.948898 0.947830 0.947374 0.947267 0.947588 0.948283 0.949232 0.957995 0.959162 0.961950 0.962832 0.963573 0.964215 0.964869 0.965480 0.962097 0.961083 0.960578 0.956659 0.959341 0.958653 0.958686 0.959681 0.959567 0.960968 0.961187 0.960544 0.959557 0.958700 0.957866 0.957371 0.957189 0.957874 0.958234 0.959626 0.962862 0.963406 0.963515 0.963671 0.963776 0.965074 0.963761 0.963229 0.959441 0.959800 0.959582 0.957487 0.963775 0.961136 0.961584 0.962128 0.963658 0.963915 0.958828 0.954477 0.945561 0.944410 0.939319 0.931764 0.928718 0.930392 0.932518 0.933227 0.933058 0.926985 0.927262 0.922304 0.920256 0.923291 0.920079 0.918484 0.919941 0.918264 0.916142 0.915412 0.912571 0.905749 0.900111 0.900036 0.904065 0.907836 0.909299 0.908261 0.902687 0.893117 0.871725 0.869994 0.866429 0.870359 0.862788 0.862348 0.862806 0.861982 0.865612 0.866272 0.867217 0.862836 0.846604 0.828027 0.816283 0.821173 0.827339 0.827048 0.818576 0.821385 0.834518 0.817396 0.830432 0.841810 0.831385 0.831650 0.830854 0.827253 0.816528 0.816103 0.815882 0.809130 0.808735 0.808649 0.804197 0.797608 0.802849 0.780623 0.769595 0.761415 0.763993 0.768372 0.768571 0.766071 0.770483 0.776618 0.778939 0.765615 0.756843 0.744579 0.750134 0.755088 0.760819 0.754513 0.738711 0.714128 0.663983 0.681231 0.722316 0.664758 0.685592 0.689764 0.678061 0.677034 0.668386 0.661691 0.646871 0.650302 0.661210 0.676664 0.686178 0.708488 0.693201 0.682339 0.685013 0.673808 0.666658 0.654780 0.661708 0.640149 0.634714 0.662853 0.663082 0.653728 0.654000 0.633844 0.632006 0.650716 0.659498 0.655455 0.651079 0.629201 0.592311 0.593615 0.600509 0.617261 0.642785 0.619843 0.597523 0.587550 0.577887 0.597023 0.577604 0.577134 0.589844 0.596951 0.579755 0.553358 0.557783 0.581013 0.585479 0.573950 0.542923 0.540329 0.549079 0.588733 0.578647 0.543595 0.554254 0.550326 0.549674 0.509018 0.516779 0.486232 0.468037 0.418551 0.405176 0.412612 0.401703 0.382609 0.356058 0.354222 0.361134 0.370971 0.369411 0.356096 0.332853 0.355423 0.358977 0.345805 0.284703 0.269577 0.255124 0.246180 0.246662 0.218260 0.238080 0.290958 0.291871 0.291871 0.291871 0.291871 0.291871 0.291871 0.305151 0.305151 0.305151 0.305151 0.305151 0.305151 0.305151 0.305151 0.305151 0.319792 0.319792 0.319792 0.319792 0.319792 0.319792 0.319792 0.319792 0.319792 0.319792 0.319792 0.319792 0.319792 0.319792
0.000000 0.000000 0.000000 0.000000 0.000000 0.000000 0.000000 0.000000 0.000000 0.000000 0.000000 0.000000 0.000000 0.000000 0.000000 0.000000 0.000000 0.000000 0.000000 0.000000 0.000000 0.000000 0.000000 0.000000 0.000000 0.000000 0.000000 0.000000 0.000000 0.000000 0.000000 0.000000 0.000000 0.000000 0.000000 0.000000 0.000000 0.000000 0.000000 0.000000 0.000000 0.000000 0.000000 0.000000 0.000000 0.000000 0.000000 0.000000 0.000000 0.000000 0.000000 0.000000 0.180334 0.180334 0.180334 0.199007 0.199007 0.199007 0.199007 0.199007 0.199007 0.199007 0.199007 0.199007 0.199007 0.199007 0.199007 0.199007 0.199007 0.199007 0.199007 0.199007 0.199007 0.199007 0.199007 0.199007 0.199007 0.199007 0.199007 0.199007 0.199007 0.199007 0.199007 0.199007 0.199007 0.199007 0.199007 0.199007 0.199007 0.199007 0.199007 0.199007 0.199007 0.199007 0.199007 0.199007 0.225018 0.225018 0.225018 0.225018 0.225018 0.225018 0.225018 0.225018 0.225018 0.225018 0.225018 0.225018 0.225018 0.225018 0.225018 0.225018 0.225018 0.225018 0.225018 0.225018 0.225018 0.225018 0.225018 0.225018 0.225018 0.225018 0.225018 0.225018 0.225018 0.244339 0.244339 0.244339 0.244339 0.244339 0.244339 0.244339 0.244339 0.244339 0.244339 0.244339 0.244339 0.244339 0.244339 0.244339 0.244339 0.244339 0.244339 0.244339 0.244339 0.244339 0.244339 0.244339 0.251976 0.251976 0.251976 0.251976 0.251976 0.251976 0.251976 0.251976 0.251976 0.251976 0.251976 0.251976 0.251976 0.251976 0.251976 0.251976 0.251976 0.251976 0.251976 0.251976 0.264906 0.264906 0.264906 0.264906 0.264906 0.264906 0.264906 0.264906 0.264906 0.264906 0.264906 0.264906 0.264906 0.264906 0.264906 0.264906 0.264906 0.264906 0.264906 0.264906 0.264906 0.264906 0.264906 0.264906 0.264906 0.264906 0.264906 0.264906 0.264906 0.264906 0.264906 0.264906 0.264906 0.264906 0.264906 0.264906 0.264906 0.264906 0.264906 0.264906 0.264906 0.264906 0.264906 0.264906 0.264906 0.264906 0.264906 0.264906 0.264906 0.264906 0.264906 0.264906 0.264906 0.264906 0.264906 0.264906 0.264906 0.264906 0.264906 0.264906 0.264906 0.264906 0.256074 0.256074 0.256074 0.256074 0.256074 0.256074 0.256074 0.256074 0.256074 0.256074 0.256074 0.256074 0.256074 0.256074 0.269680 0.269680 0.269680 0.269680 0.269680 0.269680 0.269680 0.269680 0.269680 0.269680 0.269680 0.269680 0.264906 0.264906 0.264906 0.264906 0.264906 0.264906 0.264906 0.264906 0.264906 0.264906 0.264906 0.264906 0.269680 0.269680 0.269680 0.269680 0.269680 0.269680 0.269680 0.269680 0.269680 0.269680 0.269680 0.264906 0.264906 0.264906 0.264906 0.264906 0.264906 0.264906 0.264906 0.264906 0.264906 0.264906 0.256074 0.256074 0.256074 0.256074 0.256074 0.256074 0.256074 0.256074 0.256074 0.256074 0.256074 0.264906 0.264906 0.264906 0.264906 0.264906 0.264906 0.264906 0.264906 0.264906 0.264906 0.260378 0.260378 0.260378 0.260378 0.260378 0.260378 0.260378 0.260378 0.260378 0.260378 0.256074 0.256074 0.256074 0.256074 0.256074 0.256074 0.256074 0.256074 0.256074 0.256074 0.260378 0.260378 0.260378 0.260378 0.260378 0.260378 0.260378 0.260378 0.260378 0.256074 0.256074 0.256074 0.256074 0.256074 0.256074 0.256074 0.256074 0.256074 0.251976 0.251976 0.251976 0.251976 0.251976 0.251976 0.251976 0.251976 0.251976 0.251976 0.251976 0.251976 0.251976 0.251976
