# Output from CTFFind version 4.1.9, run on 2019-11-02 17:49:02
# Input file: stack1_bm3d_averaged_1_1.0_0_2500_half.mrc ; Number of micrographs: 1
# Pixel size: 3.000 Angstroms ; acceleration voltage: 300.0 keV ; spherical aberration: 0.00 mm ; amplitude contrast: 0.07
# Box size: 512 pixels ; min. res.: 30.0 Angstroms ; max. res.: 5.0 Angstroms ; min. def.: 5000.0 um; max. def. 50000.0 um; num. frames averaged: 1
# 6 lines per micrograph: #1 - spatial frequency (1/Angstroms); #2 - 1D rotational average of spectrum (assuming no astigmatism); #3 - 1D rotational average of spectrum; #4 - CTF fit; #5 - cross-correlation between spectrum and CTF fit; #6 - 2sigma of expected cross correlation of noise
0.000000 0.000651 0.001302 0.001953 0.002604 0.003255 0.003906 0.004557 0.005208 0.005859 0.006510 0.007161 0.007812 0.008464 0.009115 0.009766 0.010417 0.011068 0.011719 0.012370 0.013021 0.013672 0.014323 0.014974 0.015625 0.016276 0.016927 0.017578 0.018229 0.018880 0.019531 0.020182 0.020833 0.021484 0.022135 0.022786 0.023438 0.024089 0.024740 0.025391 0.026042 0.026693 0.027344 0.027995 0.028646 0.029297 0.029948 0.030599 0.031250 0.031901 0.032552 0.033203 0.033854 0.034505 0.035156 0.035807 0.036458 0.037109 0.037760 0.038411 0.039062 0.039714 0.040365 0.041016 0.041667 0.042318 0.042969 0.043620 0.044271 0.044922 0.045573 0.046224 0.046875 0.047526 0.048177 0.048828 0.049479 0.050130 0.050781 0.051432 0.052083 0.052734 0.053385 0.054036 0.054688 0.055339 0.055990 0.056641 0.057292 0.057943 0.058594 0.059245 0.059896 0.060547 0.061198 0.061849 0.062500 0.063151 0.063802 0.064453 0.065104 0.065755 0.066406 0.067057 0.067708 0.068359 0.069010 0.069661 0.070312 0.070964 0.071615 0.072266 0.072917 0.073568 0.074219 0.074870 0.075521 0.076172 0.076823 0.077474 0.078125 0.078776 0.079427 0.080078 0.080729 0.081380 0.082031 0.082682 0.083333 0.083984 0.084635 0.085286 0.085938 0.086589 0.087240 0.087891 0.088542 0.089193 0.089844 0.090495 0.091146 0.091797 0.092448 0.093099 0.093750 0.094401 0.095052 0.095703 0.096354 0.097005 0.097656 0.098307 0.098958 0.099609 0.100260 0.100911 0.101562 0.102214 0.102865 0.103516 0.104167 0.104818 0.105469 0.106120 0.106771 0.107422 0.108073 0.108724 0.109375 0.110026 0.110677 0.111328 0.111979 0.112630 0.113281 0.113932 0.114583 0.115234 0.115885 0.116536 0.117188 0.117839 0.118490 0.119141 0.119792 0.120443 0.121094 0.121745 0.122396 0.123047 0.123698 0.124349 0.125000 0.125651 0.126302 0.126953 0.127604 0.128255 0.128906 0.129557 0.130208 0.130859 0.131510 0.132161 0.132812 0.133464 0.134115 0.134766 0.135417 0.136068 0.136719 0.137370 0.138021 0.138672 0.139323 0.139974 0.140625 0.141276 0.141927 0.142578 0.143229 0.143880 0.144531 0.145182 0.145833 0.146484 0.147135 0.147786 0.148438 0.149089 0.149740 0.150391 0.151042 0.151693 0.152344 0.152995 0.153646 0.154297 0.154948 0.155599 0.156250 0.156901 0.157552 0.158203 0.158854 0.159505 0.160156 0.160807 0.161458 0.162109 0.162760 0.163411 0.164062 0.164714 0.165365 0.166016 0.166667 0.167318 0.167969 0.168620 0.169271 0.169922 0.170573 0.171224 0.171875 0.172526 0.173177 0.173828 0.174479 0.175130 0.175781 0.176432 0.177083 0.177734 0.178385 0.179036 0.179688 0.180339 0.180990 0.181641 0.182292 0.182943 0.183594 0.184245 0.184896 0.185547 0.186198 0.186849 0.187500 0.188151 0.188802 0.189453 0.190104 0.190755 0.191406 0.192057 0.192708 0.193359 0.194010 0.194661 0.195312 0.195964 0.196615 0.197266 0.197917 0.198568 0.199219 0.199870 0.200521 0.201172 0.201823 0.202474 0.203125 0.203776 0.204427 0.205078 0.205729 0.206380 0.207031 0.207682 0.208333 0.208984 0.209635 0.210286 0.210938 0.211589 0.212240 0.212891 0.213542 0.214193 0.214844 0.215495 0.216146 0.216797 0.217448 0.218099 0.218750 0.219401 0.220052 0.220703 0.221354 0.222005 0.222656 0.223307 0.223958 0.224609 0.225260 0.225911 0.226562 0.227214 0.227865 0.228516 0.229167 0.229818 0.230469 0.231120 0.231771 0.232422 0.233073 0.233724 0.234375 0.235026 0.235677
       0.33400        0.33400        0.33400        0.33400        0.33400        0.33400        0.33400        0.33400        0.33400        0.33400        0.33400        0.33400        0.33400        0.33400        0.33400        0.33400        0.33400        0.33400        0.33400        0.33400        0.33400        0.33400        0.33400        0.33400        0.33400        0.33400        0.33400        0.33400        0.33400        0.33400        0.33400        0.33400        0.33400        0.33400        0.33400        0.33400        0.33400        0.33400        0.33400        0.33400        0.33400        0.33400        0.33400        0.33400        0.33400        0.33400        0.33400        0.33400        0.33400        0.33400        0.33400        0.50259        0.71821        0.42840        0.19122       -0.08058       -0.26364       -0.06967       -0.13176       -0.05445       -0.00070       -0.14628       -0.09245       -0.04696        0.00087       -0.15039       -0.21889       -0.34452       -0.46301       -0.56077       -0.51980       -0.44957       -0.37247       -0.54827       -0.44777       -0.62109       -0.50210       -0.47446       -0.39117       -0.38152       -0.33920       -0.24818       -0.16078       -0.13617        0.03304       -0.01131        0.11862        0.17124        0.30522        0.40968        0.46489        0.49505        0.54053        0.55046        0.69541        0.64645        0.67901        0.59100        0.55707        0.65553        0.52776        0.42998        0.38667        0.32177        0.22795        0.26606        0.25255        0.10694        0.08708        0.00174       -0.00580        0.03383       -0.00322        0.07554        0.09435        0.23110        0.28166        0.30621        0.38392        0.56070        0.53922        0.57931        0.67128        0.69796        0.63099        0.63488        0.63375        0.55135        0.57574        0.39344        0.34693        0.26789        0.18787        0.07264        0.14657        0.12032        0.09199        0.10939        0.21122        0.21111        0.31670        0.35844        0.41383        0.49373        0.58347        0.54519        0.55704        0.60960        0.54398        0.46529        0.47893        0.32434        0.25308        0.25620        0.24427        0.14461        0.14613        0.15433        0.22352        0.25233        0.32956        0.36435        0.39226        0.46870        0.44891        0.47811        0.45329        0.46973        0.44453        0.40730        0.38067        0.35664        0.31185        0.28578        0.20458        0.20173        0.22486        0.27030        0.26693        0.34979        0.37667        0.35798        0.41270        0.46067        0.45102        0.42613        0.43724        0.36439        0.33776        0.28505        0.26556        0.28816        0.26957        0.29600        0.30209        0.34970        0.33868        0.40251        0.40341        0.42726        0.41222        0.43223        0.40630        0.36641        0.28370        0.29390        0.30850        0.27832        0.26028        0.33472        0.37316        0.34178        0.35578        0.36069        0.35391        0.40687        0.40041        0.35867        0.34202        0.31223        0.31219        0.31613        0.31346        0.30070        0.28878        0.33804        0.35791        0.37678        0.33425        0.32927        0.33588        0.34485        0.30741        0.28263        0.30762        0.31880        0.33475        0.32325        0.33560        0.35683        0.33344        0.31704        0.33173        0.30419        0.26410        0.25020        0.26506        0.30592        0.32471        0.35184        0.30189        0.31601        0.33853        0.29501        0.31978        0.29285        0.28291        0.29345        0.30109        0.31031        0.34440        0.32211        0.32646        0.33172        0.31604        0.33439        0.31956        0.32297        0.31272        0.28183        0.29595        0.31441        0.29225        0.32950        0.33723        0.33507        0.31627        0.34022        0.31858        0.27501        0.25332        0.27322        0.33126        0.36119        0.35044        0.31846        0.29646        0.29818        0.31605        0.24836        0.29557        0.30170        0.32401        0.29571        0.31703        0.28385        0.33540        0.34532        0.34475        0.33190        0.29958        0.31292        0.39397        0.32968        0.31501        0.30797        0.29753        0.28673        0.29682        0.27145        0.31133        0.23828        0.27983        0.29851        0.31590        0.29482        0.28173        0.29940        0.24093        0.23300        0.26489        0.31416        0.30767        0.29390        0.28636        0.33409        0.25522        0.21547        0.31311        0.26810        0.25853        0.27826        0.39165        0.29222        0.28592        0.25373        0.25029        0.26013        0.23153        0.23227        0.16417        0.24477        0.23259        0.25312        0.31910        0.28501        0.34468        0.28394        0.26963        0.25133        0.22444        0.23627        0.28495        0.22295        0.12495        0.14654        0.23781        0.23552        0.34016        0.31655        0.04360       -0.42383       -0.91361
2.704666 2.676127 2.647741 2.619509 2.591429 2.563502 2.535729 2.508108 2.480640 2.453326 2.426164 2.399156 2.372300 2.345598 2.319048 2.292651 2.266408 2.240317 2.214380 2.188595 2.162964 2.137485 2.112160 2.086988 2.061968 2.037102 2.012388 1.987828 1.963420 1.939166 1.915065 1.891116 1.867321 1.843678 1.820189 1.796853 1.773669 1.750639 1.727762 1.705038 1.682466 1.660048 1.637783 1.615670 1.593711 1.571905 1.550252 1.528751 1.507404 1.486210 1.465169 1.534752 1.835245 1.520145 1.201181 0.944683 0.544332 0.914935 0.638645 0.876705 0.932413 0.594536 0.712225 0.789395 0.828575 0.632964 0.543193 0.350670 0.104045 0.079171 0.042101 0.079912 0.301949 -0.033339 0.083344 -0.134733 -0.011411 -0.017965 0.080516 0.068604 0.101715 0.179792 0.285100 0.253831 0.485498 0.400341 0.549987 0.532107 0.773913 0.791163 0.884074 0.923369 0.942639 0.949928 1.119839 0.944723 1.147692 0.953024 0.854496 1.022639 0.850849 0.764842 0.623287 0.599207 0.456702 0.422003 0.513586 0.266226 0.204796 0.162351 0.012371 0.205383 -0.004083 0.123780 0.177157 0.257194 0.332391 0.352272 0.430757 0.540299 0.670366 0.541767 0.752118 0.851605 0.642099 0.700447 0.668932 0.592248 0.544036 0.459420 0.300541 0.217145 0.121849 -0.042100 -0.016863 0.059139 -0.096054 -0.057350 0.051010 0.054918 0.113306 0.218576 0.241017 0.310033 0.433244 0.449802 0.446140 0.479907 0.456673 0.337007 0.332207 0.241120 0.057057 0.061840 0.014717 -0.039701 -0.098600 -0.094968 -0.011261 -0.044341 0.075560 0.121576 0.120114 0.265589 0.232484 0.250150 0.286295 0.250414 0.239294 0.218131 0.166256 0.115900 0.106017 0.024829 0.006791 -0.115837 -0.047861 0.005604 -0.002116 0.025099 0.097135 0.083180 0.137102 0.193209 0.261626 0.183119 0.179906 0.103867 0.132409 0.029445 -0.035176 0.021386 -0.025215 0.008802 -0.008952 0.036673 0.081949 0.048483 0.162353 0.090512 0.170838 0.063067 0.147353 0.096601 -0.007877 -0.062335 -0.013427 -0.034664 -0.063390 -0.067109 0.062503 0.058452 -0.007157 0.049079 0.062576 0.069920 0.140926 0.063692 0.059830 0.054819 -0.024154 0.023533 -0.004921 0.008797 -0.000180 -0.003920 0.041864 0.057321 0.067436 0.026751 0.042070 0.021019 0.053887 -0.010464 -0.021471 0.020771 0.012739 0.053630 0.040312 0.044613 0.051182 0.050836 0.019961 0.034801 -0.002045 -0.051029 -0.037141 -0.026853 0.021563 0.038155 0.099808 -0.007222 0.057248 0.060288 -0.010267 0.067229 0.016288 0.007649 0.037657 0.055736 0.037603 0.091994 0.047450 0.067142 0.079858 0.068588 0.064334 0.071452 0.088749 0.036061 -0.009998 0.055521 0.043647 0.043243 0.076632 0.092411 0.001387 0.058710 0.080603 0.007931 0.002204 -0.061077 -0.019113 0.112305 0.084773 0.058129 0.044775 -0.019827 0.056560 0.028119 -0.066682 0.054748 0.029353 0.061614 0.036757 0.011788 0.003435 0.056683 0.046947 0.016274 0.051752 -0.037317 0.065075 0.112619 0.000874 -0.003913 -0.008339 0.002713 -0.032124 -0.032163 -0.046132 -0.016119 -0.094495 -0.021443 -0.035356 0.023103 -0.032279 -0.061702 0.023378 -0.073956 -0.046936 -0.083191 0.058772 0.013467 0.013112 -0.010322 0.076976 -0.056024 -0.064517 0.045141 -0.020005 0.002235 -0.007378 0.191811 -0.039899 0.017618 0.004784 -0.032301 -0.015836 -0.056206 -0.024861 -0.183516 0.004047 -0.046796 -0.001371 0.011005 0.008529 0.117351 -0.012898 0.008879 -0.023908 -0.020428 -0.069204 0.020306 0.269090 0.155607 0.189530 0.247774 0.321931 0.366194 0.377763 0.053759 -1.075066
0.072396 0.072910 0.074452 0.077021 0.080616 0.085238 0.090883 0.097552 0.105241 0.113948 0.123668 0.134398 0.146132 0.158863 0.172583 0.187281 0.202947 0.219567 0.237125 0.255601 0.274976 0.295225 0.316319 0.338229 0.360917 0.384346 0.408470 0.433242 0.458606 0.484504 0.510870 0.537633 0.564716 0.592035 0.619499 0.647011 0.674466 0.701753 0.728754 0.755342 0.781384 0.806742 0.831268 0.854808 0.877205 0.898292 0.917901 0.935855 0.951976 0.966084 0.977994 0.987522 0.994486 0.998702 0.999991 0.998180 0.993101 0.984595 0.972512 0.956716 0.937085 0.913513 0.885914 0.854222 0.818396 0.778420 0.734307 0.686101 0.633877 0.577745 0.517855 0.454392 0.387582 0.317692 0.245030 0.169947 0.092838 0.014136 0.065682 0.146101 0.226568 0.306497 0.385268 0.462237 0.536738 0.608084 0.675583 0.738536 0.796248 0.848036 0.893240 0.931226 0.961403 0.983226 0.996212 0.999947 0.994094 0.978408 0.952741 0.917054 0.871421 0.816038 0.751231 0.677454 0.595298 0.505487 0.408879 0.306463 0.199348 0.088764 0.023959 0.137399 0.250057 0.360378 0.466773 0.567637 0.661382 0.746453 0.821366 0.884733 0.935287 0.971917 0.993696 0.999903 0.990052 0.963912 0.921528 0.863231 0.789652 0.701728 0.600692 0.488075 0.365685 0.235588 0.100080 0.038348 0.177055 0.313295 0.444269 0.567187 0.679327 0.778099 0.861112 0.926237 0.971667 0.995980 0.998186 0.977777 0.934759 0.869677 0.783628 0.678258 0.555750 0.418787 0.270511 0.114455 0.045524 0.205347 0.360800 0.507658 0.641792 0.759297 0.856610 0.930627 0.978820 0.999328 0.991050 0.953704 0.887876 0.795035 0.677523 0.538525 0.381991 0.212550 0.035380 0.143938 0.319590 0.485719 0.636616 0.766936 0.871881 0.947409 0.990395 0.998782 0.971703 0.909552 0.814021 0.688086 0.535945 0.362893 0.175178 0.020228 0.215863 0.404060 0.577251 0.728271 0.850673 0.939018 0.989141 0.998373 0.965707 0.891901 0.779508 0.632827 0.457770 0.261661 0.052945 0.159154 0.365033 0.555141 0.720435 0.852816 0.945560 0.993679 0.994225 0.946506 0.852187 0.715292 0.542073 0.340766 0.121233 0.105504 0.327789 0.533940 0.712866 0.854678 0.951265 0.996796 0.988108 0.924965 0.810168 0.649481 0.451400 0.226747 0.011890 0.250842 0.476121 0.674257 0.833111 0.942652 0.995632 0.988112 0.919803 0.794191 0.618430 0.402987 0.161079 0.092110 0.340356 0.567432 0.758167 0.899510 0.981439 0.997741 0.946536 0.830528 0.656942 0.437147 0.185973 0.079246 0.339844 0.577124 0.773715 0.914874 0.989642 0.991753 0.920231 0.779605 0.579708 0.335065 0.063902 0.213161 0.474678 0.700014 0.871016 0.973518 0.998582 0.943353 0.811447 0.612820 0.363099 0.082436 0.206079 0.478275 0.710945 0.883849 0.981519 0.994732 0.921462 0.767236 0.544825 0.273293 0.023583 0.319323 0.587102 0.802196 0.944308 0.999557 0.961929 0.834024 0.627018 0.359793 0.057311 0.251656 0.537237 0.771344 0.930501 0.998250 0.966972 0.838843 0.625839 0.348740 0.035212 0.282904 0.572778 0.804000 0.951822 0.999895 0.942193 0.783881 0.541010 0.239017 0.089840 0.409864 0.685783 0.886667 0.989466 0.981778 0.863469 0.646951 0.356031 0.023428 0.312846 0.613780 0.843905 0.975555 0.992300 0.891139 0.683132 0.392375 0.053322 0.293177 0.604767 0.842780 0.977108 0.990127 0.879170 0.657155 0.351272 0.000209 0.352627 0.660571 0.883746 0.992356 0.971204 0.821997 0.563454 0.229121 0.136811 0.485277 0.768923 0.948562 0.998730
1.000000 1.000000 1.000000 1.000000 1.000000 1.000000 1.000000 1.000000 1.000000 1.000000 1.000000 1.000000 1.000000 1.000000 1.000000 1.000000 1.000000 1.000000 1.000000 1.000000 1.000000 1.000000 1.000000 1.000000 1.000000 1.000000 1.000000 1.000000 1.000000 1.000000 1.000000 1.000000 1.000000 1.000000 1.000000 1.000000 1.000000 1.000000 1.000000 1.000000 1.000000 1.000000 1.000000 1.000000 1.000000 1.000000 1.000000 1.000000 1.000000 1.000000 1.000000 1.000000 0.919014 0.919014 0.905298 0.905298 0.905298 0.905298 0.905298 0.905298 0.905298 0.905298 0.905298 0.905298 0.905298 0.905298 0.905298 0.905298 0.905298 0.905298 0.905298 0.905298 0.905298 0.905298 0.905298 0.905298 0.905298 0.905298 0.905298 0.905298 0.905298 0.905298 0.905298 0.905298 0.905298 0.905298 0.905298 0.905298 0.905298 0.905298 0.905298 0.905298 0.905298 0.905298 0.905298 0.901879 0.906678 0.908552 0.906947 0.910514 0.910592 0.909953 0.910286 0.909933 0.910246 0.911626 0.922145 0.933188 0.944464 0.944985 0.950100 0.954545 0.956922 0.957864 0.959413 0.969296 0.966836 0.966402 0.967096 0.968589 0.970751 0.969421 0.969075 0.972229 0.972909 0.971252 0.969083 0.968475 0.967870 0.967965 0.967582 0.967471 0.967351 0.967856 0.968063 0.968238 0.968380 0.968426 0.969447 0.970602 0.972932 0.973905 0.973734 0.972619 0.967220 0.971042 0.971805 0.971417 0.971361 0.970909 0.971213 0.958719 0.954312 0.954246 0.951411 0.950123 0.946441 0.945238 0.944149 0.944372 0.943027 0.943162 0.940662 0.927178 0.914089 0.903207 0.922821 0.908302 0.897104 0.871222 0.872170 0.864995 0.865582 0.856466 0.851002 0.846386 0.843139 0.844184 0.842582 0.847044 0.844948 0.830467 0.833900 0.829883 0.799619 0.782991 0.768118 0.769060 0.766393 0.767540 0.767304 0.760943 0.769472 0.761567 0.760045 0.751220 0.730826 0.699536 0.687135 0.697623 0.707621 0.706469 0.702947 0.687838 0.657394 0.668737 0.697387 0.689198 0.691108 0.684496 0.679753 0.683183 0.682640 0.680696 0.674131 0.673474 0.673035 0.680433 0.686096 0.679994 0.671750 0.657243 0.644595 0.630797 0.645048 0.654221 0.622960 0.617024 0.611214 0.604803 0.591899 0.553182 0.551640 0.528624 0.516104 0.515840 0.516359 0.514407 0.523871 0.524732 0.504396 0.529128 0.534230 0.562732 0.532377 0.529580 0.530428 0.540636 0.524446 0.495419 0.485170 0.486276 0.499610 0.535380 0.575962 0.565403 0.553825 0.542308 0.559216 0.532580 0.542492 0.559385 0.536982 0.461884 0.420829 0.417512 0.379581 0.373569 0.368802 0.359478 0.362530 0.355794 0.344349 0.331043 0.317260 0.261970 0.227072 0.209243 0.183505 0.191266 0.205726 0.189972 0.182736 0.221562 0.267587 0.267788 0.259427 0.236118 0.234157 0.207919 0.223761 0.251376 0.208689 0.205009 0.199455 0.174100 0.164554 0.119756 0.154490 0.063341 0.052002 0.053580 0.072666 0.085130 0.086160 0.095467 0.066743 0.085664 0.079251 0.055929 0.042466 0.059803 0.051957 0.016869 0.023375 0.034109 0.017995 0.007146 0.029374 0.020545 0.027462 0.019918 0.021747 0.065946 0.096079 0.084243 0.084953 0.074305 0.074337 0.055058 0.043784 0.035527 0.029308 -0.017156 -0.046505 -0.046505 -0.043837 -0.043837 -0.043837 -0.043837 -0.043837 -0.043837 -0.043837 -0.043837 -0.043837 -0.047092 -0.047092 -0.047092 -0.047092 -0.047092 -0.047092 -0.047092 -0.047092 -0.047092 -0.019669 -0.019669 -0.019669 -0.019669 -0.019669 -0.019669 -0.019669 -0.019669 -0.019669
0.000000 0.000000 0.000000 0.000000 0.000000 0.000000 0.000000 0.000000 0.000000 0.000000 0.000000 0.000000 0.000000 0.000000 0.000000 0.000000 0.000000 0.000000 0.000000 0.000000 0.000000 0.000000 0.000000 0.000000 0.000000 0.000000 0.000000 0.000000 0.000000 0.000000 0.000000 0.000000 0.000000 0.000000 0.000000 0.000000 0.000000 0.000000 0.000000 0.000000 0.000000 0.000000 0.000000 0.000000 0.000000 0.000000 0.000000 0.000000 0.000000 0.000000 0.000000 0.000000 0.181818 0.181818 0.199007 0.199007 0.199007 0.199007 0.199007 0.199007 0.199007 0.199007 0.199007 0.199007 0.199007 0.199007 0.199007 0.199007 0.199007 0.199007 0.199007 0.199007 0.199007 0.199007 0.199007 0.199007 0.199007 0.199007 0.199007 0.199007 0.199007 0.199007 0.199007 0.199007 0.199007 0.199007 0.199007 0.199007 0.199007 0.199007 0.199007 0.199007 0.199007 0.199007 0.199007 0.230940 0.230940 0.230940 0.230940 0.230940 0.230940 0.230940 0.230940 0.230940 0.230940 0.230940 0.230940 0.230940 0.230940 0.230940 0.230940 0.230940 0.230940 0.230940 0.230940 0.230940 0.230940 0.230940 0.230940 0.230940 0.230940 0.230940 0.230940 0.244339 0.244339 0.244339 0.244339 0.244339 0.244339 0.244339 0.244339 0.244339 0.244339 0.244339 0.244339 0.244339 0.244339 0.244339 0.244339 0.244339 0.244339 0.244339 0.244339 0.244339 0.244339 0.244339 0.251976 0.251976 0.251976 0.251976 0.251976 0.251976 0.251976 0.251976 0.251976 0.251976 0.251976 0.251976 0.251976 0.251976 0.251976 0.251976 0.251976 0.251976 0.251976 0.251976 0.264906 0.264906 0.264906 0.264906 0.264906 0.264906 0.264906 0.264906 0.264906 0.264906 0.264906 0.264906 0.264906 0.264906 0.264906 0.264906 0.264906 0.264906 0.264906 0.264906 0.264906 0.264906 0.264906 0.264906 0.264906 0.264906 0.264906 0.264906 0.264906 0.264906 0.264906 0.264906 0.264906 0.264906 0.264906 0.264906 0.264906 0.264906 0.264906 0.264906 0.264906 0.264906 0.264906 0.264906 0.264906 0.264906 0.264906 0.264906 0.264906 0.264906 0.264906 0.264906 0.264906 0.264906 0.264906 0.264906 0.264906 0.264906 0.264906 0.264906 0.264906 0.264906 0.264906 0.264906 0.264906 0.264906 0.264906 0.264906 0.264906 0.264906 0.264906 0.264906 0.264906 0.264906 0.264906 0.269680 0.269680 0.269680 0.269680 0.269680 0.269680 0.269680 0.269680 0.269680 0.269680 0.269680 0.269680 0.264906 0.264906 0.264906 0.264906 0.264906 0.264906 0.264906 0.264906 0.264906 0.264906 0.264906 0.264906 0.269680 0.269680 0.269680 0.269680 0.269680 0.269680 0.269680 0.269680 0.269680 0.269680 0.269680 0.264906 0.264906 0.264906 0.264906 0.264906 0.264906 0.264906 0.264906 0.264906 0.264906 0.264906 0.256074 0.256074 0.256074 0.256074 0.256074 0.256074 0.256074 0.256074 0.256074 0.256074 0.256074 0.264906 0.264906 0.264906 0.264906 0.264906 0.264906 0.264906 0.264906 0.264906 0.264906 0.269680 0.269680 0.269680 0.269680 0.269680 0.269680 0.269680 0.269680 0.269680 0.256074 0.256074 0.256074 0.256074 0.256074 0.256074 0.256074 0.256074 0.256074 0.256074 0.260378 0.260378 0.260378 0.260378 0.260378 0.260378 0.260378 0.260378 0.260378 0.256074 0.256074 0.256074 0.256074 0.256074 0.256074 0.256074 0.256074 0.256074 0.251976 0.251976 0.251976 0.251976 0.251976 0.251976 0.251976 0.251976 0.251976 0.264906 0.264906 0.264906 0.264906 0.264906 0.264906 0.264906 0.264906 0.264906
