# Output from CTFFind version 4.1.9, run on 2019-11-03 20:09:21
# Input file: stack1_bm3d_averaged_1_7.5_0_2500_half.mrc ; Number of micrographs: 1
# Pixel size: 3.000 Angstroms ; acceleration voltage: 300.0 keV ; spherical aberration: 0.00 mm ; amplitude contrast: 0.07
# Box size: 512 pixels ; min. res.: 30.0 Angstroms ; max. res.: 5.0 Angstroms ; min. def.: 5000.0 um; max. def. 50000.0 um; num. frames averaged: 1
# 6 lines per micrograph: #1 - spatial frequency (1/Angstroms); #2 - 1D rotational average of spectrum (assuming no astigmatism); #3 - 1D rotational average of spectrum; #4 - CTF fit; #5 - cross-correlation between spectrum and CTF fit; #6 - 2sigma of expected cross correlation of noise
0.000000 0.000651 0.001302 0.001953 0.002604 0.003255 0.003906 0.004557 0.005208 0.005859 0.006510 0.007161 0.007812 0.008464 0.009115 0.009766 0.010417 0.011068 0.011719 0.012370 0.013021 0.013672 0.014323 0.014974 0.015625 0.016276 0.016927 0.017578 0.018229 0.018880 0.019531 0.020182 0.020833 0.021484 0.022135 0.022786 0.023438 0.024089 0.024740 0.025391 0.026042 0.026693 0.027344 0.027995 0.028646 0.029297 0.029948 0.030599 0.031250 0.031901 0.032552 0.033203 0.033854 0.034505 0.035156 0.035807 0.036458 0.037109 0.037760 0.038411 0.039062 0.039714 0.040365 0.041016 0.041667 0.042318 0.042969 0.043620 0.044271 0.044922 0.045573 0.046224 0.046875 0.047526 0.048177 0.048828 0.049479 0.050130 0.050781 0.051432 0.052083 0.052734 0.053385 0.054036 0.054688 0.055339 0.055990 0.056641 0.057292 0.057943 0.058594 0.059245 0.059896 0.060547 0.061198 0.061849 0.062500 0.063151 0.063802 0.064453 0.065104 0.065755 0.066406 0.067057 0.067708 0.068359 0.069010 0.069661 0.070312 0.070964 0.071615 0.072266 0.072917 0.073568 0.074219 0.074870 0.075521 0.076172 0.076823 0.077474 0.078125 0.078776 0.079427 0.080078 0.080729 0.081380 0.082031 0.082682 0.083333 0.083984 0.084635 0.085286 0.085938 0.086589 0.087240 0.087891 0.088542 0.089193 0.089844 0.090495 0.091146 0.091797 0.092448 0.093099 0.093750 0.094401 0.095052 0.095703 0.096354 0.097005 0.097656 0.098307 0.098958 0.099609 0.100260 0.100911 0.101562 0.102214 0.102865 0.103516 0.104167 0.104818 0.105469 0.106120 0.106771 0.107422 0.108073 0.108724 0.109375 0.110026 0.110677 0.111328 0.111979 0.112630 0.113281 0.113932 0.114583 0.115234 0.115885 0.116536 0.117188 0.117839 0.118490 0.119141 0.119792 0.120443 0.121094 0.121745 0.122396 0.123047 0.123698 0.124349 0.125000 0.125651 0.126302 0.126953 0.127604 0.128255 0.128906 0.129557 0.130208 0.130859 0.131510 0.132161 0.132812 0.133464 0.134115 0.134766 0.135417 0.136068 0.136719 0.137370 0.138021 0.138672 0.139323 0.139974 0.140625 0.141276 0.141927 0.142578 0.143229 0.143880 0.144531 0.145182 0.145833 0.146484 0.147135 0.147786 0.148438 0.149089 0.149740 0.150391 0.151042 0.151693 0.152344 0.152995 0.153646 0.154297 0.154948 0.155599 0.156250 0.156901 0.157552 0.158203 0.158854 0.159505 0.160156 0.160807 0.161458 0.162109 0.162760 0.163411 0.164062 0.164714 0.165365 0.166016 0.166667 0.167318 0.167969 0.168620 0.169271 0.169922 0.170573 0.171224 0.171875 0.172526 0.173177 0.173828 0.174479 0.175130 0.175781 0.176432 0.177083 0.177734 0.178385 0.179036 0.179688 0.180339 0.180990 0.181641 0.182292 0.182943 0.183594 0.184245 0.184896 0.185547 0.186198 0.186849 0.187500 0.188151 0.188802 0.189453 0.190104 0.190755 0.191406 0.192057 0.192708 0.193359 0.194010 0.194661 0.195312 0.195964 0.196615 0.197266 0.197917 0.198568 0.199219 0.199870 0.200521 0.201172 0.201823 0.202474 0.203125 0.203776 0.204427 0.205078 0.205729 0.206380 0.207031 0.207682 0.208333 0.208984 0.209635 0.210286 0.210938 0.211589 0.212240 0.212891 0.213542 0.214193 0.214844 0.215495 0.216146 0.216797 0.217448 0.218099 0.218750 0.219401 0.220052 0.220703 0.221354 0.222005 0.222656 0.223307 0.223958 0.224609 0.225260 0.225911 0.226562 0.227214 0.227865 0.228516 0.229167 0.229818 0.230469 0.231120 0.231771 0.232422 0.233073 0.233724 0.234375 0.235026 0.235677
       0.33909        0.33909        0.33909        0.33909        0.33909        0.33909        0.33909        0.33909        0.33909        0.33909        0.33909        0.33909        0.33909        0.33909        0.33909        0.33909        0.33909        0.33909        0.33909        0.33909        0.33909        0.33909        0.33909        0.33909        0.33909        0.33909        0.33909        0.33909        0.33909        0.33909        0.33909        0.33909        0.33909        0.33909        0.33909        0.33909        0.33909        0.33909        0.33909        0.33909        0.33909        0.33909        0.33909        0.33909        0.33909        0.33909        0.33909        0.33909        0.33909        0.33909        0.33909        0.32774        0.46250        0.21435        0.06713       -0.00085       -0.27264       -0.12014       -0.15421       -0.22438        0.00260       -0.14832       -0.06261       -0.06420       -0.04829       -0.12319       -0.16701       -0.24727       -0.29213       -0.40386       -0.33670       -0.23847       -0.21802       -0.31381       -0.23239       -0.28625       -0.25720       -0.27929       -0.12519       -0.14070       -0.19831       -0.03341        0.03446       -0.02185        0.06384        0.03762        0.23576        0.24522        0.33045        0.34521        0.36845        0.40468        0.48075        0.53925        0.54537        0.49644        0.48272        0.50727        0.46455        0.50583        0.42926        0.40538        0.41100        0.35313        0.29220        0.30493        0.32639        0.21592        0.19660        0.12862        0.15360        0.16080        0.17173        0.16051        0.23681        0.29743        0.31038        0.28358        0.39090        0.46808        0.39422        0.48287        0.58405        0.53394        0.51059        0.56395        0.59262        0.41492        0.47446        0.39939        0.32822        0.30505        0.28116        0.25020        0.19389        0.18356        0.15269        0.19724        0.25066        0.28110        0.33495        0.30039        0.40200        0.40812        0.44978        0.49072        0.47097        0.49678        0.44054        0.42811        0.40251        0.33481        0.30677        0.31110        0.31326        0.24613        0.24490        0.24957        0.24365        0.26940        0.31704        0.42188        0.46662        0.41365        0.42333        0.45938        0.43852        0.46244        0.45228        0.38236        0.35683        0.38994        0.35570        0.30796        0.29851        0.30709        0.27217        0.29432        0.30037        0.31769        0.36722        0.37075        0.40829        0.41541        0.35543        0.44498        0.40997        0.34443        0.30573        0.33847        0.32703        0.29471        0.31053        0.28840        0.29482        0.32138        0.32832        0.42820        0.39724        0.37315        0.39396        0.43246        0.36645        0.34682        0.33824        0.34681        0.27301        0.26971        0.30210        0.37863        0.37993        0.33650        0.34609        0.39210        0.38356        0.44919        0.37872        0.36478        0.33055        0.31361        0.31267        0.31301        0.34006        0.37653        0.36509        0.37190        0.32439        0.43077        0.34711        0.35001        0.33831        0.37620        0.36372        0.29089        0.30647        0.26471        0.31111        0.32319        0.31410        0.33574        0.31915        0.34609        0.33604        0.33644        0.31422        0.29554        0.27381        0.31775        0.33892        0.31933        0.29252        0.33461        0.32446        0.32985        0.33294        0.29712        0.28261        0.29693        0.32127        0.31229        0.31036        0.28581        0.30262        0.34707        0.32569        0.31800        0.38546        0.32502        0.26788        0.31143        0.32524        0.31347        0.34102        0.29948        0.32237        0.26918        0.31550        0.33315        0.35789        0.30034        0.31309        0.30594        0.28795        0.35998        0.35280        0.31029        0.30712        0.29381        0.28832        0.33874        0.33609        0.27828        0.32410        0.28356        0.26621        0.25726        0.30139        0.33023        0.32232        0.23639        0.27325        0.33798        0.30828        0.32590        0.33494        0.30631        0.31638        0.32335        0.30356        0.27583        0.27187        0.28416        0.32878        0.32740        0.31004        0.32530        0.35025        0.33647        0.29291        0.30410        0.29347        0.30349        0.29371        0.24337        0.25760        0.31366        0.35191        0.24504        0.21178        0.18383        0.28990        0.29769        0.28605        0.30208        0.27849        0.27430        0.24186        0.28422        0.26785        0.30324        0.23423        0.25288        0.25437        0.21418        0.25199        0.32338        0.33033        0.26580        0.22618        0.21380        0.15876        0.24291        0.24881        0.38145        0.28071        0.22048        0.30469        0.36330        0.14328       -0.07775       -0.13079       -0.61415       -0.79070
3.450821 3.412222 3.373842 3.335682 3.297741 3.260019 3.222517 3.185234 3.148170 3.111325 3.074700 3.038294 3.002107 2.966140 2.930392 2.894863 2.859554 2.824463 2.789593 2.754941 2.720509 2.686296 2.652302 2.618528 2.584973 2.551637 2.518520 2.485623 2.452945 2.420487 2.388247 2.356227 2.324427 2.292845 2.261483 2.230341 2.199417 2.168713 2.138228 2.107962 2.077916 2.048089 2.018481 1.989093 1.959924 1.930974 1.902244 1.873732 1.845441 1.817368 1.789515 1.673598 1.977135 1.717108 1.084042 1.157635 0.350399 0.898192 0.534898 0.640516 0.924567 0.661893 0.683843 0.757647 0.692917 0.652467 0.444326 0.343120 0.197124 0.001237 0.004720 0.135152 0.404234 -0.032346 0.163794 0.043150 0.170495 -0.059310 0.265396 0.177695 0.101005 0.305314 0.513460 0.303400 0.442827 0.363472 0.805942 0.657947 0.863600 0.899221 0.803954 1.031147 0.933686 1.254079 1.068048 1.111869 1.013333 1.031717 0.981608 0.901480 0.937257 0.768881 0.745363 0.671216 0.635685 0.460998 0.569921 0.440388 0.272962 0.209122 0.138050 0.179287 0.206171 0.146253 0.194396 0.395219 0.353045 0.364499 0.468876 0.560640 0.549688 0.430911 0.819226 0.812345 0.623094 0.704235 0.779062 0.561924 0.412366 0.522193 0.209005 0.267398 0.107746 0.153075 -0.009111 -0.040371 -0.109403 -0.103376 0.090385 -0.016205 0.124687 0.197347 0.157144 0.302051 0.301599 0.411060 0.329714 0.474013 0.311400 0.258632 0.245079 0.155352 0.069708 0.048100 0.027287 -0.003542 -0.052316 -0.113764 -0.115653 -0.047924 -0.073407 0.138851 0.325244 0.226243 0.199677 0.295127 0.314398 0.232297 0.352707 0.287176 0.152577 0.141158 0.262313 0.012121 0.047153 0.017092 0.052331 -0.024424 0.088368 0.004564 0.155424 0.006450 0.218448 0.235602 0.180945 0.274445 0.194676 0.147227 0.052995 0.076222 0.076495 0.034064 -0.012377 0.033354 -0.039512 0.006524 0.031571 0.116554 0.267628 0.142932 0.149610 0.266418 0.147458 0.174753 0.040925 0.098887 0.074381 -0.098420 0.002026 0.046986 0.182186 0.128693 0.053176 0.103810 0.189591 0.180752 0.280394 0.123553 0.125374 0.045862 0.009044 0.064682 0.048267 0.102578 0.170687 0.138799 0.095635 0.149557 0.204258 0.015612 0.109745 0.074052 0.158462 0.062885 -0.004802 0.000905 -0.060136 0.039532 0.057174 0.045136 0.027466 -0.035442 0.050791 0.011103 0.025601 -0.016860 -0.074390 -0.036855 -0.047570 0.076057 -0.051245 -0.015460 0.028578 0.015447 0.028363 0.048357 -0.041517 -0.036895 -0.023628 0.033391 0.002272 0.020892 -0.052898 -0.022857 0.095091 0.015937 -0.015002 0.167199 -0.071229 -0.081002 0.014658 0.008233 -0.015183 0.023458 -0.036716 0.001043 -0.110311 0.032008 0.053847 0.074873 -0.062730 -0.000905 -0.044259 -0.029904 0.074188 0.069183 -0.061848 -0.011818 -0.060748 -0.059048 0.038772 -0.006308 -0.079092 0.044095 -0.101569 -0.087878 -0.092372 -0.050237 0.032118 -0.069151 -0.228983 -0.028164 0.057353 -0.048805 -0.033910 0.048151 -0.050890 -0.002929 -0.079051 -0.052975 -0.101707 -0.116236 -0.112180 0.049874 0.001525 -0.060797 0.000100 0.094694 -0.107393 0.005478 0.016204 -0.089231 0.025925 -0.014831 -0.116107 -0.071100 0.025766 0.153228 -0.064810 -0.222828 -0.122358 0.127942 0.002640 -0.004982 0.132922 0.071012 0.019497 -0.027990 0.055464 0.076594 0.101551 -0.008668 0.060140 0.088550 -0.090919 0.102615 0.282056 0.159724 0.121963 0.097643 -0.044801 0.062309 0.008517 0.062911 0.332566 0.591136 0.396842 0.580889 0.848866 0.277043 -0.328860 -0.222939 -1.412508
0.072396 0.072907 0.074441 0.076996 0.080573 0.085171 0.090787 0.097421 0.105070 0.113732 0.123402 0.134077 0.145750 0.158415 0.172065 0.186688 0.202275 0.218810 0.236280 0.254665 0.273944 0.294094 0.315087 0.336893 0.359476 0.382797 0.406814 0.431478 0.456736 0.482529 0.508793 0.535457 0.562447 0.589678 0.617061 0.644501 0.671894 0.699131 0.726095 0.752661 0.778698 0.804069 0.828627 0.852223 0.874699 0.895892 0.915633 0.933750 0.950065 0.964400 0.976572 0.986399 0.993699 0.998289 0.999993 0.998637 0.994053 0.986082 0.974574 0.959393 0.940413 0.917529 0.890651 0.859710 0.824662 0.785486 0.742191 0.694813 0.643423 0.588125 0.529057 0.466399 0.400366 0.331216 0.259248 0.184800 0.108256 0.030040 0.049386 0.129516 0.209810 0.289693 0.368558 0.445769 0.520668 0.592582 0.660820 0.724692 0.783506 0.836583 0.883259 0.922900 0.954907 0.978729 0.993871 0.999904 0.996473 0.983313 0.960252 0.927222 0.884267 0.831551 0.769361 0.698115 0.618362 0.530786 0.436201 0.335554 0.229913 0.120466 0.008504 0.104585 0.217334 0.328214 0.435658 0.538073 0.633877 0.721514 0.799489 0.866389 0.920919 0.961926 0.988428 0.999644 0.995013 0.974223 0.937227 0.884262 0.815852 0.732828 0.636314 0.527731 0.408782 0.281431 0.147882 0.010542 0.128015 0.265095 0.397932 0.523750 0.639814 0.743501 0.832360 0.904172 0.957020 0.989345 0.999995 0.988283 0.954013 0.897521 0.819681 0.721916 0.606184 0.474959 0.331182 0.178211 0.019755 0.140218 0.297568 0.448094 0.587645 0.712240 0.818185 0.902197 0.961511 0.993988 0.998203 0.973519 0.920139 0.839138 0.732462 0.602908 0.454068 0.290248 0.116357 0.062230 0.239825 0.410614 0.568838 0.709003 0.826071 0.915658 0.974213 0.999180 0.989124 0.943829 0.864355 0.753043 0.613477 0.450401 0.269569 0.077574 0.118387 0.310776 0.491993 0.654690 0.792069 0.898190 0.968243 0.998790 0.987962 0.935592 0.843282 0.714399 0.553987 0.368597 0.166056 0.044851 0.254748 0.454075 0.633528 0.784507 0.899543 0.972694 0.999882 0.979154 0.910848 0.797648 0.644534 0.458596 0.248754 0.025341 0.200362 0.416714 0.612287 0.776504 0.900219 0.976262 0.999889 0.969123 0.884944 0.751330 0.575119 0.365713 0.134615 0.105180 0.339892 0.555738 0.739769 0.880648 0.969395 0.999999 0.969874 0.880117 0.735554 0.544532 0.318507 0.071391 0.181268 0.423247 0.638697 0.813188 0.934708 0.994544 0.987954 0.914602 0.778702 0.588854 0.357568 0.100486 0.164621 0.419074 0.644605 0.824666 0.945700 0.998206 0.977553 0.884449 0.725032 0.510549 0.256640 0.017760 0.291786 0.544210 0.755116 0.907476 0.988602 0.991257 0.914385 0.763347 0.549651 0.290153 0.005805 0.280009 0.543363 0.761804 0.916314 0.993009 0.984478 0.890578 0.718631 0.482951 0.203749 0.094531 0.385322 0.642278 0.841689 0.964716 0.999257 0.941224 0.795115 0.573799 0.297479 0.008060 0.313802 0.590239 0.810229 0.951709 0.999995 0.949406 0.804035 0.577563 0.292080 0.023959 0.338526 0.619232 0.836684 0.967630 0.997526 0.922275 0.748891 0.494990 0.187124 0.141898 0.456467 0.721998 0.908789 0.995424 0.971330 0.838214 0.610117 0.312092 0.022448 0.355375 0.648189 0.866488 0.984070 0.986215 0.871655 0.653012 0.355559 0.014444 0.329382 0.634039 0.861851 0.984072 0.984645 0.862457 0.631791 0.320818 0.031694 0.381129 0.682634 0.896910 0.995427 0.964370 0.806733 0.542266 0.205171 0.160192 0.505042 0.782704 0.954981
1.000000 1.000000 1.000000 1.000000 1.000000 1.000000 1.000000 1.000000 1.000000 1.000000 1.000000 1.000000 1.000000 1.000000 1.000000 1.000000 1.000000 1.000000 1.000000 1.000000 1.000000 1.000000 1.000000 1.000000 1.000000 1.000000 1.000000 1.000000 1.000000 1.000000 1.000000 1.000000 1.000000 1.000000 1.000000 1.000000 1.000000 1.000000 1.000000 1.000000 1.000000 1.000000 1.000000 1.000000 1.000000 1.000000 1.000000 1.000000 1.000000 1.000000 1.000000 1.000000 0.822499 0.822499 0.822499 0.798773 0.798773 0.798773 0.798773 0.798773 0.798773 0.798773 0.798773 0.798773 0.798773 0.798773 0.798773 0.798773 0.798773 0.798773 0.798773 0.798773 0.798773 0.798773 0.798773 0.798773 0.798773 0.798773 0.798773 0.798773 0.798773 0.798773 0.798773 0.798773 0.798773 0.798773 0.798773 0.798773 0.798773 0.798773 0.798773 0.798773 0.798773 0.798773 0.798773 0.798773 0.853989 0.860632 0.865895 0.869611 0.869890 0.866869 0.865694 0.865256 0.864678 0.865911 0.874655 0.900431 0.913860 0.915086 0.928442 0.929884 0.934819 0.935546 0.955267 0.956714 0.958056 0.957152 0.958111 0.960166 0.966712 0.966877 0.964414 0.964479 0.967268 0.967896 0.967621 0.964028 0.962638 0.961871 0.959361 0.959074 0.958679 0.959172 0.959593 0.954327 0.954793 0.955074 0.956960 0.955463 0.945731 0.940184 0.936297 0.934385 0.916823 0.914315 0.914787 0.912883 0.904603 0.905036 0.894632 0.895787 0.893692 0.886611 0.886105 0.882702 0.878581 0.868331 0.866874 0.866594 0.869450 0.874623 0.877429 0.864066 0.848211 0.828854 0.812831 0.797063 0.798392 0.796922 0.792218 0.796254 0.797948 0.796463 0.794533 0.787132 0.774290 0.781937 0.779677 0.775824 0.769621 0.767885 0.754713 0.748048 0.742591 0.717946 0.704432 0.696585 0.706721 0.699361 0.699821 0.703373 0.711274 0.711436 0.711964 0.704900 0.701268 0.692947 0.673427 0.679642 0.690010 0.683241 0.676793 0.675482 0.650138 0.678954 0.682315 0.702171 0.710155 0.711350 0.711691 0.697133 0.671967 0.635447 0.636301 0.622801 0.631302 0.632561 0.627185 0.609852 0.615519 0.620989 0.640708 0.603998 0.598564 0.581063 0.582391 0.565135 0.567826 0.529998 0.522516 0.511591 0.483182 0.462167 0.477676 0.467746 0.458894 0.479807 0.437844 0.436065 0.433596 0.433180 0.430738 0.418182 0.392848 0.397622 0.396882 0.382853 0.355716 0.300347 0.300910 0.315258 0.318905 0.320829 0.304951 0.308347 0.270768 0.246909 0.248202 0.247346 0.232733 0.233666 0.239061 0.215057 0.219172 0.127241 0.126232 0.145761 0.150001 0.149986 0.137639 0.162542 0.164974 0.148513 0.122856 0.067044 0.024273 0.007818 0.032521 0.041103 0.029448 0.015224 0.007002 0.008170 0.023422 -0.022011 -0.033550 -0.046290 -0.048151 -0.041594 -0.011811 -0.022818 -0.044770 -0.036603 -0.015440 -0.050005 -0.037088 -0.032379 -0.035925 -0.008514 -0.026824 -0.056184 -0.055088 -0.071150 -0.065624 -0.036002 -0.049220 -0.061679 -0.040631 -0.036984 -0.039524 -0.058573 -0.074049 -0.091965 -0.085761 -0.114067 -0.101391 -0.075778 -0.071375 -0.051858 0.009776 0.011916 0.010367 -0.025462 0.009175 -0.021452 -0.029567 -0.012215 -0.043314 -0.044653 -0.001437 0.012567 0.024137 -0.024127 -0.039163 -0.039163 -0.039163 -0.065519 -0.065519 -0.065519 -0.065519 -0.065519 -0.065519 -0.065519 -0.065519 -0.065519 -0.070121 -0.070121 -0.070121 -0.070121 -0.070121 -0.070121 -0.070121 -0.070121 -0.070121 -0.070121 -0.070121 -0.070121 -0.070121 -0.070121 -0.070121 -0.070121 -0.070121
0.000000 0.000000 0.000000 0.000000 0.000000 0.000000 0.000000 0.000000 0.000000 0.000000 0.000000 0.000000 0.000000 0.000000 0.000000 0.000000 0.000000 0.000000 0.000000 0.000000 0.000000 0.000000 0.000000 0.000000 0.000000 0.000000 0.000000 0.000000 0.000000 0.000000 0.000000 0.000000 0.000000 0.000000 0.000000 0.000000 0.000000 0.000000 0.000000 0.000000 0.000000 0.000000 0.000000 0.000000 0.000000 0.000000 0.000000 0.000000 0.000000 0.000000 0.000000 0.000000 0.180334 0.180334 0.180334 0.199007 0.199007 0.199007 0.199007 0.199007 0.199007 0.199007 0.199007 0.199007 0.199007 0.199007 0.199007 0.199007 0.199007 0.199007 0.199007 0.199007 0.199007 0.199007 0.199007 0.199007 0.199007 0.199007 0.199007 0.199007 0.199007 0.199007 0.199007 0.199007 0.199007 0.199007 0.199007 0.199007 0.199007 0.199007 0.199007 0.199007 0.199007 0.199007 0.199007 0.199007 0.230940 0.230940 0.230940 0.230940 0.230940 0.230940 0.230940 0.230940 0.230940 0.230940 0.230940 0.230940 0.230940 0.230940 0.230940 0.230940 0.230940 0.230940 0.230940 0.230940 0.230940 0.230940 0.230940 0.230940 0.230940 0.230940 0.230940 0.230940 0.248069 0.248069 0.248069 0.248069 0.248069 0.248069 0.248069 0.248069 0.248069 0.248069 0.248069 0.248069 0.248069 0.248069 0.248069 0.248069 0.248069 0.248069 0.248069 0.248069 0.248069 0.248069 0.251976 0.251976 0.251976 0.251976 0.251976 0.251976 0.251976 0.251976 0.251976 0.251976 0.251976 0.251976 0.251976 0.251976 0.251976 0.251976 0.251976 0.251976 0.251976 0.251976 0.256074 0.256074 0.256074 0.256074 0.256074 0.256074 0.256074 0.256074 0.256074 0.256074 0.256074 0.256074 0.256074 0.256074 0.256074 0.256074 0.256074 0.256074 0.264906 0.264906 0.264906 0.264906 0.264906 0.264906 0.264906 0.264906 0.264906 0.264906 0.264906 0.264906 0.264906 0.264906 0.264906 0.264906 0.264906 0.264906 0.264906 0.264906 0.264906 0.264906 0.264906 0.264906 0.264906 0.264906 0.264906 0.264906 0.264906 0.264906 0.264906 0.274721 0.274721 0.274721 0.274721 0.274721 0.274721 0.274721 0.274721 0.274721 0.274721 0.274721 0.274721 0.274721 0.256074 0.256074 0.256074 0.256074 0.256074 0.256074 0.256074 0.256074 0.256074 0.256074 0.256074 0.256074 0.256074 0.256074 0.269680 0.269680 0.269680 0.269680 0.269680 0.269680 0.269680 0.269680 0.269680 0.269680 0.269680 0.269680 0.264906 0.264906 0.264906 0.264906 0.264906 0.264906 0.264906 0.264906 0.264906 0.264906 0.264906 0.264906 0.269680 0.269680 0.269680 0.269680 0.269680 0.269680 0.269680 0.269680 0.269680 0.269680 0.269680 0.264906 0.264906 0.264906 0.264906 0.264906 0.264906 0.264906 0.264906 0.264906 0.264906 0.264906 0.269680 0.269680 0.269680 0.269680 0.269680 0.269680 0.269680 0.269680 0.269680 0.269680 0.264906 0.264906 0.264906 0.264906 0.264906 0.264906 0.264906 0.264906 0.264906 0.264906 0.260378 0.260378 0.260378 0.260378 0.260378 0.260378 0.260378 0.260378 0.260378 0.260378 0.256074 0.256074 0.256074 0.256074 0.256074 0.256074 0.256074 0.256074 0.256074 0.256074 0.260378 0.260378 0.260378 0.260378 0.260378 0.260378 0.260378 0.260378 0.260378 0.256074 0.256074 0.256074 0.256074 0.256074 0.256074 0.256074 0.256074 0.256074 0.251976 0.251976 0.251976 0.251976 0.251976 0.251976 0.251976 0.251976 0.251976 0.251976 0.251976 0.251976 0.251976 0.251976 0.251976 0.251976 0.251976
