# Output from CTFFind version 4.1.9, run on 2019-11-02 17:46:25
# Input file: stack1_bm3d_averaged_1_1.0_0_1250_half.mrc ; Number of micrographs: 1
# Pixel size: 3.000 Angstroms ; acceleration voltage: 300.0 keV ; spherical aberration: 0.00 mm ; amplitude contrast: 0.07
# Box size: 512 pixels ; min. res.: 30.0 Angstroms ; max. res.: 5.0 Angstroms ; min. def.: 5000.0 um; max. def. 50000.0 um; num. frames averaged: 1
# 6 lines per micrograph: #1 - spatial frequency (1/Angstroms); #2 - 1D rotational average of spectrum (assuming no astigmatism); #3 - 1D rotational average of spectrum; #4 - CTF fit; #5 - cross-correlation between spectrum and CTF fit; #6 - 2sigma of expected cross correlation of noise
0.000000 0.000651 0.001302 0.001953 0.002604 0.003255 0.003906 0.004557 0.005208 0.005859 0.006510 0.007161 0.007812 0.008464 0.009115 0.009766 0.010417 0.011068 0.011719 0.012370 0.013021 0.013672 0.014323 0.014974 0.015625 0.016276 0.016927 0.017578 0.018229 0.018880 0.019531 0.020182 0.020833 0.021484 0.022135 0.022786 0.023438 0.024089 0.024740 0.025391 0.026042 0.026693 0.027344 0.027995 0.028646 0.029297 0.029948 0.030599 0.031250 0.031901 0.032552 0.033203 0.033854 0.034505 0.035156 0.035807 0.036458 0.037109 0.037760 0.038411 0.039062 0.039714 0.040365 0.041016 0.041667 0.042318 0.042969 0.043620 0.044271 0.044922 0.045573 0.046224 0.046875 0.047526 0.048177 0.048828 0.049479 0.050130 0.050781 0.051432 0.052083 0.052734 0.053385 0.054036 0.054688 0.055339 0.055990 0.056641 0.057292 0.057943 0.058594 0.059245 0.059896 0.060547 0.061198 0.061849 0.062500 0.063151 0.063802 0.064453 0.065104 0.065755 0.066406 0.067057 0.067708 0.068359 0.069010 0.069661 0.070312 0.070964 0.071615 0.072266 0.072917 0.073568 0.074219 0.074870 0.075521 0.076172 0.076823 0.077474 0.078125 0.078776 0.079427 0.080078 0.080729 0.081380 0.082031 0.082682 0.083333 0.083984 0.084635 0.085286 0.085938 0.086589 0.087240 0.087891 0.088542 0.089193 0.089844 0.090495 0.091146 0.091797 0.092448 0.093099 0.093750 0.094401 0.095052 0.095703 0.096354 0.097005 0.097656 0.098307 0.098958 0.099609 0.100260 0.100911 0.101562 0.102214 0.102865 0.103516 0.104167 0.104818 0.105469 0.106120 0.106771 0.107422 0.108073 0.108724 0.109375 0.110026 0.110677 0.111328 0.111979 0.112630 0.113281 0.113932 0.114583 0.115234 0.115885 0.116536 0.117188 0.117839 0.118490 0.119141 0.119792 0.120443 0.121094 0.121745 0.122396 0.123047 0.123698 0.124349 0.125000 0.125651 0.126302 0.126953 0.127604 0.128255 0.128906 0.129557 0.130208 0.130859 0.131510 0.132161 0.132812 0.133464 0.134115 0.134766 0.135417 0.136068 0.136719 0.137370 0.138021 0.138672 0.139323 0.139974 0.140625 0.141276 0.141927 0.142578 0.143229 0.143880 0.144531 0.145182 0.145833 0.146484 0.147135 0.147786 0.148438 0.149089 0.149740 0.150391 0.151042 0.151693 0.152344 0.152995 0.153646 0.154297 0.154948 0.155599 0.156250 0.156901 0.157552 0.158203 0.158854 0.159505 0.160156 0.160807 0.161458 0.162109 0.162760 0.163411 0.164062 0.164714 0.165365 0.166016 0.166667 0.167318 0.167969 0.168620 0.169271 0.169922 0.170573 0.171224 0.171875 0.172526 0.173177 0.173828 0.174479 0.175130 0.175781 0.176432 0.177083 0.177734 0.178385 0.179036 0.179688 0.180339 0.180990 0.181641 0.182292 0.182943 0.183594 0.184245 0.184896 0.185547 0.186198 0.186849 0.187500 0.188151 0.188802 0.189453 0.190104 0.190755 0.191406 0.192057 0.192708 0.193359 0.194010 0.194661 0.195312 0.195964 0.196615 0.197266 0.197917 0.198568 0.199219 0.199870 0.200521 0.201172 0.201823 0.202474 0.203125 0.203776 0.204427 0.205078 0.205729 0.206380 0.207031 0.207682 0.208333 0.208984 0.209635 0.210286 0.210938 0.211589 0.212240 0.212891 0.213542 0.214193 0.214844 0.215495 0.216146 0.216797 0.217448 0.218099 0.218750 0.219401 0.220052 0.220703 0.221354 0.222005 0.222656 0.223307 0.223958 0.224609 0.225260 0.225911 0.226562 0.227214 0.227865 0.228516 0.229167 0.229818 0.230469 0.231120 0.231771 0.232422 0.233073 0.233724 0.234375 0.235026 0.235677
       0.33112        0.33112        0.33112        0.33112        0.33112        0.33112        0.33112        0.33112        0.33112        0.33112        0.33112        0.33112        0.33112        0.33112        0.33112        0.33112        0.33113        0.33112        0.33112        0.33112        0.33112        0.33112        0.33112        0.33112        0.33112        0.33112        0.33112        0.33112        0.33112        0.33113        0.33112        0.33112        0.33112        0.33113        0.33112        0.33112        0.33113        0.33112        0.33112        0.33112        0.33112        0.33112        0.33112        0.33113        0.33112        0.33113        0.33112        0.33112        0.33112        0.33112        0.33112        0.50092        0.71749        0.42607        0.18954       -0.08232       -0.26404       -0.07095       -0.13396       -0.05632       -0.00332       -0.14985       -0.09579       -0.05186       -0.00365       -0.15380       -0.22339       -0.34752       -0.46532       -0.56317       -0.52218       -0.45121       -0.37436       -0.55159       -0.45262       -0.62394       -0.50678       -0.47683       -0.39329       -0.38538       -0.34067       -0.25202       -0.16455       -0.13871        0.03028       -0.01445        0.11623        0.16757        0.30360        0.40904        0.46209        0.49573        0.53938        0.54912        0.69097        0.64336        0.67573        0.59006        0.55585        0.65269        0.52549        0.42737        0.38363        0.31797        0.22590        0.26116        0.24906        0.10380        0.08257       -0.00036       -0.00806        0.03218       -0.00715        0.07116        0.09350        0.22860        0.28130        0.29985        0.38111        0.56083        0.53643        0.57608        0.66852        0.69835        0.62826        0.63249        0.63214        0.55118        0.57265        0.39390        0.34424        0.26430        0.18389        0.07070        0.14345        0.11655        0.09107        0.10702        0.20829        0.20875        0.31465        0.35602        0.41054        0.48913        0.57863        0.54231        0.55436        0.60636        0.53695        0.46013        0.47816        0.32177        0.24884        0.25501        0.24172        0.13969        0.14144        0.15013        0.21932        0.24698        0.32876        0.36466        0.39178        0.46541        0.44513        0.47524        0.44975        0.46760        0.44315        0.40379        0.37949        0.35479        0.31031        0.28443        0.20328        0.19801        0.22133        0.26878        0.26384        0.34742        0.37361        0.35502        0.41027        0.45501        0.44562        0.42417        0.43740        0.36552        0.33263        0.28019        0.26181        0.28604        0.26545        0.29223        0.29935        0.34504        0.33690        0.39625        0.39748        0.42347        0.40963        0.43170        0.40378        0.36366        0.28012        0.28925        0.30346        0.27299        0.25516        0.32894        0.36885        0.33914        0.35327        0.35866        0.35144        0.40630        0.39856        0.35800        0.33840        0.30821        0.31005        0.31533        0.31309        0.29985        0.28590        0.33497        0.35669        0.37345        0.33169        0.32969        0.33364        0.34388        0.30604        0.28147        0.30545        0.31549        0.33318        0.31873        0.33128        0.35404        0.32918        0.31325        0.32803        0.30107        0.26062        0.24722        0.26305        0.30447        0.32122        0.35164        0.29983        0.31158        0.33239        0.29085        0.31504        0.28893        0.27790        0.28989        0.29625        0.30822        0.34200        0.32285        0.32535        0.33081        0.31288        0.33113        0.31867        0.32025        0.31111        0.27796        0.28975        0.30805        0.28825        0.32398        0.33227        0.33494        0.31884        0.34129        0.31751        0.27633        0.24984        0.27014        0.32837        0.35609        0.34486        0.31616        0.29328        0.29800        0.31226        0.24717        0.29466        0.30178        0.32438        0.29380        0.30878        0.28049        0.33262        0.34069        0.34135        0.32356        0.29502        0.30914        0.39298        0.32962        0.31029        0.30278        0.29396        0.28471        0.29503        0.27141        0.31256        0.23440        0.27226        0.29644        0.31324        0.29328        0.27315        0.29489        0.23708        0.22564        0.26374        0.30763        0.30474        0.28292        0.28433        0.33028        0.25447        0.21622        0.30480        0.26288        0.25558        0.27909        0.38855        0.28480        0.28414        0.24890        0.24980        0.26468        0.23952        0.23167        0.17237        0.24667        0.22835        0.24909        0.31600        0.27223        0.34691        0.28795        0.25249        0.23342        0.21468        0.23942        0.29359        0.22115        0.13384        0.16568        0.23662        0.23808        0.32780        0.29695        0.03655       -0.42723       -0.91199
2.685877 2.657533 2.629341 2.601300 2.573412 2.545676 2.518092 2.490659 2.463379 2.436251 2.409274 2.382450 2.355778 2.329258 2.302889 2.276673 2.250609 2.224697 2.198936 2.173328 2.147872 2.122568 2.097416 2.072416 2.047567 2.022871 1.998327 1.973935 1.949695 1.925607 1.901671 1.877886 1.854254 1.830774 1.807446 1.784270 1.761246 1.738374 1.715654 1.693086 1.670670 1.648406 1.626294 1.604334 1.582526 1.560870 1.539366 1.518014 1.496814 1.475766 1.454870 1.524747 1.826411 1.510091 1.193759 0.938516 0.543099 0.909548 0.634483 0.871117 0.925697 0.589169 0.706277 0.780439 0.820127 0.627593 0.535337 0.348496 0.102417 0.077282 0.041156 0.080035 0.300696 -0.035836 0.079220 -0.134354 -0.014711 -0.018317 0.080711 0.063601 0.103122 0.176895 0.280918 0.250288 0.482245 0.396579 0.546498 0.528246 0.768501 0.787414 0.878552 0.921623 0.937523 0.945156 1.105065 0.946838 1.138739 0.947583 0.851637 1.015702 0.846048 0.759256 0.619820 0.593667 0.455492 0.416470 0.508233 0.264655 0.199847 0.160923 0.013447 0.204580 -0.005030 0.120476 0.175586 0.257250 0.333008 0.346920 0.426554 0.540282 0.666359 0.539213 0.745312 0.853327 0.638030 0.695482 0.667071 0.592613 0.538128 0.461193 0.299699 0.214146 0.119940 -0.040462 -0.018508 0.058154 -0.094388 -0.056591 0.052320 0.054609 0.110366 0.220624 0.238088 0.308274 0.428763 0.436732 0.452327 0.477214 0.449188 0.328189 0.333097 0.241127 0.052849 0.062399 0.017623 -0.043234 -0.099952 -0.096474 -0.013523 -0.047291 0.075135 0.123744 0.124909 0.263022 0.227759 0.245555 0.291108 0.246601 0.242975 0.215189 0.169237 0.116291 0.107637 0.026673 0.011010 -0.114801 -0.048169 0.010400 -0.001205 0.021782 0.100258 0.084123 0.137510 0.188514 0.259156 0.177645 0.186028 0.107213 0.134826 0.023868 -0.033384 0.019930 -0.021542 0.003659 -0.006199 0.036157 0.078983 0.051814 0.151534 0.095566 0.167533 0.065158 0.148765 0.095534 -0.009530 -0.061057 -0.017553 -0.036544 -0.067524 -0.067719 0.058104 0.058050 -0.008554 0.051180 0.060536 0.072808 0.143009 0.064601 0.062478 0.050717 -0.024458 0.027041 -0.001205 0.011124 0.004297 -0.004712 0.034867 0.064383 0.066996 0.029272 0.045106 0.020384 0.055703 -0.009212 -0.019414 0.021819 0.010314 0.056433 0.036944 0.042233 0.050063 0.048613 0.017080 0.034671 -0.003197 -0.051115 -0.035905 -0.029581 0.023891 0.039770 0.100003 -0.005511 0.058988 0.052613 -0.005136 0.063842 0.017374 0.007791 0.038936 0.055561 0.041619 0.093831 0.054706 0.069863 0.086610 0.066147 0.062121 0.074343 0.088713 0.037269 -0.009687 0.050338 0.040547 0.045173 0.071691 0.094888 -0.002380 0.065067 0.080129 0.010020 0.008314 -0.063509 -0.020107 0.111054 0.080093 0.053313 0.042170 -0.014925 0.054218 0.028303 -0.062135 0.052232 0.036355 0.064491 0.035817 0.004546 0.005511 0.048955 0.050716 0.018164 0.044739 -0.032405 0.061061 0.115536 0.009306 -0.007554 -0.006958 -0.005360 -0.026976 -0.027170 -0.042595 -0.006074 -0.096574 -0.022673 -0.029981 0.022866 -0.032341 -0.068096 0.028770 -0.073880 -0.050378 -0.078882 0.057220 0.010752 0.006848 -0.004998 0.078435 -0.047490 -0.059119 0.039288 -0.019930 0.009455 0.001232 0.191858 -0.041061 0.020317 0.010412 -0.022881 -0.001563 -0.035570 -0.022552 -0.154365 0.010354 -0.043306 0.004934 0.014833 -0.000375 0.130421 0.006406 -0.004834 -0.040080 -0.029755 -0.055743 0.040494 0.265337 0.163493 0.210220 0.238250 0.322835 0.354156 0.351446 0.045164 -1.066920
0.072396 0.072910 0.074451 0.077020 0.080615 0.085235 0.090880 0.097547 0.105235 0.113940 0.123659 0.134387 0.146119 0.158847 0.172564 0.187260 0.202923 0.219540 0.237094 0.255568 0.274939 0.295184 0.316275 0.338181 0.360866 0.384291 0.408411 0.433179 0.458539 0.484433 0.510796 0.537556 0.564635 0.591951 0.619412 0.646921 0.674374 0.701659 0.728659 0.755246 0.781288 0.806647 0.831173 0.854716 0.877116 0.898207 0.917820 0.935780 0.951908 0.966024 0.977944 0.987483 0.994459 0.998688 0.999992 0.998198 0.993137 0.984649 0.972587 0.956813 0.937206 0.913658 0.886085 0.854420 0.818622 0.778675 0.734591 0.686414 0.634220 0.578119 0.518258 0.454824 0.388041 0.318177 0.245540 0.170480 0.093390 0.014705 0.065100 0.145509 0.225970 0.305897 0.384672 0.461651 0.536166 0.607533 0.675059 0.738046 0.795798 0.847633 0.892890 0.930936 0.961179 0.983075 0.996138 0.999955 0.994189 0.978594 0.953021 0.917429 0.871891 0.816604 0.751890 0.678203 0.596132 0.506400 0.409864 0.307509 0.200446 0.089900 0.022798 0.136227 0.248891 0.359234 0.465669 0.566592 0.660412 0.745578 0.820603 0.884098 0.934796 0.971586 0.993535 0.999923 0.990259 0.964311 0.922118 0.864011 0.790617 0.702865 0.601988 0.489512 0.367241 0.237238 0.101795 0.036600 0.175307 0.311584 0.442631 0.565659 0.677945 0.776899 0.860127 0.925495 0.971195 0.995797 0.998307 0.978210 0.935504 0.870727 0.784968 0.679865 0.557593 0.420827 0.272702 0.116747 0.043190 0.203030 0.358564 0.505566 0.639906 0.757676 0.855307 0.929691 0.978288 0.999229 0.991400 0.954506 0.889120 0.796695 0.679562 0.540888 0.384614 0.215357 0.038285 0.141028 0.316771 0.483086 0.634269 0.764958 0.870354 0.946398 0.989950 0.998936 0.972466 0.910913 0.815947 0.690519 0.538806 0.366086 0.178589 0.016727 0.212405 0.400786 0.574298 0.725765 0.848729 0.937730 0.988581 0.998582 0.966697 0.893648 0.781956 0.635885 0.461319 0.265554 0.057013 0.155092 0.361162 0.551649 0.717492 0.850576 0.944147 0.993180 0.994688 0.947928 0.854522 0.718444 0.545901 0.345091 0.125843 0.100838 0.323315 0.529898 0.709480 0.852145 0.949742 0.996388 0.988863 0.926867 0.813134 0.653368 0.456007 0.231821 0.006634 0.245705 0.471411 0.670265 0.830090 0.940807 0.995101 0.988954 0.921995 0.797624 0.622912 0.408256 0.166812 0.086276 0.334797 0.562518 0.754241 0.896850 0.980251 0.998135 0.948516 0.833989 0.661672 0.442841 0.192251 0.072822 0.333731 0.571769 0.769522 0.912174 0.988659 0.992594 0.922869 0.783875 0.585314 0.341602 0.070886 0.206269 0.468415 0.694886 0.867451 0.971833 0.998945 0.945772 0.815763 0.618708 0.370102 0.089988 0.198600 0.471507 0.705481 0.880175 0.979986 0.995511 0.924527 0.772354 0.551579 0.281103 0.015398 0.311500 0.580363 0.797180 0.941506 0.999269 0.964224 0.838729 0.633728 0.367898 0.066053 0.243114 0.529732 0.765630 0.927170 0.997675 0.969254 0.843798 0.633007 0.357431 0.044551 0.273869 0.564995 0.798300 0.948838 0.999988 0.945401 0.789909 0.549254 0.248613 0.079919 0.400706 0.678413 0.881931 0.987938 0.983677 0.868633 0.654839 0.365782 0.033944 0.302778 0.605340 0.838110 0.973130 0.993584 0.896032 0.691103 0.402498 0.064399 0.282484 0.595785 0.836647 0.974628 0.991665 0.884588 0.665823 0.362135 0.011483 0.341598 0.651644 0.878118 0.990808 0.974000 0.828827 0.573465 0.241015 0.124611 0.474420 0.760908 0.944526 0.999285
1.000000 1.000000 1.000000 1.000000 1.000000 1.000000 1.000000 1.000000 1.000000 1.000000 1.000000 1.000000 1.000000 1.000000 1.000000 1.000000 1.000000 1.000000 1.000000 1.000000 1.000000 1.000000 1.000000 1.000000 1.000000 1.000000 1.000000 1.000000 1.000000 1.000000 1.000000 1.000000 1.000000 1.000000 1.000000 1.000000 1.000000 1.000000 1.000000 1.000000 1.000000 1.000000 1.000000 1.000000 1.000000 1.000000 1.000000 1.000000 1.000000 1.000000 1.000000 1.000000 0.918118 0.918118 0.904534 0.904534 0.904534 0.904534 0.904534 0.904534 0.904534 0.904534 0.904534 0.904534 0.904534 0.904534 0.904534 0.904534 0.904534 0.904534 0.904534 0.904534 0.904534 0.904534 0.904534 0.904534 0.904534 0.904534 0.904534 0.904534 0.904534 0.904534 0.904534 0.904534 0.904534 0.904534 0.904534 0.904534 0.904534 0.904534 0.904534 0.904534 0.904534 0.904534 0.904534 0.900742 0.905493 0.907390 0.905761 0.909351 0.909430 0.908713 0.909018 0.908649 0.908953 0.910345 0.920893 0.931970 0.943066 0.943620 0.948755 0.953146 0.955479 0.956396 0.957874 0.967621 0.966348 0.965814 0.966522 0.968068 0.970269 0.968896 0.968613 0.971737 0.972444 0.970740 0.968620 0.968001 0.967383 0.967468 0.967072 0.966963 0.966853 0.967356 0.967574 0.967308 0.967450 0.967492 0.968514 0.969673 0.971984 0.972979 0.972791 0.971622 0.966074 0.969934 0.970567 0.970219 0.970151 0.969691 0.970012 0.957795 0.952904 0.952848 0.949530 0.948476 0.945108 0.943787 0.942137 0.942359 0.941274 0.941712 0.938726 0.925866 0.912772 0.901483 0.921436 0.906957 0.895362 0.870743 0.870778 0.865311 0.865937 0.857681 0.851868 0.847270 0.843904 0.845127 0.844265 0.848699 0.846329 0.832296 0.835553 0.831873 0.801881 0.785840 0.769904 0.771411 0.768883 0.770037 0.769688 0.765001 0.773321 0.763932 0.762470 0.754141 0.735383 0.704490 0.688537 0.699093 0.709029 0.708485 0.705002 0.690163 0.659027 0.670434 0.698722 0.690314 0.692787 0.684930 0.679494 0.681834 0.681362 0.678659 0.671274 0.670675 0.670008 0.677496 0.682268 0.677285 0.667335 0.652499 0.639672 0.626588 0.641070 0.646096 0.614228 0.609130 0.600661 0.593795 0.582341 0.547283 0.545168 0.521710 0.510451 0.509584 0.510775 0.506984 0.514799 0.515857 0.497102 0.520114 0.525817 0.553117 0.527940 0.526111 0.527241 0.535737 0.520874 0.493824 0.486376 0.487325 0.498487 0.531108 0.570408 0.562046 0.548334 0.536054 0.550530 0.524706 0.534623 0.553315 0.530602 0.459041 0.412258 0.409057 0.369977 0.365169 0.357647 0.348270 0.347194 0.340965 0.329120 0.315685 0.302368 0.250419 0.213542 0.195845 0.170398 0.175690 0.192791 0.177416 0.176349 0.208210 0.255492 0.256018 0.247130 0.218962 0.219479 0.190408 0.202969 0.230767 0.187309 0.183042 0.176492 0.149970 0.142692 0.100840 0.132140 0.042889 0.026662 0.026732 0.046339 0.059365 0.058428 0.067387 0.035493 0.054715 0.050691 0.028671 0.015924 0.034441 0.024878 -0.004637 0.004886 0.013781 -0.002850 -0.021116 -0.002504 0.003932 0.017955 0.010771 0.011800 0.068925 0.101560 0.090100 0.091065 0.085093 0.085416 0.058086 0.044862 0.036911 0.026780 -0.016675 -0.046073 -0.046073 -0.040534 -0.040534 -0.040534 -0.040534 -0.040534 -0.040534 -0.040534 -0.040534 -0.040534 -0.043994 -0.043994 -0.043994 -0.043994 -0.043994 -0.043994 -0.043994 -0.043994 -0.043994 -0.018764 -0.018764 -0.018764 -0.018764 -0.018764 -0.018764 -0.018764 -0.018764 -0.018764
0.000000 0.000000 0.000000 0.000000 0.000000 0.000000 0.000000 0.000000 0.000000 0.000000 0.000000 0.000000 0.000000 0.000000 0.000000 0.000000 0.000000 0.000000 0.000000 0.000000 0.000000 0.000000 0.000000 0.000000 0.000000 0.000000 0.000000 0.000000 0.000000 0.000000 0.000000 0.000000 0.000000 0.000000 0.000000 0.000000 0.000000 0.000000 0.000000 0.000000 0.000000 0.000000 0.000000 0.000000 0.000000 0.000000 0.000000 0.000000 0.000000 0.000000 0.000000 0.000000 0.181818 0.181818 0.199007 0.199007 0.199007 0.199007 0.199007 0.199007 0.199007 0.199007 0.199007 0.199007 0.199007 0.199007 0.199007 0.199007 0.199007 0.199007 0.199007 0.199007 0.199007 0.199007 0.199007 0.199007 0.199007 0.199007 0.199007 0.199007 0.199007 0.199007 0.199007 0.199007 0.199007 0.199007 0.199007 0.199007 0.199007 0.199007 0.199007 0.199007 0.199007 0.199007 0.199007 0.230940 0.230940 0.230940 0.230940 0.230940 0.230940 0.230940 0.230940 0.230940 0.230940 0.230940 0.230940 0.230940 0.230940 0.230940 0.230940 0.230940 0.230940 0.230940 0.230940 0.230940 0.230940 0.230940 0.230940 0.230940 0.230940 0.230940 0.230940 0.244339 0.244339 0.244339 0.244339 0.244339 0.244339 0.244339 0.244339 0.244339 0.244339 0.244339 0.244339 0.244339 0.244339 0.244339 0.244339 0.244339 0.244339 0.244339 0.244339 0.244339 0.244339 0.244339 0.251976 0.251976 0.251976 0.251976 0.251976 0.251976 0.251976 0.251976 0.251976 0.251976 0.251976 0.251976 0.251976 0.251976 0.251976 0.251976 0.251976 0.251976 0.251976 0.251976 0.264906 0.264906 0.264906 0.264906 0.264906 0.264906 0.264906 0.264906 0.264906 0.264906 0.264906 0.264906 0.264906 0.264906 0.264906 0.264906 0.264906 0.264906 0.264906 0.264906 0.264906 0.264906 0.264906 0.264906 0.264906 0.264906 0.264906 0.264906 0.264906 0.264906 0.264906 0.264906 0.264906 0.264906 0.264906 0.264906 0.264906 0.264906 0.264906 0.264906 0.264906 0.264906 0.264906 0.264906 0.264906 0.264906 0.264906 0.264906 0.264906 0.264906 0.264906 0.264906 0.264906 0.264906 0.264906 0.264906 0.264906 0.264906 0.264906 0.264906 0.264906 0.264906 0.264906 0.264906 0.264906 0.264906 0.264906 0.264906 0.264906 0.264906 0.264906 0.264906 0.264906 0.264906 0.264906 0.269680 0.269680 0.269680 0.269680 0.269680 0.269680 0.269680 0.269680 0.269680 0.269680 0.269680 0.269680 0.264906 0.264906 0.264906 0.264906 0.264906 0.264906 0.264906 0.264906 0.264906 0.264906 0.264906 0.264906 0.269680 0.269680 0.269680 0.269680 0.269680 0.269680 0.269680 0.269680 0.269680 0.269680 0.269680 0.264906 0.264906 0.264906 0.264906 0.264906 0.264906 0.264906 0.264906 0.264906 0.264906 0.264906 0.256074 0.256074 0.256074 0.256074 0.256074 0.256074 0.256074 0.256074 0.256074 0.256074 0.256074 0.264906 0.264906 0.264906 0.264906 0.264906 0.264906 0.264906 0.264906 0.264906 0.264906 0.269680 0.269680 0.269680 0.269680 0.269680 0.269680 0.269680 0.269680 0.269680 0.256074 0.256074 0.256074 0.256074 0.256074 0.256074 0.256074 0.256074 0.256074 0.256074 0.260378 0.260378 0.260378 0.260378 0.260378 0.260378 0.260378 0.260378 0.260378 0.256074 0.256074 0.256074 0.256074 0.256074 0.256074 0.256074 0.256074 0.256074 0.251976 0.251976 0.251976 0.251976 0.251976 0.251976 0.251976 0.251976 0.251976 0.264906 0.264906 0.264906 0.264906 0.264906 0.264906 0.264906 0.264906 0.264906
