# Output from CTFFind version 4.1.9, run on 2019-11-03 20:03:07
# Input file: stack16_bm3d_averaged_1_6.0_0_50_half.mrc ; Number of micrographs: 1
# Pixel size: 3.000 Angstroms ; acceleration voltage: 300.0 keV ; spherical aberration: 0.00 mm ; amplitude contrast: 0.07
# Box size: 512 pixels ; min. res.: 30.0 Angstroms ; max. res.: 5.0 Angstroms ; min. def.: 5000.0 um; max. def. 50000.0 um; num. frames averaged: 1
# 6 lines per micrograph: #1 - spatial frequency (1/Angstroms); #2 - 1D rotational average of spectrum (assuming no astigmatism); #3 - 1D rotational average of spectrum; #4 - CTF fit; #5 - cross-correlation between spectrum and CTF fit; #6 - 2sigma of expected cross correlation of noise
0.000000 0.000651 0.001302 0.001953 0.002604 0.003255 0.003906 0.004557 0.005208 0.005859 0.006510 0.007161 0.007812 0.008464 0.009115 0.009766 0.010417 0.011068 0.011719 0.012370 0.013021 0.013672 0.014323 0.014974 0.015625 0.016276 0.016927 0.017578 0.018229 0.018880 0.019531 0.020182 0.020833 0.021484 0.022135 0.022786 0.023438 0.024089 0.024740 0.025391 0.026042 0.026693 0.027344 0.027995 0.028646 0.029297 0.029948 0.030599 0.031250 0.031901 0.032552 0.033203 0.033854 0.034505 0.035156 0.035807 0.036458 0.037109 0.037760 0.038411 0.039062 0.039714 0.040365 0.041016 0.041667 0.042318 0.042969 0.043620 0.044271 0.044922 0.045573 0.046224 0.046875 0.047526 0.048177 0.048828 0.049479 0.050130 0.050781 0.051432 0.052083 0.052734 0.053385 0.054036 0.054688 0.055339 0.055990 0.056641 0.057292 0.057943 0.058594 0.059245 0.059896 0.060547 0.061198 0.061849 0.062500 0.063151 0.063802 0.064453 0.065104 0.065755 0.066406 0.067057 0.067708 0.068359 0.069010 0.069661 0.070312 0.070964 0.071615 0.072266 0.072917 0.073568 0.074219 0.074870 0.075521 0.076172 0.076823 0.077474 0.078125 0.078776 0.079427 0.080078 0.080729 0.081380 0.082031 0.082682 0.083333 0.083984 0.084635 0.085286 0.085938 0.086589 0.087240 0.087891 0.088542 0.089193 0.089844 0.090495 0.091146 0.091797 0.092448 0.093099 0.093750 0.094401 0.095052 0.095703 0.096354 0.097005 0.097656 0.098307 0.098958 0.099609 0.100260 0.100911 0.101562 0.102214 0.102865 0.103516 0.104167 0.104818 0.105469 0.106120 0.106771 0.107422 0.108073 0.108724 0.109375 0.110026 0.110677 0.111328 0.111979 0.112630 0.113281 0.113932 0.114583 0.115234 0.115885 0.116536 0.117188 0.117839 0.118490 0.119141 0.119792 0.120443 0.121094 0.121745 0.122396 0.123047 0.123698 0.124349 0.125000 0.125651 0.126302 0.126953 0.127604 0.128255 0.128906 0.129557 0.130208 0.130859 0.131510 0.132161 0.132812 0.133464 0.134115 0.134766 0.135417 0.136068 0.136719 0.137370 0.138021 0.138672 0.139323 0.139974 0.140625 0.141276 0.141927 0.142578 0.143229 0.143880 0.144531 0.145182 0.145833 0.146484 0.147135 0.147786 0.148438 0.149089 0.149740 0.150391 0.151042 0.151693 0.152344 0.152995 0.153646 0.154297 0.154948 0.155599 0.156250 0.156901 0.157552 0.158203 0.158854 0.159505 0.160156 0.160807 0.161458 0.162109 0.162760 0.163411 0.164062 0.164714 0.165365 0.166016 0.166667 0.167318 0.167969 0.168620 0.169271 0.169922 0.170573 0.171224 0.171875 0.172526 0.173177 0.173828 0.174479 0.175130 0.175781 0.176432 0.177083 0.177734 0.178385 0.179036 0.179688 0.180339 0.180990 0.181641 0.182292 0.182943 0.183594 0.184245 0.184896 0.185547 0.186198 0.186849 0.187500 0.188151 0.188802 0.189453 0.190104 0.190755 0.191406 0.192057 0.192708 0.193359 0.194010 0.194661 0.195312 0.195964 0.196615 0.197266 0.197917 0.198568 0.199219 0.199870 0.200521 0.201172 0.201823 0.202474 0.203125 0.203776 0.204427 0.205078 0.205729 0.206380 0.207031 0.207682 0.208333 0.208984 0.209635 0.210286 0.210938 0.211589 0.212240 0.212891 0.213542 0.214193 0.214844 0.215495 0.216146 0.216797 0.217448 0.218099 0.218750 0.219401 0.220052 0.220703 0.221354 0.222005 0.222656 0.223307 0.223958 0.224609 0.225260 0.225911 0.226562 0.227214 0.227865 0.228516 0.229167 0.229818 0.230469 0.231120 0.231771 0.232422 0.233073 0.233724 0.234375 0.235026 0.235677
       0.35007        0.35007        0.35007        0.35007        0.35007        0.35007        0.35007        0.35007        0.35007        0.35007        0.35007        0.35007        0.35007        0.35007        0.35007        0.35007        0.35007        0.35007        0.35007        0.35007        0.35007        0.35007        0.35007        0.35007        0.35007        0.35007        0.35007        0.35007        0.35007        0.35007        0.35007        0.35007        0.35007        0.35007        0.35007        0.35007        0.35007        0.35007        0.35007        0.35007        0.35007        0.35007        0.35007        0.35007        0.35007        0.35007        0.35007        0.35007        0.35007        0.35007        0.35007        0.42941        0.55756        0.34353       -0.21460       -0.45140       -0.54400       -0.64552       -0.71457       -0.72138       -0.81556       -0.88958       -0.68131       -0.83605       -0.81927       -0.96182       -1.00052       -0.88219       -0.84122       -0.79824       -0.71095       -0.64189       -0.55255       -0.45918       -0.39434       -0.16566       -0.06360        0.03909        0.26047        0.25918        0.31682        0.37228        0.40366        0.52318        0.53946        0.57470        0.53386        0.47507        0.50711        0.52898        0.45211        0.33308        0.21676        0.18312        0.11303        0.01311       -0.00344       -0.01259        0.05938        0.02584        0.07768        0.05101        0.16710        0.19784        0.40941        0.46076        0.54963        0.65870        0.68740        0.71444        0.63859        0.61232        0.54312        0.44227        0.38966        0.27938        0.22038        0.21624        0.10436        0.11430        0.11326        0.08941        0.09831        0.30672        0.41777        0.52515        0.53417        0.57010        0.60810        0.58836        0.57375        0.58451        0.56838        0.46893        0.30819        0.26731        0.25797        0.15403        0.09376        0.17144        0.21139        0.28845        0.35487        0.42787        0.47438        0.53186        0.60259        0.54682        0.50658        0.50530        0.35793        0.27946        0.26246        0.17792        0.20148        0.23926        0.27845        0.28448        0.32992        0.43042        0.46436        0.49998        0.45370        0.44394        0.48835        0.39604        0.33110        0.28932        0.26259        0.23519        0.23019        0.24061        0.33955        0.44698        0.43372        0.48994        0.55505        0.45029        0.41382        0.35796        0.31830        0.27421        0.28397        0.27232        0.29142        0.35358        0.36137        0.43929        0.47355        0.44061        0.46303        0.37860        0.38022        0.35544        0.27348        0.25480        0.25231        0.33401        0.38106        0.36670        0.39095        0.43395        0.44326        0.38026        0.34016        0.32359        0.35393        0.31731        0.28482        0.28800        0.35782        0.37527        0.39270        0.39008        0.39237        0.42099        0.40726        0.32601        0.29124        0.31608        0.34419        0.38163        0.36277        0.40581        0.34609        0.37188        0.39435        0.34060        0.35637        0.32309        0.30357        0.33945        0.34589        0.33135        0.35912        0.37646        0.32991        0.34902        0.32275        0.31856        0.29916        0.32255        0.32221        0.32909        0.36803        0.37531        0.35827        0.31059        0.30244        0.28897        0.33258        0.31568        0.31706        0.37247        0.35933        0.34354        0.31720        0.30720        0.31072        0.27857        0.31870        0.33246        0.34268        0.37251        0.35363        0.31562        0.33899        0.35207        0.33408        0.35780        0.34879        0.31559        0.33506        0.29408        0.32314        0.29896        0.31600        0.28829        0.32285        0.35294        0.33152        0.35741        0.31533        0.33346        0.35507        0.34289        0.31928        0.32555        0.36441        0.34509        0.34385        0.32994        0.31359        0.31859        0.31733        0.32718        0.32513        0.35984        0.33802        0.33762        0.29567        0.28939        0.26999        0.27441        0.36493        0.31338        0.34243        0.29845        0.26465        0.27778        0.36549        0.30967        0.28545        0.31774        0.31920        0.29708        0.26443        0.30476        0.27076        0.29651        0.30857        0.34061        0.33636        0.32207        0.31234        0.26830        0.27865        0.27416        0.27914        0.29775        0.36252        0.29777        0.20211        0.30600        0.29423        0.32907        0.25869        0.29809        0.29544        0.33430        0.28992        0.27773        0.26982        0.24684        0.30627        0.34109        0.33656        0.25181        0.30576        0.25309        0.23735        0.21948        0.33169        0.25343        0.16702        0.11639        0.20527        0.34052        0.24280        0.19243        0.12819       -0.45051       -0.56175
3.198005 3.157425 3.117109 3.077056 3.037266 2.997740 2.958477 2.919477 2.880741 2.842268 2.804058 2.766112 2.728429 2.691009 2.653853 2.616960 2.580330 2.543964 2.507861 2.472021 2.436444 2.401132 2.366082 2.331295 2.296772 2.262513 2.228516 2.194783 2.161314 2.128107 2.095164 2.062485 2.030068 1.997915 1.966026 1.934399 1.903036 1.871937 1.841100 1.810527 1.780218 1.750171 1.720388 1.690869 1.661612 1.632619 1.603890 1.575423 1.547220 1.519281 1.491604 1.527238 1.602559 1.542840 0.843337 0.596551 0.457436 0.388510 0.292313 0.218590 0.185829 -0.050020 0.207007 0.073042 -0.029849 -0.108681 -0.237826 -0.144414 -0.054751 -0.093722 -0.073845 0.036339 0.034820 0.228889 0.107417 0.356472 0.462551 0.493427 0.769187 0.683676 0.694764 0.823607 0.795867 0.841084 0.922951 0.852269 0.887131 0.725584 0.787708 0.844146 0.687031 0.604463 0.434574 0.426632 0.333167 0.190343 0.186061 0.114335 0.208312 0.119733 0.208410 0.104850 0.215770 0.228201 0.439435 0.401658 0.571638 0.610609 0.635634 0.719413 0.605248 0.577616 0.458470 0.410415 0.288021 0.261369 0.092927 0.152641 -0.028847 0.036444 -0.031934 -0.043356 -0.056534 0.025860 0.265156 0.291562 0.358313 0.298673 0.382819 0.391933 0.416091 0.396221 0.355806 0.328389 0.121446 0.074034 0.062756 -0.020808 -0.153485 -0.052654 -0.066019 0.036670 0.076764 0.149649 0.214541 0.224755 0.316230 0.404301 0.285102 0.361648 0.231908 0.141058 0.065134 0.034945 0.000755 0.050240 0.069678 0.094958 0.117307 0.172010 0.238451 0.305317 0.269126 0.211249 0.252751 0.225617 0.109635 0.060683 0.052540 0.025693 0.006352 -0.020836 0.030367 0.167963 0.190878 0.189470 0.298497 0.186876 0.195093 0.073392 0.066402 0.010021 -0.006986 -0.002271 -0.009994 0.044161 0.068345 0.097800 0.156649 0.139956 0.221843 0.134789 0.077673 0.098774 0.043392 -0.052056 -0.021422 0.025500 0.064940 0.073468 0.067176 0.151483 0.118557 0.152157 0.036755 0.049611 0.045718 0.047518 0.027199 -0.020547 0.040065 0.048372 0.090785 0.100517 0.088911 0.111279 0.124595 0.080002 0.012962 -0.008334 0.024761 0.076393 0.071144 0.091005 0.086677 0.052875 0.105321 0.066072 0.041825 0.078657 -0.014646 0.014517 0.064505 0.038976 0.044328 0.065271 0.077327 0.048580 0.064347 0.015082 0.019883 0.005492 0.053581 0.010090 0.041021 0.071989 0.076512 0.042971 -0.006565 -0.003407 -0.019169 0.041523 0.000973 0.012556 0.072414 0.048541 0.001040 0.010132 -0.015530 0.007208 -0.040927 0.005699 0.012773 0.040437 0.047119 0.026453 -0.007241 0.005634 0.029267 0.006058 0.039206 0.009885 -0.014376 0.019598 -0.044205 -0.026302 -0.055139 -0.012455 -0.062736 0.008774 0.013350 -0.003228 -0.007513 -0.004657 0.000213 0.027446 0.016819 -0.012300 0.007539 0.026438 0.038239 0.022692 0.007597 0.017659 0.003355 -0.003734 0.017883 -0.005537 0.090386 0.042654 0.029804 0.002606 -0.009969 -0.032427 0.002194 0.083245 -0.005998 0.061733 -0.022445 -0.024729 -0.022009 0.095085 0.001645 -0.022741 0.058138 0.051343 0.008710 0.004581 0.020778 0.003311 0.036997 0.037952 0.085329 0.057363 0.050305 0.042271 -0.006369 0.014121 -0.005261 -0.006005 0.012631 0.098063 -0.015270 -0.091511 0.047057 -0.005680 0.071957 -0.053209 -0.003647 0.003827 0.023176 0.000604 -0.021324 -0.019884 -0.068809 0.042200 0.047368 0.056042 -0.122224 0.019922 0.002956 -0.016832 -0.083337 0.103734 0.020451 -0.044981 -0.109228 0.163239 0.332732 0.179950 0.137631 0.130067 -0.536600
0.072396 0.073047 0.074998 0.078249 0.082800 0.088648 0.095791 0.104227 0.113951 0.124959 0.137243 0.150796 0.165607 0.181664 0.198951 0.217449 0.237138 0.257989 0.279974 0.303056 0.327194 0.352342 0.378445 0.405444 0.433269 0.461844 0.491085 0.520896 0.551174 0.581804 0.612662 0.643611 0.674505 0.705187 0.735485 0.765220 0.794199 0.822218 0.849064 0.874512 0.898329 0.920273 0.940095 0.957540 0.972348 0.984259 0.993008 0.998338 0.999991 0.997719 0.991285 0.980464 0.965049 0.944855 0.919721 0.889514 0.854137 0.813527 0.767666 0.716579 0.660344 0.599088 0.533001 0.462330 0.387385 0.308544 0.226250 0.141014 0.053416 0.035900 0.126223 0.216784 0.306754 0.395257 0.481371 0.564142 0.642589 0.715722 0.782546 0.842085 0.893390 0.935558 0.967750 0.989208 0.999273 0.997403 0.983191 0.956383 0.916893 0.864818 0.800451 0.724289 0.637041 0.539632 0.433201 0.319099 0.198877 0.074272 0.052810 0.180323 0.306105 0.427918 0.543483 0.650527 0.746828 0.830267 0.898876 0.950894 0.984819 0.999457 0.993969 0.967910 0.921273 0.854506 0.768539 0.664784 0.545135 0.411949 0.268013 0.116497 0.039099 0.195027 0.347371 0.492143 0.625396 0.743329 0.842405 0.919471 0.971869 0.997541 0.995126 0.964040 0.904533 0.817729 0.705637 0.571133 0.417910 0.250405 0.073680 0.106704 0.284865 0.454784 0.610504 0.746355 0.857168 0.938488 0.986780 0.999599 0.975745 0.915360 0.819992 0.692603 0.537508 0.360276 0.167550 0.033175 0.233824 0.426068 0.601661 0.752811 0.872535 0.955018 0.995915 0.992624 0.944476 0.852855 0.721215 0.555013 0.361520 0.149549 0.070919 0.289181 0.494336 0.675817 0.823969 0.930579 0.989377 0.996446 0.950530 0.853211 0.708927 0.524850 0.310574 0.077672 0.160899 0.391497 0.600572 0.775484 0.905285 0.981457 0.998526 0.954510 0.851178 0.694077 0.492310 0.258088 0.006040 0.247663 0.486326 0.693832 0.855760 0.960430 0.999811 0.970208 0.872672 0.713096 0.501955 0.253702 0.014148 0.282221 0.530656 0.740586 0.895617 0.983156 0.995521 0.930704 0.792709 0.591442 0.342096 0.064099 0.220342 0.487984 0.716447 0.886124 0.981937 0.994754 0.922376 0.769940 0.549701 0.280155 0.015394 0.310815 0.579415 0.796373 0.941092 0.999237 0.964276 0.838330 0.632231 0.364724 0.060902 0.250075 0.537749 0.773327 0.932648 0.998741 0.963763 0.830075 0.610279 0.326197 0.006838 0.314477 0.603554 0.828993 0.965657 0.997612 0.920127 0.740515 0.477638 0.160091 0.176765 0.494696 0.756913 0.932391 0.999659 0.949587 0.786799 0.529483 0.207556 0.140680 0.472982 0.748306 0.931908 0.999876 0.942412 0.765438 0.490244 0.151132 0.208703 0.542588 0.806427 0.964610 0.994970 0.892100 0.668497 0.353297 0.011302 0.375564 0.688928 0.907089 0.998384 0.948587 0.763373 0.467969 0.103976 0.276329 0.617384 0.868495 0.991485 0.966707 0.796435 0.505027 0.135729 0.255554 0.608600 0.868157 0.992708 0.961345 0.777545 0.469177 0.084556 0.314898 0.664377 0.906227 0.999619 0.927689 0.700896 0.355846 0.050291 0.449098 0.772332 0.963705 0.988904 0.842028 0.547249 0.155173 0.265542 0.640114 0.900894 0.999790 0.917401 0.667174 0.293614 0.135279 0.540222 0.845238 0.992051 0.951492 0.729660 0.367479 0.066479 0.488758 0.816953 0.985931 0.961025 0.745535 0.380814 0.061250 0.492144 0.824391 0.989390 0.951910 0.718004 0.334560 0.119665 0.549985 0.865453 0.998216 0.918483 0.641624 0.225725 0.240164 0.654909
1.000000 1.000000 1.000000 1.000000 1.000000 1.000000 1.000000 1.000000 1.000000 1.000000 1.000000 1.000000 1.000000 1.000000 1.000000 1.000000 1.000000 1.000000 1.000000 1.000000 1.000000 1.000000 1.000000 1.000000 1.000000 1.000000 1.000000 1.000000 1.000000 1.000000 1.000000 1.000000 1.000000 1.000000 1.000000 1.000000 1.000000 1.000000 1.000000 1.000000 1.000000 1.000000 1.000000 1.000000 1.000000 1.000000 1.000000 1.000000 1.000000 1.000000 1.000000 1.000000 0.923051 0.923051 0.923051 0.923051 0.923051 0.923051 0.923051 0.923051 0.923051 0.923051 0.923051 0.923051 0.923051 0.923051 0.923051 0.923051 0.923051 0.923051 0.923051 0.923051 0.923051 0.923051 0.923051 0.923051 0.923051 0.923051 0.923051 0.923051 0.923051 0.923051 0.923051 0.923051 0.923051 0.913182 0.911297 0.912449 0.910990 0.909553 0.908963 0.908568 0.909607 0.911207 0.913288 0.934934 0.938037 0.939282 0.940611 0.941987 0.944275 0.942106 0.949659 0.956158 0.955085 0.956218 0.950024 0.951451 0.950782 0.950035 0.951386 0.951532 0.949823 0.947788 0.946199 0.945640 0.945325 0.948981 0.949474 0.949622 0.950218 0.950161 0.950877 0.951474 0.949599 0.951854 0.943933 0.942599 0.947870 0.945769 0.947132 0.947092 0.947780 0.948580 0.948900 0.949173 0.946183 0.945700 0.944771 0.937450 0.930494 0.930505 0.932812 0.935786 0.933217 0.930249 0.931519 0.933555 0.932756 0.936235 0.926997 0.922660 0.896610 0.883307 0.873354 0.873532 0.877415 0.880064 0.877780 0.871259 0.862308 0.858622 0.858209 0.854426 0.846341 0.861945 0.856169 0.853322 0.857021 0.860239 0.865602 0.863520 0.859206 0.854395 0.849638 0.840218 0.841628 0.845270 0.849477 0.832348 0.822099 0.838966 0.830121 0.820702 0.828503 0.830448 0.827492 0.826272 0.826598 0.824701 0.818451 0.811329 0.815032 0.823965 0.824455 0.814254 0.811654 0.809218 0.808752 0.802659 0.807605 0.808954 0.805382 0.798220 0.815748 0.782634 0.804199 0.805033 0.788637 0.772781 0.761476 0.770158 0.780224 0.779998 0.774664 0.777974 0.777699 0.769778 0.743654 0.738247 0.745737 0.744122 0.732645 0.717753 0.724606 0.724020 0.720879 0.717859 0.720963 0.720881 0.696820 0.710193 0.714525 0.704771 0.718801 0.721563 0.712403 0.715323 0.718687 0.721920 0.719342 0.684204 0.687463 0.655095 0.648141 0.601317 0.599044 0.594569 0.536662 0.541574 0.518709 0.504058 0.504315 0.478280 0.530344 0.455977 0.442581 0.471599 0.398003 0.345339 0.362604 0.363427 0.376129 0.382780 0.370893 0.372538 0.357611 0.337123 0.326502 0.351279 0.367853 0.336783 0.338525 0.322136 0.301684 0.260851 0.277987 0.281793 0.310201 0.312797 0.294170 0.319267 0.358401 0.297066 0.278446 0.256807 0.282516 0.292350 0.290814 0.279296 0.284970 0.240683 0.237398 0.260442 0.261749 0.291801 0.313183 0.340880 0.337226 0.340869 0.370892 0.322288 0.334330 0.337175 0.327032 0.348707 0.352157 0.356908 0.349435 0.375045 0.360133 0.369811 0.365442 0.370288 0.417098 0.394590 0.370102 0.348471 0.357121 0.356594 0.349989 0.293605 0.271079 0.270535 0.224580 0.188412 0.190268 0.190523 0.144876 0.131702 0.113724 0.078964 0.077752 0.083572 0.116626 0.085948 0.104769 0.108227 0.108227 0.108227 0.108227 0.108227 0.108227 0.108227 0.108227 0.108227 0.108227 0.108227 0.108227 0.108227 0.108227 0.130812 0.130812 0.130812 0.130812 0.130812 0.130812 0.130812 0.130812 0.130812 0.130812 0.130812 0.130812
0.000000 0.000000 0.000000 0.000000 0.000000 0.000000 0.000000 0.000000 0.000000 0.000000 0.000000 0.000000 0.000000 0.000000 0.000000 0.000000 0.000000 0.000000 0.000000 0.000000 0.000000 0.000000 0.000000 0.000000 0.000000 0.000000 0.000000 0.000000 0.000000 0.000000 0.000000 0.000000 0.000000 0.000000 0.000000 0.000000 0.000000 0.000000 0.000000 0.000000 0.000000 0.000000 0.000000 0.000000 0.000000 0.000000 0.000000 0.000000 0.000000 0.000000 0.000000 0.000000 0.209657 0.209657 0.209657 0.209657 0.209657 0.209657 0.209657 0.209657 0.209657 0.209657 0.209657 0.209657 0.209657 0.209657 0.209657 0.209657 0.209657 0.209657 0.209657 0.209657 0.209657 0.209657 0.209657 0.209657 0.209657 0.209657 0.209657 0.209657 0.209657 0.209657 0.209657 0.209657 0.209657 0.244339 0.244339 0.244339 0.244339 0.244339 0.244339 0.244339 0.244339 0.244339 0.244339 0.244339 0.244339 0.244339 0.244339 0.244339 0.244339 0.244339 0.244339 0.244339 0.244339 0.244339 0.244339 0.244339 0.244339 0.244339 0.260378 0.260378 0.260378 0.260378 0.260378 0.260378 0.260378 0.260378 0.260378 0.260378 0.260378 0.260378 0.260378 0.260378 0.260378 0.260378 0.260378 0.260378 0.260378 0.260378 0.269680 0.269680 0.269680 0.269680 0.269680 0.269680 0.269680 0.269680 0.269680 0.269680 0.269680 0.269680 0.269680 0.269680 0.269680 0.269680 0.269680 0.269680 0.269680 0.269680 0.269680 0.269680 0.269680 0.269680 0.269680 0.269680 0.269680 0.269680 0.269680 0.269680 0.269680 0.269680 0.269680 0.280056 0.280056 0.280056 0.280056 0.280056 0.280056 0.280056 0.280056 0.280056 0.280056 0.280056 0.280056 0.280056 0.280056 0.280056 0.280056 0.280056 0.280056 0.280056 0.280056 0.280056 0.280056 0.280056 0.280056 0.280056 0.280056 0.280056 0.274721 0.274721 0.274721 0.274721 0.274721 0.274721 0.274721 0.274721 0.274721 0.274721 0.274721 0.274721 0.274721 0.285714 0.285714 0.285714 0.285714 0.285714 0.285714 0.285714 0.285714 0.285714 0.285714 0.285714 0.280056 0.280056 0.280056 0.280056 0.280056 0.280056 0.280056 0.280056 0.280056 0.280056 0.280056 0.274721 0.274721 0.274721 0.274721 0.274721 0.274721 0.274721 0.274721 0.274721 0.274721 0.274721 0.280056 0.280056 0.280056 0.280056 0.280056 0.280056 0.280056 0.280056 0.280056 0.280056 0.285714 0.285714 0.285714 0.285714 0.285714 0.285714 0.285714 0.285714 0.285714 0.269680 0.269680 0.269680 0.269680 0.269680 0.269680 0.269680 0.269680 0.269680 0.269680 0.274721 0.274721 0.274721 0.274721 0.274721 0.274721 0.274721 0.274721 0.274721 0.285714 0.285714 0.285714 0.285714 0.285714 0.285714 0.285714 0.285714 0.264906 0.264906 0.264906 0.264906 0.264906 0.264906 0.264906 0.264906 0.264906 0.274721 0.274721 0.274721 0.274721 0.274721 0.274721 0.274721 0.274721 0.269680 0.269680 0.269680 0.269680 0.269680 0.269680 0.269680 0.269680 0.269680 0.269680 0.269680 0.269680 0.269680 0.269680 0.269680 0.269680 0.280056 0.280056 0.280056 0.280056 0.280056 0.280056 0.280056 0.260378 0.260378 0.260378 0.260378 0.260378 0.260378 0.260378 0.260378 0.269680 0.269680 0.269680 0.269680 0.269680 0.269680 0.269680 0.264906 0.264906 0.264906 0.264906 0.264906 0.264906 0.264906 0.264906 0.264906 0.264906 0.264906 0.264906 0.264906 0.264906 0.260378 0.260378 0.260378 0.260378 0.260378 0.260378 0.260378 0.260378 0.260378 0.260378 0.260378 0.260378
