# Output from CTFFind version 4.1.9, run on 2019-11-03 19:25:37
# Input file: stack1_bm3d_averaged_1_3.75_0_750_half.mrc ; Number of micrographs: 1
# Pixel size: 3.000 Angstroms ; acceleration voltage: 300.0 keV ; spherical aberration: 0.00 mm ; amplitude contrast: 0.07
# Box size: 512 pixels ; min. res.: 30.0 Angstroms ; max. res.: 5.0 Angstroms ; min. def.: 5000.0 um; max. def. 50000.0 um; num. frames averaged: 1
# 6 lines per micrograph: #1 - spatial frequency (1/Angstroms); #2 - 1D rotational average of spectrum (assuming no astigmatism); #3 - 1D rotational average of spectrum; #4 - CTF fit; #5 - cross-correlation between spectrum and CTF fit; #6 - 2sigma of expected cross correlation of noise
0.000000 0.000651 0.001302 0.001953 0.002604 0.003255 0.003906 0.004557 0.005208 0.005859 0.006510 0.007161 0.007812 0.008464 0.009115 0.009766 0.010417 0.011068 0.011719 0.012370 0.013021 0.013672 0.014323 0.014974 0.015625 0.016276 0.016927 0.017578 0.018229 0.018880 0.019531 0.020182 0.020833 0.021484 0.022135 0.022786 0.023438 0.024089 0.024740 0.025391 0.026042 0.026693 0.027344 0.027995 0.028646 0.029297 0.029948 0.030599 0.031250 0.031901 0.032552 0.033203 0.033854 0.034505 0.035156 0.035807 0.036458 0.037109 0.037760 0.038411 0.039062 0.039714 0.040365 0.041016 0.041667 0.042318 0.042969 0.043620 0.044271 0.044922 0.045573 0.046224 0.046875 0.047526 0.048177 0.048828 0.049479 0.050130 0.050781 0.051432 0.052083 0.052734 0.053385 0.054036 0.054688 0.055339 0.055990 0.056641 0.057292 0.057943 0.058594 0.059245 0.059896 0.060547 0.061198 0.061849 0.062500 0.063151 0.063802 0.064453 0.065104 0.065755 0.066406 0.067057 0.067708 0.068359 0.069010 0.069661 0.070312 0.070964 0.071615 0.072266 0.072917 0.073568 0.074219 0.074870 0.075521 0.076172 0.076823 0.077474 0.078125 0.078776 0.079427 0.080078 0.080729 0.081380 0.082031 0.082682 0.083333 0.083984 0.084635 0.085286 0.085938 0.086589 0.087240 0.087891 0.088542 0.089193 0.089844 0.090495 0.091146 0.091797 0.092448 0.093099 0.093750 0.094401 0.095052 0.095703 0.096354 0.097005 0.097656 0.098307 0.098958 0.099609 0.100260 0.100911 0.101562 0.102214 0.102865 0.103516 0.104167 0.104818 0.105469 0.106120 0.106771 0.107422 0.108073 0.108724 0.109375 0.110026 0.110677 0.111328 0.111979 0.112630 0.113281 0.113932 0.114583 0.115234 0.115885 0.116536 0.117188 0.117839 0.118490 0.119141 0.119792 0.120443 0.121094 0.121745 0.122396 0.123047 0.123698 0.124349 0.125000 0.125651 0.126302 0.126953 0.127604 0.128255 0.128906 0.129557 0.130208 0.130859 0.131510 0.132161 0.132812 0.133464 0.134115 0.134766 0.135417 0.136068 0.136719 0.137370 0.138021 0.138672 0.139323 0.139974 0.140625 0.141276 0.141927 0.142578 0.143229 0.143880 0.144531 0.145182 0.145833 0.146484 0.147135 0.147786 0.148438 0.149089 0.149740 0.150391 0.151042 0.151693 0.152344 0.152995 0.153646 0.154297 0.154948 0.155599 0.156250 0.156901 0.157552 0.158203 0.158854 0.159505 0.160156 0.160807 0.161458 0.162109 0.162760 0.163411 0.164062 0.164714 0.165365 0.166016 0.166667 0.167318 0.167969 0.168620 0.169271 0.169922 0.170573 0.171224 0.171875 0.172526 0.173177 0.173828 0.174479 0.175130 0.175781 0.176432 0.177083 0.177734 0.178385 0.179036 0.179688 0.180339 0.180990 0.181641 0.182292 0.182943 0.183594 0.184245 0.184896 0.185547 0.186198 0.186849 0.187500 0.188151 0.188802 0.189453 0.190104 0.190755 0.191406 0.192057 0.192708 0.193359 0.194010 0.194661 0.195312 0.195964 0.196615 0.197266 0.197917 0.198568 0.199219 0.199870 0.200521 0.201172 0.201823 0.202474 0.203125 0.203776 0.204427 0.205078 0.205729 0.206380 0.207031 0.207682 0.208333 0.208984 0.209635 0.210286 0.210938 0.211589 0.212240 0.212891 0.213542 0.214193 0.214844 0.215495 0.216146 0.216797 0.217448 0.218099 0.218750 0.219401 0.220052 0.220703 0.221354 0.222005 0.222656 0.223307 0.223958 0.224609 0.225260 0.225911 0.226562 0.227214 0.227865 0.228516 0.229167 0.229818 0.230469 0.231120 0.231771 0.232422 0.233073 0.233724 0.234375 0.235026 0.235677
       0.34856        0.34856        0.34856        0.34856        0.34856        0.34856        0.34856        0.34856        0.34856        0.34856        0.34856        0.34856        0.34856        0.34856        0.34856        0.34856        0.34856        0.34856        0.34856        0.34856        0.34856        0.34856        0.34856        0.34856        0.34856        0.34856        0.34856        0.34856        0.34856        0.34856        0.34856        0.34856        0.34856        0.34856        0.34856        0.34856        0.34856        0.34856        0.34856        0.34856        0.34856        0.34856        0.34856        0.34856        0.34856        0.34856        0.34856        0.34856        0.34856        0.34856        0.34856        0.47614        0.68933        0.37176        0.19336       -0.03671       -0.23959       -0.04992       -0.13335       -0.10980        0.01119       -0.11115       -0.11150       -0.04726       -0.03445       -0.12874       -0.16109       -0.30433       -0.46869       -0.55440       -0.51639       -0.43211       -0.33241       -0.51625       -0.39033       -0.51453       -0.42580       -0.44893       -0.32581       -0.30542       -0.28556       -0.18619       -0.11031       -0.09408        0.04877        0.02197        0.18583        0.17145        0.31967        0.40023        0.51428        0.54283        0.56388        0.59277        0.73143        0.64264        0.63857        0.55792        0.54037        0.61706        0.50692        0.48249        0.40978        0.31675        0.28418        0.29435        0.25247        0.12781        0.12575        0.00451        0.06353        0.06338        0.03207        0.08915        0.12873        0.22064        0.29330        0.29280        0.36344        0.50751        0.52428        0.54270        0.65876        0.63521        0.61256        0.64285        0.62737        0.50488        0.50589        0.40832        0.35907        0.28154        0.21667        0.17864        0.16519        0.12941        0.18834        0.19444        0.23917        0.24578        0.32892        0.37764        0.40073        0.49637        0.54548        0.56186        0.52920        0.59932        0.51734        0.49083        0.50497        0.38260        0.31619        0.28921        0.28359        0.20561        0.22728        0.20689        0.22324        0.23817        0.32171        0.37456        0.41699        0.43763        0.44786        0.47309        0.44049        0.48980        0.42370        0.38053        0.35091        0.38855        0.35099        0.33473        0.25477        0.29967        0.26179        0.26787        0.28336        0.36816        0.38090        0.41298        0.43684        0.45896        0.43563        0.43270        0.47064        0.36955        0.35335        0.34346        0.29948        0.34341        0.28665        0.31990        0.33176        0.32568        0.36558        0.40853        0.38635        0.42969        0.38600        0.41327        0.38277        0.40638        0.31253        0.30485        0.27675        0.25070        0.30949        0.34531        0.36248        0.36323        0.38131        0.38741        0.35991        0.43603        0.39705        0.37491        0.36003        0.31855        0.28776        0.31202        0.31603        0.36339        0.32924        0.34999        0.34547        0.39451        0.38076        0.36664        0.37460        0.38003        0.35566        0.31999        0.34704        0.33480        0.34820        0.31894        0.36247        0.36603        0.33250        0.33753        0.36606        0.33280        0.29423        0.30251        0.30719        0.32069        0.31122        0.35132        0.32459        0.32934        0.33293        0.32891        0.31811        0.29900        0.31536        0.32145        0.30893        0.31431        0.31891        0.31240        0.34109        0.32409        0.38477        0.38000        0.33430        0.37016        0.31846        0.25587        0.28373        0.33071        0.32964        0.29195        0.33889        0.31845        0.32094        0.34982        0.36313        0.33697        0.31627        0.28979        0.33805        0.36346        0.37857        0.31173        0.31563        0.29245        0.25825        0.26208        0.32445        0.30790        0.31484        0.30215        0.28692        0.28881        0.34343        0.36847        0.34977        0.29703        0.32157        0.33944        0.34874        0.38704        0.33236        0.33024        0.32592        0.35016        0.31812        0.32549        0.33517        0.26093        0.28029        0.32469        0.30923        0.32657        0.30448        0.25052        0.23382        0.27852        0.29379        0.35271        0.30587        0.29788        0.28094        0.33034        0.33701        0.27896        0.26844        0.25438        0.28300        0.30727        0.34934        0.29027        0.32852        0.32495        0.29150        0.33404        0.26074        0.21853        0.20390        0.26829        0.24731        0.25581        0.21634        0.21815        0.34637        0.32140        0.24293        0.23640        0.19686        0.29359        0.37441        0.24862        0.10379        0.16798        0.17268        0.18638        0.23280        0.08549        0.05953       -0.54828       -1.15746
2.802135 2.772220 2.742467 2.712878 2.683452 2.654188 2.625088 2.596150 2.567375 2.538764 2.510315 2.482029 2.453907 2.425947 2.398150 2.370516 2.343046 2.315738 2.288593 2.261611 2.234792 2.208136 2.181643 2.155313 2.129146 2.103142 2.077301 2.051622 2.026107 2.000755 1.975566 1.950539 1.925676 1.900976 1.876438 1.852064 1.827852 1.803804 1.779918 1.756196 1.732636 1.709240 1.686006 1.662935 1.640028 1.617283 1.594701 1.572282 1.550026 1.527933 1.506004 1.530304 1.892448 1.699672 1.143811 1.068926 0.509896 0.938625 0.609772 0.789232 0.889940 0.667154 0.627155 0.780219 0.748113 0.607246 0.580464 0.366948 0.053857 0.014081 -0.007475 -0.023293 0.331330 -0.070476 0.050429 -0.058590 -0.004214 -0.030097 0.089203 0.094833 0.118955 0.195197 0.308154 0.281503 0.457565 0.385464 0.632624 0.527224 0.773240 0.770261 0.936977 1.030655 0.970228 1.013159 1.145688 1.104182 1.073540 0.900940 0.889607 0.980787 0.824723 0.825515 0.661612 0.557001 0.505504 0.479209 0.463138 0.243423 0.262532 0.107191 0.062906 0.170254 0.033072 0.083518 0.173384 0.218535 0.331168 0.335279 0.423771 0.477085 0.637800 0.497224 0.765252 0.749172 0.633457 0.731333 0.700960 0.559355 0.445076 0.441963 0.294448 0.243152 0.091236 0.073677 0.000329 -0.004150 -0.040557 0.032772 0.077427 0.067914 0.098468 0.231120 0.248662 0.306948 0.423019 0.432775 0.357454 0.480580 0.413863 0.325121 0.332330 0.294607 0.076169 0.082130 0.023196 -0.030809 -0.040031 -0.077931 -0.054582 -0.054211 -0.005530 0.090057 0.171865 0.207410 0.183863 0.218833 0.273760 0.230193 0.234218 0.208016 0.104864 0.101456 0.146452 0.053132 0.013869 -0.019233 0.028480 -0.029379 0.001580 0.036816 0.119680 0.119823 0.156049 0.194332 0.234910 0.133952 0.213704 0.175996 0.108103 0.067154 0.010336 0.061311 0.000267 0.015454 0.008005 0.061615 0.020680 0.102795 0.150678 0.064022 0.163244 0.099343 0.111672 0.119925 0.093117 -0.037828 -0.004951 -0.059323 -0.070137 0.019147 0.058616 0.085688 0.025356 0.109511 0.098310 0.086491 0.166741 0.064047 0.089764 0.073545 -0.053638 -0.004236 0.004484 0.016428 0.067609 0.040929 0.030429 0.075973 0.093988 0.070431 0.086282 0.071010 0.076252 0.043353 0.029941 0.041398 0.023834 0.062774 0.014792 0.077346 0.042618 -0.000953 0.034503 0.057824 -0.012950 -0.060643 -0.002671 -0.031546 -0.023201 -0.024099 0.036193 0.003897 -0.008550 0.025682 -0.009843 -0.002814 -0.011918 -0.014163 -0.017793 0.013984 -0.013366 -0.004850 -0.029744 0.037844 0.021046 0.102874 0.079022 0.053089 0.061288 -0.008156 -0.090958 0.001109 0.024620 0.038731 -0.017528 0.044929 0.019317 -0.005743 0.048763 0.055390 0.037999 -0.047605 -0.007012 0.047404 0.051562 0.070820 -0.025381 -0.016472 -0.030126 -0.077208 -0.068449 -0.001270 0.026131 -0.023066 0.006651 -0.050403 -0.031382 0.029106 0.122069 -0.007334 0.018142 -0.021184 0.071117 0.052383 0.098042 0.008969 0.001731 0.047350 0.014277 0.002654 -0.006660 0.043120 -0.085351 -0.032193 0.017957 0.019955 0.018267 -0.044807 -0.073008 -0.054423 -0.014345 -0.075716 0.101547 -0.016060 0.018333 -0.013519 0.061902 0.052701 0.018797 0.028034 -0.033965 0.073872 0.058950 0.135668 0.016578 0.096745 0.104554 0.041183 0.160137 0.005393 -0.057965 -0.030602 0.049905 0.020162 0.036776 -0.026098 -0.006177 0.152403 0.114165 0.048744 -0.030991 -0.017033 0.051225 0.220847 0.175961 0.124471 0.210015 0.275398 0.191239 0.309413 0.027777 0.079838 -1.467408
0.072396 0.072907 0.074441 0.076997 0.080575 0.085173 0.090791 0.097426 0.105077 0.113740 0.123413 0.134089 0.145765 0.158433 0.172085 0.186711 0.202301 0.218840 0.236313 0.254701 0.273984 0.294138 0.315135 0.336945 0.359532 0.382858 0.406879 0.431547 0.456809 0.482606 0.508874 0.535542 0.562535 0.589770 0.617156 0.644599 0.671995 0.699234 0.726199 0.752766 0.778803 0.804173 0.828731 0.852325 0.874798 0.895986 0.915722 0.933832 0.950141 0.964467 0.976629 0.986444 0.993730 0.998307 0.999994 0.998620 0.994017 0.986025 0.974495 0.959290 0.940285 0.917374 0.890467 0.859497 0.824419 0.785212 0.741885 0.694475 0.643052 0.587721 0.528621 0.465932 0.399868 0.330689 0.258693 0.184221 0.107655 0.029419 0.050023 0.130165 0.210466 0.290352 0.369213 0.446415 0.521300 0.593191 0.661402 0.725239 0.784011 0.837037 0.883657 0.923233 0.955170 0.978915 0.993973 0.999916 0.996392 0.983133 0.959971 0.926837 0.883777 0.830956 0.768664 0.697318 0.617471 0.529806 0.435142 0.334423 0.228723 0.119229 0.007235 0.105869 0.218617 0.329478 0.436883 0.539241 0.634967 0.722507 0.800364 0.867129 0.921506 0.962344 0.988664 0.999685 0.994851 0.973852 0.936646 0.883471 0.814858 0.731640 0.634947 0.526202 0.407114 0.279651 0.146020 0.008632 0.129938 0.266991 0.399763 0.525473 0.641392 0.744893 0.833529 0.905085 0.957648 0.989663 0.999986 0.987934 0.953323 0.896492 0.818327 0.720260 0.604257 0.472799 0.328836 0.175733 0.017204 0.142776 0.300065 0.450462 0.589815 0.714144 0.819763 0.903395 0.962282 0.994296 0.998026 0.972847 0.918977 0.837506 0.730397 0.600461 0.451304 0.287245 0.113205 0.065432 0.242975 0.413604 0.571566 0.711367 0.827980 0.917032 0.974991 0.999316 0.988596 0.942638 0.862526 0.750626 0.610547 0.447055 0.265925 0.073763 0.122222 0.314483 0.495423 0.657696 0.794520 0.899970 0.969262 0.998986 0.987305 0.934088 0.840976 0.711371 0.550350 0.364499 0.161670 0.049338 0.259129 0.458149 0.637097 0.787391 0.901590 0.973786 0.999944 0.978159 0.908818 0.794662 0.640717 0.454124 0.243837 0.020225 0.205420 0.421445 0.616436 0.779836 0.902537 0.977417 0.999793 0.967753 0.882348 0.747627 0.570495 0.360412 0.128926 0.110933 0.345375 0.560624 0.743750 0.883468 0.970859 0.999989 0.968360 0.877163 0.731313 0.539245 0.312489 0.065012 0.187602 0.429126 0.643723 0.817011 0.937052 0.995221 0.986886 0.911825 0.774373 0.583244 0.351044 0.093489 0.171604 0.425547 0.650089 0.828744 0.948049 0.998620 0.975964 0.880937 0.719828 0.504017 0.249248 0.025457 0.299191 0.550748 0.760250 0.910776 0.989772 0.990164 0.911075 0.758051 0.542768 0.282225 0.002531 0.288056 0.550437 0.767290 0.919713 0.993991 0.982915 0.886562 0.712473 0.475159 0.194995 0.103485 0.393666 0.649242 0.846611 0.967108 0.998855 0.938018 0.789361 0.565997 0.288339 0.017680 0.322984 0.598082 0.815942 0.954694 0.999914 0.946216 0.798006 0.569256 0.282309 0.034220 0.348231 0.627364 0.842369 0.970234 0.996725 0.918101 0.741737 0.485578 0.176441 0.152715 0.466228 0.729610 0.913380 0.996432 0.968588 0.831973 0.601034 0.301163 0.033994 0.366212 0.657048 0.872298 0.986105 0.984176 0.865726 0.643844 0.344210 0.002257 0.340930 0.643525 0.868074 0.986213 0.982377 0.856002 0.621903 0.308703 0.044525 0.393035 0.692065 0.902609 0.996596 0.960790 0.798813 0.531000 0.192003 0.173506 0.516716 0.791130 0.958965
1.000000 1.000000 1.000000 1.000000 1.000000 1.000000 1.000000 1.000000 1.000000 1.000000 1.000000 1.000000 1.000000 1.000000 1.000000 1.000000 1.000000 1.000000 1.000000 1.000000 1.000000 1.000000 1.000000 1.000000 1.000000 1.000000 1.000000 1.000000 1.000000 1.000000 1.000000 1.000000 1.000000 1.000000 1.000000 1.000000 1.000000 1.000000 1.000000 1.000000 1.000000 1.000000 1.000000 1.000000 1.000000 1.000000 1.000000 1.000000 1.000000 1.000000 1.000000 1.000000 0.905245 0.905245 0.905245 0.886754 0.886754 0.886754 0.886754 0.886754 0.886754 0.886754 0.886754 0.886754 0.886754 0.886754 0.886754 0.886754 0.886754 0.886754 0.886754 0.886754 0.886754 0.886754 0.886754 0.886754 0.886754 0.886754 0.886754 0.886754 0.886754 0.886754 0.886754 0.886754 0.886754 0.886754 0.886754 0.886754 0.886754 0.886754 0.886754 0.886754 0.886754 0.886754 0.886754 0.886754 0.894503 0.896698 0.898142 0.900834 0.902223 0.899291 0.898600 0.898168 0.898580 0.899714 0.910338 0.921768 0.937546 0.945695 0.951011 0.959770 0.961478 0.961714 0.967789 0.972907 0.971322 0.970592 0.970956 0.972438 0.974369 0.974506 0.975457 0.975283 0.974877 0.975345 0.975105 0.974454 0.973624 0.972841 0.972811 0.972311 0.972421 0.973301 0.973775 0.973605 0.974002 0.974163 0.972612 0.970912 0.966565 0.966877 0.966675 0.966100 0.962687 0.958891 0.958482 0.955710 0.955804 0.956047 0.956431 0.956859 0.953936 0.954177 0.941272 0.940255 0.939651 0.936895 0.934706 0.932716 0.931509 0.934001 0.932250 0.920879 0.913059 0.883544 0.876425 0.862754 0.859134 0.852099 0.854619 0.854762 0.856199 0.854083 0.848710 0.848254 0.845357 0.849453 0.848672 0.845849 0.844671 0.844195 0.832256 0.835240 0.828172 0.820665 0.812714 0.807088 0.809882 0.809626 0.809930 0.805510 0.811242 0.806082 0.802610 0.798209 0.792815 0.784608 0.769909 0.775115 0.781860 0.794539 0.795337 0.790182 0.768298 0.784739 0.786888 0.782648 0.787023 0.783516 0.749804 0.746843 0.743940 0.726875 0.735483 0.727801 0.731864 0.724183 0.721342 0.696947 0.679015 0.684407 0.689767 0.720041 0.718420 0.714253 0.710180 0.709253 0.672214 0.661176 0.662770 0.620219 0.628390 0.636252 0.610104 0.606958 0.591902 0.589477 0.596855 0.601068 0.598073 0.614916 0.607805 0.589440 0.582924 0.576749 0.572147 0.561484 0.543510 0.555279 0.538869 0.518382 0.525859 0.522995 0.526656 0.508950 0.488510 0.472496 0.437413 0.427887 0.416966 0.384415 0.367124 0.337579 0.272564 0.249596 0.269528 0.243919 0.231718 0.231052 0.200882 0.211253 0.183352 0.170082 0.173437 0.139160 0.121543 0.102043 0.080986 0.106659 0.122263 0.135363 0.118326 0.122988 0.157417 0.172713 0.159507 0.146274 0.142360 0.142711 0.123904 0.075191 0.044027 0.010655 0.002272 -0.049966 -0.038306 -0.039534 -0.032149 -0.051769 -0.066227 -0.064594 -0.054743 -0.061705 -0.074608 -0.093143 -0.085781 -0.092489 -0.074338 -0.061754 -0.058818 -0.064322 -0.039271 -0.020110 -0.015282 -0.030741 -0.041726 -0.070474 -0.059553 -0.051536 0.014892 0.036269 0.040967 0.105099 0.104996 0.100622 0.093185 0.098809 0.073994 0.113315 0.130911 0.134364 0.135123 0.048667 0.038195 0.038195 0.038195 0.029314 0.029314 0.029314 0.029314 0.029314 0.029314 0.029314 0.029314 0.029314 0.013600 0.013600 0.013600 0.013600 0.013600 0.013600 0.013600 0.013600 0.013600 0.013600 0.013600 0.013600 0.013600 0.013600 0.013600 0.013600 0.013600
0.000000 0.000000 0.000000 0.000000 0.000000 0.000000 0.000000 0.000000 0.000000 0.000000 0.000000 0.000000 0.000000 0.000000 0.000000 0.000000 0.000000 0.000000 0.000000 0.000000 0.000000 0.000000 0.000000 0.000000 0.000000 0.000000 0.000000 0.000000 0.000000 0.000000 0.000000 0.000000 0.000000 0.000000 0.000000 0.000000 0.000000 0.000000 0.000000 0.000000 0.000000 0.000000 0.000000 0.000000 0.000000 0.000000 0.000000 0.000000 0.000000 0.000000 0.000000 0.000000 0.180334 0.180334 0.180334 0.199007 0.199007 0.199007 0.199007 0.199007 0.199007 0.199007 0.199007 0.199007 0.199007 0.199007 0.199007 0.199007 0.199007 0.199007 0.199007 0.199007 0.199007 0.199007 0.199007 0.199007 0.199007 0.199007 0.199007 0.199007 0.199007 0.199007 0.199007 0.199007 0.199007 0.199007 0.199007 0.199007 0.199007 0.199007 0.199007 0.199007 0.199007 0.199007 0.199007 0.199007 0.230940 0.230940 0.230940 0.230940 0.230940 0.230940 0.230940 0.230940 0.230940 0.230940 0.230940 0.230940 0.230940 0.230940 0.230940 0.230940 0.230940 0.230940 0.230940 0.230940 0.230940 0.230940 0.230940 0.230940 0.230940 0.230940 0.230940 0.230940 0.248069 0.248069 0.248069 0.248069 0.248069 0.248069 0.248069 0.248069 0.248069 0.248069 0.248069 0.248069 0.248069 0.248069 0.248069 0.248069 0.248069 0.248069 0.248069 0.248069 0.248069 0.248069 0.251976 0.251976 0.251976 0.251976 0.251976 0.251976 0.251976 0.251976 0.251976 0.251976 0.251976 0.251976 0.251976 0.251976 0.251976 0.251976 0.251976 0.251976 0.251976 0.251976 0.256074 0.256074 0.256074 0.256074 0.256074 0.256074 0.256074 0.256074 0.256074 0.256074 0.256074 0.256074 0.256074 0.256074 0.256074 0.256074 0.256074 0.256074 0.264906 0.264906 0.264906 0.264906 0.264906 0.264906 0.264906 0.264906 0.264906 0.264906 0.264906 0.264906 0.264906 0.264906 0.264906 0.264906 0.264906 0.264906 0.264906 0.264906 0.264906 0.264906 0.264906 0.264906 0.264906 0.264906 0.264906 0.264906 0.264906 0.264906 0.264906 0.274721 0.274721 0.274721 0.274721 0.274721 0.274721 0.274721 0.274721 0.274721 0.274721 0.274721 0.274721 0.274721 0.264906 0.264906 0.264906 0.264906 0.264906 0.264906 0.264906 0.264906 0.264906 0.264906 0.264906 0.264906 0.264906 0.260378 0.260378 0.260378 0.260378 0.260378 0.260378 0.260378 0.260378 0.260378 0.260378 0.260378 0.260378 0.260378 0.264906 0.264906 0.264906 0.264906 0.264906 0.264906 0.264906 0.264906 0.264906 0.264906 0.264906 0.264906 0.269680 0.269680 0.269680 0.269680 0.269680 0.269680 0.269680 0.269680 0.269680 0.269680 0.269680 0.264906 0.264906 0.264906 0.264906 0.264906 0.264906 0.264906 0.264906 0.264906 0.264906 0.264906 0.269680 0.269680 0.269680 0.269680 0.269680 0.269680 0.269680 0.269680 0.269680 0.269680 0.264906 0.264906 0.264906 0.264906 0.264906 0.264906 0.264906 0.264906 0.264906 0.264906 0.260378 0.260378 0.260378 0.260378 0.260378 0.260378 0.260378 0.260378 0.260378 0.260378 0.256074 0.256074 0.256074 0.256074 0.256074 0.256074 0.256074 0.256074 0.256074 0.256074 0.260378 0.260378 0.260378 0.260378 0.260378 0.260378 0.260378 0.260378 0.260378 0.256074 0.256074 0.256074 0.256074 0.256074 0.256074 0.256074 0.256074 0.256074 0.251976 0.251976 0.251976 0.251976 0.251976 0.251976 0.251976 0.251976 0.251976 0.251976 0.251976 0.251976 0.251976 0.251976 0.251976 0.251976 0.251976
