# Output from CTFFind version 4.1.9, run on 2019-11-03 19:28:02
# Input file: stack6_bm3d_averaged_1_3.75_0_1250_half.mrc ; Number of micrographs: 1
# Pixel size: 3.000 Angstroms ; acceleration voltage: 300.0 keV ; spherical aberration: 0.00 mm ; amplitude contrast: 0.07
# Box size: 512 pixels ; min. res.: 30.0 Angstroms ; max. res.: 5.0 Angstroms ; min. def.: 5000.0 um; max. def. 50000.0 um; num. frames averaged: 1
# 6 lines per micrograph: #1 - spatial frequency (1/Angstroms); #2 - 1D rotational average of spectrum (assuming no astigmatism); #3 - 1D rotational average of spectrum; #4 - CTF fit; #5 - cross-correlation between spectrum and CTF fit; #6 - 2sigma of expected cross correlation of noise
0.000000 0.000651 0.001302 0.001953 0.002604 0.003255 0.003906 0.004557 0.005208 0.005859 0.006510 0.007161 0.007812 0.008464 0.009115 0.009766 0.010417 0.011068 0.011719 0.012370 0.013021 0.013672 0.014323 0.014974 0.015625 0.016276 0.016927 0.017578 0.018229 0.018880 0.019531 0.020182 0.020833 0.021484 0.022135 0.022786 0.023438 0.024089 0.024740 0.025391 0.026042 0.026693 0.027344 0.027995 0.028646 0.029297 0.029948 0.030599 0.031250 0.031901 0.032552 0.033203 0.033854 0.034505 0.035156 0.035807 0.036458 0.037109 0.037760 0.038411 0.039062 0.039714 0.040365 0.041016 0.041667 0.042318 0.042969 0.043620 0.044271 0.044922 0.045573 0.046224 0.046875 0.047526 0.048177 0.048828 0.049479 0.050130 0.050781 0.051432 0.052083 0.052734 0.053385 0.054036 0.054688 0.055339 0.055990 0.056641 0.057292 0.057943 0.058594 0.059245 0.059896 0.060547 0.061198 0.061849 0.062500 0.063151 0.063802 0.064453 0.065104 0.065755 0.066406 0.067057 0.067708 0.068359 0.069010 0.069661 0.070312 0.070964 0.071615 0.072266 0.072917 0.073568 0.074219 0.074870 0.075521 0.076172 0.076823 0.077474 0.078125 0.078776 0.079427 0.080078 0.080729 0.081380 0.082031 0.082682 0.083333 0.083984 0.084635 0.085286 0.085938 0.086589 0.087240 0.087891 0.088542 0.089193 0.089844 0.090495 0.091146 0.091797 0.092448 0.093099 0.093750 0.094401 0.095052 0.095703 0.096354 0.097005 0.097656 0.098307 0.098958 0.099609 0.100260 0.100911 0.101562 0.102214 0.102865 0.103516 0.104167 0.104818 0.105469 0.106120 0.106771 0.107422 0.108073 0.108724 0.109375 0.110026 0.110677 0.111328 0.111979 0.112630 0.113281 0.113932 0.114583 0.115234 0.115885 0.116536 0.117188 0.117839 0.118490 0.119141 0.119792 0.120443 0.121094 0.121745 0.122396 0.123047 0.123698 0.124349 0.125000 0.125651 0.126302 0.126953 0.127604 0.128255 0.128906 0.129557 0.130208 0.130859 0.131510 0.132161 0.132812 0.133464 0.134115 0.134766 0.135417 0.136068 0.136719 0.137370 0.138021 0.138672 0.139323 0.139974 0.140625 0.141276 0.141927 0.142578 0.143229 0.143880 0.144531 0.145182 0.145833 0.146484 0.147135 0.147786 0.148438 0.149089 0.149740 0.150391 0.151042 0.151693 0.152344 0.152995 0.153646 0.154297 0.154948 0.155599 0.156250 0.156901 0.157552 0.158203 0.158854 0.159505 0.160156 0.160807 0.161458 0.162109 0.162760 0.163411 0.164062 0.164714 0.165365 0.166016 0.166667 0.167318 0.167969 0.168620 0.169271 0.169922 0.170573 0.171224 0.171875 0.172526 0.173177 0.173828 0.174479 0.175130 0.175781 0.176432 0.177083 0.177734 0.178385 0.179036 0.179688 0.180339 0.180990 0.181641 0.182292 0.182943 0.183594 0.184245 0.184896 0.185547 0.186198 0.186849 0.187500 0.188151 0.188802 0.189453 0.190104 0.190755 0.191406 0.192057 0.192708 0.193359 0.194010 0.194661 0.195312 0.195964 0.196615 0.197266 0.197917 0.198568 0.199219 0.199870 0.200521 0.201172 0.201823 0.202474 0.203125 0.203776 0.204427 0.205078 0.205729 0.206380 0.207031 0.207682 0.208333 0.208984 0.209635 0.210286 0.210938 0.211589 0.212240 0.212891 0.213542 0.214193 0.214844 0.215495 0.216146 0.216797 0.217448 0.218099 0.218750 0.219401 0.220052 0.220703 0.221354 0.222005 0.222656 0.223307 0.223958 0.224609 0.225260 0.225911 0.226562 0.227214 0.227865 0.228516 0.229167 0.229818 0.230469 0.231120 0.231771 0.232422 0.233073 0.233724 0.234375 0.235026 0.235677
       0.30049        0.30049        0.30049        0.30049        0.30049        0.30049        0.30049        0.30049        0.30049        0.30049        0.30049        0.30049        0.30049        0.30049        0.30049        0.30049        0.30049        0.30049        0.30049        0.30049        0.30049        0.30049        0.30049        0.30049        0.30049        0.30049        0.30049        0.30049        0.30049        0.30049        0.30049        0.30049        0.30049        0.30049        0.30049        0.30049        0.30049        0.30049        0.30049        0.30049        0.30049        0.30049        0.30049        0.30049        0.30049        0.30049        0.30049        0.30049        0.30049        0.30049        0.30049        0.61206        0.76077        0.36668        0.22913        0.13895       -0.14475        0.11777        0.02466        0.03877        0.09901        0.32998        0.37436        0.31282        0.18592       -0.02535        0.01133        0.05166       -0.16501       -0.17460       -0.09224       -0.12155       -0.27745       -0.17025       -0.30692       -0.29238       -0.30482       -0.38051       -0.45448       -0.43154       -0.35039       -0.30937       -0.40167       -0.30414       -0.36998       -0.30649       -0.24017       -0.18627       -0.14909       -0.06251       -0.03660        0.08347        0.11867        0.21988        0.32484        0.38850        0.37272        0.47717        0.56637        0.58540        0.66787        0.63504        0.69000        0.60856        0.63976        0.64326        0.57951        0.57899        0.58745        0.39968        0.34078        0.35563        0.34049        0.18340        0.12622        0.07569        0.07075        0.05450       -0.04485        0.01991       -0.02038       -0.06463        0.06618        0.16103        0.26173        0.33245        0.32683        0.38183        0.49732        0.52708        0.47356        0.64940        0.52533        0.50438        0.55645        0.53154        0.51367        0.45853        0.38230        0.34454        0.24278        0.19648        0.15304        0.15511        0.12220        0.06860        0.11242        0.14935        0.18235        0.17058        0.23016        0.26565        0.33417        0.44765        0.42747        0.43044        0.48697        0.53852        0.52731        0.48447        0.37760        0.40338        0.35855        0.27734        0.22739        0.22749        0.18615        0.17128        0.15994        0.18042        0.16039        0.21218        0.26335        0.33376        0.37860        0.39630        0.45206        0.47887        0.44611        0.43358        0.40084        0.40332        0.39603        0.34687        0.28500        0.27243        0.22069        0.24583        0.23463        0.19449        0.22776        0.23343        0.24863        0.32079        0.35469        0.37560        0.38524        0.39477        0.42144        0.41079        0.40784        0.30399        0.29426        0.26029        0.27675        0.23762        0.19798        0.25491        0.31052        0.29604        0.28112        0.32958        0.29042        0.37254        0.34079        0.35257        0.36271        0.35504        0.31491        0.30159        0.28338        0.27630        0.25360        0.24513        0.24968        0.27931        0.28453        0.30964        0.34510        0.36500        0.33246        0.32508        0.34389        0.31135        0.27688        0.28407        0.26427        0.26450        0.26354        0.29301        0.27794        0.26719        0.29905        0.30202        0.32239        0.32606        0.32999        0.27192        0.26715        0.28515        0.27936        0.26605        0.25708        0.22617        0.24477        0.25534        0.25579        0.27168        0.27521        0.31501        0.32903        0.30819        0.30199        0.23074        0.23518        0.26880        0.23188        0.21017        0.25963        0.31115        0.24773        0.29588        0.29631        0.29243        0.31370        0.26542        0.28029        0.28595        0.27119        0.26230        0.22572        0.24723        0.24405        0.28754        0.29558        0.30646        0.29811        0.32190        0.24501        0.29809        0.28949        0.22224        0.29087        0.26878        0.28667        0.29056        0.30292        0.30486        0.34392        0.28767        0.24490        0.24489        0.21676        0.24314        0.27802        0.29775        0.27661        0.27709        0.26992        0.26719        0.26183        0.27544        0.22754        0.27047        0.24632        0.23666        0.23402        0.29776        0.30242        0.27349        0.27373        0.22614        0.28978        0.23168        0.20011        0.22894        0.27617        0.26977        0.31065        0.24360        0.21084        0.25828        0.22780        0.23705        0.19433        0.20720        0.20163        0.25830        0.25641        0.19896        0.26136        0.23481        0.29098        0.23427        0.22934        0.24592        0.20886        0.13229        0.18004        0.13224        0.16583        0.18056        0.09662        0.29942        0.13342        0.06492        0.11823        0.11490        0.21361        0.23258       -0.01863       -0.70658       -0.98721
3.005998 2.976229 2.946612 2.917148 2.887836 2.858678 2.829671 2.800818 2.772117 2.743569 2.715174 2.686931 2.658841 2.630904 2.603119 2.575487 2.548008 2.520681 2.493507 2.466486 2.439617 2.412901 2.386338 2.359927 2.333669 2.307564 2.281611 2.255812 2.230164 2.204670 2.179328 2.154139 2.129103 2.104219 2.079488 2.054909 2.030483 2.006210 1.982090 1.958122 1.934307 1.910645 1.887135 1.863778 1.840574 1.817522 1.794623 1.771877 1.749283 1.726843 1.704554 2.046260 2.381689 1.742327 1.699845 1.384131 0.857214 1.243083 1.099298 1.141290 0.998594 1.597482 1.527750 1.522545 1.269143 0.938985 0.775813 1.018039 0.748349 0.431188 0.568567 0.665833 0.392762 0.460111 0.282022 0.242416 0.160491 0.154582 -0.098808 -0.045433 0.054632 0.039855 0.009440 0.108528 -0.055653 -0.007005 0.131011 0.201767 0.248461 0.326264 0.353099 0.634863 0.535643 0.678757 0.910483 0.960390 0.918463 1.177879 1.187406 1.265745 1.349122 1.219931 1.436942 1.195619 1.189931 1.355550 1.147150 1.082301 1.195277 0.934192 0.672444 0.699903 0.746311 0.448559 0.377096 0.256997 0.187662 0.150573 0.008045 0.127600 0.029753 -0.087725 0.075948 0.213837 0.333911 0.501515 0.517094 0.518311 0.717629 0.808117 0.597214 0.982202 0.874315 0.634695 0.782339 0.692858 0.735576 0.696167 0.442425 0.464573 0.268236 0.193193 0.127785 0.000478 0.052472 -0.094562 -0.033895 -0.029249 0.099473 -0.039213 0.208994 0.153381 0.199022 0.395419 0.472145 0.407947 0.382990 0.609575 0.608117 0.488301 0.350095 0.343966 0.322535 0.178795 0.062265 0.046417 0.020360 -0.025031 -0.083134 -0.046464 -0.109660 0.013901 0.012950 0.130722 0.236996 0.239476 0.360461 0.346012 0.404497 0.361255 0.434974 0.365728 0.265670 0.341689 0.141028 0.182671 0.051080 0.090976 0.045939 0.037649 -0.046797 0.060603 0.034801 0.116556 0.232274 0.243080 0.257028 0.272856 0.324296 0.323302 0.322313 0.209579 0.095651 0.131874 0.050153 0.058172 -0.031176 -0.034161 0.076111 0.127429 0.096119 0.090503 0.118181 0.178325 0.203158 0.160682 0.190183 0.220622 0.138394 0.113164 0.079559 0.059097 0.063305 -0.031966 0.028880 0.063115 0.010524 0.100925 0.116284 0.197009 0.210216 0.155184 0.131453 0.173041 0.088246 0.059995 0.086916 0.024176 0.021662 0.067563 0.074399 0.062867 0.030988 0.120800 0.093696 0.138987 0.146039 0.112546 0.066846 0.020930 0.077977 0.045349 0.052641 -0.007764 -0.038980 0.012631 0.001899 0.011706 0.068247 0.013798 0.112504 0.148402 0.052159 0.067784 -0.053715 0.008555 0.023099 -0.061539 -0.065272 0.054367 0.079078 -0.037386 0.071057 0.052788 0.081757 0.057062 -0.003143 0.010707 0.098894 -0.049718 0.015681 -0.048070 -0.011474 -0.046215 0.062059 0.050784 0.060664 0.029854 0.112812 -0.055182 0.069882 -0.007945 -0.069136 0.042968 -0.015395 0.028958 0.009846 0.104056 0.050614 0.069830 0.039062 -0.114889 -0.021026 -0.114035 -0.018919 0.011926 0.017362 0.010109 -0.029353 0.001905 -0.014805 -0.052391 -0.009803 -0.128348 -0.002989 -0.053555 -0.091843 -0.043109 0.027660 0.002956 -0.001916 0.021917 -0.051449 0.057108 -0.033322 -0.106947 -0.029989 0.052482 0.064945 0.084237 -0.000003 -0.034270 0.049675 0.007470 -0.056379 -0.007652 -0.101197 0.012752 0.088952 0.065195 -0.025481 0.114890 0.047865 0.219375 0.018799 0.109584 0.114932 0.070919 -0.122740 0.050773 -0.106513 0.089387 0.045244 -0.016616 0.484881 0.161094 0.100003 0.247564 0.211535 0.300287 0.318327 -0.016961 -1.580252
0.072396 0.072835 0.074150 0.076341 0.079409 0.083352 0.088170 0.093860 0.100423 0.107855 0.116154 0.125318 0.135342 0.146222 0.157952 0.170526 0.183937 0.198176 0.213232 0.229093 0.245746 0.263175 0.281363 0.300288 0.319929 0.340261 0.361254 0.382878 0.405098 0.427877 0.451171 0.474936 0.499121 0.523673 0.548533 0.573637 0.598918 0.624302 0.649712 0.675066 0.700273 0.725242 0.749873 0.774063 0.797703 0.820680 0.842873 0.864161 0.884416 0.903506 0.921295 0.937646 0.952417 0.965466 0.976648 0.985817 0.992829 0.997540 0.999808 0.999494 0.996463 0.990586 0.981741 0.969812 0.954695 0.936295 0.914530 0.889331 0.860646 0.828439 0.792693 0.753411 0.710617 0.664360 0.614711 0.561769 0.505660 0.446537 0.384584 0.320014 0.253069 0.184025 0.113186 0.040888 0.032504 0.106595 0.180963 0.255159 0.328710 0.401123 0.471884 0.540465 0.606325 0.668918 0.727694 0.782103 0.831605 0.875674 0.913801 0.945505 0.970337 0.987884 0.997784 0.999723 0.993450 0.978778 0.955591 0.923853 0.883612 0.835000 0.778245 0.713667 0.641686 0.562817 0.477675 0.386970 0.291507 0.192178 0.089959 0.014098 0.118876 0.223199 0.325851 0.425585 0.521137 0.611248 0.694677 0.770218 0.836725 0.893125 0.938443 0.971818 0.992523 0.999983 0.993791 0.973726 0.939763 0.892082 0.831080 0.757376 0.671806 0.575425 0.469499 0.355497 0.235066 0.110026 0.017666 0.145939 0.272641 0.395572 0.512526 0.621328 0.719878 0.806198 0.878468 0.935077 0.974657 0.996128 0.998728 0.982045 0.946039 0.891063 0.817870 0.727614 0.621845 0.502489 0.371827 0.232452 0.087229 0.060760 0.208277 0.352001 0.488598 0.614802 0.727498 0.823799 0.901131 0.957308 0.990602 0.999806 0.984283 0.944010 0.879597 0.792300 0.684010 0.557226 0.415015 0.260942 0.098995 0.066513 0.231055 0.390007 0.538787 0.672983 0.788489 0.881649 0.949368 0.989240 0.999641 0.979804 0.929880 0.850964 0.745090 0.615201 0.465088 0.299289 0.122971 0.058229 0.238369 0.411399 0.571368 0.712624 0.830036 0.919179 0.976525 0.999593 0.987079 0.938939 0.856431 0.742116 0.599798 0.434422 0.251920 0.059020 0.137005 0.328586 0.508167 0.668495 0.802927 0.905720 0.972291 0.999445 0.985549 0.930649 0.836520 0.706641 0.546099 0.361411 0.160289 0.048674 0.256357 0.453498 0.631124 0.780956 0.895818 0.969998 0.999558 0.982572 0.919277 0.812117 0.665694 0.486602 0.283163 0.065057 0.157107 0.372317 0.569689 0.739030 0.871381 0.959514 0.998354 0.985307 0.920464 0.806666 0.649429 0.456713 0.238561 0.006588 0.226598 0.448097 0.645415 0.807191 0.923868 0.988294 0.996193 0.946491 0.841459 0.686667 0.490732 0.264887 0.022361 0.222364 0.454420 0.659445 0.824500 0.938905 0.994968 0.988544 0.919390 0.791275 0.611832 0.392166 0.146184 0.110215 0.360188 0.587026 0.775287 0.911879 0.987002 0.994902 0.934366 0.808907 0.626633 0.399787 0.143959 0.122927 0.381871 0.614127 0.802587 0.933063 0.995409 0.984356 0.900026 0.748033 0.539193 0.288811 0.015614 0.259628 0.515650 0.732356 0.892412 0.982684 0.995368 0.928735 0.787401 0.582092 0.328898 0.048073 0.237538 0.504350 0.729992 0.895196 0.985502 0.992588 0.915106 0.758946 0.536885 0.267605 0.025805 0.317792 0.582559 0.796343 0.939597 0.998837 0.967977 0.849046 0.652158 0.394758 0.100129 0.204628 0.491098 0.732162 0.904630 0.991512 0.983773 0.881365 0.693406 0.437472 0.138046 0.175768 0.473042 0.724062 0.903337
1.000000 1.000000 1.000000 1.000000 1.000000 1.000000 1.000000 1.000000 1.000000 1.000000 1.000000 1.000000 1.000000 1.000000 1.000000 1.000000 1.000000 1.000000 1.000000 1.000000 1.000000 1.000000 1.000000 1.000000 1.000000 1.000000 1.000000 1.000000 1.000000 1.000000 1.000000 1.000000 1.000000 1.000000 1.000000 1.000000 1.000000 1.000000 1.000000 1.000000 1.000000 1.000000 1.000000 1.000000 1.000000 1.000000 1.000000 1.000000 1.000000 1.000000 1.000000 1.000000 0.829200 0.829200 0.829200 0.829200 0.829200 0.829200 0.829200 0.802763 0.802763 0.802763 0.802763 0.802763 0.802763 0.802763 0.802763 0.802763 0.802763 0.802763 0.802763 0.802763 0.802763 0.802763 0.802763 0.802763 0.802763 0.802763 0.802763 0.802763 0.802763 0.802763 0.802763 0.802763 0.802763 0.802763 0.802763 0.802763 0.802763 0.802763 0.802763 0.802763 0.802763 0.802763 0.802763 0.802763 0.802763 0.802763 0.802763 0.802763 0.802763 0.802763 0.802763 0.945595 0.946464 0.946845 0.947485 0.945890 0.945584 0.943872 0.942967 0.945655 0.945866 0.945819 0.946760 0.947316 0.948481 0.949924 0.951827 0.952260 0.960450 0.964233 0.963628 0.963399 0.962446 0.976214 0.976144 0.975887 0.975817 0.975921 0.975906 0.975828 0.975748 0.976361 0.975690 0.976102 0.976032 0.975676 0.975096 0.974894 0.974539 0.973941 0.974272 0.974998 0.975067 0.975525 0.978131 0.977210 0.977818 0.976441 0.975732 0.970951 0.968996 0.967148 0.967496 0.968880 0.966821 0.964908 0.965784 0.964062 0.963982 0.963919 0.964182 0.964450 0.962992 0.963078 0.963102 0.963918 0.960892 0.948601 0.946368 0.943040 0.944237 0.946342 0.948833 0.948668 0.948196 0.946430 0.940322 0.936606 0.925067 0.922123 0.917801 0.917446 0.918132 0.919121 0.917735 0.917343 0.915781 0.915239 0.912146 0.915078 0.913609 0.911907 0.905171 0.904022 0.902549 0.903946 0.906062 0.907131 0.903504 0.899118 0.886463 0.870919 0.869847 0.869262 0.876215 0.870852 0.869787 0.869895 0.852928 0.850134 0.840675 0.839592 0.840865 0.841797 0.842675 0.845356 0.844892 0.835558 0.825603 0.821049 0.818637 0.821662 0.831183 0.833503 0.830405 0.820911 0.817693 0.794320 0.795017 0.797939 0.793401 0.799257 0.782102 0.781937 0.773291 0.774507 0.770382 0.764338 0.763931 0.743366 0.748082 0.751620 0.756257 0.756126 0.741496 0.734226 0.694959 0.701200 0.682203 0.691358 0.692191 0.680209 0.668971 0.670163 0.673074 0.668297 0.672142 0.651059 0.639358 0.621639 0.617058 0.624576 0.593908 0.602013 0.600927 0.594013 0.585982 0.598673 0.610789 0.614280 0.593673 0.592081 0.580877 0.548488 0.523584 0.505994 0.493939 0.497921 0.513859 0.513717 0.521778 0.508163 0.481334 0.452951 0.462045 0.466611 0.457565 0.453243 0.444427 0.433114 0.448999 0.433345 0.456971 0.450381 0.443712 0.412953 0.336129 0.310761 0.267275 0.283381 0.288841 0.290029 0.286148 0.286901 0.266610 0.207546 0.203447 0.205699 0.226971 0.196155 0.162691 0.175058 0.171526 0.169704 0.166758 0.167736 0.217550 0.208083 0.234705 0.233210 0.176483 0.152266 0.091859 0.095767 0.097791 0.128478 0.152637 0.143077 0.115074 0.018496 0.044522 0.077874 0.077874 0.077874 0.077874 0.077874 0.077874 0.077874 0.077874 0.077874 0.077874 0.077874 0.003479 0.003479 0.003479 0.003479 0.003479 0.003479 0.003479 0.003479 0.003479 0.003479 0.003479 0.003479 0.003479 0.003479 0.003479 0.003479 0.003479 0.003479 0.003479
0.000000 0.000000 0.000000 0.000000 0.000000 0.000000 0.000000 0.000000 0.000000 0.000000 0.000000 0.000000 0.000000 0.000000 0.000000 0.000000 0.000000 0.000000 0.000000 0.000000 0.000000 0.000000 0.000000 0.000000 0.000000 0.000000 0.000000 0.000000 0.000000 0.000000 0.000000 0.000000 0.000000 0.000000 0.000000 0.000000 0.000000 0.000000 0.000000 0.000000 0.000000 0.000000 0.000000 0.000000 0.000000 0.000000 0.000000 0.000000 0.000000 0.000000 0.000000 0.000000 0.173422 0.173422 0.173422 0.173422 0.173422 0.173422 0.173422 0.191565 0.191565 0.191565 0.191565 0.191565 0.191565 0.191565 0.191565 0.191565 0.191565 0.191565 0.191565 0.191565 0.191565 0.191565 0.191565 0.191565 0.191565 0.191565 0.191565 0.191565 0.191565 0.191565 0.191565 0.191565 0.191565 0.191565 0.191565 0.191565 0.191565 0.191565 0.191565 0.191565 0.191565 0.191565 0.191565 0.191565 0.191565 0.191565 0.191565 0.191565 0.191565 0.191565 0.191565 0.219529 0.219529 0.219529 0.219529 0.219529 0.219529 0.219529 0.219529 0.219529 0.219529 0.219529 0.219529 0.219529 0.219529 0.219529 0.219529 0.219529 0.219529 0.219529 0.219529 0.219529 0.219529 0.219529 0.219529 0.219529 0.219529 0.219529 0.219529 0.219529 0.219529 0.219529 0.237356 0.237356 0.237356 0.237356 0.237356 0.237356 0.237356 0.237356 0.237356 0.237356 0.237356 0.237356 0.237356 0.237356 0.237356 0.237356 0.237356 0.237356 0.237356 0.237356 0.237356 0.237356 0.237356 0.237356 0.244339 0.244339 0.244339 0.244339 0.244339 0.244339 0.244339 0.244339 0.244339 0.244339 0.244339 0.244339 0.244339 0.244339 0.244339 0.244339 0.244339 0.244339 0.244339 0.244339 0.244339 0.248069 0.248069 0.248069 0.248069 0.248069 0.248069 0.248069 0.248069 0.248069 0.248069 0.248069 0.248069 0.248069 0.248069 0.248069 0.248069 0.248069 0.248069 0.248069 0.248069 0.248069 0.248069 0.248069 0.248069 0.248069 0.248069 0.248069 0.248069 0.248069 0.248069 0.248069 0.248069 0.248069 0.248069 0.248069 0.248069 0.248069 0.256074 0.256074 0.256074 0.256074 0.256074 0.256074 0.256074 0.256074 0.256074 0.256074 0.256074 0.256074 0.256074 0.256074 0.256074 0.256074 0.256074 0.256074 0.256074 0.256074 0.256074 0.256074 0.256074 0.256074 0.256074 0.256074 0.256074 0.256074 0.256074 0.256074 0.256074 0.256074 0.256074 0.256074 0.256074 0.256074 0.256074 0.256074 0.256074 0.256074 0.256074 0.256074 0.256074 0.256074 0.256074 0.260378 0.260378 0.260378 0.260378 0.260378 0.260378 0.260378 0.260378 0.260378 0.260378 0.260378 0.260378 0.260378 0.256074 0.256074 0.256074 0.256074 0.256074 0.256074 0.256074 0.256074 0.256074 0.256074 0.256074 0.256074 0.256074 0.260378 0.260378 0.260378 0.260378 0.260378 0.260378 0.260378 0.260378 0.260378 0.260378 0.260378 0.260378 0.251976 0.251976 0.251976 0.251976 0.251976 0.251976 0.251976 0.251976 0.251976 0.251976 0.251976 0.251976 0.256074 0.256074 0.256074 0.256074 0.256074 0.256074 0.256074 0.256074 0.256074 0.256074 0.256074 0.251976 0.251976 0.251976 0.251976 0.251976 0.251976 0.251976 0.251976 0.251976 0.251976 0.251976 0.248069 0.248069 0.248069 0.248069 0.248069 0.248069 0.248069 0.248069 0.248069 0.248069 0.248069 0.256074 0.256074 0.256074 0.256074 0.256074 0.256074 0.256074 0.256074 0.256074 0.256074 0.256074 0.256074 0.256074 0.256074 0.256074 0.256074 0.256074 0.256074 0.256074
